RamanScope Measure Spectrum Data V3.72

<< MEASURE CONDITION >>
Exposure Type,Aver
Exposure Time [sec],15
Exposure Count,30
Measure Time,2023/07/11 21:39:00
Data Name,""
Data Comment,""
Rayleigh Wave[nm],532.0

<< SAMPLE SPECTRUM >>
Wave[dcm-1],No2
146.591,923.37
147.626,1074.10
148.664,1195.67
149.699,1387.60
150.737,1526.83
151.772,1697.07
152.809,1783.23
153.846,1929.67
154.881,2035.10
155.918,2158.40
156.953,2249.50
157.989,2311.43
159.026,2332.50
160.060,2363.53
161.096,2467.53
162.130,2509.27
163.167,2526.30
164.200,2531.70
165.236,2612.30
166.272,2644.07
167.305,2742.30
168.341,2748.43
169.374,2835.03
170.409,2837.83
171.445,2947.23
172.477,2936.40
173.512,3003.47
174.545,3036.03
175.580,3034.20
176.614,3002.97
177.647,3021.10
178.681,2987.77
179.713,2999.83
180.747,2985.67
181.781,2977.70
182.813,2992.80
183.847,2989.50
184.878,2987.47
185.912,3018.33
186.945,3058.17
187.976,3056.07
189.010,3026.57
190.043,3072.60
191.073,3130.63
192.106,3176.30
193.137,3186.50
194.170,3191.67
195.202,3223.20
196.232,3266.60
197.265,3322.70
198.297,3371.33
199.327,3434.73
200.359,3468.07
201.388,3483.07
202.420,3579.23
203.452,3646.50
204.481,3691.70
205.512,3749.40
206.544,3841.37
207.573,3942.53
208.604,3974.93
209.635,4060.47
210.663,4156.60
211.694,4192.60
212.725,4294.63
213.753,4326.07
214.783,4330.50
215.813,4358.97
216.841,4384.30
217.871,4350.00
218.899,4338.33
219.929,4255.70
220.959,4217.00
221.986,4116.00
223.016,4124.60
224.045,4090.73
225.072,3985.93
226.101,3929.87
227.130,3864.40
228.157,3828.50
229.185,3818.97
230.214,3796.57
231.241,3733.90
232.269,3728.80
233.297,3769.03
234.323,3744.23
235.351,3704.07
236.379,3668.37
237.407,3688.30
238.433,3687.43
239.460,3705.77
240.488,3693.40
241.513,3675.53
242.540,3724.93
243.568,3712.33
244.592,3708.73
245.619,3714.23
246.646,3715.80
247.671,3745.73
248.697,3802.83
249.724,3764.33
250.748,3773.33
251.774,3803.30
252.801,3838.53
253.827,3862.97
254.850,3905.60
255.876,3915.90
256.902,3969.53
257.925,3945.93
258.951,4031.80
259.976,4115.77
260.999,4122.67
262.024,4149.17
263.049,4184.00
264.074,4223.63
265.097,4341.53
266.122,4297.13
267.146,4362.43
268.168,4412.93
269.193,4421.40
270.217,4500.77
271.241,4447.50
272.263,4480.20
273.287,4492.03
274.311,4520.13
275.332,4503.80
276.356,4477.37
277.379,4400.23
278.402,4409.53
279.424,4381.27
280.447,4386.03
281.470,4235.37
282.492,4211.33
283.513,4176.10
284.536,4115.83
285.558,4107.23
286.581,4049.57
287.601,3963.33
288.623,3925.90
289.645,3877.13
290.665,3848.47
291.687,3823.23
292.709,3768.43
293.730,3739.47
294.750,3697.17
295.771,3626.20
296.792,3675.90
297.813,3576.30
298.832,3547.23
299.853,3509.90
300.874,3460.10
301.895,3428.33
302.913,3407.13
303.934,3404.77
304.954,3378.40
305.975,3414.37
306.993,3355.07
308.013,3310.13
309.033,3326.33
310.052,3259.23
311.072,3300.57
312.090,3219.50
313.109,3231.50
314.129,3286.07
315.148,3221.03
316.165,3240.83
317.184,3238.50
318.203,3142.00
319.222,3211.97
320.238,3135.33
321.257,3181.87
322.275,3183.40
323.294,3160.23
324.312,3133.77
325.328,3179.57
326.346,3197.13
327.364,3200.63
328.382,3200.23
329.397,3173.90
330.415,3154.03
331.432,3156.93
332.450,3136.17
333.467,3131.37
334.482,3108.67
335.499,3097.93
336.516,3143.53
337.533,3105.03
338.547,3151.77
339.564,3103.80
340.580,3102.53
341.597,3121.47
342.613,3136.23
343.627,3130.67
344.643,3133.63
345.659,3118.17
346.675,3128.87
347.690,3129.70
348.704,3128.67
349.719,3126.03
350.735,3117.53
351.750,3137.07
352.765,3195.73
353.778,3155.03
354.793,3153.97
355.808,3158.37
356.822,3138.97
357.837,3154.67
358.851,3196.07
359.864,3196.23
360.878,3175.20
361.892,3189.60
362.906,3201.40
363.920,3250.23
364.932,3218.07
365.945,3213.13
366.959,3196.43
367.972,3232.17
368.986,3242.87
369.999,3257.80
371.010,3259.00
372.023,3246.20
373.036,3302.23
374.049,3296.53
375.061,3282.30
376.072,3271.03
377.084,3302.67
378.097,3308.23
379.109,3270.13
380.121,3261.63
381.133,3260.00
382.143,3274.10
383.155,3298.30
384.166,3293.13
385.178,3258.73
386.189,3212.70
387.201,3207.00
388.212,3219.87
389.221,3218.27
390.232,3179.73
391.243,3161.47
392.254,3149.50
393.264,3129.77
394.275,3136.13
395.283,3115.03
396.294,3101.10
397.304,3038.80
398.314,3062.87
399.324,3035.10
400.334,2975.10
401.344,2969.90
402.351,2943.37
403.361,2964.07
404.370,2923.23
405.380,2932.07
406.389,2915.20
407.398,2848.13
408.407,2908.90
409.414,2848.40
410.423,2836.53
411.431,2815.13
412.440,2828.07
413.448,2848.47
414.457,2767.13
415.465,2741.60
416.471,2743.93
417.479,2724.50
418.487,2738.63
419.495,2750.40
420.503,2727.93
421.510,2652.80
422.518,2634.00
423.525,2654.73
424.530,2647.57
425.537,2638.77
426.544,2629.57
427.551,2637.73
428.558,2623.17
429.565,2641.00
430.571,2615.60
431.578,2570.37
432.582,2573.33
433.588,2622.10
434.595,2593.43
435.601,2588.27
436.607,2553.77
437.612,2462.03
438.618,2601.93
439.624,2560.30
440.627,2539.10
441.633,2527.73
442.638,2515.67
443.643,2542.73
444.648,2562.33
445.653,2496.27
446.658,2509.07
447.663,2523.93
448.667,2495.73
449.672,2471.77
450.674,2534.57
451.678,2530.83
452.682,2483.30
453.687,2509.47
454.690,2494.77
455.694,2495.83
456.698,2503.30
457.702,2475.10
458.705,2502.20
459.709,2515.67
460.710,2552.50
461.713,2468.50
462.716,2471.30
463.719,2493.70
464.722,2515.27
465.725,2544.40
466.727,2515.43
467.730,2483.07
468.732,2456.27
469.735,2501.70
470.737,2526.00
471.737,2508.47
472.739,2512.23
473.741,2477.93
474.742,2489.90
475.744,2520.47
476.746,2455.30
477.747,2464.53
478.748,2473.47
479.750,2521.67
480.751,2491.83
481.752,2461.70
482.753,2467.70
483.751,2412.90
484.752,2464.23
485.753,2474.13
486.753,2472.20
487.753,2474.07
488.754,2410.10
489.754,2466.80
490.754,2457.20
491.754,2452.67
492.754,2475.27
493.753,2386.73
494.753,2456.77
495.752,2414.67
496.752,2413.87
497.749,2432.20
498.748,2378.80
499.747,2389.83
500.746,2393.87
501.745,2407.43
502.744,2419.77
503.742,2397.20
504.741,2342.23
505.739,2339.60
506.737,2435.63
507.735,2423.40
508.734,2414.83
509.732,2359.87
510.729,2364.00
511.727,2393.37
512.725,2369.60
513.720,2349.50
514.718,2403.90
515.715,2351.07
516.712,2347.63
517.709,2350.90
518.706,2341.20
519.703,2341.13
520.700,2363.97
521.696,2330.13
522.693,2402.13
523.689,2379.17
524.686,2317.97
525.682,2365.00
526.678,2358.07
527.674,2375.53
528.670,2360.40
529.666,2403.63
530.661,2400.67
531.657,2380.77
532.652,2386.30
533.648,2403.63
534.641,2370.97
535.636,2338.63
536.631,2348.67
537.626,2351.90
538.621,2390.07
539.616,2353.90
540.610,2338.70
541.605,2347.90
542.599,2367.07
543.593,2335.43
544.587,2338.03
545.581,2374.03
546.575,2384.30
547.569,2370.97
548.563,2361.00
549.557,2373.53
550.550,2342.37
551.543,2331.73
552.537,2367.80
553.530,2385.83
554.523,2340.17
555.516,2364.07
556.509,2329.20
557.502,2369.80
558.494,2316.30
559.487,2367.50
560.479,2339.63
561.472,2309.03
562.464,2326.67
563.456,2387.10
564.448,2379.00
565.440,2344.30
566.432,2349.80
567.423,2367.13
568.415,2400.93
569.404,2391.30
570.396,2340.23
571.387,2349.10
572.378,2374.80
573.369,2387.90
574.360,2367.90
575.351,2347.70
576.341,2347.77
577.332,2311.23
578.323,2360.20
579.313,2354.00
580.303,2353.83
581.293,2349.47
582.283,2338.53
583.273,2396.60
584.263,2357.50
585.253,2350.70
586.243,2303.70
587.232,2294.50
588.222,2308.40
589.211,2338.57
590.200,2329.13
591.189,2336.60
592.178,2321.37
593.167,2276.33
594.156,2246.43
595.145,2329.60
596.133,2273.83
597.122,2274.63
598.110,2263.63
599.098,2242.07
600.086,2258.00
601.074,2262.60
602.062,2209.70
603.050,2199.87
604.038,2173.60
605.025,2207.67
606.013,2248.80
607.000,2232.13
607.987,2221.47
608.975,2202.50
609.962,2185.97
610.949,2202.83
611.936,2167.73
612.922,2159.17
613.909,2095.00
614.895,2163.00
615.882,2203.90
616.868,2070.90
617.854,2122.47
618.841,2060.33
619.826,2079.70
620.812,2077.37
621.798,2105.17
622.784,2057.60
623.769,2081.17
624.755,2047.57
625.740,2062.67
626.725,2023.27
627.711,2036.23
628.698,2057.33
629.683,2012.60
630.667,1985.10
631.652,1979.87
632.637,2025.80
633.621,1960.20
634.606,1972.83
635.590,1985.63
636.574,1978.53
637.558,1958.67
638.542,1911.10
639.526,1950.67
640.510,1933.77
641.493,1924.93
642.477,1965.53
643.460,1872.70
644.444,1895.83
645.427,1921.03
646.410,1862.47
647.393,1861.70
648.376,1891.13
649.359,1832.37
650.341,1868.43
651.324,1847.40
652.307,1831.73
653.289,1825.57
654.271,1824.00
655.253,1817.77
656.235,1840.70
657.217,1811.33
658.199,1834.10
659.181,1853.93
660.163,1761.97
661.144,1766.63
662.126,1831.53
663.107,1820.87
664.088,1871.03
665.069,1754.23
666.050,1740.20
667.033,1758.03
668.014,1736.87
668.995,1731.03
669.975,1721.80
670.956,1735.80
671.936,1728.87
672.916,1717.73
673.896,1688.90
674.876,1712.23
675.856,1683.40
676.836,1656.83
677.816,1672.00
678.795,1722.33
679.775,1663.87
680.754,1670.30
681.734,1640.33
682.713,1659.57
683.692,1668.57
684.671,1653.83
685.650,1635.13
686.629,1609.23
687.607,1625.17
688.586,1621.30
689.564,1599.40
690.543,1620.70
691.523,1580.00
692.501,1592.33
693.479,1570.13
694.457,1616.53
695.435,1612.80
696.413,1567.13
697.390,1580.73
698.368,1557.77
699.345,1559.50
700.322,1596.20
701.300,1530.73
702.277,1539.03
703.254,1525.13
704.231,1530.73
705.207,1547.20
706.184,1522.20
707.161,1534.77
708.137,1509.50
709.113,1528.30
710.090,1524.97
711.068,1515.00
712.044,1509.87
713.020,1510.40
713.996,1459.60
714.971,1496.83
715.947,1539.87
716.922,1493.73
717.898,1453.03
718.873,1510.07
719.848,1499.40
720.823,1496.43
721.798,1513.00
722.773,1512.03
723.748,1487.27
724.723,1486.60
725.697,1500.77
726.672,1482.77
727.646,1485.53
728.622,1483.83
729.596,1558.83
730.570,1466.47
731.544,1468.33
732.518,1492.80
733.492,1451.90
734.466,1443.57
735.439,1454.93
736.413,1449.30
737.386,1440.63
738.359,1446.27
739.332,1443.07
740.305,1462.70
741.278,1437.73
742.251,1436.43
743.224,1441.90
744.196,1436.53
745.171,1414.93
746.143,1473.83
747.115,1427.17
748.087,1431.40
749.059,1403.90
750.031,1397.40
751.003,1436.77
751.975,1447.77
752.947,1401.83
753.918,1395.93
754.890,1378.23
755.861,1414.77
756.832,1363.80
757.803,1366.60
758.774,1245.27
759.747,781.07
760.718,1244.77
761.689,1393.83
762.659,1388.27
763.630,1401.83
764.600,1372.40
765.570,1382.20
766.540,1361.53
767.510,1424.37
768.480,1355.27
769.450,1357.47
770.420,1369.60
771.390,1352.50
772.359,1379.87
773.329,1351.43
774.300,1333.43
775.269,1340.77
776.238,1348.13
777.207,1306.07
778.176,1354.57
779.145,1313.17
780.114,1349.17
781.083,1313.77
782.051,1320.37
783.019,1363.23
783.988,1307.10
784.956,1276.53
785.924,1312.00
786.894,1272.43
787.862,1280.03
788.830,1304.60
789.797,1278.03
790.765,1288.90
791.732,1270.37
792.700,1262.83
793.667,1260.03
794.634,1227.50
795.601,1251.20
796.568,1281.03
797.535,1270.47
798.502,1235.97
799.468,1238.27
800.437,1206.53
801.403,1205.70
802.370,1246.63
803.336,1202.30
804.302,1204.40
805.268,1224.53
806.234,1227.53
807.200,1210.90
808.166,1244.17
809.131,1223.33
810.097,1225.83
811.062,1148.67
812.027,1193.57
812.994,1202.90
813.960,1184.17
814.925,1227.33
815.889,1157.73
816.854,1185.13
817.819,1189.37
818.783,1198.83
819.748,1148.87
820.712,1205.67
821.677,1188.10
822.641,1173.97
823.605,1168.93
824.571,1182.90
825.534,1178.40
826.498,1188.10
827.462,1178.73
828.425,1188.13
829.389,1238.30
830.352,1210.93
831.315,1146.97
832.279,1154.60
833.242,1195.40
834.204,1204.80
835.167,1197.87
836.132,1188.70
837.095,1178.77
838.057,1141.23
839.020,1191.77
839.982,1147.30
840.944,1177.23
841.906,1185.73
842.868,1188.47
843.830,1153.37
844.792,1187.67
845.753,1171.70
846.715,1163.60
847.679,1205.73
848.640,1148.93
849.601,1161.67
850.562,1199.37
851.523,1171.13
852.484,1197.53
853.445,1126.80
854.406,1142.07
855.367,1218.43
856.327,1210.00
857.288,1171.00
858.248,1208.63
859.210,1155.07
860.170,1177.77
861.130,1200.27
862.090,1160.83
863.050,1158.33
864.010,1163.63
864.969,1178.33
865.929,1154.67
866.888,1180.30
867.848,1153.50
868.807,1202.87
869.766,1162.47
870.727,1190.17
871.686,1164.40
872.645,1191.20
873.604,1139.03
874.562,1175.97
875.521,1214.20
876.479,1105.17
877.437,1164.90
878.396,1169.00
879.354,1170.87
880.312,1151.37
881.270,1188.53
882.229,1203.63
883.187,1175.03
884.145,1170.63
885.102,1181.70
886.059,1206.07
887.017,1216.97
887.974,1206.93
888.931,1159.53
889.888,1202.77
890.845,1208.30
891.802,1183.57
892.758,1205.30
893.717,1179.23
894.673,1171.33
895.630,1221.57
896.586,1159.50
897.542,1179.90
898.498,1175.93
899.454,1186.63
900.410,1231.73
901.366,1208.37
902.321,1227.70
903.277,1231.53
904.232,1184.93
905.189,1179.70
906.145,1185.97
907.100,1209.50
908.055,1181.60
909.010,1212.60
909.965,1219.97
910.919,1206.03
911.874,1161.07
912.828,1178.83
913.783,1278.87
914.737,1215.23
915.693,1198.67
916.648,1241.63
917.602,1185.60
918.555,1226.73
919.509,1228.67
920.463,1249.83
921.417,1259.23
922.370,1243.07
923.324,1236.67
924.277,1215.03
925.230,1292.37
926.183,1217.03
927.138,1213.83
928.091,1230.03
929.044,1246.53
929.996,1237.00
930.949,1252.53
931.902,1241.47
932.854,1222.13
933.806,1268.83
934.758,1245.63
935.711,1283.13
936.663,1217.27
937.614,1260.70
938.568,1245.43
939.520,1230.27
940.471,1241.93
941.423,1234.50
942.374,1248.27
943.326,1261.33
944.277,1260.27
945.228,1211.97
946.179,1264.60
947.130,1228.00
948.080,1229.93
949.031,1224.17
949.984,1215.63
950.934,1206.23
951.884,1208.20
952.835,1213.23
953.785,1218.90
954.735,1206.93
955.685,1249.63
956.635,1254.23
957.585,1239.23
958.534,1241.93
959.484,1218.90
960.433,1214.43
961.383,1218.10
962.334,1232.40
963.283,1238.03
964.232,1216.37
965.181,1206.37
966.130,1220.97
967.079,1213.03
968.027,1175.10
968.976,1164.07
969.924,1220.90
970.873,1243.97
971.821,1188.13
972.769,1167.53
973.719,1203.27
974.667,1205.90
975.615,1151.73
976.562,1199.63
977.510,1185.07
978.458,1161.60
979.405,1192.73
980.352,1139.77
981.300,1192.10
982.247,1192.13
983.194,1183.87
984.141,1185.47
985.088,1197.57
986.036,1184.33
986.983,1187.23
987.930,1169.27
988.876,1153.63
989.822,1125.60
990.769,1123.63
991.715,1164.47
992.661,1174.93
993.607,1173.20
994.553,1146.97
995.498,1169.27
996.444,1158.33
997.389,1148.50
998.337,1180.17
999.282,1177.00
1000.227,1123.53
1001.173,1121.10
1002.118,1098.73
1003.062,1134.20
1004.007,1117.73
1004.952,1059.10
1005.897,1179.53
1006.841,1078.93
1007.786,1143.83
1008.730,1097.97
1009.674,1096.80
1010.618,1093.93
1011.564,1069.03
1012.508,1098.43
1013.452,1091.93
1014.396,1116.07
1015.339,1115.90
1016.283,1111.87
1017.226,1077.93
1018.170,1097.33
1019.113,1098.00
1020.056,1085.07
1020.999,1117.23
1021.942,1096.90
1022.885,1148.20
1023.828,1063.37
1024.770,1084.80
1025.715,1069.07
1026.657,1051.17
1027.600,1087.73
1028.542,1083.17
1029.484,1104.50
1030.426,1090.07
1031.368,1073.33
1032.310,1071.13
1033.251,1060.40
1034.193,1055.53
1035.135,1070.17
1036.076,1092.43
1037.017,1082.67
1037.959,1071.10
1038.900,1063.20
1039.843,1085.80
1040.784,1099.70
1041.725,1077.87
1042.665,1012.27
1043.606,1074.03
1044.547,1113.90
1045.487,1063.43
1046.427,1062.03
1047.368,1072.80
1048.308,1045.97
1049.248,1077.83
1050.188,1057.37
1051.128,1049.90
1052.067,1061.07
1053.007,1082.93
1053.947,1044.37
1054.886,1045.27
1055.827,1068.87
1056.766,1040.03
1057.706,1045.67
1058.645,1055.37
1059.584,1089.53
1060.522,1054.07
1061.461,1063.20
1062.400,1067.07
1063.338,1025.73
1064.277,1094.03
1065.215,1071.13
1066.154,1069.80
1067.092,1060.27
1068.030,1051.57
1068.968,1057.10
1069.906,1031.50
1070.843,1074.90
1071.781,1087.00
1072.720,1063.87
1073.658,1054.00
1074.595,1082.17
1075.533,1063.80
1076.470,1071.60
1077.407,1101.80
1078.344,1076.47
1079.281,1060.20
1080.217,1078.37
1081.154,1047.33
1082.091,1041.43
1083.027,1070.83
1083.964,1045.20
1084.900,1042.97
1085.836,1055.77
1086.772,1089.53
1087.708,1086.40
1088.644,1070.83
1089.580,1092.47
1090.515,1081.13
1091.451,1067.07
1092.388,1032.57
1093.324,1032.03
1094.259,1018.90
1095.194,1032.03
1096.129,1081.63
1097.064,1079.90
1097.999,1034.40
1098.934,1081.30
1099.869,1042.57
1100.803,1014.80
1101.738,1012.70
1102.672,1026.30
1103.607,1002.10
1104.541,1020.37
1105.475,1016.80
1106.409,993.67
1107.343,1004.50
1108.277,1006.30
1109.210,1015.30
1110.144,988.03
1111.078,976.17
1112.011,1016.27
1112.944,1010.17
1113.878,1032.83
1114.811,1015.33
1115.744,1029.47
1116.678,1015.00
1117.611,1015.03
1118.544,966.43
1119.477,999.43
1120.409,1035.67
1121.342,975.50
1122.274,946.73
1123.206,1479.57
1124.138,1011.57
1125.070,947.10
1126.002,1019.53
1126.934,993.80
1127.866,969.93
1128.798,1006.93
1129.729,966.47
1130.661,971.43
1131.592,964.03
1132.523,928.10
1133.454,958.20
1134.385,927.73
1135.317,960.63
1136.247,959.03
1137.178,953.37
1138.109,973.03
1139.039,969.30
1139.970,928.37
1140.900,907.20
1141.831,914.67
1142.761,935.67
1143.691,852.60
1144.621,947.63
1145.551,993.87
1146.480,941.90
1147.410,933.87
1148.340,967.43
1149.269,929.90
1150.199,954.73
1151.128,920.50
1152.057,896.97
1152.979,945.60
1153.898,926.53
1154.819,907.00
1155.739,957.70
1156.658,934.13
1157.579,929.07
1158.498,954.87
1159.419,891.90
1160.338,939.43
1161.256,972.90
1162.177,926.33
1163.095,912.07
1164.016,925.57
1164.934,933.00
1165.852,929.20
1166.772,939.37
1167.690,901.77
1168.610,937.53
1169.528,940.53
1170.446,922.10
1171.365,904.23
1172.283,875.90
1173.202,934.77
1174.120,931.80
1175.037,919.87
1175.956,935.10
1176.873,889.67
1177.792,915.47
1178.709,923.87
1179.626,891.33
1180.544,953.87
1181.461,917.13
1182.379,916.23
1183.296,916.37
1184.212,911.90
1185.130,936.57
1186.046,926.03
1186.962,940.13
1187.880,907.03
1188.796,927.70
1189.714,928.23
1190.629,914.13
1191.545,899.17
1192.462,873.23
1193.378,946.63
1194.295,888.13
1195.210,902.60
1196.125,900.20
1197.042,917.87
1197.957,937.00
1198.872,916.57
1199.788,876.20
1200.703,925.07
1201.619,878.23
1202.534,934.60
1203.448,947.20
1204.364,918.30
1205.278,906.90
1206.192,898.43
1207.108,973.20
1208.022,933.67
1208.938,953.00
1209.851,929.27
1210.765,904.97
1211.680,935.90
1212.594,934.77
1213.507,923.37
1214.422,917.93
1215.335,912.33
1216.248,956.93
1217.163,885.47
1218.076,975.13
1218.990,944.53
1219.903,920.13
1220.816,900.27
1221.730,955.97
1222.642,892.87
1223.554,954.67
1224.469,917.87
1225.380,974.60
1226.292,902.07
1227.206,912.63
1228.118,918.50
1229.032,931.10
1229.943,924.50
1230.855,901.97
1231.768,936.23
1232.679,935.43
1233.590,926.47
1234.503,944.93
1235.414,917.27
1236.325,959.30
1237.238,944.20
1238.149,939.00
1239.059,954.77
1239.972,934.13
1240.882,951.27
1241.793,892.23
1242.705,946.67
1243.615,949.07
1244.525,915.20
1245.437,918.93
1246.347,896.87
1247.259,946.07
1248.168,928.67
1249.078,902.93
1249.989,968.03
1250.899,933.90
1251.808,951.03
1252.719,974.87
1253.628,923.33
1254.537,962.47
1255.448,969.50
1256.357,931.20
1257.266,947.67
1258.176,924.23
1259.085,964.57
1259.993,915.60
1260.904,937.90
1261.812,960.20
1262.720,966.33
1263.630,927.23
1264.538,972.10
1265.446,962.80
1266.356,936.57
1267.263,954.50
1268.171,931.20
1269.080,929.83
1269.988,943.03
1270.895,936.00
1271.804,951.63
1272.711,973.47
1273.619,933.57
1274.527,948.27
1275.434,950.53
1276.341,905.83
1277.248,924.07
1278.156,915.50
1279.063,909.83
1279.969,945.73
1280.877,952.47
1281.783,929.13
1282.690,924.80
1283.598,905.77
1284.503,903.40
1285.409,900.40
1286.317,943.07
1287.223,903.03
1288.128,932.27
1289.036,914.37
1289.941,953.67
1290.846,911.00
1291.751,911.67
1292.658,930.97
1293.563,935.80
1294.468,885.03
1295.375,911.57
1296.280,906.70
1297.184,919.63
1298.091,938.03
1298.995,907.47
1299.900,906.50
1300.806,902.20
1301.710,904.50
1302.614,906.90
1303.518,883.20
1304.424,883.83
1305.327,907.37
1306.231,847.03
1307.137,903.90
1308.040,880.43
1308.943,943.90
1309.847,887.67
1310.752,906.23
1311.655,875.33
1312.558,872.73
1313.463,854.50
1314.366,878.87
1315.269,848.97
1316.171,853.70
1317.076,853.57
1317.978,854.87
1318.881,830.27
1319.785,855.47
1320.687,852.77
1321.589,832.07
1322.491,839.37
1323.395,827.17
1324.297,841.63
1325.198,809.60
1326.102,850.83
1327.004,840.73
1327.905,827.70
1328.806,822.60
1329.709,867.23
1330.611,878.87
1331.512,844.30
1332.413,863.30
1333.316,842.97
1334.216,815.03
1335.117,826.10
1336.020,807.60
1336.920,793.90
1337.821,796.47
1338.721,803.37
1339.623,785.20
1340.523,815.20
1341.423,799.90
1342.323,822.07
1343.225,782.17
1344.125,794.37
1345.025,817.77
1345.924,774.33
1346.826,844.53
1347.725,781.03
1348.624,786.17
1349.524,795.40
1350.425,786.27
1351.324,781.03
1352.223,767.50
1353.121,776.20
1354.022,737.27
1354.921,815.93
1355.819,768.37
1356.718,768.17
1357.618,756.70
1358.516,820.83
1359.415,798.53
1360.313,808.50
1361.213,728.07
1362.111,750.73
1363.008,758.37
1363.906,783.83
1364.806,754.00
1365.703,740.60
1366.601,747.13
1367.498,755.90
1368.397,752.47
1369.295,753.53
1370.192,754.73
1371.089,801.03
1371.987,766.60
1372.884,768.53
1373.781,755.00
1374.678,773.70
1375.574,737.07
1376.473,740.80
1377.369,764.03
1378.265,702.37
1379.161,739.10
1380.059,753.40
1380.955,739.13
1381.851,739.10
1382.747,732.57
1383.643,722.87
1384.540,720.43
1385.436,737.67
1386.331,694.83
1387.227,716.03
1388.124,736.40
1389.019,704.37
1389.914,719.93
1390.809,712.20
1391.704,694.17
1392.601,721.73
1393.495,702.90
1394.390,715.10
1395.285,729.33
1396.179,707.30
1397.075,706.13
1397.969,719.20
1398.864,694.97
1399.758,724.37
1400.652,723.03
1401.547,690.27
1402.441,675.83
1403.335,734.17
1404.229,698.90
1405.122,671.80
1406.017,728.63
1406.911,683.40
1407.804,695.00
1408.697,707.33
1409.590,692.70
1410.485,714.93
1411.378,664.17
1412.271,696.63
1413.163,696.60
1414.056,740.60
1414.949,695.37
1415.843,672.90
1416.735,690.97
1417.627,693.70
1418.520,689.40
1419.412,684.77
1420.306,653.63
1421.197,712.03
1422.089,694.07
1422.981,687.20
1423.873,701.77
1424.764,685.23
1425.657,681.10
1426.549,719.00
1427.440,663.30
1428.331,659.40
1429.222,677.40
1430.113,648.23
1431.006,660.80
1431.897,650.63
1432.787,723.43
1433.678,666.57
1434.568,665.53
1435.459,685.10
1436.351,695.30
1437.241,648.10
1438.131,691.13
1439.021,672.47
1439.911,678.67
1440.801,639.80
1441.693,667.77
1442.583,634.70
1443.472,676.77
1444.362,682.03
1445.251,646.63
1446.140,689.80
1447.030,642.47
1447.921,666.27
1448.810,658.87
1449.699,605.37
1450.588,622.53
1451.476,612.47
1452.365,655.67
1453.254,654.47
1454.144,633.63
1455.032,643.90
1455.921,626.63
1456.809,647.90
1457.697,667.53
1458.585,686.40
1459.473,641.40
1460.361,632.60
1461.251,665.40
1462.138,639.13
1463.026,651.40
1463.913,643.10
1464.801,655.97
1465.688,651.43
1466.575,623.27
1467.463,674.93
1468.351,647.17
1469.238,628.13
1470.125,632.73
1471.012,641.43
1471.899,650.17
1472.785,663.13
1473.672,639.10
1474.558,637.57
1475.446,628.13
1476.333,615.53
1477.219,619.47
1478.105,607.83
1478.991,652.57
1479.877,663.13
1480.762,625.83
1481.648,612.97
1482.534,640.53
1483.419,624.17
1484.307,651.50
1485.192,623.80
1486.077,628.87
1486.962,605.87
1487.847,637.23
1488.732,644.87
1489.617,613.67
1490.502,620.33
1491.387,633.60
1492.271,599.33
1493.156,621.23
1494.042,595.63
1494.927,609.07
1495.811,588.00
1496.695,635.27
1497.579,617.47
1498.463,613.33
1499.347,640.87
1500.231,603.90
1501.114,616.10
1501.998,617.13
1502.881,601.53
1503.765,627.07
1504.648,619.80
1505.533,614.30
1506.417,612.37
1507.300,583.00
1508.183,596.57
1509.066,556.57
1509.948,608.83
1510.831,604.30
1511.714,569.77
1512.596,621.77
1513.479,599.37
1514.361,583.23
1515.243,620.60
1516.125,589.27
1517.008,590.57
1517.890,592.67
1518.771,624.87
1519.655,641.70
1520.537,589.33
1521.419,589.67
1522.300,593.27
1523.182,626.43
1524.063,613.73
1524.944,611.53
1525.825,607.57
1526.707,620.33
1527.588,552.23
1528.468,626.73
1529.349,593.33
1530.230,630.20
1531.111,609.50
1531.991,629.17
1532.872,567.57
1533.752,581.00
1534.632,660.87
1535.513,549.93
1536.393,597.70
1537.273,641.93
1538.153,581.87
1539.032,616.67
1539.912,590.13
1540.792,617.87
1541.672,611.43
1542.551,596.87
1543.430,574.00
1544.310,589.63
1545.189,560.10
1546.068,598.33
1546.947,589.03
1547.826,549.20
1548.705,577.67
1549.584,591.93
1550.462,620.27
1551.341,582.87
1552.219,594.07
1553.098,530.50
1553.976,607.90
1554.854,584.37
1555.733,564.23
1556.611,569.83
1557.489,576.17
1558.367,600.27
1559.244,596.90
1560.122,555.30
1561.000,599.13
1561.877,584.90
1562.755,575.03
1563.632,563.83
1564.509,563.63
1565.386,579.30
1566.264,585.00
1567.141,566.47
1568.017,600.57
1568.894,607.70
1569.771,572.93
1570.648,586.30
1571.524,553.97
1572.401,568.67
1573.277,546.77
1574.153,589.30
1575.029,618.43
1575.906,542.33
1576.781,550.33
1577.657,559.47
1578.533,561.70
1579.409,567.77
1580.285,584.73
1581.160,519.27
1582.036,548.87
1582.911,561.73
1583.786,581.90
1584.662,560.17
1585.537,558.97
1586.412,541.20
1587.287,570.87
1588.160,564.10
1589.035,531.33
1589.909,560.50
1590.784,565.47
1591.658,544.67
1592.533,576.13
1593.407,549.17
1594.281,584.20
1595.155,578.17
1596.029,509.07
1596.903,558.90
1597.777,560.77
1598.651,599.33
1599.525,566.63
1600.398,536.20
1601.272,576.50
1602.144,567.97
1603.017,540.40
1603.890,540.23
1604.763,612.90
1605.636,548.57
1606.509,571.13
1607.382,593.87
1608.255,538.03
1609.128,557.53
1610.000,595.03
1610.873,563.17
1611.746,569.57
1612.616,577.97
1613.488,531.03
1614.361,544.10
1615.233,557.53
1616.105,591.90
1616.977,539.20
1617.849,562.87
1618.720,549.20
1619.592,566.10
1620.464,572.13
1621.333,607.50
1622.205,566.03
1623.076,537.90
1623.947,539.47
1624.818,572.57
1625.689,556.20
1626.560,559.97
1627.431,542.93
1628.302,551.67
1629.171,574.50
1630.042,534.30
1630.912,861.00
1631.782,574.13
1632.653,564.87
1633.523,566.03
1634.393,547.70
1635.263,551.77
1636.131,524.80
1637.001,566.30
1637.871,528.87
1638.741,533.53
1639.611,518.30
1640.480,519.87
1641.350,553.50
1642.219,535.03
1643.087,520.10
1643.956,539.87
1644.825,492.80
1645.694,546.50
1646.563,578.37
1647.432,591.00
1648.299,520.33
1649.167,550.43
1650.036,537.20
1650.904,479.70
1651.773,574.07
1652.641,502.53
1653.509,572.50
1654.376,541.53
1655.244,538.50
1656.112,520.53
1656.980,543.43
1657.847,535.90
1658.715,549.57
1659.581,519.37
1660.448,517.90
1661.316,541.00
1662.183,511.90
1663.051,541.80
1663.918,522.37
1664.783,537.60
1665.650,568.80
1666.517,546.17
1667.384,569.43
1668.251,540.30
1669.115,539.83
1669.982,548.37
1670.849,540.60
1671.715,559.90
1672.581,547.73
1673.446,545.67
1674.312,530.43
1675.178,562.57
1676.044,562.47
1676.910,529.60
1677.774,507.17
1678.639,558.03
1679.505,531.83
1680.370,520.53
1681.236,479.80
1682.099,573.20
1682.965,516.13
1683.830,538.43
1684.695,502.40
1685.560,538.30
1686.423,584.43
1687.288,497.87
1688.153,550.07
1689.017,535.67
1689.880,504.63
1690.745,572.37
1691.609,525.17
1692.473,516.50
1693.338,543.33
1694.200,541.63
1695.064,573.03
1695.928,564.43
1696.792,532.53
1697.654,544.77
1698.517,538.30
1699.381,525.43
1700.245,525.87
1701.106,497.80
1701.969,524.37
1702.833,537.87
1703.696,532.00
1704.557,555.17
1705.420,534.77
1706.283,541.07
1707.146,536.33
1708.007,511.47
1708.870,541.60
1709.732,546.53
1710.595,520.60
1711.455,525.63
1712.318,511.23
1713.180,573.37
1714.040,516.33
1714.902,554.03
1715.764,545.87
1716.626,533.90
1717.486,532.20
1718.348,550.73
1719.209,1187.07
1720.071,533.43
1720.930,526.10
1721.792,566.73
1722.653,541.83
1723.512,547.67
1724.374,516.20
1725.234,535.77
1726.095,530.23
1726.954,509.03
1727.815,529.50
1728.676,546.77
1729.535,512.83
1730.395,496.30
1731.256,523.57
1732.114,533.03
1732.974,504.87
1733.834,483.27
1734.693,498.93
1735.553,534.20
1736.413,489.90
1737.272,560.07
1738.130,523.30
1738.990,541.30
1739.849,498.67
1740.707,523.90
1741.566,542.60
1742.426,483.50
1743.283,517.23
1744.142,510.37
1745.001,516.37
1745.858,509.70
1746.717,505.80
1747.576,490.13
1748.433,518.13
1749.292,518.63
1750.150,525.17
1751.007,519.63
1751.865,547.47
1752.723,533.33
1753.579,506.80
1754.438,547.53
1755.296,525.20
1756.152,524.13
1757.010,508.73
1757.865,540.30
1758.723,515.60
1759.581,518.83
1760.436,513.80
1761.294,513.47
1762.151,519.00
1763.006,527.73
1763.864,546.23
1764.721,517.57
1765.576,520.63
1766.433,549.87
1767.288,548.07
1768.144,499.97
1769.001,516.47
1769.856,513.80
1770.712,501.80
1771.568,521.77
1772.423,537.10
1773.279,515.87
1774.133,528.63
1774.989,509.03
1775.845,527.67
1776.699,510.90
1777.555,552.17
1778.409,497.47
1779.265,530.60
1780.120,547.70
1780.974,520.03
1781.829,548.40
1782.682,536.43
1783.538,506.77
1784.393,504.00
1785.246,489.00
1786.101,506.33
1786.954,484.30
1787.808,516.73
1788.661,535.27
1789.516,488.60
1790.370,531.40
1791.223,516.40
1792.077,543.40
1792.930,510.97
1793.784,525.77
1794.636,564.00
1795.490,534.13
1796.344,484.87
1797.196,478.47
1798.049,500.70
1798.901,517.57
1799.755,572.00
1800.606,507.77
1801.460,495.67
1802.311,524.83
1803.165,481.10
1804.018,545.63
1804.869,523.00
1805.722,514.17
1806.573,535.10
1807.426,531.07
1808.276,509.33
1809.129,489.97
1809.980,480.87
1810.832,504.13
1811.683,488.70
1812.535,527.33
1813.385,523.20
1814.237,504.67
1815.089,472.77
1815.940,500.00
1816.791,483.20
1817.641,532.23
1818.493,499.47
1819.343,521.90
1820.194,509.40
1821.044,520.13
1821.895,501.00
1822.745,518.87
1823.596,490.10
1824.445,525.37
1825.296,496.70
1826.145,500.97
1826.996,514.07
1827.845,505.80
1828.695,496.30
1829.544,524.20
1830.395,513.97
1831.243,472.03
1832.094,482.20
1832.942,451.20
1833.792,519.37
1834.640,507.73
1835.490,496.07
1836.338,484.00
1837.186,518.80
1838.036,537.60
1838.884,508.30
1839.733,469.80
1840.581,503.83
1841.430,531.50
1842.278,512.40
1843.127,487.50
1843.974,483.70
1844.823,508.03
1845.671,521.00
1846.519,512.60
1847.366,484.13
1848.213,490.47
1849.062,525.00
1849.909,490.50
1850.757,496.40
1851.604,506.70
1852.452,529.93
1853.298,511.67
1854.146,495.97
1854.993,541.77
1855.839,538.60
1856.687,551.37
1857.532,484.23
1858.380,521.60
1859.226,476.70
1860.073,526.80
1860.919,485.07
1861.765,514.27
1862.612,493.43
1863.457,510.93
1864.304,477.83
1865.150,507.60
1865.995,490.37
1866.842,510.30
1867.686,505.20
1868.533,502.43
1869.378,510.23
1870.223,459.47
1871.069,455.87
1871.914,485.43
1872.760,513.43
1873.604,498.60
1874.448,526.10
1875.294,480.60
1876.139,506.03
1876.984,520.30
1877.828,488.10
1878.672,509.33
1879.518,515.97
1880.361,523.20
1881.205,538.47
1882.050,490.17
1882.894,540.00
1883.739,493.43
1884.582,504.03
1885.425,491.57
1886.270,522.37
1887.113,475.87
1887.956,531.33
1888.801,520.83
1889.644,495.83
1890.486,469.63
1891.331,527.43
1892.173,510.57
1893.017,469.47
1893.860,509.27
1894.702,472.50
1895.546,486.37
1896.388,477.67
1897.230,497.07
1898.074,501.47
1898.916,501.23
1899.757,504.80
1900.601,513.30
1901.443,508.83
1902.284,469.67
1903.125,511.07
1903.969,497.57
1904.810,530.30
1905.651,518.70
1906.494,465.33
1907.335,476.27
1908.176,523.30
1909.018,497.60
1909.859,481.90
1910.700,539.47
1911.542,511.77
1912.383,532.87
1913.223,508.57
1914.064,514.77
1914.906,502.20
1915.746,489.60
1916.586,489.13
1917.428,506.40
1918.268,535.13
1919.107,476.13
1919.947,457.97
1920.789,512.93
1921.628,488.10
1922.468,479.47
1923.309,482.40
1924.148,499.37
1924.988,493.50
1925.827,518.63
1926.667,508.80
1927.507,492.90
1928.345,513.63
1929.184,462.30
1930.025,514.83
1930.864,493.73
1931.702,496.17
1932.541,491.27
1933.381,514.87
1934.219,501.93
1935.057,463.43
1935.896,507.27
1936.735,494.40
1937.573,496.10
1938.411,484.00
1939.249,508.60
1940.089,501.90
1940.927,479.43
1941.764,463.80
1942.602,490.00
1943.439,450.23
1944.278,471.80
1945.115,514.37
1945.953,527.27
1946.790,493.90
1947.628,499.57
1948.465,525.97
1949.302,493.80
1950.139,521.27
1950.976,476.47
1951.814,468.33
1952.651,517.97
1953.487,435.60
1954.323,460.27
1955.160,475.03
1955.998,486.70
1956.834,507.13
1957.670,471.57
1958.506,488.87
1959.342,457.07
1960.177,491.70
1961.015,501.83
1961.850,490.90
1962.686,518.30
1963.521,503.03
1964.357,516.47
1965.192,487.83
1966.029,509.00
1966.864,469.73
1967.699,509.87
1968.534,482.30
1969.369,487.30
1970.204,464.47
1971.040,487.10
1971.875,510.23
1972.709,494.87
1973.544,500.27
1974.378,472.23
1975.212,513.47
1976.047,459.37
1976.882,479.60
1977.716,530.33
1978.550,467.27
1979.384,521.27
1980.218,480.47
1981.052,497.37
1981.885,481.03
1982.719,488.17
1983.554,519.07
1984.388,485.80
1985.221,511.57
1986.054,499.37
1986.887,478.93
1987.720,490.37
1988.553,486.70
1989.386,508.90
1990.219,472.60
1991.053,478.23
1991.886,539.07
1992.719,471.70
1993.551,488.77
1994.383,522.53
1995.216,488.20
1996.048,479.63
1996.880,484.23
1997.712,486.33
1998.544,477.23
1999.376,500.43
2000.208,497.53
2001.040,477.70
2001.873,481.87
2002.705,508.90
2003.536,523.67
2004.367,505.53
2005.199,491.43
2006.030,504.63
2006.861,499.90
2007.692,489.43
2008.523,454.73
2009.354,500.00
2010.185,493.33
2011.016,523.13
2011.846,479.90
2012.677,485.13
2013.507,501.97
2014.338,515.80
2015.168,487.53
2015.999,512.37
2016.829,499.37
2017.659,503.83
2018.489,490.70
2019.319,486.67
2020.149,487.93
2020.980,524.43
2021.810,522.77
2022.639,514.93
2023.469,486.40
2024.298,521.03
2025.128,473.73
2025.957,504.03
2026.786,496.27
2027.615,492.57
2028.444,541.67
2029.273,486.73
2030.102,531.37
2030.931,475.33
2031.758,522.80
2032.586,488.47
2033.415,483.00
2034.243,497.43
2035.072,515.80
2035.900,485.33
2036.728,491.80
2037.556,499.10
2038.385,504.30
2039.213,521.10
2040.040,488.63
2040.868,448.57
2041.696,495.13
2042.524,505.40
2043.351,503.77
2044.179,489.40
2045.006,481.03
2045.006,481.03

Max Intensity Wave.,274.311
Max Intensity Data,4520.13
Min Intensity Wave.,1953.487
Min Intensity Data,435.60
FWHM Wave.,288.695
FWHM Value,205.42
Pressure Wave.,684.671
Pressure Value [GPa],-24.91530
G/D Ratio,0.91246
G/D Gband Wave.,1630.940
G/D Gband Intensity,861.32
G/D Dband Wave.,1308.971
G/D Dband Intensity,943.95

<< BACKGROUND SPECTRUM >>
Wave[dcm-1],No2
146.591,2487.00
147.626,2309.00
148.664,2285.00
149.699,2810.00
150.737,2527.00
151.772,2667.00
152.809,2706.00
153.846,2574.00
154.881,2684.00
155.918,2158.00
156.953,2515.00
157.989,2892.00
159.026,2757.00
160.060,2985.00
161.096,3188.00
162.130,2778.00
163.167,2869.00
164.200,2759.00
165.236,2947.00
166.272,3009.00
167.305,2521.00
168.341,2842.00
169.374,3094.00
170.409,3179.00
171.445,3038.00
172.477,2846.00
173.512,2661.00
174.545,2960.00
175.580,3199.00
176.614,3429.00
177.647,3164.00
178.681,3442.00
179.713,3776.00
180.747,3155.00
181.781,3055.00
182.813,3352.00
183.847,3468.00
184.878,3037.00
185.912,3322.00
186.945,3503.00
187.976,3428.00
189.010,3080.00
190.043,3179.00
191.073,3260.00
192.106,3030.00
193.137,3577.00
194.170,2873.00
195.202,3271.00
196.232,3017.00
197.265,3352.00
198.297,3462.00
199.327,3095.00
200.359,3291.00
201.388,3774.00
202.420,3241.00
203.452,3468.00
204.481,2991.00
205.512,3734.00
206.544,3456.00
207.573,3391.00
208.604,3833.00
209.635,3955.00
210.663,3281.00
211.694,3352.00
212.725,3171.00
213.753,3130.00
214.783,3839.00
215.813,3647.00
216.841,3353.00
217.871,3558.00
218.899,3245.00
219.929,3559.00
220.959,3210.00
221.986,3595.00
223.016,3072.00
224.045,3515.00
225.072,3499.00
226.101,3608.00
227.130,3678.00
228.157,3193.00
229.185,2623.00
230.214,3570.00
231.241,3192.00
232.269,2760.00
233.297,2970.00
234.323,3602.00
235.351,3140.00
236.379,3488.00
237.407,3081.00
238.433,3284.00
239.460,3469.00
240.488,3493.00
241.513,3616.00
242.540,3475.00
243.568,3596.00
244.592,3658.00
245.619,3611.00
246.646,3305.00
247.671,3330.00
248.697,3124.00
249.724,3409.00
250.748,3394.00
251.774,3383.00
252.801,3708.00
253.827,3504.00
254.850,3463.00
255.876,3001.00
256.902,3515.00
257.925,3408.00
258.951,3076.00
259.976,3078.00
260.999,3467.00
262.024,3127.00
263.049,4108.00
264.074,3524.00
265.097,3353.00
266.122,3486.00
267.146,3383.00
268.168,3589.00
269.193,3201.00
270.217,3574.00
271.241,3033.00
272.263,3239.00
273.287,3543.00
274.311,3098.00
275.332,3697.00
276.356,3194.00
277.379,3510.00
278.402,3510.00
279.424,3309.00
280.447,3194.00
281.470,3076.00
282.492,3489.00
283.513,3265.00
284.536,3607.00
285.558,3548.00
286.581,3509.00
287.601,3207.00
288.623,3155.00
289.645,3478.00
290.665,3517.00
291.687,3506.00
292.709,3482.00
293.730,3807.00
294.750,3236.00
295.771,3103.00
296.792,3385.00
297.813,3264.00
298.832,3407.00
299.853,3072.00
300.874,3382.00
301.895,3342.00
302.913,3349.00
303.934,3655.00
304.954,3412.00
305.975,3568.00
306.993,3060.00
308.013,3506.00
309.033,3342.00
310.052,3316.00
311.072,3241.00
312.090,3476.00
313.109,3692.00
314.129,3793.00
315.148,3389.00
316.165,3430.00
317.184,3628.00
318.203,3132.00
319.222,3078.00
320.238,3583.00
321.257,3168.00
322.275,3024.00
323.294,3360.00
324.312,3552.00
325.328,3663.00
326.346,3685.00
327.364,3593.00
328.382,3513.00
329.397,3473.00
330.415,3634.00
331.432,3602.00
332.450,3666.00
333.467,3895.00
334.482,2899.00
335.499,3817.00
336.516,3225.00
337.533,2908.00
338.547,3162.00
339.564,3195.00
340.580,3518.00
341.597,3355.00
342.613,3884.00
343.627,3325.00
344.643,3354.00
345.659,3500.00
346.675,3362.00
347.690,3257.00
348.704,3463.00
349.719,3229.00
350.735,3089.00
351.750,3589.00
352.765,3307.00
353.778,3319.00
354.793,3535.00
355.808,3178.00
356.822,3626.00
357.837,2970.00
358.851,3634.00
359.864,3302.00
360.878,3080.00
361.892,3332.00
362.906,3577.00
363.920,2865.00
364.932,3468.00
365.945,3472.00
366.959,3409.00
367.972,3303.00
368.986,3010.00
369.999,3784.00
371.010,3180.00
372.023,3803.00
373.036,3290.00
374.049,3784.00
375.061,3441.00
376.072,3360.00
377.084,3194.00
378.097,3009.00
379.109,3604.00
380.121,3366.00
381.133,2996.00
382.143,3541.00
383.155,3015.00
384.166,3205.00
385.178,3456.00
386.189,3604.00
387.201,3050.00
388.212,3274.00
389.221,3254.00
390.232,3353.00
391.243,3261.00
392.254,3396.00
393.264,3177.00
394.275,3608.00
395.283,3551.00
396.294,4046.00
397.304,3932.00
398.314,3478.00
399.324,3397.00
400.334,2970.00
401.344,3541.00
402.351,2980.00
403.361,3592.00
404.370,3330.00
405.380,3213.00
406.389,3731.00
407.398,3520.00
408.407,3421.00
409.414,3557.00
410.423,3703.00
411.431,3082.00
412.440,2952.00
413.448,3710.00
414.457,3215.00
415.465,3154.00
416.471,3212.00
417.479,3380.00
418.487,3128.00
419.495,3667.00
420.503,3476.00
421.510,2945.00
422.518,3564.00
423.525,3585.00
424.530,3839.00
425.537,3253.00
426.544,3631.00
427.551,3180.00
428.558,4046.00
429.565,3838.00
430.571,3214.00
431.578,3262.00
432.582,3221.00
433.588,3276.00
434.595,2908.00
435.601,3689.00
436.607,3637.00
437.612,3155.00
438.618,3708.00
439.624,3277.00
440.627,3306.00
441.633,3503.00
442.638,4058.00
443.643,3453.00
444.648,3339.00
445.653,3613.00
446.658,3231.00
447.663,3380.00
448.667,3255.00
449.672,3299.00
450.674,3322.00
451.678,3023.00
452.682,3232.00
453.687,3175.00
454.690,4082.00
455.694,3701.00
456.698,2850.00
457.702,3008.00
458.705,3106.00
459.709,3117.00
460.710,3174.00
461.713,3428.00
462.716,3445.00
463.719,3377.00
464.722,3578.00
465.725,3264.00
466.727,3169.00
467.730,3419.00
468.732,3130.00
469.735,3705.00
470.737,3269.00
471.737,3230.00
472.739,3206.00
473.741,3149.00
474.742,3438.00
475.744,3455.00
476.746,3433.00
477.747,3333.00
478.748,3543.00
479.750,3236.00
480.751,3359.00
481.752,4246.00
482.753,3455.00
483.751,4018.00
484.752,2928.00
485.753,3334.00
486.753,3197.00
487.753,3330.00
488.754,3880.00
489.754,2980.00
490.754,3705.00
491.754,3510.00
492.754,2960.00
493.753,3404.00
494.753,3224.00
495.752,3762.00
496.752,3409.00
497.749,3329.00
498.748,3240.00
499.747,3820.00
500.746,3497.00
501.745,3098.00
502.744,3070.00
503.742,3733.00
504.741,3317.00
505.739,2794.00
506.737,3200.00
507.735,3489.00
508.734,3739.00
509.732,3531.00
510.729,3744.00
511.727,3217.00
512.725,3258.00
513.720,3099.00
514.718,3598.00
515.715,2980.00
516.712,2934.00
517.709,3349.00
518.706,3239.00
519.703,3413.00
520.700,3552.00
521.696,3785.00
522.693,3227.00
523.689,3159.00
524.686,3566.00
525.682,3093.00
526.678,3902.00
527.674,3255.00
528.670,2891.00
529.666,3904.00
530.661,3838.00
531.657,3512.00
532.652,3526.00
533.648,3330.00
534.641,3588.00
535.636,3421.00
536.631,3496.00
537.626,3561.00
538.621,3049.00
539.616,2893.00
540.610,2802.00
541.605,3388.00
542.599,3431.00
543.593,3390.00
544.587,4422.00
545.581,3160.00
546.575,3384.00
547.569,3382.00
548.563,3020.00
549.557,2945.00
550.550,3072.00
551.543,3101.00
552.537,3525.00
553.530,3068.00
554.523,3126.00
555.516,3464.00
556.509,3331.00
557.502,2911.00
558.494,3609.00
559.487,3252.00
560.479,3589.00
561.472,3674.00
562.464,3546.00
563.456,3659.00
564.448,3280.00
565.440,3371.00
566.432,3804.00
567.423,3228.00
568.415,3198.00
569.404,3465.00
570.396,3167.00
571.387,3517.00
572.378,3372.00
573.369,4456.00
574.360,4155.00
575.351,3335.00
576.341,3182.00
577.332,3237.00
578.323,3004.00
579.313,3231.00
580.303,3650.00
581.293,3496.00
582.283,3351.00
583.273,3448.00
584.263,3363.00
585.253,3477.00
586.243,3581.00
587.232,2978.00
588.222,3325.00
589.211,3554.00
590.200,3402.00
591.189,3274.00
592.178,3297.00
593.167,3835.00
594.156,3712.00
595.145,3201.00
596.133,3889.00
597.122,3495.00
598.110,3590.00
599.098,3445.00
600.086,3367.00
601.074,3551.00
602.062,3195.00
603.050,3072.00
604.038,3527.00
605.025,3130.00
606.013,3563.00
607.000,3771.00
607.987,3369.00
608.975,3411.00
609.962,3073.00
610.949,3491.00
611.936,3634.00
612.922,3535.00
613.909,3050.00
614.895,3747.00
615.882,3102.00
616.868,3412.00
617.854,3055.00
618.841,3405.00
619.826,3498.00
620.812,3337.00
621.798,3085.00
622.784,3579.00
623.769,3431.00
624.755,3029.00
625.740,3391.00
626.725,3043.00
627.711,3178.00
628.698,3387.00
629.683,3122.00
630.667,3574.00
631.652,3091.00
632.637,3280.00
633.621,3562.00
634.606,3257.00
635.590,3472.00
636.574,3275.00
637.558,3425.00
638.542,3413.00
639.526,3135.00
640.510,2920.00
641.493,3410.00
642.477,3303.00
643.460,3026.00
644.444,3623.00
645.427,3621.00
646.410,2992.00
647.393,3339.00
648.376,3417.00
649.359,3266.00
650.341,3451.00
651.324,3465.00
652.307,3423.00
653.289,3307.00
654.271,3216.00
655.253,3254.00
656.235,3479.00
657.217,3635.00
658.199,2911.00
659.181,3025.00
660.163,3384.00
661.144,3215.00
662.126,3195.00
663.107,3086.00
664.088,5255.00
665.069,3640.00
666.050,3167.00
667.033,3047.00
668.014,3429.00
668.995,2895.00
669.975,3357.00
670.956,3342.00
671.936,3515.00
672.916,3323.00
673.896,3499.00
674.876,3247.00
675.856,3197.00
676.836,3087.00
677.816,2587.00
678.795,3106.00
679.775,2990.00
680.754,3383.00
681.734,3546.00
682.713,3518.00
683.692,3073.00
684.671,2937.00
685.650,3070.00
686.629,3201.00
687.607,3068.00
688.586,3086.00
689.564,3194.00
690.543,3624.00
691.523,2650.00
692.501,3160.00
693.479,3296.00
694.457,3080.00
695.435,3165.00
696.413,2968.00
697.390,2780.00
698.368,2993.00
699.345,3476.00
700.322,3238.00
701.300,3433.00
702.277,3408.00
703.254,3671.00
704.231,2868.00
705.207,3308.00
706.184,3114.00
707.161,2961.00
708.137,3186.00
709.113,3112.00
710.090,3112.00
711.068,2880.00
712.044,2903.00
713.020,3213.00
713.996,2945.00
714.971,3132.00
715.947,3132.00
716.922,3138.00
717.898,3075.00
718.873,3215.00
719.848,3032.00
720.823,2996.00
721.798,3296.00
722.773,3022.00
723.748,2795.00
724.723,3349.00
725.697,3148.00
726.672,3056.00
727.646,2761.00
728.622,3327.00
729.596,2815.00
730.570,3048.00
731.544,3433.00
732.518,3626.00
733.492,3147.00
734.466,3206.00
735.439,3341.00
736.413,3499.00
737.386,2724.00
738.359,2679.00
739.332,2800.00
740.305,3155.00
741.278,3710.00
742.251,3264.00
743.224,3051.00
744.196,2833.00
745.171,3527.00
746.143,3344.00
747.115,3080.00
748.087,3015.00
749.059,3482.00
750.031,3259.00
751.003,4124.00
751.975,3612.00
752.947,3003.00
753.918,3452.00
754.890,2891.00
755.861,3077.00
756.832,3449.00
757.803,3183.00
758.774,3328.00
759.747,3499.00
760.718,3727.00
761.689,3035.00
762.659,2895.00
763.630,3504.00
764.600,2839.00
765.570,3402.00
766.540,3503.00
767.510,3219.00
768.480,3392.00
769.450,3031.00
770.420,3124.00
771.390,2939.00
772.359,3039.00
773.329,2957.00
774.300,2771.00
775.269,3064.00
776.238,3338.00
777.207,3555.00
778.176,2747.00
779.145,3114.00
780.114,2965.00
781.083,2841.00
782.051,3026.00
783.019,2918.00
783.988,3429.00
784.956,3174.00
785.924,3290.00
786.894,3209.00
787.862,3005.00
788.830,3482.00
789.797,2908.00
790.765,2845.00
791.732,3062.00
792.700,2943.00
793.667,2873.00
794.634,3085.00
795.601,3055.00
796.568,3057.00
797.535,3135.00
798.502,3843.00
799.468,3238.00
800.437,2670.00
801.403,2967.00
802.370,3658.00
803.336,3355.00
804.302,3209.00
805.268,2704.00
806.234,2814.00
807.200,3036.00
808.166,3054.00
809.131,2847.00
810.097,3321.00
811.062,4144.00
812.027,3361.00
812.994,2872.00
813.960,2899.00
814.925,3247.00
815.889,2817.00
816.854,3363.00
817.819,2941.00
818.783,3023.00
819.748,3479.00
820.712,3023.00
821.677,2899.00
822.641,2999.00
823.605,3026.00
824.571,3506.00
825.534,3063.00
826.498,2963.00
827.462,3122.00
828.425,2901.00
829.389,3344.00
830.352,3107.00
831.315,3266.00
832.279,2797.00
833.242,3051.00
834.204,2904.00
835.167,2922.00
836.132,3397.00
837.095,2775.00
838.057,3014.00
839.020,3121.00
839.982,3201.00
840.944,2958.00
841.906,2903.00
842.868,3277.00
843.830,2830.00
844.792,3399.00
845.753,2973.00
846.715,2706.00
847.679,2846.00
848.640,2912.00
849.601,3062.00
850.562,3606.00
851.523,2993.00
852.484,2716.00
853.445,3365.00
854.406,3029.00
855.367,2969.00
856.327,3351.00
857.288,2765.00
858.248,2918.00
859.210,2994.00
860.170,2779.00
861.130,3322.00
862.090,2675.00
863.050,2897.00
864.010,2972.00
864.969,3210.00
865.929,2885.00
866.888,2786.00
867.848,3163.00
868.807,2909.00
869.766,3180.00
870.727,2994.00
871.686,3340.00
872.645,3303.00
873.604,3707.00
874.562,3061.00
875.521,3057.00
876.479,3816.00
877.437,2887.00
878.396,2879.00
879.354,3530.00
880.312,2915.00
881.270,2945.00
882.229,3439.00
883.187,2914.00
884.145,2973.00
885.102,3250.00
886.059,3114.00
887.017,3195.00
887.974,3269.00
888.931,3435.00
889.888,2761.00
890.845,2664.00
891.802,2579.00
892.758,2911.00
893.717,2699.00
894.673,2862.00
895.630,2880.00
896.586,3251.00
897.542,2986.00
898.498,2818.00
899.454,3169.00
900.410,2929.00
901.366,2938.00
902.321,2865.00
903.277,2952.00
904.232,3062.00
905.189,2771.00
906.145,2940.00
907.100,2431.00
908.055,3025.00
909.010,3245.00
909.965,2578.00
910.919,3113.00
911.874,2895.00
912.828,3110.00
913.783,3027.00
914.737,2596.00
915.693,3078.00
916.648,3183.00
917.602,3316.00
918.555,3083.00
919.509,3160.00
920.463,3028.00
921.417,3026.00
922.370,2793.00
923.324,2950.00
924.277,2964.00
925.230,3008.00
926.183,2660.00
927.138,2991.00
928.091,3261.00
929.044,3112.00
929.996,2944.00
930.949,2917.00
931.902,3134.00
932.854,3170.00
933.806,2840.00
934.758,3296.00
935.711,3286.00
936.663,3157.00
937.614,3072.00
938.568,3029.00
939.520,2652.00
940.471,2996.00
941.423,3086.00
942.374,3204.00
943.326,3031.00
944.277,2853.00
945.228,3173.00
946.179,2965.00
947.130,3388.00
948.080,2938.00
949.031,2834.00
949.984,2979.00
950.934,3022.00
951.884,2744.00
952.835,3016.00
953.785,3061.00
954.735,2906.00
955.685,2561.00
956.635,2876.00
957.585,2905.00
958.534,2894.00
959.484,3029.00
960.433,2887.00
961.383,2721.00
962.334,3267.00
963.283,3048.00
964.232,3166.00
965.181,3002.00
966.130,3079.00
967.079,2890.00
968.027,3040.00
968.976,3037.00
969.924,2868.00
970.873,3063.00
971.821,3048.00
972.769,3265.00
973.719,3147.00
974.667,2729.00
975.615,3050.00
976.562,3008.00
977.510,2679.00
978.458,2907.00
979.405,3110.00
980.352,3096.00
981.300,3289.00
982.247,3079.00
983.194,2802.00
984.141,2893.00
985.088,2993.00
986.036,3054.00
986.983,3318.00
987.930,3464.00
988.876,2615.00
989.822,3310.00
990.769,2857.00
991.715,2872.00
992.661,2656.00
993.607,3074.00
994.553,3644.00
995.498,2823.00
996.444,2500.00
997.389,3064.00
998.337,2761.00
999.282,3137.00
1000.227,2935.00
1001.173,2993.00
1002.118,2721.00
1003.062,3214.00
1004.007,2970.00
1004.952,3383.00
1005.897,3254.00
1006.841,3043.00
1007.786,2681.00
1008.730,2696.00
1009.674,3550.00
1010.618,2944.00
1011.564,2799.00
1012.508,2642.00
1013.452,3265.00
1014.396,3021.00
1015.339,2885.00
1016.283,2970.00
1017.226,3052.00
1018.170,2994.00
1019.113,3190.00
1020.056,3027.00
1020.999,2973.00
1021.942,2864.00
1022.885,3113.00
1023.828,3357.00
1024.770,2762.00
1025.715,3075.00
1026.657,3012.00
1027.600,3035.00
1028.542,3239.00
1029.484,3013.00
1030.426,3143.00
1031.368,3081.00
1032.310,2842.00
1033.251,2806.00
1034.193,3002.00
1035.135,2750.00
1036.076,2883.00
1037.017,2792.00
1037.959,3132.00
1038.900,3073.00
1039.843,3077.00
1040.784,3015.00
1041.725,3088.00
1042.665,2948.00
1043.606,3047.00
1044.547,3002.00
1045.487,2607.00
1046.427,2949.00
1047.368,3072.00
1048.308,2470.00
1049.248,2765.00
1050.188,2995.00
1051.128,2894.00
1052.067,2957.00
1053.007,2625.00
1053.947,2634.00
1054.886,2847.00
1055.827,2740.00
1056.766,3311.00
1057.706,2714.00
1058.645,2937.00
1059.584,3023.00
1060.522,3317.00
1061.461,2690.00
1062.400,2725.00
1063.338,2951.00
1064.277,2734.00
1065.215,2758.00
1066.154,2636.00
1067.092,2862.00
1068.030,2931.00
1068.968,3180.00
1069.906,3372.00
1070.843,3256.00
1071.781,3013.00
1072.720,3114.00
1073.658,3140.00
1074.595,2864.00
1075.533,2836.00
1076.470,2842.00
1077.407,3273.00
1078.344,3052.00
1079.281,3105.00
1080.217,2509.00
1081.154,2953.00
1082.091,3043.00
1083.027,2685.00
1083.964,3259.00
1084.900,2838.00
1085.836,2887.00
1086.772,3151.00
1087.708,2675.00
1088.644,3122.00
1089.580,2928.00
1090.515,3006.00
1091.451,2862.00
1092.388,3019.00
1093.324,2713.00
1094.259,3621.00
1095.194,3041.00
1096.129,2852.00
1097.064,2794.00
1097.999,3110.00
1098.934,2771.00
1099.869,2791.00
1100.803,3012.00
1101.738,3008.00
1102.672,2641.00
1103.607,3150.00
1104.541,2814.00
1105.475,2805.00
1106.409,2692.00
1107.343,2890.00
1108.277,2696.00
1109.210,2992.00
1110.144,2974.00
1111.078,2980.00
1112.011,2685.00
1112.944,3057.00
1113.878,2977.00
1114.811,2380.00
1115.744,2813.00
1116.678,2531.00
1117.611,2826.00
1118.544,2891.00
1119.477,3036.00
1120.409,2767.00
1121.342,3490.00
1122.274,3056.00
1123.206,3419.00
1124.138,2925.00
1125.070,3331.00
1126.002,3109.00
1126.934,2492.00
1127.866,2830.00
1128.798,2519.00
1129.729,2615.00
1130.661,2919.00
1131.592,2828.00
1132.523,3052.00
1133.454,3054.00
1134.385,2551.00
1135.317,2926.00
1136.247,2856.00
1137.178,3161.00
1138.109,2589.00
1139.039,3314.00
1139.970,3153.00
1140.900,2888.00
1141.831,2626.00
1142.761,2458.00
1143.691,3480.00
1144.621,2915.00
1145.551,2933.00
1146.480,2984.00
1147.410,3165.00
1148.340,2501.00
1149.269,2614.00
1150.199,2838.00
1151.128,3396.00
1152.057,2722.00
1152.979,2842.00
1153.898,2888.00
1154.819,3025.00
1155.739,2877.00
1156.658,2817.00
1157.579,2957.00
1158.498,2884.00
1159.419,2422.00
1160.338,2955.00
1161.256,2930.00
1162.177,2755.00
1163.095,2905.00
1164.016,2985.00
1164.934,3198.00
1165.852,3112.00
1166.772,2866.00
1167.690,2946.00
1168.610,2986.00
1169.528,2905.00
1170.446,2396.00
1171.365,2828.00
1172.283,2816.00
1173.202,2885.00
1174.120,2951.00
1175.037,2729.00
1175.956,2688.00
1176.873,2784.00
1177.792,2791.00
1178.709,3438.00
1179.626,2822.00
1180.544,3105.00
1181.461,2761.00
1182.379,3027.00
1183.296,2897.00
1184.212,2496.00
1185.130,2707.00
1186.046,3267.00
1186.962,2874.00
1187.880,3222.00
1188.796,2952.00
1189.714,2667.00
1190.629,3055.00
1191.545,2993.00
1192.462,2877.00
1193.378,2852.00
1194.295,2606.00
1195.210,2934.00
1196.125,3086.00
1197.042,2998.00
1197.957,2884.00
1198.872,2761.00
1199.788,2833.00
1200.703,3264.00
1201.619,2948.00
1202.534,2740.00
1203.448,2970.00
1204.364,2838.00
1205.278,2528.00
1206.192,2980.00
1207.108,3413.00
1208.022,3308.00
1208.938,2696.00
1209.851,3072.00
1210.765,3173.00
1211.680,2783.00
1212.594,2632.00
1213.507,2825.00
1214.422,3365.00
1215.335,3054.00
1216.248,2790.00
1217.163,2960.00
1218.076,3531.00
1218.990,3015.00
1219.903,2669.00
1220.816,2728.00
1221.730,2833.00
1222.642,2803.00
1223.554,2783.00
1224.469,3010.00
1225.380,2804.00
1226.292,2546.00
1227.206,3067.00
1228.118,3279.00
1229.032,2489.00
1229.943,2781.00
1230.855,2872.00
1231.768,2610.00
1232.679,2994.00
1233.590,2882.00
1234.503,3150.00
1235.414,2757.00
1236.325,2732.00
1237.238,2972.00
1238.149,3012.00
1239.059,2685.00
1239.972,3115.00
1240.882,2680.00
1241.793,3085.00
1242.705,3297.00
1243.615,2851.00
1244.525,3023.00
1245.437,2433.00
1246.347,2999.00
1247.259,3086.00
1248.168,3398.00
1249.078,3206.00
1249.989,3182.00
1250.899,2686.00
1251.808,2744.00
1252.719,2788.00
1253.628,2761.00
1254.537,3301.00
1255.448,2681.00
1256.357,2724.00
1257.266,2896.00
1258.176,2611.00
1259.085,2559.00
1259.993,2711.00
1260.904,2712.00
1261.812,2689.00
1262.720,3515.00
1263.630,3107.00
1264.538,2687.00
1265.446,3001.00
1266.356,2875.00
1267.263,3199.00
1268.171,2683.00
1269.080,2995.00
1269.988,3090.00
1270.895,2798.00
1271.804,2842.00
1272.711,3075.00
1273.619,3079.00
1274.527,2669.00
1275.434,3012.00
1276.341,2705.00
1277.248,2947.00
1278.156,3262.00
1279.063,2766.00
1279.969,2984.00
1280.877,3882.00
1281.783,3134.00
1282.690,2980.00
1283.598,2881.00
1284.503,2764.00
1285.409,2716.00
1286.317,3297.00
1287.223,3368.00
1288.128,2950.00
1289.036,2781.00
1289.941,2792.00
1290.846,2910.00
1291.751,2689.00
1292.658,2781.00
1293.563,3383.00
1294.468,2952.00
1295.375,3073.00
1296.280,3171.00
1297.184,3702.00
1298.091,2982.00
1298.995,3077.00
1299.900,3322.00
1300.806,2787.00
1301.710,2600.00
1302.614,2409.00
1303.518,3194.00
1304.424,2841.00
1305.327,3106.00
1306.231,2924.00
1307.137,3054.00
1308.040,2969.00
1308.943,2874.00
1309.847,3137.00
1310.752,3096.00
1311.655,2516.00
1312.558,2658.00
1313.463,2841.00
1314.366,2770.00
1315.269,2964.00
1316.171,2893.00
1317.076,2781.00
1317.978,2682.00
1318.881,2477.00
1319.785,2744.00
1320.687,2755.00
1321.589,2471.00
1322.491,2725.00
1323.395,3007.00
1324.297,3544.00
1325.198,3091.00
1326.102,2682.00
1327.004,2698.00
1327.905,3366.00
1328.806,2877.00
1329.709,2959.00
1330.611,2780.00
1331.512,2688.00
1332.413,3377.00
1333.316,2951.00
1334.216,3115.00
1335.117,2620.00
1336.020,2961.00
1336.920,2942.00
1337.821,2759.00
1338.721,3211.00
1339.623,3004.00
1340.523,2862.00
1341.423,2769.00
1342.323,3195.00
1343.225,3018.00
1344.125,2709.00
1345.025,2749.00
1345.924,2546.00
1346.826,3250.00
1347.725,3389.00
1348.624,3167.00
1349.524,2755.00
1350.425,2856.00
1351.324,3013.00
1352.223,3131.00
1353.121,2879.00
1354.022,3174.00
1354.921,3313.00
1355.819,3039.00
1356.718,2974.00
1357.618,2634.00
1358.516,2989.00
1359.415,3319.00
1360.313,2970.00
1361.213,2897.00
1362.111,3248.00
1363.008,3671.00
1363.906,2855.00
1364.806,2928.00
1365.703,3026.00
1366.601,2713.00
1367.498,2722.00
1368.397,3119.00
1369.295,2968.00
1370.192,2724.00
1371.089,2963.00
1371.987,2864.00
1372.884,3183.00
1373.781,2669.00
1374.678,2900.00
1375.574,2723.00
1376.473,3056.00
1377.369,3138.00
1378.265,2767.00
1379.161,2869.00
1380.059,2535.00
1380.955,3029.00
1381.851,2649.00
1382.747,2778.00
1383.643,2843.00
1384.540,2694.00
1385.436,2786.00
1386.331,3015.00
1387.227,3093.00
1388.124,3027.00
1389.019,2705.00
1389.914,2888.00
1390.809,2523.00
1391.704,3402.00
1392.601,2819.00
1393.495,3243.00
1394.390,3121.00
1395.285,3167.00
1396.179,3001.00
1397.075,2894.00
1397.969,2955.00
1398.864,2574.00
1399.758,2851.00
1400.652,2923.00
1401.547,2724.00
1402.441,2675.00
1403.335,3285.00
1404.229,2970.00
1405.122,3018.00
1406.017,2861.00
1406.911,3087.00
1407.804,3383.00
1408.697,2889.00
1409.590,2717.00
1410.485,3087.00
1411.378,3023.00
1412.271,2570.00
1413.163,2979.00
1414.056,3050.00
1414.949,3342.00
1415.843,2971.00
1416.735,2872.00
1417.627,2922.00
1418.520,2877.00
1419.412,3177.00
1420.306,3138.00
1421.197,3212.00
1422.089,3165.00
1422.981,3438.00
1423.873,3111.00
1424.764,3041.00
1425.657,2960.00
1426.549,3042.00
1427.440,3164.00
1428.331,2838.00
1429.222,2566.00
1430.113,3016.00
1431.006,3140.00
1431.897,2848.00
1432.787,2892.00
1433.678,2868.00
1434.568,2725.00
1435.459,3168.00
1436.351,3109.00
1437.241,3096.00
1438.131,3084.00
1439.021,2642.00
1439.911,2873.00
1440.801,3022.00
1441.693,3180.00
1442.583,2984.00
1443.472,2909.00
1444.362,3042.00
1445.251,2881.00
1446.140,2805.00
1447.030,3156.00
1447.921,3142.00
1448.810,2720.00
1449.699,3399.00
1450.588,3007.00
1451.476,2861.00
1452.365,3036.00
1453.254,2820.00
1454.144,2814.00
1455.032,3079.00
1455.921,2647.00
1456.809,3272.00
1457.697,2688.00
1458.585,2833.00
1459.473,2879.00
1460.361,2751.00
1461.251,3000.00
1462.138,3029.00
1463.026,2898.00
1463.913,3199.00
1464.801,2814.00
1465.688,3024.00
1466.575,2974.00
1467.463,3408.00
1468.351,2762.00
1469.238,2909.00
1470.125,2493.00
1471.012,2981.00
1471.899,3017.00
1472.785,2697.00
1473.672,2931.00
1474.558,3174.00
1475.446,3102.00
1476.333,3146.00
1477.219,2726.00
1478.105,2938.00
1478.991,2857.00
1479.877,3241.00
1480.762,2924.00
1481.648,2781.00
1482.534,3081.00
1483.419,3015.00
1484.307,3039.00
1485.192,2912.00
1486.077,2759.00
1486.962,2798.00
1487.847,2623.00
1488.732,2726.00
1489.617,2945.00
1490.502,3246.00
1491.387,3080.00
1492.271,2755.00
1493.156,2752.00
1494.042,2738.00
1494.927,3185.00
1495.811,2840.00
1496.695,3095.00
1497.579,3248.00
1498.463,2933.00
1499.347,2970.00
1500.231,2977.00
1501.114,3003.00
1501.998,3240.00
1502.881,2994.00
1503.765,3253.00
1504.648,3394.00
1505.533,3058.00
1506.417,2953.00
1507.300,2917.00
1508.183,3034.00
1509.066,2400.00
1509.948,3205.00
1510.831,3347.00
1511.714,2746.00
1512.596,3080.00
1513.479,3244.00
1514.361,3194.00
1515.243,2963.00
1516.125,3141.00
1517.008,3268.00
1517.890,2904.00
1518.771,2953.00
1519.655,3151.00
1520.537,2894.00
1521.419,2768.00
1522.300,2993.00
1523.182,3082.00
1524.063,3095.00
1524.944,3272.00
1525.825,3152.00
1526.707,2718.00
1527.588,2745.00
1528.468,3010.00
1529.349,2572.00
1530.230,2828.00
1531.111,3133.00
1531.991,2970.00
1532.872,2644.00
1533.752,2920.00
1534.632,2721.00
1535.513,2839.00
1536.393,3109.00
1537.273,3261.00
1538.153,3693.00
1539.032,2618.00
1539.912,2930.00
1540.792,2935.00
1541.672,2958.00
1542.551,3067.00
1543.430,3640.00
1544.310,2976.00
1545.189,2866.00
1546.068,3420.00
1546.947,3083.00
1547.826,3341.00
1548.705,2953.00
1549.584,3201.00
1550.462,2876.00
1551.341,3142.00
1552.219,3026.00
1553.098,3170.00
1553.976,3175.00
1554.854,3409.00
1555.733,3209.00
1556.611,2881.00
1557.489,2745.00
1558.367,2931.00
1559.244,3119.00
1560.122,2959.00
1561.000,3022.00
1561.877,3282.00
1562.755,2811.00
1563.632,2931.00
1564.509,3266.00
1565.386,3376.00
1566.264,2672.00
1567.141,2539.00
1568.017,3111.00
1568.894,2920.00
1569.771,3013.00
1570.648,3069.00
1571.524,3002.00
1572.401,2682.00
1573.277,2728.00
1574.153,3007.00
1575.029,2763.00
1575.906,3820.00
1576.781,3169.00
1577.657,2917.00
1578.533,3250.00
1579.409,2547.00
1580.285,2893.00
1581.160,3482.00
1582.036,3179.00
1582.911,2760.00
1583.786,3327.00
1584.662,2727.00
1585.537,2932.00
1586.412,3038.00
1587.287,2764.00
1588.160,3163.00
1589.035,2586.00
1589.909,2996.00
1590.784,2928.00
1591.658,2748.00
1592.533,3014.00
1593.407,2989.00
1594.281,2817.00
1595.155,3409.00
1596.029,2921.00
1596.903,2905.00
1597.777,2878.00
1598.651,3211.00
1599.525,2619.00
1600.398,3027.00
1601.272,2903.00
1602.144,3581.00
1603.017,2934.00
1603.890,3263.00
1604.763,3034.00
1605.636,3134.00
1606.509,2615.00
1607.382,2737.00
1608.255,3055.00
1609.128,3200.00
1610.000,2889.00
1610.873,2614.00
1611.746,2835.00
1612.616,2882.00
1613.488,2521.00
1614.361,2978.00
1615.233,2908.00
1616.105,3183.00
1616.977,2880.00
1617.849,2770.00
1618.720,3333.00
1619.592,3289.00
1620.464,3042.00
1621.333,3457.00
1622.205,2945.00
1623.076,2958.00
1623.947,2975.00
1624.818,3228.00
1625.689,3106.00
1626.560,2862.00
1627.431,3033.00
1628.302,3426.00
1629.171,3092.00
1630.042,3341.00
1630.912,3721.00
1631.782,3590.00
1632.653,2724.00
1633.523,3137.00
1634.393,3231.00
1635.263,2830.00
1636.131,2984.00
1637.001,2856.00
1637.871,2558.00
1638.741,2571.00
1639.611,2709.00
1640.480,3136.00
1641.350,2817.00
1642.219,2796.00
1643.087,2422.00
1643.956,3471.00
1644.825,3317.00
1645.694,3218.00
1646.563,3132.00
1647.432,2972.00
1648.299,3019.00
1649.167,3114.00
1650.036,2769.00
1650.904,3284.00
1651.773,3208.00
1652.641,3035.00
1653.509,3149.00
1654.376,2819.00
1655.244,3041.00
1656.112,3045.00
1656.980,2998.00
1657.847,2822.00
1658.715,3158.00
1659.581,2895.00
1660.448,3274.00
1661.316,2420.00
1662.183,3048.00
1663.051,3032.00
1663.918,3027.00
1664.783,2997.00
1665.650,3052.00
1666.517,3157.00
1667.384,2972.00
1668.251,3023.00
1669.115,3242.00
1669.982,2936.00
1670.849,3298.00
1671.715,2936.00
1672.581,3127.00
1673.446,3109.00
1674.312,3016.00
1675.178,3413.00
1676.044,3053.00
1676.910,3082.00
1677.774,3063.00
1678.639,2568.00
1679.505,2979.00
1680.370,3158.00
1681.236,3776.00
1682.099,2906.00
1682.965,3037.00
1683.830,2527.00
1684.695,2809.00
1685.560,2897.00
1686.423,3097.00
1687.288,3166.00
1688.153,3035.00
1689.017,2918.00
1689.880,3098.00
1690.745,3114.00
1691.609,2797.00
1692.473,3179.00
1693.338,3233.00
1694.200,3281.00
1695.064,2957.00
1695.928,2830.00
1696.792,2991.00
1697.654,3535.00
1698.517,3015.00
1699.381,2715.00
1700.245,2592.00
1701.106,3351.00
1701.969,2882.00
1702.833,3155.00
1703.696,2886.00
1704.557,2932.00
1705.420,2831.00
1706.283,3004.00
1707.146,3146.00
1708.007,2781.00
1708.870,2749.00
1709.732,2602.00
1710.595,2880.00
1711.455,2708.00
1712.318,2919.00
1713.180,3246.00
1714.040,3044.00
1714.902,3165.00
1715.764,2988.00
1716.626,2734.00
1717.486,2968.00
1718.348,3272.00
1719.209,4730.00
1720.071,2596.00
1720.930,2700.00
1721.792,2769.00
1722.653,2804.00
1723.512,2849.00
1724.374,2941.00
1725.234,3045.00
1726.095,3006.00
1726.954,3009.00
1727.815,3130.00
1728.676,2983.00
1729.535,3255.00
1730.395,2996.00
1731.256,2890.00
1732.114,3048.00
1732.974,2391.00
1733.834,3442.00
1734.693,3209.00
1735.553,3020.00
1736.413,3496.00
1737.272,2834.00
1738.130,2909.00
1738.990,3071.00
1739.849,2889.00
1740.707,4128.00
1741.566,3012.00
1742.426,3078.00
1743.283,3462.00
1744.142,2891.00
1745.001,2620.00
1745.858,3208.00
1746.717,3097.00
1747.576,3141.00
1748.433,3178.00
1749.292,3676.00
1750.150,3705.00
1751.007,3218.00
1751.865,3211.00
1752.723,3016.00
1753.579,2925.00
1754.438,3231.00
1755.296,3241.00
1756.152,2495.00
1757.010,2648.00
1757.865,3214.00
1758.723,2606.00
1759.581,3362.00
1760.436,2970.00
1761.294,3416.00
1762.151,2981.00
1763.006,2909.00
1763.864,2561.00
1764.721,3244.00
1765.576,3053.00
1766.433,3154.00
1767.288,2863.00
1768.144,3079.00
1769.001,2936.00
1769.856,3110.00
1770.712,3268.00
1771.568,2754.00
1772.423,2867.00
1773.279,2888.00
1774.133,2881.00
1774.989,3457.00
1775.845,3428.00
1776.699,3287.00
1777.555,2945.00
1778.409,3615.00
1779.265,2930.00
1780.120,2924.00
1780.974,2982.00
1781.829,2515.00
1782.682,3047.00
1783.538,2800.00
1784.393,3073.00
1785.246,2897.00
1786.101,3131.00
1786.954,3183.00
1787.808,3232.00
1788.661,2647.00
1789.516,2931.00
1790.370,2899.00
1791.223,3230.00
1792.077,2984.00
1792.930,3110.00
1793.784,2858.00
1794.636,2975.00
1795.490,2944.00
1796.344,3056.00
1797.196,3024.00
1798.049,3204.00
1798.901,2866.00
1799.755,3204.00
1800.606,2781.00
1801.460,3617.00
1802.311,3349.00
1803.165,3509.00
1804.018,3369.00
1804.869,3094.00
1805.722,3523.00
1806.573,3027.00
1807.426,2794.00
1808.276,2999.00
1809.129,2916.00
1809.980,3266.00
1810.832,3331.00
1811.683,2948.00
1812.535,3371.00
1813.385,2916.00
1814.237,3325.00
1815.089,3086.00
1815.940,3332.00
1816.791,2978.00
1817.641,2837.00
1818.493,3187.00
1819.343,3073.00
1820.194,2852.00
1821.044,3120.00
1821.895,3267.00
1822.745,2686.00
1823.596,2906.00
1824.445,3465.00
1825.296,3144.00
1826.145,2971.00
1826.996,3233.00
1827.845,3072.00
1828.695,3098.00
1829.544,2989.00
1830.395,3059.00
1831.243,2951.00
1832.094,2745.00
1832.942,3764.00
1833.792,3147.00
1834.640,3094.00
1835.490,3038.00
1836.338,3118.00
1837.186,2865.00
1838.036,2831.00
1838.884,3004.00
1839.733,3421.00
1840.581,3253.00
1841.430,3131.00
1842.278,3394.00
1843.127,2909.00
1843.974,2682.00
1844.823,3487.00
1845.671,3187.00
1846.519,3033.00
1847.366,3107.00
1848.213,2617.00
1849.062,2790.00
1849.909,2726.00
1850.757,3751.00
1851.604,3146.00
1852.452,2902.00
1853.298,3209.00
1854.146,3089.00
1854.993,3042.00
1855.839,3576.00
1856.687,3104.00
1857.532,3191.00
1858.380,3010.00
1859.226,3124.00
1860.073,3140.00
1860.919,2840.00
1861.765,2886.00
1862.612,3300.00
1863.457,3269.00
1864.304,3004.00
1865.150,3161.00
1865.995,3001.00
1866.842,3148.00
1867.686,3287.00
1868.533,3113.00
1869.378,3082.00
1870.223,3086.00
1871.069,2956.00
1871.914,3070.00
1872.760,3003.00
1873.604,2789.00
1874.448,3172.00
1875.294,3269.00
1876.139,2868.00
1876.984,3147.00
1877.828,2650.00
1878.672,2460.00
1879.518,2866.00
1880.361,3217.00
1881.205,3163.00
1882.050,2829.00
1882.894,3568.00
1883.739,2888.00
1884.582,2743.00
1885.425,2835.00
1886.270,3286.00
1887.113,2757.00
1887.956,3108.00
1888.801,3074.00
1889.644,2819.00
1890.486,2605.00
1891.331,2907.00
1892.173,3068.00
1893.017,3160.00
1893.860,3339.00
1894.702,3406.00
1895.546,3063.00
1896.388,3841.00
1897.230,3449.00
1898.074,2915.00
1898.916,2784.00
1899.757,2834.00
1900.601,3790.00
1901.443,3358.00
1902.284,3402.00
1903.125,3556.00
1903.969,3257.00
1904.810,3281.00
1905.651,3116.00
1906.494,3433.00
1907.335,3572.00
1908.176,3146.00
1909.018,3142.00
1909.859,3017.00
1910.700,2846.00
1911.542,3640.00
1912.383,3089.00
1913.223,2597.00
1914.064,3183.00
1914.906,3345.00
1915.746,3432.00
1916.586,3579.00
1917.428,3023.00
1918.268,3034.00
1919.107,2931.00
1919.947,2796.00
1920.789,2943.00
1921.628,3326.00
1922.468,3069.00
1923.309,2882.00
1924.148,3397.00
1924.988,3143.00
1925.827,2996.00
1926.667,2890.00
1927.507,3097.00
1928.345,2831.00
1929.184,3259.00
1930.025,2820.00
1930.864,3337.00
1931.702,3386.00
1932.541,2943.00
1933.381,3183.00
1934.219,3228.00
1935.057,3419.00
1935.896,2697.00
1936.735,3007.00
1937.573,2935.00
1938.411,2841.00
1939.249,3226.00
1940.089,2903.00
1940.927,3358.00
1941.764,3406.00
1942.602,2974.00
1943.439,2960.00
1944.278,3035.00
1945.115,2940.00
1945.953,2712.00
1946.790,3136.00
1947.628,3441.00
1948.465,3142.00
1949.302,3212.00
1950.139,3177.00
1950.976,2925.00
1951.814,3270.00
1952.651,3100.00
1953.487,2869.00
1954.323,3390.00
1955.160,3059.00
1955.998,3469.00
1956.834,3024.00
1957.670,3151.00
1958.506,3313.00
1959.342,3198.00
1960.177,3110.00
1961.015,3217.00
1961.850,3103.00
1962.686,3087.00
1963.521,3104.00
1964.357,3352.00
1965.192,2803.00
1966.029,3219.00
1966.864,2995.00
1967.699,3304.00
1968.534,3117.00
1969.369,3398.00
1970.204,3043.00
1971.040,3127.00
1971.875,2972.00
1972.709,3098.00
1973.544,2876.00
1974.378,2958.00
1975.212,3171.00
1976.047,2972.00
1976.882,2924.00
1977.716,3484.00
1978.550,2740.00
1979.384,2974.00
1980.218,3025.00
1981.052,2985.00
1981.885,3112.00
1982.719,3069.00
1983.554,3221.00
1984.388,3435.00
1985.221,3134.00
1986.054,3353.00
1986.887,3131.00
1987.720,2882.00
1988.553,3414.00
1989.386,3153.00
1990.219,3243.00
1991.053,3430.00
1991.886,2873.00
1992.719,3320.00
1993.551,2531.00
1994.383,3206.00
1995.216,2961.00
1996.048,2747.00
1996.880,3265.00
1997.712,2930.00
1998.544,3072.00
1999.376,3142.00
2000.208,3387.00
2001.040,3594.00
2001.873,2860.00
2002.705,2852.00
2003.536,3100.00
2004.367,3114.00
2005.199,3120.00
2006.030,2933.00
2006.861,2828.00
2007.692,3104.00
2008.523,2940.00
2009.354,3109.00
2010.185,2838.00
2011.016,3204.00
2011.846,3332.00
2012.677,3016.00
2013.507,3451.00
2014.338,3304.00
2015.168,3009.00
2015.999,3649.00
2016.829,3004.00
2017.659,3323.00
2018.489,3668.00
2019.319,2867.00
2020.149,3290.00
2020.980,3080.00
2021.810,2822.00
2022.639,2921.00
2023.469,2947.00
2024.298,2705.00
2025.128,2660.00
2025.957,2636.00
2026.786,2443.00
2027.615,2675.00
2028.444,2851.00
2029.273,3108.00
2030.102,2609.00
2030.931,2926.00
2031.758,3195.00
2032.586,2838.00
2033.415,2929.00
2034.243,2471.00
2035.072,2221.00
2035.900,2803.00
2036.728,2593.00
2037.556,2630.00
2038.385,2639.00
2039.213,2426.00
2040.040,2434.00
2040.868,2430.00
2041.696,2461.00
2042.524,2463.00
2043.351,2688.00
2044.179,2477.00
2045.006,2225.00
