RamanScope Measure Spectrum Data V3.72

<< MEASURE CONDITION >>
Exposure Type,Aver
Exposure Time [sec],15
Exposure Count,30
Measure Time,2023/07/07 12:10:33
Data Name,""
Data Comment,""
Rayleigh Wave[nm],532.0

<< SAMPLE SPECTRUM >>
Wave[dcm-1],No528
146.591,822.93
147.626,997.03
148.664,1154.40
149.699,1348.60
150.737,1547.77
151.772,1744.70
152.809,1901.50
153.846,2080.13
154.881,2221.83
155.918,2360.97
156.953,2469.07
157.989,2538.17
159.026,2645.60
160.060,2641.17
161.096,2728.63
162.130,2761.90
163.167,2840.33
164.200,2861.73
165.236,2893.13
166.272,2944.00
167.305,3016.50
168.341,3086.67
169.374,3130.87
170.409,3205.67
171.445,3250.30
172.477,3355.60
173.512,3398.63
174.545,3422.23
175.580,3467.47
176.614,3457.80
177.647,3449.13
178.681,3442.17
179.713,3441.53
180.747,3375.10
181.781,3318.20
182.813,3275.60
183.847,3289.80
184.878,3211.47
185.912,3236.10
186.945,3219.37
187.976,3241.77
189.010,3196.37
190.043,3221.83
191.073,3214.10
192.106,3260.30
193.137,3275.53
194.170,3259.90
195.202,3286.83
196.232,3298.67
197.265,3344.20
198.297,3397.43
199.327,3409.23
200.359,3439.63
201.388,3444.43
202.420,3512.57
203.452,3547.90
204.481,3517.53
205.512,3573.23
206.544,3669.87
207.573,3656.80
208.604,3748.03
209.635,3795.20
210.663,3870.73
211.694,3882.07
212.725,3990.83
213.753,4074.10
214.783,4143.30
215.813,4168.20
216.841,4214.47
217.871,4275.60
218.899,4265.67
219.929,4280.97
220.959,4261.57
221.986,4272.27
223.016,4241.90
224.045,4234.93
225.072,4186.23
226.101,4141.73
227.130,4075.30
228.157,3964.67
229.185,3966.90
230.214,3936.37
231.241,3878.30
232.269,3847.37
233.297,3807.30
234.323,3842.67
235.351,3773.77
236.379,3749.50
237.407,3731.27
238.433,3723.87
239.460,3738.27
240.488,3766.23
241.513,3799.27
242.540,3826.73
243.568,3873.37
244.592,3930.33
245.619,3942.03
246.646,3940.27
247.671,3966.73
248.697,3955.60
249.724,3944.47
250.748,3892.50
251.774,3864.13
252.801,3858.90
253.827,3815.43
254.850,3837.30
255.876,3837.27
256.902,3789.07
257.925,3859.20
258.951,3902.30
259.976,3849.27
260.999,3819.97
262.024,3935.33
263.049,3906.40
264.074,3983.10
265.097,3962.00
266.122,3991.97
267.146,4031.43
268.168,4021.13
269.193,4026.33
270.217,4104.90
271.241,4120.70
272.263,4191.00
273.287,4167.90
274.311,4260.57
275.332,4254.47
276.356,4305.33
277.379,4248.03
278.402,4268.97
279.424,4293.57
280.447,4290.20
281.470,4285.83
282.492,4234.37
283.513,4169.53
284.536,4154.80
285.558,4123.90
286.581,4120.03
287.601,4041.47
288.623,3969.97
289.645,3959.13
290.665,3891.20
291.687,3824.60
292.709,3764.97
293.730,3727.67
294.750,3701.93
295.771,3666.60
296.792,3623.10
297.813,3616.40
298.832,3564.77
299.853,3515.73
300.874,3466.40
301.895,3482.90
302.913,3404.30
303.934,3372.63
304.954,3317.53
305.975,2317.10
306.993,3302.20
308.013,3268.17
309.033,3247.23
310.052,3210.20
311.072,3216.27
312.090,3159.67
313.109,3173.40
314.129,3097.03
315.148,3132.80
316.165,3132.07
317.184,3077.83
318.203,3074.03
319.222,3015.60
320.238,3090.97
321.257,3068.77
322.275,3028.50
323.294,3008.43
324.312,2975.73
325.328,2978.83
326.346,2945.37
327.364,2973.23
328.382,3049.07
329.397,2990.40
330.415,2916.10
331.432,2911.43
332.450,2925.47
333.467,2894.53
334.482,2926.80
335.499,2915.60
336.516,2901.00
337.533,2905.00
338.547,2876.60
339.564,2873.30
340.580,2876.53
341.597,2889.07
342.613,2849.20
343.627,2854.63
344.643,2815.07
345.659,2811.57
346.675,2822.87
347.690,2809.23
348.704,2830.67
349.719,2839.53
350.735,2821.80
351.750,2767.90
352.765,2822.70
353.778,2805.87
354.793,2763.30
355.808,2812.07
356.822,2779.50
357.837,2825.17
358.851,2804.53
359.864,2782.70
360.878,2812.17
361.892,2839.93
362.906,2862.70
363.920,2833.90
364.932,2830.83
365.945,2791.70
366.959,2851.70
367.972,2838.70
368.986,2871.33
369.999,2844.50
371.010,2866.60
372.023,2879.60
373.036,2889.00
374.049,2907.80
375.061,2848.40
376.072,2910.93
377.084,2912.03
378.097,2945.63
379.109,2975.47
380.121,2952.20
381.133,2956.77
382.143,2958.70
383.155,2932.57
384.166,2954.23
385.178,2979.53
386.189,2946.07
387.201,2980.70
388.212,3006.90
389.221,2984.17
390.232,2974.33
391.243,2963.20
392.254,2941.60
393.264,2966.50
394.275,2955.60
395.283,2929.10
396.294,2918.70
397.304,2879.53
398.314,2927.17
399.324,2883.50
400.334,2895.20
401.344,2884.10
402.351,2861.87
403.361,2893.63
404.370,2848.83
405.380,2869.93
406.389,2857.87
407.398,2802.73
408.407,2795.17
409.414,2936.43
410.423,2810.93
411.431,2785.77
412.440,2753.67
413.448,2754.17
414.457,2772.60
415.465,2733.07
416.471,2711.23
417.479,2705.73
418.487,2682.63
419.495,2697.43
420.503,2715.97
421.510,2690.47
422.518,2682.57
423.525,2677.53
424.530,2664.63
425.537,2697.30
426.544,2633.43
427.551,2680.63
428.558,2675.60
429.565,2648.93
430.571,2661.50
431.578,2642.73
432.582,2643.67
433.588,2595.87
434.595,2664.43
435.601,2643.40
436.607,2658.97
437.612,2637.37
438.618,2647.37
439.624,2597.30
440.627,2654.57
441.633,2652.27
442.638,2631.17
443.643,2657.53
444.648,2632.77
445.653,2646.00
446.658,2641.13
447.663,2623.20
448.667,2641.27
449.672,2635.17
450.674,2659.90
451.678,2692.90
452.682,2674.13
453.687,2641.83
454.690,2653.83
455.694,2678.97
456.698,2638.63
457.702,2665.63
458.705,2660.63
459.709,2697.20
460.710,2696.23
461.713,2667.47
462.716,2660.90
463.719,2685.93
464.722,2692.03
465.725,2700.13
466.727,2721.13
467.730,2661.07
468.732,2716.73
469.735,2688.23
470.737,2751.93
471.737,2697.07
472.739,2665.03
473.741,2724.87
474.742,2681.17
475.744,2651.00
476.746,2712.23
477.747,2731.03
478.748,2703.90
479.750,2688.00
480.751,2717.53
481.752,2675.33
482.753,2741.30
483.751,2718.77
484.752,2714.87
485.753,2680.47
486.753,2729.10
487.753,2734.10
488.754,2730.27
489.754,2683.53
490.754,2686.83
491.754,2706.00
492.754,2719.80
493.753,2711.03
494.753,2688.03
495.752,2692.47
496.752,2742.50
497.749,2721.33
498.748,2672.40
499.747,2682.47
500.746,2676.60
501.745,2708.23
502.744,2716.23
503.742,2686.43
504.741,2659.97
505.739,2646.50
506.737,2662.03
507.735,2628.00
508.734,2625.07
509.732,2630.23
510.729,2680.60
511.727,2639.70
512.725,2645.80
513.720,2603.40
514.718,2634.70
515.715,2541.77
516.712,2618.67
517.709,2608.10
518.706,2619.07
519.703,2601.37
520.700,2589.03
521.696,2580.77
522.693,2585.70
523.689,2599.97
524.686,2608.83
525.682,2550.50
526.678,2596.87
527.674,2591.93
528.670,2580.53
529.666,2625.17
530.661,2597.43
531.657,2660.03
532.652,2634.37
533.648,2647.17
534.641,2614.80
535.636,2612.03
536.631,2637.13
537.626,2634.47
538.621,2631.30
539.616,2619.23
540.610,2603.83
541.605,2618.90
542.599,2659.00
543.593,2633.97
544.587,2621.33
545.581,2632.43
546.575,2608.73
547.569,2653.97
548.563,2636.67
549.557,2625.30
550.550,2626.33
551.543,2629.60
552.537,2599.10
553.530,2595.40
554.523,2624.30
555.516,2592.27
556.509,2592.77
557.502,2599.13
558.494,2625.57
559.487,2634.57
560.479,2654.10
561.472,2588.97
562.464,2603.23
563.456,2603.13
564.448,2598.73
565.440,2645.20
566.432,2619.90
567.423,2615.80
568.415,2662.37
569.404,2647.43
570.396,2640.30
571.387,2650.03
572.378,2643.40
573.369,2601.03
574.360,2632.93
575.351,2725.60
576.341,2668.30
577.332,2657.97
578.323,2671.07
579.313,2660.60
580.303,2698.23
581.293,2698.50
582.283,2672.13
583.273,2704.27
584.263,2689.80
585.253,2719.37
586.243,2722.77
587.232,2696.10
588.222,2698.43
589.211,2741.83
590.200,2713.23
591.189,2741.53
592.178,2766.50
593.167,2710.13
594.156,2720.43
595.145,2789.07
596.133,2731.50
597.122,2773.37
598.110,2722.17
599.098,2762.77
600.086,2691.37
601.074,2740.20
602.062,2744.60
603.050,2780.23
604.038,2747.73
605.025,2723.90
606.013,2746.40
607.000,2771.07
607.987,2783.83
608.975,2713.07
609.962,2750.57
610.949,2735.00
611.936,2800.77
612.922,2734.53
613.909,2712.77
614.895,2725.07
615.882,2725.33
616.868,2739.00
617.854,2722.80
618.841,2657.17
619.826,2669.47
620.812,2596.77
621.798,2627.53
622.784,2622.77
623.769,2578.20
624.755,2558.10
625.740,2565.83
626.725,2534.60
627.711,2567.20
628.698,2503.30
629.683,2483.77
630.667,2491.07
631.652,2455.90
632.637,2461.60
633.621,2457.40
634.606,2415.07
635.590,2423.33
636.574,2395.43
637.558,2374.40
638.542,2415.83
639.526,2334.70
640.510,2301.40
641.493,2318.97
642.477,2282.43
643.460,2286.43
644.444,2289.77
645.427,2217.80
646.410,2256.57
647.393,2241.73
648.376,2246.60
649.359,2228.13
650.341,2213.10
651.324,2197.07
652.307,2179.40
653.289,2212.93
654.271,2216.83
655.253,2158.20
656.235,2154.43
657.217,2178.57
658.199,2155.73
659.181,2160.90
660.163,2136.97
661.144,2120.43
662.126,2101.10
663.107,2111.67
664.088,2076.13
665.069,2096.37
666.050,2105.17
667.033,2068.23
668.014,2064.80
668.995,2095.67
669.975,2029.50
670.956,2056.63
671.936,2066.67
672.916,2044.03
673.896,2031.23
674.876,2032.50
675.856,2035.50
676.836,2012.50
677.816,1986.50
678.795,2010.60
679.775,1995.17
680.754,1952.47
681.734,1935.83
682.713,1927.30
683.692,1923.57
684.671,1919.33
685.650,1924.40
686.629,1896.13
687.607,1893.47
688.586,1854.40
689.564,1836.90
690.543,1831.83
691.523,1819.57
692.501,1809.10
693.479,1786.63
694.457,1843.60
695.435,1836.13
696.413,1765.17
697.390,1763.43
698.368,1739.77
699.345,1780.47
700.322,1725.87
701.300,1772.93
702.277,1746.50
703.254,1737.40
704.231,1736.23
705.207,1738.63
706.184,1742.37
707.161,1702.67
708.137,1677.60
709.113,1674.63
710.090,1683.47
711.068,1698.07
712.044,1647.63
713.020,1686.47
713.996,1666.63
714.971,1667.27
715.947,1613.83
716.922,1628.33
717.898,1623.23
718.873,1632.03
719.848,1647.67
720.823,1645.40
721.798,1611.40
722.773,1628.50
723.748,1596.00
724.723,1573.67
725.697,1589.97
726.672,1581.77
727.646,1567.87
728.622,1564.20
729.596,1542.13
730.570,1604.70
731.544,1528.33
732.518,1596.80
733.492,1574.53
734.466,1512.33
735.439,1565.60
736.413,1628.50
737.386,1575.60
738.359,1546.23
739.332,1520.50
740.305,1509.63
741.278,1545.63
742.251,1511.47
743.224,1504.67
744.196,1542.57
745.171,1491.07
746.143,1483.80
747.115,1487.93
748.087,1527.53
749.059,1493.73
750.031,1492.70
751.003,1532.23
751.975,1480.80
752.947,1481.63
753.918,1493.77
754.890,1469.37
755.861,1440.37
756.832,1435.57
757.803,1463.50
758.774,1445.03
759.747,1436.77
760.718,1432.07
761.689,1425.83
762.659,1443.20
763.630,1450.43
764.600,1403.13
765.570,1385.97
766.540,1409.17
767.510,1426.20
768.480,1432.53
769.450,1369.97
770.420,1420.93
771.390,1361.80
772.359,1382.57
773.329,1371.40
774.300,1385.50
775.269,1387.67
776.238,1340.40
777.207,1358.47
778.176,1338.97
779.145,1338.50
780.114,1361.50
781.083,1372.47
782.051,1384.53
783.019,1324.33
783.988,1321.90
784.956,1370.47
785.924,1340.37
786.894,1244.77
787.862,1321.63
788.830,1330.17
789.797,1314.13
790.765,1307.80
791.732,1285.03
792.700,1325.73
793.667,1272.50
794.634,1294.03
795.601,1293.33
796.568,1291.13
797.535,1273.57
798.502,1275.17
799.468,1298.73
800.437,1270.57
801.403,1276.97
802.370,1258.77
803.336,1248.93
804.302,1267.87
805.268,1251.77
806.234,1268.27
807.200,1259.00
808.166,1261.73
809.131,1251.13
810.097,1272.37
811.062,1231.03
812.027,1235.03
812.994,1209.73
813.960,1244.77
814.925,1250.17
815.889,1209.63
816.854,1263.83
817.819,1230.27
818.783,1219.73
819.748,1244.03
820.712,1224.13
821.677,1258.30
822.641,1252.20
823.605,1218.67
824.571,1246.13
825.534,1227.23
826.498,1221.37
827.462,1231.00
828.425,1243.83
829.389,1245.13
830.352,1240.67
831.315,1239.57
832.279,1226.47
833.242,1216.93
834.204,1214.60
835.167,1240.43
836.132,1266.37
837.095,1240.87
838.057,1248.00
839.020,1216.00
839.982,1201.70
840.944,1245.23
841.906,1238.40
842.868,1201.50
843.830,1241.07
844.792,1217.40
845.753,1215.20
846.715,1244.73
847.679,1217.33
848.640,1201.53
849.601,1227.43
850.562,1185.43
851.523,1230.53
852.484,1280.20
853.445,1198.77
854.406,1242.20
855.367,1223.03
856.327,1222.03
857.288,1224.47
858.248,1269.83
859.210,1224.80
860.170,1229.10
861.130,1218.37
862.090,1248.87
863.050,1256.83
864.010,1213.00
864.969,1257.10
865.929,1201.63
866.888,1232.77
867.848,1223.17
868.807,1216.70
869.766,1242.17
870.727,1262.30
871.686,1219.23
872.645,1263.90
873.604,1248.27
874.562,1188.20
875.521,1297.77
876.479,1251.93
877.437,1244.50
878.396,1275.43
879.354,1249.57
880.312,1244.60
881.270,1285.10
882.229,1245.33
883.187,1258.33
884.145,1268.60
885.102,1230.30
886.059,1230.60
887.017,1263.37
887.974,1244.83
888.931,1269.30
889.888,1280.27
890.845,1236.47
891.802,1241.60
892.758,1239.43
893.717,1255.90
894.673,1248.03
895.630,1229.53
896.586,1266.87
897.542,1246.03
898.498,1260.07
899.454,1301.17
900.410,1243.43
901.366,1256.37
902.321,1211.53
903.277,1280.73
904.232,1211.57
905.189,1260.83
906.145,1268.27
907.100,1264.57
908.055,1217.70
909.010,1264.03
909.965,1234.57
910.919,1264.07
911.874,1225.60
912.828,1249.40
913.783,1208.67
914.737,1227.40
915.693,1270.60
916.648,1232.77
917.602,1262.90
918.555,1231.30
919.509,1292.43
920.463,1227.90
921.417,1298.87
922.370,1210.30
923.324,1260.20
924.277,1237.63
925.230,1250.60
926.183,1258.07
927.138,1217.37
928.091,1217.97
929.044,1201.10
929.996,1254.23
930.949,1239.00
931.902,1250.07
932.854,1225.13
933.806,1229.97
934.758,1238.20
935.711,1233.53
936.663,1244.30
937.614,1244.87
938.568,1223.93
939.520,1224.37
940.471,1252.43
941.423,1212.43
942.374,1247.27
943.326,1200.53
944.277,1212.47
945.228,1213.73
946.179,1218.03
947.130,1193.87
948.080,1237.77
949.031,1185.57
949.984,1217.60
950.934,1208.07
951.884,1199.00
952.835,1202.30
953.785,1217.57
954.735,1175.40
955.685,1212.17
956.635,1194.63
957.585,1203.97
958.534,1197.97
959.484,1210.43
960.433,1176.13
961.383,1181.57
962.334,1205.97
963.283,1231.77
964.232,1193.00
965.181,1156.93
966.130,1181.57
967.079,1152.07
968.027,1189.80
968.976,1181.70
969.924,1174.57
970.873,1232.27
971.821,1130.60
972.769,1179.73
973.719,1172.47
974.667,1168.13
975.615,1186.40
976.562,1129.17
977.510,1157.03
978.458,1173.73
979.405,1144.93
980.352,1160.47
981.300,1143.63
982.247,1155.50
983.194,1189.77
984.141,1154.17
985.088,1148.40
986.036,1140.07
986.983,1154.33
987.930,1178.73
988.876,1198.60
989.822,1177.57
990.769,1191.27
991.715,1175.40
992.661,1149.67
993.607,1159.77
994.553,1106.13
995.498,1169.07
996.444,1154.50
997.389,1175.20
998.337,1169.47
999.282,1172.90
1000.227,1177.17
1001.173,1166.83
1002.118,1162.97
1003.062,1154.17
1004.007,1131.03
1004.952,1124.20
1005.897,1147.00
1006.841,1133.80
1007.786,1135.30
1008.730,1152.20
1009.674,1143.33
1010.618,1133.77
1011.564,1182.20
1012.508,1190.07
1013.452,1136.93
1014.396,1154.20
1015.339,1180.73
1016.283,1187.07
1017.226,1186.83
1018.170,1179.27
1019.113,1171.93
1020.056,1148.93
1020.999,1136.13
1021.942,1174.13
1022.885,1158.30
1023.828,1152.43
1024.770,1164.37
1025.715,1159.47
1026.657,1111.00
1027.600,1164.13
1028.542,1181.00
1029.484,1161.33
1030.426,1177.67
1031.368,1150.70
1032.310,1184.07
1033.251,1135.00
1034.193,1117.40
1035.135,1170.67
1036.076,1159.00
1037.017,1139.13
1037.959,1147.80
1038.900,1159.20
1039.843,1168.87
1040.784,1169.23
1041.725,1167.13
1042.665,1175.87
1043.606,1173.57
1044.547,1198.67
1045.487,1170.60
1046.427,1194.27
1047.368,1185.30
1048.308,1173.70
1049.248,1162.73
1050.188,1189.97
1051.128,1192.70
1052.067,1209.00
1053.007,1218.77
1053.947,1190.90
1054.886,1160.37
1055.827,1179.17
1056.766,1230.83
1057.706,1192.77
1058.645,1186.50
1059.584,1188.70
1060.522,1161.63
1061.461,1226.17
1062.400,1195.70
1063.338,1164.70
1064.277,1197.47
1065.215,1177.50
1066.154,1207.83
1067.092,1189.43
1068.030,1235.43
1068.968,1199.70
1069.906,1212.37
1070.843,1213.60
1071.781,1254.07
1072.720,1233.10
1073.658,1166.50
1074.595,1220.77
1075.533,1233.03
1076.470,1255.47
1077.407,1161.67
1078.344,1246.67
1079.281,1239.57
1080.217,1229.90
1081.154,1221.10
1082.091,1233.93
1083.027,1214.47
1083.964,1243.80
1084.900,1245.83
1085.836,1225.23
1086.772,1229.03
1087.708,1221.23
1088.644,1225.20
1089.580,1211.80
1090.515,1206.33
1091.451,1216.57
1092.388,1209.03
1093.324,1230.30
1094.259,1193.83
1095.194,1241.63
1096.129,1189.87
1097.064,1194.73
1097.999,1227.07
1098.934,1202.83
1099.869,1201.20
1100.803,1222.93
1101.738,1193.83
1102.672,1200.23
1103.607,1170.50
1104.541,1161.53
1105.475,1181.83
1106.409,1191.90
1107.343,1139.13
1108.277,1160.33
1109.210,1124.60
1110.144,1143.43
1111.078,1138.97
1112.011,1116.67
1112.944,1115.90
1113.878,1147.37
1114.811,1157.17
1115.744,1114.87
1116.678,1117.67
1117.611,1120.00
1118.544,1112.03
1119.477,1076.80
1120.409,1093.13
1121.342,1108.57
1122.274,1085.97
1123.206,903.67
1124.138,1105.10
1125.070,1089.60
1126.002,1055.83
1126.934,1027.20
1127.866,1048.60
1128.798,1080.47
1129.729,1057.03
1130.661,1046.33
1131.592,1034.80
1132.523,1031.50
1133.454,1030.37
1134.385,1017.03
1135.317,999.37
1136.247,1025.40
1137.178,1013.40
1138.109,1034.00
1139.039,989.87
1139.970,1019.80
1140.900,942.73
1141.831,1009.90
1142.761,989.53
1143.691,1016.13
1144.621,1018.47
1145.551,993.43
1146.480,985.20
1147.410,1022.97
1148.340,956.23
1149.269,964.17
1150.199,991.37
1151.128,965.57
1152.057,974.83
1152.979,980.53
1153.898,974.37
1154.819,977.57
1155.739,952.83
1156.658,995.73
1157.579,980.87
1158.498,936.60
1159.419,943.47
1160.338,905.60
1161.256,944.60
1162.177,942.53
1163.095,941.80
1164.016,977.93
1164.934,930.10
1165.852,974.00
1166.772,899.60
1167.690,926.10
1168.610,973.63
1169.528,939.13
1170.446,958.67
1171.365,932.00
1172.283,932.63
1173.202,929.03
1174.120,954.57
1175.037,958.00
1175.956,912.43
1176.873,942.40
1177.792,911.63
1178.709,903.53
1179.626,959.00
1180.544,920.70
1181.461,939.80
1182.379,906.80
1183.296,932.03
1184.212,911.67
1185.130,916.93
1186.046,940.03
1186.962,919.67
1187.880,894.03
1188.796,922.17
1189.714,903.93
1190.629,911.47
1191.545,924.27
1192.462,917.60
1193.378,934.67
1194.295,943.80
1195.210,938.63
1196.125,967.23
1197.042,954.90
1197.957,893.63
1198.872,904.07
1199.788,927.63
1200.703,895.60
1201.619,937.07
1202.534,896.63
1203.448,890.77
1204.364,916.73
1205.278,933.23
1206.192,903.67
1207.108,940.67
1208.022,945.10
1208.938,927.17
1209.851,899.07
1210.765,906.07
1211.680,905.87
1212.594,870.00
1213.507,912.47
1214.422,933.73
1215.335,942.40
1216.248,897.27
1217.163,925.80
1218.076,941.97
1218.990,914.23
1219.903,927.57
1220.816,922.40
1221.730,912.37
1222.642,925.73
1223.554,914.07
1224.469,951.23
1225.380,904.83
1226.292,940.70
1227.206,939.50
1228.118,942.13
1229.032,910.17
1229.943,920.83
1230.855,940.57
1231.768,918.60
1232.679,936.37
1233.590,926.97
1234.503,932.33
1235.414,948.57
1236.325,930.90
1237.238,945.07
1238.149,907.17
1239.059,956.57
1239.972,979.07
1240.882,981.33
1241.793,960.20
1242.705,972.90
1243.615,988.73
1244.525,975.63
1245.437,950.97
1246.347,939.80
1247.259,986.87
1248.168,965.13
1249.078,936.83
1249.989,958.17
1250.899,975.80
1251.808,946.33
1252.719,986.87
1253.628,953.10
1254.537,948.60
1255.448,950.77
1256.357,976.67
1257.266,948.20
1258.176,963.80
1259.085,978.70
1259.993,945.33
1260.904,976.70
1261.812,989.73
1262.720,964.60
1263.630,977.83
1264.538,978.20
1265.446,995.43
1266.356,1020.90
1267.263,960.50
1268.171,999.93
1269.080,952.77
1269.988,955.57
1270.895,985.80
1271.804,978.53
1272.711,988.13
1273.619,950.67
1274.527,975.60
1275.434,1005.47
1276.341,942.63
1277.248,1025.13
1278.156,930.63
1279.063,959.17
1279.969,960.00
1280.877,930.83
1281.783,992.07
1282.690,985.07
1283.598,967.53
1284.503,954.00
1285.409,962.60
1286.317,946.37
1287.223,984.53
1288.128,972.23
1289.036,977.53
1289.941,996.63
1290.846,952.77
1291.751,968.63
1292.658,950.47
1293.563,985.63
1294.468,958.70
1295.375,969.00
1296.280,945.23
1297.184,932.97
1298.091,934.80
1298.995,958.47
1299.900,951.97
1300.806,955.90
1301.710,945.70
1302.614,941.57
1303.518,930.40
1304.424,938.03
1305.327,959.57
1306.231,947.53
1307.137,881.10
1308.040,944.63
1308.943,940.97
1309.847,923.10
1310.752,920.20
1311.655,957.83
1312.558,920.07
1313.463,899.30
1314.366,864.33
1315.269,895.07
1316.171,895.33
1317.076,852.30
1317.978,876.33
1318.881,908.90
1319.785,925.60
1320.687,915.20
1321.589,909.97
1322.491,930.77
1323.395,899.83
1324.297,903.93
1325.198,896.07
1326.102,896.83
1327.004,868.30
1327.905,880.37
1328.806,902.63
1329.709,866.67
1330.611,859.33
1331.512,835.33
1332.413,868.57
1333.316,894.40
1334.216,885.10
1335.117,828.43
1336.020,883.23
1336.920,873.37
1337.821,852.10
1338.721,836.17
1339.623,849.00
1340.523,848.70
1341.423,854.53
1342.323,786.73
1343.225,868.83
1344.125,835.70
1345.025,844.50
1345.924,791.67
1346.826,853.43
1347.725,803.30
1348.624,836.10
1349.524,840.53
1350.425,783.07
1351.324,794.13
1352.223,805.67
1353.121,797.47
1354.022,777.53
1354.921,807.10
1355.819,807.07
1356.718,807.37
1357.618,797.87
1358.516,769.57
1359.415,816.13
1360.313,783.63
1361.213,767.13
1362.111,765.13
1363.008,777.07
1363.906,735.60
1364.806,765.40
1365.703,778.83
1366.601,759.17
1367.498,761.03
1368.397,778.90
1369.295,739.87
1370.192,759.93
1371.089,740.33
1371.987,734.40
1372.884,795.80
1373.781,720.13
1374.678,764.33
1375.574,734.47
1376.473,718.40
1377.369,754.97
1378.265,759.93
1379.161,715.37
1380.059,730.37
1380.955,735.77
1381.851,728.97
1382.747,701.13
1383.643,713.23
1384.540,751.23
1385.436,748.33
1386.331,714.37
1387.227,717.83
1388.124,737.17
1389.019,727.47
1389.914,724.33
1390.809,745.53
1391.704,742.20
1392.601,680.27
1393.495,706.60
1394.390,728.07
1395.285,748.40
1396.179,680.00
1397.075,704.80
1397.969,688.07
1398.864,704.33
1399.758,720.43
1400.652,709.87
1401.547,666.30
1402.441,723.53
1403.335,712.77
1404.229,771.87
1405.122,699.13
1406.017,736.67
1406.911,690.97
1407.804,691.80
1408.697,697.43
1409.590,718.93
1410.485,666.17
1411.378,677.63
1412.271,678.67
1413.163,704.17
1414.056,659.77
1414.949,672.67
1415.843,665.37
1416.735,676.43
1417.627,653.33
1418.520,686.03
1419.412,675.83
1420.306,669.60
1421.197,686.23
1422.089,701.93
1422.981,668.20
1423.873,659.00
1424.764,713.20
1425.657,697.70
1426.549,666.73
1427.440,717.60
1428.331,692.23
1429.222,664.50
1430.113,637.20
1431.006,697.00
1431.897,637.70
1432.787,683.43
1433.678,641.57
1434.568,654.10
1435.459,658.73
1436.351,659.93
1437.241,673.63
1438.131,637.03
1439.021,624.97
1439.911,623.70
1440.801,619.00
1441.693,683.93
1442.583,667.43
1443.472,657.17
1444.362,635.07
1445.251,646.30
1446.140,627.57
1447.030,647.53
1447.921,683.73
1448.810,645.57
1449.699,668.67
1450.588,648.10
1451.476,646.87
1452.365,631.73
1453.254,628.23
1454.144,635.37
1455.032,629.17
1455.921,626.00
1456.809,595.53
1457.697,591.37
1458.585,621.53
1459.473,608.23
1460.361,610.40
1461.251,626.50
1462.138,609.67
1463.026,637.20
1463.913,633.83
1464.801,597.97
1465.688,633.63
1466.575,604.37
1467.463,679.67
1468.351,622.60
1469.238,593.30
1470.125,635.93
1471.012,627.90
1471.899,584.10
1472.785,628.30
1473.672,615.23
1474.558,605.30
1475.446,630.00
1476.333,604.00
1477.219,594.60
1478.105,605.93
1478.991,601.80
1479.877,595.17
1480.762,604.00
1481.648,600.70
1482.534,609.17
1483.419,584.90
1484.307,620.17
1485.192,585.63
1486.077,598.47
1486.962,606.40
1487.847,612.40
1488.732,595.03
1489.617,619.73
1490.502,588.13
1491.387,563.73
1492.271,626.20
1493.156,600.37
1494.042,605.23
1494.927,607.90
1495.811,587.07
1496.695,625.13
1497.579,585.37
1498.463,605.53
1499.347,641.47
1500.231,583.10
1501.114,542.87
1501.998,590.17
1502.881,551.70
1503.765,583.43
1504.648,537.80
1505.533,605.67
1506.417,575.13
1507.300,564.70
1508.183,592.53
1509.066,581.27
1509.948,565.57
1510.831,593.97
1511.714,541.27
1512.596,593.10
1513.479,569.63
1514.361,534.53
1515.243,546.93
1516.125,600.87
1517.008,559.03
1517.890,570.33
1518.771,562.67
1519.655,531.80
1520.537,581.60
1521.419,565.27
1522.300,588.77
1523.182,573.73
1524.063,532.17
1524.944,536.93
1525.825,560.17
1526.707,555.90
1527.588,553.33
1528.468,568.43
1529.349,540.80
1530.230,515.53
1531.111,582.30
1531.991,557.57
1532.872,568.10
1533.752,570.37
1534.632,546.73
1535.513,545.60
1536.393,568.03
1537.273,530.07
1538.153,535.27
1539.032,523.73
1539.912,534.67
1540.792,543.40
1541.672,542.60
1542.551,570.13
1543.430,557.00
1544.310,531.63
1545.189,531.27
1546.068,583.30
1546.947,555.63
1547.826,546.30
1548.705,546.20
1549.584,522.70
1550.462,554.40
1551.341,563.27
1552.219,529.17
1553.098,536.50
1553.976,533.70
1554.854,594.33
1555.733,563.53
1556.611,548.17
1557.489,565.93
1558.367,567.50
1559.244,579.50
1560.122,534.73
1561.000,546.90
1561.877,547.50
1562.755,565.80
1563.632,549.57
1564.509,509.63
1565.386,536.80
1566.264,537.73
1567.141,523.23
1568.017,560.30
1568.894,513.37
1569.771,528.73
1570.648,561.37
1571.524,567.93
1572.401,508.60
1573.277,518.30
1574.153,541.63
1575.029,516.90
1575.906,539.47
1576.781,521.63
1577.657,549.50
1578.533,534.90
1579.409,519.10
1580.285,525.73
1581.160,526.53
1582.036,518.97
1582.911,505.97
1583.786,516.50
1584.662,520.30
1585.537,501.67
1586.412,507.00
1587.287,505.03
1588.160,509.80
1589.035,486.57
1589.909,504.40
1590.784,516.97
1591.658,533.23
1592.533,522.10
1593.407,554.23
1594.281,511.37
1595.155,514.53
1596.029,535.87
1596.903,504.80
1597.777,554.60
1598.651,498.77
1599.525,529.37
1600.398,525.10
1601.272,535.13
1602.144,518.90
1603.017,466.57
1603.890,510.97
1604.763,512.53
1605.636,521.93
1606.509,522.27
1607.382,498.53
1608.255,527.67
1609.128,500.03
1610.000,508.80
1610.873,511.63
1611.746,486.30
1612.616,474.10
1613.488,505.53
1614.361,499.47
1615.233,531.27
1616.105,487.77
1616.977,479.87
1617.849,515.93
1618.720,494.83
1619.592,509.13
1620.464,498.77
1621.333,517.33
1622.205,525.37
1623.076,528.03
1623.947,498.50
1624.818,459.73
1625.689,516.00
1626.560,517.57
1627.431,486.27
1628.302,529.40
1629.171,512.97
1630.042,468.47
1630.912,130.17
1631.782,463.57
1632.653,503.30
1633.523,480.27
1634.393,483.13
1635.263,503.97
1636.131,496.93
1637.001,520.20
1637.871,473.53
1638.741,489.20
1639.611,504.27
1640.480,451.37
1641.350,499.53
1642.219,510.03
1643.087,480.17
1643.956,447.83
1644.825,459.80
1645.694,512.33
1646.563,488.23
1647.432,468.60
1648.299,449.83
1649.167,511.17
1650.036,495.47
1650.904,515.27
1651.773,482.03
1652.641,488.70
1653.509,505.83
1654.376,475.93
1655.244,500.90
1656.112,496.83
1656.980,503.50
1657.847,471.23
1658.715,499.17
1659.581,485.70
1660.448,496.57
1661.316,441.10
1662.183,474.27
1663.051,479.83
1663.918,465.93
1664.783,482.90
1665.650,494.20
1666.517,435.60
1667.384,471.10
1668.251,476.63
1669.115,472.80
1669.982,513.60
1670.849,468.67
1671.715,468.60
1672.581,466.20
1673.446,455.50
1674.312,490.23
1675.178,508.37
1676.044,478.83
1676.910,457.00
1677.774,457.13
1678.639,470.80
1679.505,507.17
1680.370,487.50
1681.236,484.77
1682.099,498.47
1682.965,484.40
1683.830,481.03
1684.695,485.03
1685.560,527.87
1686.423,439.53
1687.288,481.23
1688.153,463.60
1689.017,464.30
1689.880,472.47
1690.745,480.33
1691.609,461.77
1692.473,431.33
1693.338,497.67
1694.200,467.70
1695.064,477.63
1695.928,448.63
1696.792,439.53
1697.654,458.13
1698.517,478.97
1699.381,448.67
1700.245,443.40
1701.106,476.87
1701.969,440.77
1702.833,480.77
1703.696,458.07
1704.557,441.03
1705.420,439.20
1706.283,449.70
1707.146,480.30
1708.007,464.00
1708.870,459.40
1709.732,464.10
1710.595,444.90
1711.455,466.33
1712.318,440.30
1713.180,453.87
1714.040,465.60
1714.902,453.63
1715.764,482.97
1716.626,469.57
1717.486,428.00
1718.348,455.97
1719.209,263.10
1720.071,448.03
1720.930,451.37
1721.792,449.90
1722.653,463.57
1723.512,485.47
1724.374,459.80
1725.234,449.03
1726.095,471.57
1726.954,465.00
1727.815,442.73
1728.676,437.00
1729.535,454.20
1730.395,489.73
1731.256,456.83
1732.114,475.10
1732.974,453.27
1733.834,483.13
1734.693,460.10
1735.553,428.20
1736.413,447.57
1737.272,438.33
1738.130,455.30
1738.990,472.50
1739.849,467.23
1740.707,464.87
1741.566,432.13
1742.426,436.07
1743.283,465.90
1744.142,464.77
1745.001,415.73
1745.858,461.23
1746.717,435.07
1747.576,445.70
1748.433,455.50
1749.292,446.47
1750.150,398.17
1751.007,474.30
1751.865,450.47
1752.723,490.13
1753.579,470.80
1754.438,440.07
1755.296,426.47
1756.152,431.10
1757.010,466.80
1757.865,451.30
1758.723,438.23
1759.581,439.63
1760.436,419.27
1761.294,451.73
1762.151,434.57
1763.006,427.53
1763.864,454.67
1764.721,408.53
1765.576,460.30
1766.433,474.87
1767.288,479.17
1768.144,444.43
1769.001,431.50
1769.856,427.73
1770.712,401.63
1771.568,429.80
1772.423,421.90
1773.279,435.43
1774.133,446.93
1774.989,446.63
1775.845,432.30
1776.699,430.67
1777.555,422.73
1778.409,446.10
1779.265,466.97
1780.120,494.37
1780.974,431.13
1781.829,434.23
1782.682,417.50
1783.538,453.77
1784.393,429.90
1785.246,443.97
1786.101,449.97
1786.954,446.00
1787.808,467.03
1788.661,427.93
1789.516,432.23
1790.370,427.73
1791.223,450.80
1792.077,446.13
1792.930,425.27
1793.784,446.37
1794.636,422.97
1795.490,417.20
1796.344,427.07
1797.196,432.47
1798.049,415.33
1798.901,416.60
1799.755,426.30
1800.606,463.10
1801.460,435.57
1802.311,440.70
1803.165,480.53
1804.018,411.40
1804.869,411.73
1805.722,415.23
1806.573,433.43
1807.426,461.57
1808.276,419.70
1809.129,455.00
1809.980,433.63
1810.832,420.80
1811.683,435.67
1812.535,465.77
1813.385,455.60
1814.237,429.87
1815.089,394.73
1815.940,421.97
1816.791,452.47
1817.641,399.53
1818.493,454.83
1819.343,425.47
1820.194,425.93
1821.044,446.00
1821.895,411.37
1822.745,430.43
1823.596,425.90
1824.445,429.10
1825.296,416.77
1826.145,390.57
1826.996,422.27
1827.845,452.67
1828.695,433.40
1829.544,438.43
1830.395,442.93
1831.243,398.50
1832.094,380.17
1832.942,443.73
1833.792,375.13
1834.640,451.83
1835.490,441.13
1836.338,444.40
1837.186,419.33
1838.036,426.87
1838.884,405.20
1839.733,395.43
1840.581,426.87
1841.430,442.33
1842.278,396.90
1843.127,398.23
1843.974,407.17
1844.823,408.87
1845.671,426.80
1846.519,416.47
1847.366,435.97
1848.213,391.73
1849.062,423.40
1849.909,412.77
1850.757,385.10
1851.604,396.33
1852.452,431.73
1853.298,425.80
1854.146,400.87
1854.993,421.93
1855.839,444.30
1856.687,445.60
1857.532,434.67
1858.380,397.50
1859.226,426.07
1860.073,389.07
1860.919,421.80
1861.765,446.53
1862.612,428.73
1863.457,402.43
1864.304,445.83
1865.150,395.57
1865.995,405.10
1866.842,381.37
1867.686,461.03
1868.533,446.67
1869.378,438.10
1870.223,423.83
1871.069,369.03
1871.914,411.80
1872.760,426.37
1873.604,411.17
1874.448,400.27
1875.294,439.50
1876.139,375.30
1876.984,426.70
1877.828,420.90
1878.672,401.50
1879.518,401.73
1880.361,401.10
1881.205,436.30
1882.050,429.00
1882.894,399.70
1883.739,393.23
1884.582,398.83
1885.425,409.13
1886.270,413.20
1887.113,416.33
1887.956,399.37
1888.801,401.90
1889.644,423.80
1890.486,415.87
1891.331,403.07
1892.173,384.50
1893.017,423.67
1893.860,382.77
1894.702,394.67
1895.546,414.40
1896.388,374.27
1897.230,396.70
1898.074,407.90
1898.916,367.63
1899.757,434.13
1900.601,388.63
1901.443,452.13
1902.284,392.63
1903.125,409.70
1903.969,410.77
1904.810,418.67
1905.651,421.47
1906.494,392.83
1907.335,430.67
1908.176,403.13
1909.018,406.07
1909.859,429.50
1910.700,413.07
1911.542,402.80
1912.383,395.30
1913.223,415.83
1914.064,370.60
1914.906,412.00
1915.746,404.90
1916.586,427.53
1917.428,359.20
1918.268,413.53
1919.107,392.23
1919.947,403.70
1920.789,392.33
1921.628,401.13
1922.468,371.30
1923.309,395.37
1924.148,399.83
1924.988,393.47
1925.827,381.63
1926.667,393.30
1927.507,428.77
1928.345,416.03
1929.184,357.63
1930.025,428.43
1930.864,382.20
1931.702,424.50
1932.541,361.97
1933.381,360.83
1934.219,375.47
1935.057,435.57
1935.896,394.10
1936.735,399.63
1937.573,389.17
1938.411,420.57
1939.249,392.03
1940.089,364.13
1940.927,392.53
1941.764,412.83
1942.602,386.73
1943.439,407.10
1944.278,436.93
1945.115,387.57
1945.953,401.90
1946.790,378.97
1947.628,423.13
1948.465,365.53
1949.302,374.00
1950.139,411.30
1950.976,404.17
1951.814,409.67
1952.651,421.33
1953.487,381.27
1954.323,395.10
1955.160,355.67
1955.998,407.30
1956.834,413.73
1957.670,386.50
1958.506,391.53
1959.342,388.23
1960.177,392.60
1961.015,371.60
1961.850,406.10
1962.686,371.30
1963.521,364.73
1964.357,441.53
1965.192,396.17
1966.029,419.30
1966.864,368.97
1967.699,409.33
1968.534,428.57
1969.369,366.97
1970.204,407.93
1971.040,393.73
1971.875,410.13
1972.709,396.13
1973.544,392.67
1974.378,414.80
1975.212,385.57
1976.047,397.00
1976.882,398.57
1977.716,344.43
1978.550,382.10
1979.384,396.30
1980.218,403.93
1981.052,391.57
1981.885,424.43
1982.719,357.77
1983.554,402.80
1984.388,354.90
1985.221,383.30
1986.054,396.90
1986.887,382.27
1987.720,376.67
1988.553,389.97
1989.386,364.03
1990.219,406.50
1991.053,361.63
1991.886,403.43
1992.719,357.03
1993.551,375.17
1994.383,370.97
1995.216,395.30
1996.048,402.73
1996.880,357.83
1997.712,416.60
1998.544,374.77
1999.376,432.07
2000.208,354.57
2001.040,370.90
2001.873,382.43
2002.705,391.20
2003.536,374.87
2004.367,343.97
2005.199,367.90
2006.030,365.23
2006.861,403.60
2007.692,384.97
2008.523,336.70
2009.354,359.83
2010.185,408.20
2011.016,403.60
2011.846,360.67
2012.677,355.77
2013.507,369.50
2014.338,386.30
2015.168,348.20
2015.999,400.13
2016.829,387.23
2017.659,401.57
2018.489,398.73
2019.319,379.60
2020.149,364.43
2020.980,381.17
2021.810,381.17
2022.639,374.80
2023.469,396.50
2024.298,406.03
2025.128,398.10
2025.957,439.20
2026.786,428.53
2027.615,365.57
2028.444,407.50
2029.273,412.23
2030.102,387.00
2030.931,410.70
2031.758,350.63
2032.586,365.20
2033.415,394.93
2034.243,378.93
2035.072,405.90
2035.900,373.33
2036.728,411.40
2037.556,377.53
2038.385,382.30
2039.213,387.53
2040.040,371.67
2040.868,408.27
2041.696,408.43
2042.524,411.57
2043.351,382.93
2044.179,396.47
2045.006,381.13
2045.006,381.13

Max Intensity Wave.,276.356
Max Intensity Data,4305.33
Min Intensity Wave.,1630.912
Min Intensity Data,130.17
FWHM Wave.,409.439
FWHM Value,0.84
Pressure Wave.,685.309
Pressure Value [GPa],-23.25356
G/D Ratio,0.62043
G/D Gband Wave.,1554.998
G/D Gband Intensity,595.55
G/D Dband Wave.,1305.455
G/D Dband Intensity,959.90

<< BACKGROUND SPECTRUM >>
Wave[dcm-1],No528
146.591,2277.00
147.626,2113.00
148.664,2071.00
149.699,2530.00
150.737,2249.00
151.772,2387.00
152.809,2390.00
153.846,2287.00
154.881,2393.00
155.918,1946.00
156.953,2291.00
157.989,2592.00
159.026,2447.00
160.060,2675.00
161.096,2844.00
162.130,2511.00
163.167,2556.00
164.200,2446.00
165.236,2655.00
166.272,2689.00
167.305,2267.00
168.341,2524.00
169.374,2773.00
170.409,2803.00
171.445,2759.00
172.477,2527.00
173.512,2405.00
174.545,2707.00
175.580,2858.00
176.614,3031.00
177.647,2819.00
178.681,3035.00
179.713,3299.00
180.747,2805.00
181.781,2722.00
182.813,3011.00
183.847,3078.00
184.878,2754.00
185.912,2959.00
186.945,3125.00
187.976,3026.00
189.010,2728.00
190.043,2828.00
191.073,2934.00
192.106,2706.00
193.137,3148.00
194.170,2569.00
195.202,2920.00
196.232,2684.00
197.265,2969.00
198.297,3024.00
199.327,2762.00
200.359,2921.00
201.388,3309.00
202.420,2870.00
203.452,3069.00
204.481,2729.00
205.512,3326.00
206.544,3039.00
207.573,3072.00
208.604,3366.00
209.635,3538.00
210.663,2941.00
211.694,3026.00
212.725,2840.00
213.753,2784.00
214.783,3369.00
215.813,3259.00
216.841,2997.00
217.871,3148.00
218.899,2928.00
219.929,3139.00
220.959,2899.00
221.986,3147.00
223.016,2773.00
224.045,3132.00
225.072,3118.00
226.101,3167.00
227.130,3202.00
228.157,2855.00
229.185,2341.00
230.214,3168.00
231.241,2810.00
232.269,2457.00
233.297,2687.00
234.323,3163.00
235.351,2792.00
236.379,3081.00
237.407,2766.00
238.433,2939.00
239.460,3114.00
240.488,3124.00
241.513,3191.00
242.540,3116.00
243.568,3191.00
244.592,3216.00
245.619,3192.00
246.646,2935.00
247.671,2940.00
248.697,2786.00
249.724,2984.00
250.748,3017.00
251.774,3010.00
252.801,3277.00
253.827,3133.00
254.850,3080.00
255.876,2682.00
256.902,3176.00
257.925,2954.00
258.951,2698.00
259.976,2800.00
260.999,3153.00
262.024,2776.00
263.049,3653.00
264.074,3053.00
265.097,3025.00
266.122,3074.00
267.146,2993.00
268.168,3222.00
269.193,2890.00
270.217,3218.00
271.241,2725.00
272.263,2850.00
273.287,3185.00
274.311,2752.00
275.332,3285.00
276.356,2839.00
277.379,3125.00
278.402,3159.00
279.424,2937.00
280.447,2898.00
281.470,2718.00
282.492,3090.00
283.513,2935.00
284.536,3175.00
285.558,3165.00
286.581,3105.00
287.601,2844.00
288.623,2807.00
289.645,3055.00
290.665,3118.00
291.687,3146.00
292.709,3137.00
293.730,3399.00
294.750,2907.00
295.771,2772.00
296.792,3069.00
297.813,2906.00
298.832,3022.00
299.853,2734.00
300.874,3000.00
301.895,2926.00
302.913,2980.00
303.934,3252.00
304.954,3052.00
305.975,4229.00
306.993,2749.00
308.013,3113.00
309.033,3009.00
310.052,2913.00
311.072,2895.00
312.090,3059.00
313.109,3258.00
314.129,3427.00
315.148,2987.00
316.165,3027.00
317.184,3250.00
318.203,2761.00
319.222,2799.00
320.238,3082.00
321.257,2794.00
322.275,2693.00
323.294,2991.00
324.312,3159.00
325.328,3264.00
326.346,3316.00
327.364,3234.00
328.382,3079.00
329.397,3071.00
330.415,3253.00
331.432,3229.00
332.450,3253.00
333.467,3479.00
334.482,2563.00
335.499,3323.00
336.516,2867.00
337.533,2559.00
338.547,2842.00
339.564,2847.00
340.580,3079.00
341.597,2918.00
342.613,3422.00
343.627,2977.00
344.643,3038.00
345.659,3115.00
346.675,2984.00
347.690,2900.00
348.704,3075.00
349.719,2868.00
350.735,2743.00
351.750,3228.00
352.765,3001.00
353.778,2991.00
354.793,3196.00
355.808,2831.00
356.822,3217.00
357.837,2638.00
358.851,3291.00
359.864,2989.00
360.878,2746.00
361.892,2947.00
362.906,3121.00
363.920,2599.00
364.932,3099.00
365.945,3117.00
366.959,2990.00
367.972,2942.00
368.986,2695.00
369.999,3375.00
371.010,2830.00
372.023,3332.00
373.036,2948.00
374.049,3374.00
375.061,3123.00
376.072,2980.00
377.084,2877.00
378.097,2721.00
379.109,3164.00
380.121,2998.00
381.133,2669.00
382.143,3142.00
383.155,2751.00
384.166,2913.00
385.178,3100.00
386.189,3214.00
387.201,2709.00
388.212,2894.00
389.221,2930.00
390.232,3025.00
391.243,2932.00
392.254,3063.00
393.264,2840.00
394.275,3228.00
395.283,3215.00
396.294,3641.00
397.304,3515.00
398.314,3112.00
399.324,3080.00
400.334,2671.00
401.344,3163.00
402.351,2678.00
403.361,3197.00
404.370,2976.00
405.380,2907.00
406.389,3323.00
407.398,3133.00
408.407,3103.00
409.414,3177.00
410.423,3298.00
411.431,2766.00
412.440,2695.00
413.448,3335.00
414.457,2855.00
415.465,2829.00
416.471,2904.00
417.479,3019.00
418.487,2842.00
419.495,3335.00
420.503,3107.00
421.510,2632.00
422.518,3155.00
423.525,3172.00
424.530,3415.00
425.537,2891.00
426.544,3276.00
427.551,2850.00
428.558,3561.00
429.565,3439.00
430.571,2886.00
431.578,2917.00
432.582,2877.00
433.588,2994.00
434.595,2591.00
435.601,3304.00
436.607,3223.00
437.612,2755.00
438.618,3320.00
439.624,2983.00
440.627,2925.00
441.633,3103.00
442.638,3595.00
443.643,3072.00
444.648,3015.00
445.653,3179.00
446.658,2891.00
447.663,3039.00
448.667,2884.00
449.672,2919.00
450.674,2975.00
451.678,2683.00
452.682,2850.00
453.687,2849.00
454.690,3595.00
455.694,3259.00
456.698,2595.00
457.702,2665.00
458.705,2802.00
459.709,2783.00
460.710,2858.00
461.713,3042.00
462.716,3087.00
463.719,2997.00
464.722,3174.00
465.725,2957.00
466.727,2817.00
467.730,3078.00
468.732,2750.00
469.735,3281.00
470.737,2866.00
471.737,2886.00
472.739,2929.00
473.741,2777.00
474.742,3086.00
475.744,3145.00
476.746,3037.00
477.747,2939.00
478.748,3147.00
479.750,2957.00
480.751,2991.00
481.752,3763.00
482.753,3059.00
483.751,3530.00
484.752,2615.00
485.753,3002.00
486.753,2871.00
487.753,2979.00
488.754,3416.00
489.754,2726.00
490.754,3325.00
491.754,3122.00
492.754,2707.00
493.753,3016.00
494.753,2916.00
495.752,3330.00
496.752,3005.00
497.749,2962.00
498.748,2896.00
499.747,3396.00
500.746,3104.00
501.745,2742.00
502.744,2732.00
503.742,3324.00
504.741,2944.00
505.739,2484.00
506.737,2896.00
507.735,3156.00
508.734,3413.00
509.732,3164.00
510.729,3281.00
511.727,2881.00
512.725,2896.00
513.720,2818.00
514.718,3228.00
515.715,2750.00
516.712,2607.00
517.709,2988.00
518.706,2889.00
519.703,3044.00
520.700,3193.00
521.696,3343.00
522.693,2933.00
523.689,2846.00
524.686,3148.00
525.682,2834.00
526.678,3459.00
527.674,2919.00
528.670,2625.00
529.666,3480.00
530.661,3484.00
531.657,3158.00
532.652,3139.00
533.648,2986.00
534.641,3233.00
535.636,3037.00
536.631,3084.00
537.626,3166.00
538.621,2744.00
539.616,2619.00
540.610,2535.00
541.605,3020.00
542.599,3028.00
543.593,2989.00
544.587,3907.00
545.581,2842.00
546.575,3065.00
547.569,3001.00
548.563,2687.00
549.557,2670.00
550.550,2768.00
551.543,2739.00
552.537,3166.00
553.530,2802.00
554.523,2772.00
555.516,3137.00
556.509,2987.00
557.502,2644.00
558.494,3184.00
559.487,2917.00
560.479,3162.00
561.472,3251.00
562.464,3140.00
563.456,3285.00
564.448,2955.00
565.440,2968.00
566.432,3390.00
567.423,2908.00
568.415,2846.00
569.404,3102.00
570.396,2801.00
571.387,3120.00
572.378,3024.00
573.369,3985.00
574.360,3685.00
575.351,2907.00
576.341,2853.00
577.332,2880.00
578.323,2690.00
579.313,2898.00
580.303,3242.00
581.293,3110.00
582.283,3001.00
583.273,3101.00
584.263,3024.00
585.253,3100.00
586.243,3157.00
587.232,2671.00
588.222,2978.00
589.211,3153.00
590.200,3072.00
591.189,2943.00
592.178,2942.00
593.167,3433.00
594.156,3270.00
595.145,2852.00
596.133,3466.00
597.122,3089.00
598.110,3226.00
599.098,3048.00
600.086,3041.00
601.074,3192.00
602.062,2847.00
603.050,2720.00
604.038,3105.00
605.025,2818.00
606.013,3217.00
607.000,3363.00
607.987,2996.00
608.975,3074.00
609.962,2772.00
610.949,3138.00
611.936,3194.00
612.922,3157.00
613.909,2700.00
614.895,3325.00
615.882,2833.00
616.868,2969.00
617.854,2727.00
618.841,3028.00
619.826,3094.00
620.812,3030.00
621.798,2790.00
622.784,3175.00
623.769,3109.00
624.755,2732.00
625.740,3020.00
626.725,2737.00
627.711,2819.00
628.698,3086.00
629.683,2812.00
630.667,3149.00
631.652,2750.00
632.637,2939.00
633.621,3140.00
634.606,2921.00
635.590,3086.00
636.574,2913.00
637.558,3071.00
638.542,2977.00
639.526,2847.00
640.510,2657.00
641.493,3031.00
642.477,3007.00
643.460,2694.00
644.444,3222.00
645.427,3298.00
646.410,2663.00
647.393,2962.00
648.376,3056.00
649.359,2908.00
650.341,3081.00
651.324,3074.00
652.307,3044.00
653.289,2924.00
654.271,2841.00
655.253,2918.00
656.235,3121.00
657.217,3217.00
658.199,2641.00
659.181,2739.00
660.163,3004.00
661.144,2863.00
662.126,2907.00
663.107,2782.00
664.088,6259.00
665.069,3237.00
666.050,2794.00
667.033,2739.00
668.014,3060.00
668.995,2591.00
669.975,3022.00
670.956,2996.00
671.936,3118.00
672.916,2961.00
673.896,3095.00
674.876,2920.00
675.856,2832.00
676.836,2736.00
677.816,2327.00
678.795,2806.00
679.775,2661.00
680.754,3033.00
681.734,3148.00
682.713,3159.00
683.692,2781.00
684.671,2647.00
685.650,2731.00
686.629,2853.00
687.607,2726.00
688.586,2779.00
689.564,2871.00
690.543,3255.00
691.523,2399.00
692.501,2832.00
693.479,2955.00
694.457,2762.00
695.435,2823.00
696.413,2682.00
697.390,2524.00
698.368,2707.00
699.345,3073.00
700.322,2979.00
701.300,3060.00
702.277,3025.00
703.254,3234.00
704.231,2562.00
705.207,2943.00
706.184,2749.00
707.161,2662.00
708.137,2845.00
709.113,2817.00
710.090,2790.00
711.068,2571.00
712.044,2644.00
713.020,2874.00
713.996,2611.00
714.971,2792.00
715.947,2890.00
716.922,2828.00
717.898,2760.00
718.873,2883.00
719.848,2704.00
720.823,2677.00
721.798,2984.00
722.773,2744.00
723.748,2547.00
724.723,3044.00
725.697,2843.00
726.672,2769.00
727.646,2525.00
728.622,2994.00
729.596,2621.00
730.570,2699.00
731.544,3087.00
732.518,3239.00
733.492,2801.00
734.466,2910.00
735.439,2983.00
736.413,3046.00
737.386,2443.00
738.359,2419.00
739.332,2549.00
740.305,2874.00
741.278,3292.00
742.251,2922.00
743.224,2742.00
744.196,2535.00
745.171,3152.00
746.143,3049.00
747.115,2784.00
748.087,2692.00
749.059,3078.00
750.031,2892.00
751.003,3646.00
751.975,3252.00
752.947,2705.00
753.918,3060.00
754.890,2580.00
755.861,2789.00
756.832,3052.00
757.803,2846.00
758.774,2836.00
759.747,2620.00
760.718,3195.00
761.689,2752.00
762.659,2588.00
763.630,3125.00
764.600,2573.00
765.570,3075.00
766.540,3120.00
767.510,2912.00
768.480,3011.00
769.450,2747.00
770.420,2786.00
771.390,2676.00
772.359,2768.00
773.329,2671.00
774.300,2499.00
775.269,2729.00
776.238,3000.00
777.207,3157.00
778.176,2522.00
779.145,2811.00
780.114,2675.00
781.083,2545.00
782.051,2706.00
783.019,2700.00
783.988,3102.00
784.956,2814.00
785.924,2963.00
786.894,2933.00
787.862,2700.00
788.830,3121.00
789.797,2625.00
790.765,2591.00
791.732,2782.00
792.700,2629.00
793.667,2615.00
794.634,2771.00
795.601,2738.00
796.568,2780.00
797.535,2839.00
798.502,3450.00
799.468,2890.00
800.437,2408.00
801.403,2644.00
802.370,3271.00
803.336,3008.00
804.302,2868.00
805.268,2445.00
806.234,2549.00
807.200,2739.00
808.166,2768.00
809.131,2572.00
810.097,2959.00
811.062,3670.00
812.027,3011.00
812.994,2629.00
813.960,2612.00
814.925,2919.00
815.889,2544.00
816.854,2978.00
817.819,2635.00
818.783,2732.00
819.748,3083.00
820.712,2748.00
821.677,2648.00
822.641,2666.00
823.605,2721.00
824.571,3099.00
825.534,2749.00
826.498,2685.00
827.462,2800.00
828.425,2610.00
829.389,3035.00
830.352,2806.00
831.315,2898.00
832.279,2500.00
833.242,2761.00
834.204,2662.00
835.167,2641.00
836.132,3013.00
837.095,2512.00
838.057,2674.00
839.020,2813.00
839.982,2879.00
840.944,2667.00
841.906,2625.00
842.868,2980.00
843.830,2527.00
844.792,3058.00
845.753,2699.00
846.715,2438.00
847.679,2612.00
848.640,2639.00
849.601,2752.00
850.562,3282.00
851.523,2704.00
852.484,2441.00
853.445,3014.00
854.406,2705.00
855.367,2720.00
856.327,3045.00
857.288,2515.00
858.248,2653.00
859.210,2723.00
860.170,2525.00
861.130,3034.00
862.090,2434.00
863.050,2595.00
864.010,2706.00
864.969,2870.00
865.929,2633.00
866.888,2533.00
867.848,2846.00
868.807,2684.00
869.766,2857.00
870.727,2703.00
871.686,3007.00
872.645,2973.00
873.604,3296.00
874.562,2810.00
875.521,2746.00
876.479,3354.00
877.437,2595.00
878.396,2560.00
879.354,3173.00
880.312,2601.00
881.270,2628.00
882.229,3091.00
883.187,2609.00
884.145,2662.00
885.102,2946.00
886.059,2844.00
887.017,2878.00
887.974,2955.00
888.931,3057.00
889.888,2496.00
890.845,2449.00
891.802,2360.00
892.758,2651.00
893.717,2423.00
894.673,2584.00
895.630,2643.00
896.586,2877.00
897.542,2683.00
898.498,2514.00
899.454,2812.00
900.410,2690.00
901.366,2666.00
902.321,2647.00
903.277,2668.00
904.232,2780.00
905.189,2472.00
906.145,2636.00
907.100,2210.00
908.055,2733.00
909.010,2905.00
909.965,2365.00
910.919,2784.00
911.874,2577.00
912.828,2771.00
913.783,2807.00
914.737,2379.00
915.693,2732.00
916.648,2919.00
917.602,2931.00
918.555,2803.00
919.509,2795.00
920.463,2777.00
921.417,2719.00
922.370,2602.00
923.324,2670.00
924.277,2658.00
925.230,2755.00
926.183,2406.00
927.138,2713.00
928.091,2956.00
929.044,2845.00
929.996,2638.00
930.949,2657.00
931.902,2815.00
932.854,2848.00
933.806,2587.00
934.758,2968.00
935.711,2994.00
936.663,2815.00
937.614,2788.00
938.568,2742.00
939.520,2408.00
940.471,2688.00
941.423,2794.00
942.374,2872.00
943.326,2780.00
944.277,2612.00
945.228,2856.00
946.179,2709.00
947.130,3053.00
948.080,2645.00
949.031,2593.00
949.984,2672.00
950.934,2703.00
951.884,2490.00
952.835,2714.00
953.785,2734.00
954.735,2624.00
955.685,2342.00
956.635,2633.00
957.585,2636.00
958.534,2629.00
959.484,2724.00
960.433,2620.00
961.383,2478.00
962.334,2949.00
963.283,2747.00
964.232,2845.00
965.181,2744.00
966.130,2780.00
967.079,2654.00
968.027,2719.00
968.976,2747.00
969.924,2612.00
970.873,2757.00
971.821,2789.00
972.769,2926.00
973.719,2850.00
974.667,2493.00
975.615,2707.00
976.562,2755.00
977.510,2436.00
978.458,2616.00
979.405,2854.00
980.352,2778.00
981.300,2987.00
982.247,2804.00
983.194,2525.00
984.141,2644.00
985.088,2765.00
986.036,2803.00
986.983,3016.00
987.930,3111.00
988.876,2336.00
989.822,2935.00
990.769,2534.00
991.715,2588.00
992.661,2439.00
993.607,2801.00
994.553,3322.00
995.498,2585.00
996.444,2292.00
997.389,2779.00
998.337,2519.00
999.282,2852.00
1000.227,2643.00
1001.173,2704.00
1002.118,2435.00
1003.062,2906.00
1004.007,2713.00
1004.952,3015.00
1005.897,2937.00
1006.841,2719.00
1007.786,2480.00
1008.730,2431.00
1009.674,3175.00
1010.618,2679.00
1011.564,2483.00
1012.508,2356.00
1013.452,2959.00
1014.396,2742.00
1015.339,2595.00
1016.283,2671.00
1017.226,2708.00
1018.170,2682.00
1019.113,2873.00
1020.056,2747.00
1020.999,2742.00
1021.942,2585.00
1022.885,2860.00
1023.828,3014.00
1024.770,2494.00
1025.715,2744.00
1026.657,2719.00
1027.600,2748.00
1028.542,2892.00
1029.484,2753.00
1030.426,2844.00
1031.368,2787.00
1032.310,2553.00
1033.251,2568.00
1034.193,2747.00
1035.135,2489.00
1036.076,2643.00
1037.017,2567.00
1037.959,2844.00
1038.900,2795.00
1039.843,2811.00
1040.784,2747.00
1041.725,2810.00
1042.665,2617.00
1043.606,2763.00
1044.547,2723.00
1045.487,2375.00
1046.427,2664.00
1047.368,2766.00
1048.308,2254.00
1049.248,2531.00
1050.188,2690.00
1051.128,2613.00
1052.067,2656.00
1053.007,2384.00
1053.947,2386.00
1054.886,2600.00
1055.827,2502.00
1056.766,2857.00
1057.706,2456.00
1058.645,2676.00
1059.584,2757.00
1060.522,3008.00
1061.461,2431.00
1062.400,2481.00
1063.338,2684.00
1064.277,2507.00
1065.215,2548.00
1066.154,2402.00
1067.092,2611.00
1068.030,2620.00
1068.968,2870.00
1069.906,2996.00
1070.843,2957.00
1071.781,2711.00
1072.720,2796.00
1073.658,2868.00
1074.595,2605.00
1075.533,2547.00
1076.470,2555.00
1077.407,3036.00
1078.344,2740.00
1079.281,2790.00
1080.217,2314.00
1081.154,2667.00
1082.091,2721.00
1083.027,2456.00
1083.964,2900.00
1084.900,2537.00
1085.836,2602.00
1086.772,2871.00
1087.708,2461.00
1088.644,2817.00
1089.580,2698.00
1090.515,2761.00
1091.451,2594.00
1092.388,2703.00
1093.324,2438.00
1094.259,3256.00
1095.194,2723.00
1096.129,2633.00
1097.064,2579.00
1097.999,2785.00
1098.934,2533.00
1099.869,2543.00
1100.803,2682.00
1101.738,2698.00
1102.672,2386.00
1103.607,2815.00
1104.541,2562.00
1105.475,2528.00
1106.409,2400.00
1107.343,2609.00
1108.277,2430.00
1109.210,2733.00
1110.144,2673.00
1111.078,2664.00
1112.011,2467.00
1112.944,2772.00
1113.878,2698.00
1114.811,2150.00
1115.744,2580.00
1116.678,2307.00
1117.611,2557.00
1118.544,2592.00
1119.477,2765.00
1120.409,2561.00
1121.342,3114.00
1122.274,2743.00
1123.206,4269.00
1124.138,2659.00
1125.070,2958.00
1126.002,2848.00
1126.934,2327.00
1127.866,2563.00
1128.798,2315.00
1129.729,2380.00
1130.661,2641.00
1131.592,2570.00
1132.523,2746.00
1133.454,2763.00
1134.385,2317.00
1135.317,2674.00
1136.247,2568.00
1137.178,2872.00
1138.109,2367.00
1139.039,3031.00
1139.970,2816.00
1140.900,2645.00
1141.831,2340.00
1142.761,2250.00
1143.691,2735.00
1144.621,2621.00
1145.551,2698.00
1146.480,2697.00
1147.410,2813.00
1148.340,2343.00
1149.269,2390.00
1150.199,2569.00
1151.128,3063.00
1152.057,2450.00
1152.979,2590.00
1153.898,2625.00
1154.819,2715.00
1155.739,2639.00
1156.658,2537.00
1157.579,2661.00
1158.498,2658.00
1159.419,2202.00
1160.338,2730.00
1161.256,2702.00
1162.177,2502.00
1163.095,2629.00
1164.016,2684.00
1164.934,2913.00
1165.852,2800.00
1166.772,2664.00
1167.690,2655.00
1168.610,2685.00
1169.528,2650.00
1170.446,2181.00
1171.365,2569.00
1172.283,2527.00
1173.202,2647.00
1174.120,2661.00
1175.037,2466.00
1175.956,2478.00
1176.873,2495.00
1177.792,2554.00
1178.709,3118.00
1179.626,2505.00
1180.544,2852.00
1181.461,2499.00
1182.379,2740.00
1183.296,2629.00
1184.212,2294.00
1185.130,2477.00
1186.046,2959.00
1186.962,2637.00
1187.880,2927.00
1188.796,2676.00
1189.714,2454.00
1190.629,2775.00
1191.545,2682.00
1192.462,2563.00
1193.378,2597.00
1194.295,2312.00
1195.210,2623.00
1196.125,2721.00
1197.042,2690.00
1197.957,2654.00
1198.872,2516.00
1199.788,2530.00
1200.703,2971.00
1201.619,2629.00
1202.534,2528.00
1203.448,2732.00
1204.364,2561.00
1205.278,2287.00
1206.192,2694.00
1207.108,3096.00
1208.022,2965.00
1208.938,2470.00
1209.851,2798.00
1210.765,2869.00
1211.680,2537.00
1212.594,2451.00
1213.507,2581.00
1214.422,3008.00
1215.335,2735.00
1216.248,2587.00
1217.163,2647.00
1218.076,3191.00
1218.990,2761.00
1219.903,2406.00
1220.816,2466.00
1221.730,2610.00
1222.642,2487.00
1223.554,2550.00
1224.469,2692.00
1225.380,2596.00
1226.292,2285.00
1227.206,2750.00
1228.118,2932.00
1229.032,2288.00
1229.943,2525.00
1230.855,2570.00
1231.768,2401.00
1232.679,2708.00
1233.590,2612.00
1234.503,2851.00
1235.414,2468.00
1236.325,2526.00
1237.238,2700.00
1238.149,2764.00
1239.059,2430.00
1239.972,2772.00
1240.882,2412.00
1241.793,2744.00
1242.705,2965.00
1243.615,2545.00
1244.525,2693.00
1245.437,2205.00
1246.347,2704.00
1247.259,2754.00
1248.168,3058.00
1249.078,2886.00
1249.989,2891.00
1250.899,2413.00
1251.808,2517.00
1252.719,2545.00
1253.628,2492.00
1254.537,3015.00
1255.448,2462.00
1256.357,2447.00
1257.266,2659.00
1258.176,2373.00
1259.085,2342.00
1259.993,2468.00
1260.904,2458.00
1261.812,2435.00
1262.720,3179.00
1263.630,2789.00
1264.538,2460.00
1265.446,2721.00
1266.356,2571.00
1267.263,2894.00
1268.171,2395.00
1269.080,2724.00
1269.988,2815.00
1270.895,2542.00
1271.804,2589.00
1272.711,2791.00
1273.619,2784.00
1274.527,2435.00
1275.434,2721.00
1276.341,2455.00
1277.248,2603.00
1278.156,2940.00
1279.063,2511.00
1279.969,2735.00
1280.877,3558.00
1281.783,2810.00
1282.690,2680.00
1283.598,2603.00
1284.503,2506.00
1285.409,2472.00
1286.317,3001.00
1287.223,2989.00
1288.128,2678.00
1289.036,2509.00
1289.941,2544.00
1290.846,2662.00
1291.751,2454.00
1292.658,2540.00
1293.563,3039.00
1294.468,2648.00
1295.375,2772.00
1296.280,2868.00
1297.184,3348.00
1298.091,2738.00
1298.995,2780.00
1299.900,3004.00
1300.806,2533.00
1301.710,2380.00
1302.614,2216.00
1303.518,2888.00
1304.424,2577.00
1305.327,2799.00
1306.231,2600.00
1307.137,2832.00
1308.040,2668.00
1308.943,2642.00
1309.847,2838.00
1310.752,2825.00
1311.655,2268.00
1312.558,2409.00
1313.463,2584.00
1314.366,2565.00
1315.269,2686.00
1316.171,2624.00
1317.076,2570.00
1317.978,2449.00
1318.881,2231.00
1319.785,2461.00
1320.687,2488.00
1321.589,2228.00
1322.491,2426.00
1323.395,2690.00
1324.297,3167.00
1325.198,2749.00
1326.102,2425.00
1327.004,2461.00
1327.905,3009.00
1328.806,2574.00
1329.709,2686.00
1330.611,2574.00
1331.512,2487.00
1332.413,3071.00
1333.316,2648.00
1334.216,2768.00
1335.117,2393.00
1336.020,2631.00
1336.920,2606.00
1337.821,2492.00
1338.721,2900.00
1339.623,2687.00
1340.523,2590.00
1341.423,2484.00
1342.323,2949.00
1343.225,2681.00
1344.125,2447.00
1345.025,2492.00
1345.924,2328.00
1346.826,2931.00
1347.725,3058.00
1348.624,2850.00
1349.524,2461.00
1350.425,2612.00
1351.324,2735.00
1352.223,2804.00
1353.121,2629.00
1354.022,2847.00
1354.921,3012.00
1355.819,2722.00
1356.718,2660.00
1357.618,2382.00
1358.516,2770.00
1359.415,2981.00
1360.313,2725.00
1361.213,2609.00
1362.111,2929.00
1363.008,3276.00
1363.906,2650.00
1364.806,2655.00
1365.703,2718.00
1366.601,2462.00
1367.498,2468.00
1368.397,2809.00
1369.295,2714.00
1370.192,2469.00
1371.089,2744.00
1371.987,2632.00
1372.884,2846.00
1373.781,2472.00
1374.678,2619.00
1375.574,2488.00
1376.473,2776.00
1377.369,2840.00
1378.265,2461.00
1379.161,2615.00
1380.059,2353.00
1380.955,2744.00
1381.851,2413.00
1382.747,2539.00
1383.643,2582.00
1384.540,2423.00
1385.436,2512.00
1386.331,2703.00
1387.227,2795.00
1388.124,2737.00
1389.019,2438.00
1389.914,2616.00
1390.809,2255.00
1391.704,3023.00
1392.601,2586.00
1393.495,2912.00
1394.390,2792.00
1395.285,2843.00
1396.179,2743.00
1397.075,2600.00
1397.969,2708.00
1398.864,2328.00
1399.758,2567.00
1400.652,2662.00
1401.547,2492.00
1402.441,2389.00
1403.335,2949.00
1404.229,2618.00
1405.122,2705.00
1406.017,2576.00
1406.911,2770.00
1407.804,3034.00
1408.697,2608.00
1409.590,2434.00
1410.485,2828.00
1411.378,2705.00
1412.271,2357.00
1413.163,2668.00
1414.056,2817.00
1414.949,3020.00
1415.843,2687.00
1416.735,2590.00
1417.627,2668.00
1418.520,2595.00
1419.412,2853.00
1420.306,2799.00
1421.197,2900.00
1422.089,2817.00
1422.981,3086.00
1423.873,2827.00
1424.764,2699.00
1425.657,2644.00
1426.549,2782.00
1427.440,2789.00
1428.331,2535.00
1429.222,2343.00
1430.113,2716.00
1431.006,2784.00
1431.897,2566.00
1432.787,2639.00
1433.678,2586.00
1434.568,2460.00
1435.459,2868.00
1436.351,2804.00
1437.241,2771.00
1438.131,2816.00
1439.021,2425.00
1439.911,2648.00
1440.801,2728.00
1441.693,2839.00
1442.583,2640.00
1443.472,2627.00
1444.362,2769.00
1445.251,2585.00
1446.140,2579.00
1447.030,2825.00
1447.921,2794.00
1448.810,2474.00
1449.699,2975.00
1450.588,2658.00
1451.476,2542.00
1452.365,2748.00
1453.254,2553.00
1454.144,2531.00
1455.032,2788.00
1455.921,2392.00
1456.809,2972.00
1457.697,2483.00
1458.585,2603.00
1459.473,2608.00
1460.361,2512.00
1461.251,2713.00
1462.138,2731.00
1463.026,2587.00
1463.913,2869.00
1464.801,2580.00
1465.688,2727.00
1466.575,2675.00
1467.463,3038.00
1468.351,2515.00
1469.238,2637.00
1470.125,2239.00
1471.012,2682.00
1471.899,2761.00
1472.785,2450.00
1473.672,2643.00
1474.558,2882.00
1475.446,2768.00
1476.333,2811.00
1477.219,2477.00
1478.105,2627.00
1478.991,2612.00
1479.877,2953.00
1480.762,2635.00
1481.648,2519.00
1482.534,2778.00
1483.419,2733.00
1484.307,2747.00
1485.192,2650.00
1486.077,2507.00
1486.962,2504.00
1487.847,2390.00
1488.732,2499.00
1489.617,2633.00
1490.502,2918.00
1491.387,2809.00
1492.271,2465.00
1493.156,2483.00
1494.042,2443.00
1494.927,2836.00
1495.811,2551.00
1496.695,2766.00
1497.579,2927.00
1498.463,2615.00
1499.347,2640.00
1500.231,2683.00
1501.114,2744.00
1501.998,2918.00
1502.881,2719.00
1503.765,2932.00
1504.648,3083.00
1505.533,2741.00
1506.417,2664.00
1507.300,2622.00
1508.183,2701.00
1509.066,2139.00
1509.948,2899.00
1510.831,2973.00
1511.714,2477.00
1512.596,2770.00
1513.479,2895.00
1514.361,2899.00
1515.243,2702.00
1516.125,2787.00
1517.008,2912.00
1517.890,2614.00
1518.771,2690.00
1519.655,2896.00
1520.537,2594.00
1521.419,2493.00
1522.300,2676.00
1523.182,2785.00
1524.063,2816.00
1524.944,2968.00
1525.825,2846.00
1526.707,2484.00
1527.588,2446.00
1528.468,2721.00
1529.349,2353.00
1530.230,2612.00
1531.111,2805.00
1531.991,2705.00
1532.872,2362.00
1533.752,2607.00
1534.632,2532.00
1535.513,2538.00
1536.393,2787.00
1537.273,2985.00
1538.153,3322.00
1539.032,2436.00
1539.912,2648.00
1540.792,2671.00
1541.672,2671.00
1542.551,2757.00
1543.430,3241.00
1544.310,2688.00
1545.189,2567.00
1546.068,3038.00
1546.947,2759.00
1547.826,2974.00
1548.705,2657.00
1549.584,2902.00
1550.462,2608.00
1551.341,2799.00
1552.219,2729.00
1553.098,2814.00
1553.976,2881.00
1554.854,3020.00
1555.733,2846.00
1556.611,2570.00
1557.489,2433.00
1558.367,2634.00
1559.244,2784.00
1560.122,2648.00
1561.000,2725.00
1561.877,2947.00
1562.755,2508.00
1563.632,2613.00
1564.509,2949.00
1565.386,3026.00
1566.264,2426.00
1567.141,2293.00
1568.017,2779.00
1568.894,2682.00
1569.771,2708.00
1570.648,2753.00
1571.524,2639.00
1572.401,2439.00
1573.277,2461.00
1574.153,2689.00
1575.029,2534.00
1575.906,3355.00
1576.781,2830.00
1577.657,2579.00
1578.533,2894.00
1579.409,2304.00
1580.285,2626.00
1581.160,3077.00
1582.036,2839.00
1582.911,2504.00
1583.786,3005.00
1584.662,2480.00
1585.537,2646.00
1586.412,2707.00
1587.287,2509.00
1588.160,2851.00
1589.035,2345.00
1589.909,2701.00
1590.784,2638.00
1591.658,2458.00
1592.533,2727.00
1593.407,2650.00
1594.281,2570.00
1595.155,3061.00
1596.029,2564.00
1596.903,2623.00
1597.777,2557.00
1598.651,2929.00
1599.525,2367.00
1600.398,2672.00
1601.272,2598.00
1602.144,3186.00
1603.017,2658.00
1603.890,2906.00
1604.763,2753.00
1605.636,2800.00
1606.509,2349.00
1607.382,2508.00
1608.255,2720.00
1609.128,2891.00
1610.000,2624.00
1610.873,2370.00
1611.746,2589.00
1612.616,2637.00
1613.488,2247.00
1614.361,2677.00
1615.233,2600.00
1616.105,2886.00
1616.977,2611.00
1617.849,2503.00
1618.720,2986.00
1619.592,2961.00
1620.464,2761.00
1621.333,3114.00
1622.205,2650.00
1623.076,2620.00
1623.947,2651.00
1624.818,2943.00
1625.689,2769.00
1626.560,2573.00
1627.431,2744.00
1628.302,3027.00
1629.171,2786.00
1630.042,3015.00
1630.912,3655.00
1631.782,3269.00
1632.653,2486.00
1633.523,2841.00
1634.393,2911.00
1635.263,2526.00
1636.131,2663.00
1637.001,2568.00
1637.871,2319.00
1638.741,2315.00
1639.611,2412.00
1640.480,2830.00
1641.350,2525.00
1642.219,2486.00
1643.087,2203.00
1643.956,3132.00
1644.825,2949.00
1645.694,2851.00
1646.563,2836.00
1647.432,2743.00
1648.299,2733.00
1649.167,2779.00
1650.036,2479.00
1650.904,2832.00
1651.773,2891.00
1652.641,2679.00
1653.509,2846.00
1654.376,2550.00
1655.244,2693.00
1656.112,2706.00
1656.980,2671.00
1657.847,2557.00
1658.715,2829.00
1659.581,2579.00
1660.448,2889.00
1661.316,2234.00
1662.183,2710.00
1663.051,2731.00
1663.918,2719.00
1664.783,2686.00
1665.650,2760.00
1666.517,2885.00
1667.384,2698.00
1668.251,2719.00
1669.115,2893.00
1669.982,2604.00
1670.849,2963.00
1671.715,2661.00
1672.581,2819.00
1673.446,2815.00
1674.312,2681.00
1675.178,3038.00
1676.044,2762.00
1676.910,2775.00
1677.774,2735.00
1678.639,2346.00
1679.505,2649.00
1680.370,2789.00
1681.236,3302.00
1682.099,2599.00
1682.965,2692.00
1683.830,2279.00
1684.695,2491.00
1685.560,2556.00
1686.423,2866.00
1687.288,2796.00
1688.153,2726.00
1689.017,2619.00
1689.880,2760.00
1690.745,2808.00
1691.609,2532.00
1692.473,2872.00
1693.338,2878.00
1694.200,2940.00
1695.064,2684.00
1695.928,2608.00
1696.792,2717.00
1697.654,3181.00
1698.517,2704.00
1699.381,2457.00
1700.245,2372.00
1701.106,2970.00
1701.969,2603.00
1702.833,2801.00
1703.696,2598.00
1704.557,2668.00
1705.420,2581.00
1706.283,2714.00
1707.146,2803.00
1708.007,2488.00
1708.870,2489.00
1709.732,2374.00
1710.595,2588.00
1711.455,2438.00
1712.318,2617.00
1713.180,2959.00
1714.040,2733.00
1714.902,2860.00
1715.764,2676.00
1716.626,2462.00
1717.486,2675.00
1718.348,2946.00
1719.209,4912.00
1720.071,2356.00
1720.930,2444.00
1721.792,2547.00
1722.653,2541.00
1723.512,2552.00
1724.374,2641.00
1725.234,2744.00
1726.095,2695.00
1726.954,2675.00
1727.815,2825.00
1728.676,2687.00
1729.535,2904.00
1730.395,2623.00
1731.256,2598.00
1732.114,2715.00
1732.974,2166.00
1733.834,3016.00
1734.693,2843.00
1735.553,2744.00
1736.413,3107.00
1737.272,2580.00
1738.130,2617.00
1738.990,2743.00
1739.849,2561.00
1740.707,3658.00
1741.566,2740.00
1742.426,2738.00
1743.283,3070.00
1744.142,2562.00
1745.001,2385.00
1745.858,2836.00
1746.717,2777.00
1747.576,2801.00
1748.433,2836.00
1749.292,3259.00
1750.150,3345.00
1751.007,2847.00
1751.865,2895.00
1752.723,2664.00
1753.579,2595.00
1754.438,2914.00
1755.296,2919.00
1756.152,2283.00
1757.010,2353.00
1757.865,2883.00
1758.723,2360.00
1759.581,3007.00
1760.436,2691.00
1761.294,3046.00
1762.151,2682.00
1763.006,2628.00
1763.864,2339.00
1764.721,2927.00
1765.576,2705.00
1766.433,2801.00
1767.288,2564.00
1768.144,2715.00
1769.001,2651.00
1769.856,2787.00
1770.712,2943.00
1771.568,2497.00
1772.423,2627.00
1773.279,2599.00
1774.133,2594.00
1774.989,3079.00
1775.845,3078.00
1776.699,2938.00
1777.555,2703.00
1778.409,3216.00
1779.265,2618.00
1780.120,2588.00
1780.974,2688.00
1781.829,2314.00
1782.682,2769.00
1783.538,2501.00
1784.393,2733.00
1785.246,2589.00
1786.101,2785.00
1786.954,2811.00
1787.808,2871.00
1788.661,2414.00
1789.516,2623.00
1790.370,2643.00
1791.223,2878.00
1792.077,2679.00
1792.930,2789.00
1793.784,2562.00
1794.636,2715.00
1795.490,2672.00
1796.344,2718.00
1797.196,2682.00
1798.049,2873.00
1798.901,2594.00
1799.755,2929.00
1800.606,2464.00
1801.460,3217.00
1802.311,2986.00
1803.165,3045.00
1804.018,3059.00
1804.869,2796.00
1805.722,3163.00
1806.573,2733.00
1807.426,2494.00
1808.276,2707.00
1809.129,2581.00
1809.980,2895.00
1810.832,2975.00
1811.683,2605.00
1812.535,2994.00
1813.385,2599.00
1814.237,2975.00
1815.089,2767.00
1815.940,2971.00
1816.791,2620.00
1817.641,2594.00
1818.493,2822.00
1819.343,2778.00
1820.194,2555.00
1821.044,2780.00
1821.895,2925.00
1822.745,2417.00
1823.596,2589.00
1824.445,3095.00
1825.296,2809.00
1826.145,2694.00
1826.996,2891.00
1827.845,2711.00
1828.695,2755.00
1829.544,2683.00
1830.395,2721.00
1831.243,2639.00
1832.094,2487.00
1832.942,3279.00
1833.792,2862.00
1834.640,2735.00
1835.490,2703.00
1836.338,2742.00
1837.186,2599.00
1838.036,2556.00
1838.884,2719.00
1839.733,3042.00
1840.581,2873.00
1841.430,2803.00
1842.278,3065.00
1843.127,2623.00
1843.974,2409.00
1844.823,3135.00
1845.671,2851.00
1846.519,2723.00
1847.366,2746.00
1848.213,2379.00
1849.062,2519.00
1849.909,2446.00
1850.757,3379.00
1851.604,2829.00
1852.452,2622.00
1853.298,2883.00
1854.146,2773.00
1854.993,2731.00
1855.839,3187.00
1856.687,2793.00
1857.532,2802.00
1858.380,2731.00
1859.226,2754.00
1860.073,2850.00
1860.919,2546.00
1861.765,2564.00
1862.612,2934.00
1863.457,2940.00
1864.304,2632.00
1865.150,2844.00
1865.995,2688.00
1866.842,2852.00
1867.686,2896.00
1868.533,2749.00
1869.378,2736.00
1870.223,2724.00
1871.069,2668.00
1871.914,2720.00
1872.760,2682.00
1873.604,2505.00
1874.448,2864.00
1875.294,2872.00
1876.139,2629.00
1876.984,2816.00
1877.828,2374.00
1878.672,2236.00
1879.518,2600.00
1880.361,2903.00
1881.205,2845.00
1882.050,2509.00
1882.894,3220.00
1883.739,2604.00
1884.582,2502.00
1885.425,2539.00
1886.270,2943.00
1887.113,2457.00
1887.956,2820.00
1888.801,2772.00
1889.644,2515.00
1890.486,2307.00
1891.331,2651.00
1892.173,2768.00
1893.017,2764.00
1893.860,3026.00
1894.702,3014.00
1895.546,2711.00
1896.388,3429.00
1897.230,3076.00
1898.074,2616.00
1898.916,2544.00
1899.757,2519.00
1900.601,3399.00
1901.443,2956.00
1902.284,3021.00
1903.125,3177.00
1903.969,2899.00
1904.810,2922.00
1905.651,2784.00
1906.494,3039.00
1907.335,3134.00
1908.176,2834.00
1909.018,2804.00
1909.859,2657.00
1910.700,2574.00
1911.542,3244.00
1912.383,2797.00
1913.223,2349.00
1914.064,2879.00
1914.906,2968.00
1915.746,3052.00
1916.586,3155.00
1917.428,2754.00
1918.268,2747.00
1919.107,2632.00
1919.947,2489.00
1920.789,2655.00
1921.628,2956.00
1922.468,2730.00
1923.309,2581.00
1924.148,3034.00
1924.988,2802.00
1925.827,2724.00
1926.667,2629.00
1927.507,2742.00
1928.345,2545.00
1929.184,2920.00
1930.025,2517.00
1930.864,2983.00
1931.702,2997.00
1932.541,2666.00
1933.381,2893.00
1934.219,2895.00
1935.057,2970.00
1935.896,2434.00
1936.735,2696.00
1937.573,2642.00
1938.411,2515.00
1939.249,2892.00
1940.089,2645.00
1940.927,2985.00
1941.764,2992.00
1942.602,2658.00
1943.439,2616.00
1944.278,2662.00
1945.115,2659.00
1945.953,2465.00
1946.790,2817.00
1947.628,3049.00
1948.465,2860.00
1949.302,2887.00
1950.139,2834.00
1950.976,2598.00
1951.814,2875.00
1952.651,2764.00
1953.487,2535.00
1954.323,2973.00
1955.160,2752.00
1955.998,3074.00
1956.834,2712.00
1957.670,2803.00
1958.506,2959.00
1959.342,2832.00
1960.177,2776.00
1961.015,2885.00
1961.850,2762.00
1962.686,2795.00
1963.521,2808.00
1964.357,2965.00
1965.192,2514.00
1966.029,2840.00
1966.864,2675.00
1967.699,2928.00
1968.534,2734.00
1969.369,3032.00
1970.204,2684.00
1971.040,2767.00
1971.875,2657.00
1972.709,2764.00
1973.544,2576.00
1974.378,2609.00
1975.212,2850.00
1976.047,2615.00
1976.882,2592.00
1977.716,3173.00
1978.550,2459.00
1979.384,2688.00
1980.218,2682.00
1981.052,2668.00
1981.885,2726.00
1982.719,2771.00
1983.554,2884.00
1984.388,3069.00
1985.221,2817.00
1986.054,2973.00
1986.887,2790.00
1987.720,2609.00
1988.553,3038.00
1989.386,2847.00
1990.219,2858.00
1991.053,3069.00
1991.886,2599.00
1992.719,2960.00
1993.551,2294.00
1994.383,2908.00
1995.216,2650.00
1996.048,2455.00
1996.880,2924.00
1997.712,2589.00
1998.544,2761.00
1999.376,2772.00
2000.208,3054.00
2001.040,3184.00
2001.873,2571.00
2002.705,2563.00
2003.536,2804.00
2004.367,2828.00
2005.199,2797.00
2006.030,2642.00
2006.861,2530.00
2007.692,2756.00
2008.523,2656.00
2009.354,2795.00
2010.185,2532.00
2011.016,2873.00
2011.846,2973.00
2012.677,2712.00
2013.507,3102.00
2014.338,2968.00
2015.168,2707.00
2015.999,3247.00
2016.829,2676.00
2017.659,2940.00
2018.489,3249.00
2019.319,2562.00
2020.149,2943.00
2020.980,2776.00
2021.810,2561.00
2022.639,2631.00
2023.469,2616.00
2024.298,2430.00
2025.128,2356.00
2025.957,2326.00
2026.786,2171.00
2027.615,2433.00
2028.444,2577.00
2029.273,2744.00
2030.102,2353.00
2030.931,2574.00
2031.758,2910.00
2032.586,2559.00
2033.415,2601.00
2034.243,2243.00
2035.072,2024.00
2035.900,2513.00
2036.728,2303.00
2037.556,2375.00
2038.385,2386.00
2039.213,2193.00
2040.040,2198.00
2040.868,2142.00
2041.696,2190.00
2042.524,2200.00
2043.351,2414.00
2044.179,2209.00
2045.006,2009.00
