RamanScope Measure Spectrum Data V3.72

<< MEASURE CONDITION >>
Exposure Type,Aver
Exposure Time [sec],15
Exposure Count,30
Measure Time,2023/07/07 11:50:39
Data Name,""
Data Comment,""
Rayleigh Wave[nm],532.0

<< SAMPLE SPECTRUM >>
Wave[dcm-1],No524
146.591,681.90
147.626,822.70
148.664,948.60
149.699,1109.43
150.737,1257.10
151.772,1426.13
152.809,1554.47
153.846,1687.43
154.881,1784.37
155.918,1902.33
156.953,1981.57
157.989,2033.30
159.026,2118.77
160.060,2108.10
161.096,2204.03
162.130,2227.07
163.167,2282.23
164.200,2308.53
165.236,2330.50
166.272,2369.60
167.305,2435.13
168.341,2494.67
169.374,2520.07
170.409,2568.50
171.445,2592.17
172.477,2678.43
173.512,2711.27
174.545,2724.97
175.580,2765.20
176.614,2756.50
177.647,2767.43
178.681,2769.00
179.713,2778.80
180.747,2704.13
181.781,2666.20
182.813,2646.43
183.847,2672.77
184.878,2600.43
185.912,2642.53
186.945,2651.67
187.976,2682.90
189.010,2656.57
190.043,2690.00
191.073,2680.73
192.106,2744.63
193.137,2786.13
194.170,2765.20
195.202,2792.57
196.232,2810.10
197.265,2868.50
198.297,2936.20
199.327,2939.50
200.359,2998.47
201.388,3006.60
202.420,3093.20
203.452,3140.63
204.481,3141.13
205.512,3215.20
206.544,3336.30
207.573,3349.13
208.604,3489.30
209.635,3557.53
210.663,3675.10
211.694,3715.97
212.725,3887.00
213.753,4026.40
214.783,4158.60
215.813,4247.00
216.841,4358.53
217.871,4469.03
218.899,4511.80
219.929,4563.00
220.959,4560.20
221.986,4551.03
223.016,4495.77
224.045,4440.53
225.072,4344.00
226.101,4252.83
227.130,4121.00
228.157,3948.67
229.185,3904.13
230.214,3819.67
231.241,3732.67
232.269,3650.10
233.297,3591.80
234.323,3622.03
235.351,3510.23
236.379,3477.97
237.407,3446.00
238.433,3416.83
239.460,3419.77
240.488,3454.67
241.513,3472.63
242.540,3474.57
243.568,3520.63
244.592,3543.50
245.619,3544.97
246.646,3544.03
247.671,3534.73
248.697,3533.00
249.724,3531.97
250.748,3478.80
251.774,3449.97
252.801,3456.77
253.827,3427.47
254.850,3466.83
255.876,3468.77
256.902,3421.87
257.925,3499.60
258.951,3549.90
259.976,3518.83
260.999,3495.83
262.024,3599.40
263.049,3591.57
264.074,3686.73
265.097,3680.70
266.122,3740.70
267.146,3804.17
268.168,3798.00
269.193,3826.07
270.217,3922.13
271.241,3956.57
272.263,4050.70
273.287,4034.93
274.311,4116.30
275.332,4144.40
276.356,4185.27
277.379,4148.00
278.402,4161.63
279.424,4198.60
280.447,4168.23
281.470,4168.67
282.492,4095.80
283.513,4039.30
284.536,3996.03
285.558,3958.57
286.581,3930.33
287.601,3864.30
288.623,3788.27
289.645,3740.20
290.665,3684.53
291.687,3607.63
292.709,3515.10
293.730,3467.80
294.750,3438.10
295.771,3385.10
296.792,3342.30
297.813,3306.40
298.832,3245.30
299.853,3195.87
300.874,3139.80
301.895,3134.50
302.913,3057.00
303.934,3009.03
304.954,2961.83
305.975,2966.30
306.993,2913.70
308.013,2885.97
309.033,2855.07
310.052,2809.60
311.072,2791.13
312.090,2762.07
313.109,2759.03
314.129,2700.27
315.148,2722.93
316.165,2725.63
317.184,2671.37
318.203,2639.63
319.222,2585.83
320.238,2655.07
321.257,2626.47
322.275,2591.53
323.294,2568.47
324.312,2537.30
325.328,2533.87
326.346,2508.73
327.364,2533.20
328.382,2605.67
329.397,2551.83
330.415,2469.43
331.432,2468.17
332.450,2482.47
333.467,2456.13
334.482,2485.43
335.499,2469.87
336.516,2453.13
337.533,2466.17
338.547,2441.17
339.564,2419.40
340.580,2439.30
341.597,2459.27
342.613,2413.77
343.627,2418.13
344.643,2382.23
345.659,2373.70
346.675,2390.73
347.690,2369.03
348.704,2392.70
349.719,2387.30
350.735,2377.23
351.750,2336.77
352.765,2365.50
353.778,2374.77
354.793,2336.13
355.808,2380.80
356.822,2353.47
357.837,2396.40
358.851,2369.53
359.864,2347.30
360.878,2383.73
361.892,2401.13
362.906,2458.07
363.920,2399.70
364.932,2391.40
365.945,2368.30
366.959,2421.17
367.972,2422.77
368.986,2453.23
369.999,2435.53
371.010,2448.93
372.023,2471.63
373.036,2475.30
374.049,2489.90
375.061,2429.33
376.072,2486.47
377.084,2497.73
378.097,2514.97
379.109,2575.83
380.121,2524.33
381.133,2531.03
382.143,2542.77
383.155,2519.40
384.166,2532.23
385.178,2568.07
386.189,2551.60
387.201,2573.37
388.212,2587.13
389.221,2563.63
390.232,2543.57
391.243,2548.50
392.254,2532.07
393.264,2549.80
394.275,2549.67
395.283,2499.67
396.294,2501.60
397.304,2466.57
398.314,2498.10
399.324,2441.43
400.334,2474.17
401.344,2452.30
402.351,2432.10
403.361,2458.47
404.370,2417.80
405.380,2413.03
406.389,2406.90
407.398,2350.77
408.407,2366.50
409.414,2492.20
410.423,2367.70
411.431,2328.90
412.440,2303.23
413.448,2301.30
414.457,2323.60
415.465,2278.60
416.471,2259.13
417.479,2255.73
418.487,2230.20
419.495,2238.80
420.503,2260.40
421.510,2224.47
422.518,2230.10
423.525,2229.37
424.530,2197.30
425.537,2233.60
426.544,2172.00
427.551,2203.33
428.558,2225.73
429.565,2175.67
430.571,2205.30
431.578,2167.50
432.582,2173.77
433.588,2136.20
434.595,2197.63
435.601,2167.33
436.607,2186.63
437.612,2167.33
438.618,2171.17
439.624,2128.63
440.627,2181.53
441.633,2189.17
442.638,2154.03
443.643,2175.60
444.648,2168.03
445.653,2176.90
446.658,2163.67
447.663,2136.20
448.667,2164.60
449.672,2153.23
450.674,2167.47
451.678,2204.00
452.682,2195.83
453.687,2157.40
454.690,2173.73
455.694,2179.93
456.698,2152.57
457.702,2180.50
458.705,2161.60
459.709,2198.80
460.710,2208.97
461.713,2186.10
462.716,2162.93
463.719,2198.67
464.722,2201.27
465.725,2197.93
466.727,2225.63
467.730,2175.57
468.732,2218.27
469.735,2202.40
470.737,2256.80
471.737,2222.40
472.739,2186.00
473.741,2248.60
474.742,2199.57
475.744,2183.87
476.746,2217.53
477.747,2246.27
478.748,2224.67
479.750,2192.47
480.751,2236.40
481.752,2204.03
482.753,2256.43
483.751,2244.67
484.752,2240.10
485.753,2194.20
486.753,2229.77
487.753,2245.77
488.754,2240.87
489.754,2207.90
490.754,2207.97
491.754,2230.30
492.754,2229.93
493.753,2230.37
494.753,2208.77
495.752,2216.73
496.752,2256.70
497.749,2231.70
498.748,2185.67
499.747,2196.40
500.746,2200.23
501.745,2236.93
502.744,2238.00
503.742,2207.50
504.741,2181.47
505.739,2167.33
506.737,2189.93
507.735,2151.77
508.734,2156.93
509.732,2155.43
510.729,2213.57
511.727,2159.70
512.725,2178.07
513.720,2136.77
514.718,2187.33
515.715,2085.50
516.712,2158.73
517.709,2140.20
518.706,2154.87
519.703,2140.37
520.700,2126.07
521.696,2136.17
522.693,2141.33
523.689,2158.60
524.686,2160.90
525.682,2095.83
526.678,2139.00
527.674,2153.90
528.670,2133.07
529.666,2194.27
530.661,2155.30
531.657,2433.27
532.652,2192.70
533.648,2192.97
534.641,2173.30
535.636,2182.20
536.631,2187.07
537.626,2191.77
538.621,2200.70
539.616,2185.47
540.610,2173.40
541.605,2178.77
542.599,2224.87
543.593,2201.13
544.587,2196.20
545.581,2206.47
546.575,2178.90
547.569,2232.80
548.563,2220.53
549.557,2208.80
550.550,2217.30
551.543,2214.80
552.537,2188.90
553.530,2187.57
554.523,2222.93
555.516,2205.00
556.509,2185.83
557.502,2202.43
558.494,2234.43
559.487,2237.73
560.479,2248.63
561.472,2206.97
562.464,2218.70
563.456,2234.07
564.448,2226.90
565.440,2275.83
566.432,2256.10
567.423,2241.03
568.415,2305.77
569.404,2273.63
570.396,2276.10
571.387,2286.20
572.378,2265.77
573.369,2244.90
574.360,2283.27
575.351,2367.40
576.341,2312.03
577.332,2300.43
578.323,2317.90
579.313,2302.77
580.303,2347.30
581.293,2361.60
582.283,2324.40
583.273,2356.40
584.263,2345.67
585.253,2363.43
586.243,2379.23
587.232,2338.77
588.222,2345.97
589.211,2387.33
590.200,2367.47
591.189,2390.20
592.178,2408.30
593.167,2357.30
594.156,2371.37
595.145,2432.00
596.133,2368.90
597.122,2407.53
598.110,2343.83
599.098,2385.50
600.086,2339.60
601.074,2375.40
602.062,2387.67
603.050,2394.77
604.038,2372.50
605.025,2343.43
606.013,2361.90
607.000,2387.83
607.987,2389.03
608.975,2345.17
609.962,2358.80
610.949,2344.27
611.936,2398.80
612.922,2334.17
613.909,2311.07
614.895,2327.20
615.882,2320.10
616.868,2332.63
617.854,2314.70
618.841,2256.07
619.826,2250.17
620.812,2189.00
621.798,2248.00
622.784,2216.40
623.769,2185.70
624.755,2171.67
625.740,2211.87
626.725,2157.63
627.711,2196.77
628.698,2127.97
629.683,2126.93
630.667,2134.53
631.652,2114.87
632.637,2122.43
633.621,2120.50
634.606,2077.93
635.590,2096.97
636.574,2069.77
637.558,2049.30
638.542,2092.63
639.526,2029.77
640.510,1999.93
641.493,2022.33
642.477,1994.07
643.460,1995.33
644.444,1993.57
645.427,1925.07
646.410,1971.47
647.393,1970.83
648.376,1968.90
649.359,1940.67
650.341,1931.37
651.324,1931.13
652.307,1918.17
653.289,1940.60
654.271,1947.73
655.253,1886.57
656.235,1882.20
657.217,1918.70
658.199,1889.27
659.181,1889.33
660.163,1873.60
661.144,1869.50
662.126,1853.57
663.107,1852.43
664.088,1797.60
665.069,1849.50
666.050,1849.57
667.033,1814.33
668.014,1821.97
668.995,1839.33
669.975,1784.93
670.956,1806.23
671.936,1796.03
672.916,1796.63
673.896,1774.97
674.876,1774.80
675.856,1790.17
676.836,1757.07
677.816,1729.93
678.795,1765.77
679.775,1750.23
680.754,1694.73
681.734,1691.67
682.713,1677.30
683.692,1688.13
684.671,1673.27
685.650,1684.67
686.629,1647.37
687.607,1654.30
688.586,1616.73
689.564,1596.60
690.543,1597.00
691.523,1587.60
692.501,1582.57
693.479,1568.80
694.457,1604.33
695.435,1603.27
696.413,1549.10
697.390,1539.10
698.368,1519.90
699.345,1561.57
700.322,1509.93
701.300,1549.43
702.277,1533.70
703.254,1533.23
704.231,1524.93
705.207,1522.83
706.184,1530.50
707.161,1495.83
708.137,1482.57
709.113,1455.03
710.090,1482.30
711.068,1488.60
712.044,1424.20
713.020,1479.37
713.996,1455.53
714.971,1468.53
715.947,1412.83
716.922,1414.97
717.898,1419.27
718.873,1426.50
719.848,1439.63
720.823,1439.63
721.798,1412.60
722.773,1424.67
723.748,1403.73
724.723,1380.40
725.697,1398.83
726.672,1386.23
727.646,1373.57
728.622,1385.30
729.596,1350.47
730.570,1411.93
731.544,1352.00
732.518,1401.70
733.492,1392.30
734.466,1322.23
735.439,1384.77
736.413,1436.17
737.386,1378.13
738.359,1366.97
739.332,1329.77
740.305,1325.23
741.278,1349.20
742.251,1345.90
743.224,1330.73
744.196,1347.90
745.171,1323.53
746.143,1307.40
747.115,1319.50
748.087,1359.47
749.059,1326.80
750.031,1331.13
751.003,1366.83
751.975,1316.57
752.947,1299.30
753.918,1337.63
754.890,1308.30
755.861,1288.03
756.832,1274.80
757.803,1289.20
758.774,1293.93
759.747,1290.43
760.718,1279.63
761.689,1271.40
762.659,1293.80
763.630,1299.20
764.600,1247.17
765.570,1239.27
766.540,1273.90
767.510,1285.63
768.480,1293.63
769.450,1237.17
770.420,1293.77
771.390,1209.93
772.359,1239.57
773.329,1231.57
774.300,1247.13
775.269,1263.00
776.238,1209.53
777.207,1220.97
778.176,1213.70
779.145,1214.57
780.114,1222.20
781.083,1239.90
782.051,1245.10
783.019,1190.13
783.988,1190.53
784.956,1237.20
785.924,1225.53
786.894,1130.53
787.862,1196.73
788.830,1207.10
789.797,1190.27
790.765,1183.17
791.732,1161.47
792.700,1193.57
793.667,1152.20
794.634,1151.83
795.601,1168.17
796.568,1174.23
797.535,1158.80
798.502,1139.63
799.468,1165.63
800.437,1152.33
801.403,1158.07
802.370,1133.53
803.336,1119.43
804.302,1147.07
805.268,1136.90
806.234,1136.73
807.200,1127.40
808.166,1135.57
809.131,1126.67
810.097,1145.40
811.062,1109.97
812.027,1127.80
812.994,1091.23
813.960,1111.97
814.925,1129.90
815.889,1081.63
816.854,1144.40
817.819,1117.17
818.783,1100.13
819.748,1108.83
820.712,1099.93
821.677,1134.00
822.641,1132.67
823.605,1092.90
824.571,1133.53
825.534,1104.33
826.498,1097.77
827.462,1099.10
828.425,1106.73
829.389,1112.60
830.352,1114.70
831.315,1097.87
832.279,1110.10
833.242,1080.23
834.204,1078.13
835.167,1107.27
836.132,1136.57
837.095,1094.90
838.057,1105.03
839.020,1085.00
839.982,1045.87
840.944,1094.23
841.906,1088.77
842.868,1051.53
843.830,1088.33
844.792,1058.97
845.753,1056.40
846.715,1075.13
847.679,1056.53
848.640,1043.60
849.601,1058.73
850.562,1020.43
851.523,1066.83
852.484,1106.40
853.445,1032.03
854.406,1067.67
855.367,1055.80
856.327,1060.00
857.288,1038.63
858.248,1081.40
859.210,1032.47
860.170,1050.07
861.130,1032.57
862.090,1050.50
863.050,1064.47
864.010,1023.23
864.969,1073.80
865.929,1005.63
866.888,1043.70
867.848,1020.60
868.807,1018.53
869.766,1032.23
870.727,1057.87
871.686,1022.93
872.645,1058.83
873.604,1039.53
874.562,988.37
875.521,1078.73
876.479,1028.07
877.437,1018.53
878.396,1058.00
879.354,1030.87
880.312,1022.13
881.270,1070.23
882.229,1030.87
883.187,1034.73
884.145,1045.03
885.102,1011.10
886.059,1007.70
887.017,1037.10
887.974,1020.67
888.931,1035.97
889.888,1045.00
890.845,1005.57
891.802,1006.37
892.758,1011.87
893.717,1025.93
894.673,1007.23
895.630,1005.80
896.586,1042.70
897.542,1019.43
898.498,1022.97
899.454,1056.30
900.410,1000.57
901.366,1025.70
902.321,987.77
903.277,1044.63
904.232,973.50
905.189,1026.40
906.145,1049.30
907.100,1026.03
908.055,990.90
909.010,1036.13
909.965,995.07
910.919,1033.20
911.874,995.73
912.828,1006.43
913.783,991.40
914.737,990.30
915.693,1037.80
916.648,1001.47
917.602,1024.90
918.555,1012.97
919.509,1067.47
920.463,1000.07
921.417,1068.40
922.370,982.10
923.324,1025.37
924.277,1007.03
925.230,1022.87
926.183,1039.47
927.138,988.93
928.091,1005.03
929.044,989.53
929.996,1035.43
930.949,1012.40
931.902,1035.83
932.854,1000.43
933.806,1012.47
934.758,1011.70
935.711,1003.30
936.663,1035.43
937.614,1024.50
938.568,1012.07
939.520,1009.63
940.471,1046.43
941.423,1006.10
942.374,1030.93
943.326,986.10
944.277,1002.30
945.228,988.47
946.179,1005.13
947.130,990.07
948.080,1019.83
949.031,978.60
949.984,1008.67
950.934,1007.43
951.884,991.70
952.835,1009.40
953.785,1021.27
954.735,983.50
955.685,1007.10
956.635,999.10
957.585,995.57
958.534,1003.53
959.484,1026.87
960.433,989.00
961.383,997.23
962.334,1010.33
963.283,1034.50
964.232,1004.20
965.181,972.03
966.130,1003.30
967.079,971.37
968.027,1010.67
968.976,999.77
969.924,992.30
970.873,1050.47
971.821,958.67
972.769,1000.77
973.719,997.27
974.667,993.43
975.615,1007.07
976.562,963.60
977.510,979.57
978.458,990.97
979.405,971.70
980.352,987.40
981.300,967.80
982.247,986.17
983.194,1014.53
984.141,983.47
985.088,961.40
986.036,967.13
986.983,982.83
987.930,1003.67
988.876,1022.17
989.822,1016.13
990.769,1020.97
991.715,1003.37
992.661,985.03
993.607,992.60
994.553,931.30
995.498,1003.97
996.444,982.77
997.389,997.50
998.337,1013.87
999.282,1006.90
1000.227,1008.17
1001.173,1006.03
1002.118,1004.80
1003.062,997.47
1004.007,960.50
1004.952,966.47
1005.897,987.23
1006.841,976.63
1007.786,964.87
1008.730,990.70
1009.674,985.03
1010.618,975.43
1011.564,1028.10
1012.508,1031.33
1013.452,990.50
1014.396,989.60
1015.339,1024.83
1016.283,1022.40
1017.226,1032.93
1018.170,1033.40
1019.113,1024.17
1020.056,993.37
1020.999,980.30
1021.942,1022.30
1022.885,1000.47
1023.828,994.73
1024.770,1019.00
1025.715,1016.87
1026.657,966.73
1027.600,1008.30
1028.542,1035.87
1029.484,996.70
1030.426,1024.53
1031.368,1004.07
1032.310,1034.87
1033.251,987.37
1034.193,972.43
1035.135,1024.37
1036.076,1004.57
1037.017,997.73
1037.959,1004.50
1038.900,1011.67
1039.843,1017.53
1040.784,1022.37
1041.725,1015.27
1042.665,1028.17
1043.606,1018.93
1044.547,1062.23
1045.487,1034.60
1046.427,1045.00
1047.368,1041.63
1048.308,1017.20
1049.248,1028.00
1050.188,1054.70
1051.128,1048.17
1052.067,1060.20
1053.007,1074.93
1053.947,1052.70
1054.886,1029.27
1055.827,1039.27
1056.766,1086.93
1057.706,1055.77
1058.645,1044.43
1059.584,1050.03
1060.522,1016.57
1061.461,1091.87
1062.400,1066.03
1063.338,1031.63
1064.277,1062.37
1065.215,1048.97
1066.154,1072.87
1067.092,1060.23
1068.030,1100.73
1068.968,1070.13
1069.906,1096.37
1070.843,1083.37
1071.781,1121.00
1072.720,1104.70
1073.658,1053.53
1074.595,1098.10
1075.533,1103.90
1076.470,1124.60
1077.407,1034.67
1078.344,1121.70
1079.281,1112.67
1080.217,1102.07
1081.154,1111.40
1082.091,1107.50
1083.027,1098.63
1083.964,1121.37
1084.900,1126.10
1085.836,1121.27
1086.772,1114.80
1087.708,1108.47
1088.644,1101.23
1089.580,1094.87
1090.515,1085.37
1091.451,1115.30
1092.388,1104.93
1093.324,1117.27
1094.259,1086.47
1095.194,1129.13
1096.129,1082.83
1097.064,1088.07
1097.999,1120.23
1098.934,1099.67
1099.869,1094.07
1100.803,1117.17
1101.738,1093.83
1102.672,1112.13
1103.607,1074.43
1104.541,1056.03
1105.475,1087.23
1106.409,1092.33
1107.343,1047.13
1108.277,1060.67
1109.210,1026.80
1110.144,1046.13
1111.078,1060.47
1112.011,1029.77
1112.944,1016.47
1113.878,1067.90
1114.811,1062.73
1115.744,1024.87
1116.678,1019.83
1117.611,1024.93
1118.544,1024.60
1119.477,991.53
1120.409,1001.87
1121.342,1021.70
1122.274,1001.40
1123.206,731.53
1124.138,1012.80
1125.070,1003.90
1126.002,976.33
1126.934,955.43
1127.866,973.53
1128.798,1004.63
1129.729,970.97
1130.661,974.20
1131.592,966.77
1132.523,954.97
1133.454,967.80
1134.385,940.90
1135.317,933.33
1136.247,963.13
1137.178,937.93
1138.109,951.13
1139.039,933.60
1139.970,951.43
1140.900,873.53
1141.831,943.67
1142.761,919.57
1143.691,1164.67
1144.621,954.50
1145.551,925.03
1146.480,927.07
1147.410,955.97
1148.340,885.47
1149.269,905.60
1150.199,931.00
1151.128,898.80
1152.057,907.43
1152.979,906.30
1153.898,911.13
1154.819,919.33
1155.739,897.33
1156.658,937.53
1157.579,923.77
1158.498,871.60
1159.419,877.13
1160.338,847.70
1161.256,889.93
1162.177,892.60
1163.095,887.67
1164.016,906.40
1164.934,875.53
1165.852,917.30
1166.772,842.07
1167.690,875.23
1168.610,905.00
1169.528,884.40
1170.446,895.00
1171.365,877.60
1172.283,869.80
1173.202,877.47
1174.120,893.07
1175.037,916.23
1175.956,859.63
1176.873,888.07
1177.792,860.90
1178.709,856.37
1179.626,903.93
1180.544,863.53
1181.461,874.77
1182.379,861.27
1183.296,871.83
1184.212,855.77
1185.130,859.40
1186.046,885.90
1186.962,878.77
1187.880,862.73
1188.796,879.40
1189.714,854.37
1190.629,856.57
1191.545,883.53
1192.462,880.90
1193.378,887.70
1194.295,896.53
1195.210,900.50
1196.125,924.77
1197.042,896.87
1197.957,848.33
1198.872,869.53
1199.788,882.07
1200.703,857.03
1201.619,888.10
1202.534,843.13
1203.448,848.70
1204.364,879.67
1205.278,892.00
1206.192,862.00
1207.108,906.37
1208.022,924.53
1208.938,884.30
1209.851,863.33
1210.765,870.07
1211.680,867.43
1212.594,836.97
1213.507,873.37
1214.422,904.63
1215.335,908.27
1216.248,860.07
1217.163,897.10
1218.076,917.30
1218.990,870.23
1219.903,896.10
1220.816,897.97
1221.730,881.03
1222.642,893.43
1223.554,885.67
1224.469,916.13
1225.380,875.43
1226.292,913.77
1227.206,914.00
1228.118,912.30
1229.032,886.17
1229.943,887.63
1230.855,922.43
1231.768,885.53
1232.679,916.17
1233.590,900.57
1234.503,913.23
1235.414,927.47
1236.325,905.93
1237.238,916.27
1238.149,894.73
1239.059,924.13
1239.972,962.97
1240.882,958.90
1241.793,927.10
1242.705,953.80
1243.615,962.27
1244.525,957.60
1245.437,936.43
1246.347,910.07
1247.259,971.67
1248.168,948.67
1249.078,927.90
1249.989,934.13
1250.899,953.23
1251.808,929.73
1252.719,965.77
1253.628,949.87
1254.537,930.20
1255.448,930.27
1256.357,955.63
1257.266,928.10
1258.176,947.20
1259.085,959.30
1259.993,931.90
1260.904,959.13
1261.812,968.63
1262.720,944.60
1263.630,965.83
1264.538,965.80
1265.446,980.73
1266.356,1011.63
1267.263,963.60
1268.171,984.97
1269.080,923.83
1269.988,940.73
1270.895,963.37
1271.804,965.53
1272.711,976.93
1273.619,940.00
1274.527,964.73
1275.434,1001.70
1276.341,934.40
1277.248,1013.87
1278.156,926.10
1279.063,942.10
1279.969,939.43
1280.877,917.17
1281.783,968.00
1282.690,970.67
1283.598,946.63
1284.503,942.77
1285.409,954.53
1286.317,939.93
1287.223,981.97
1288.128,958.80
1289.036,959.23
1289.941,973.23
1290.846,931.10
1291.751,953.33
1292.658,940.50
1293.563,962.40
1294.468,937.60
1295.375,942.37
1296.280,929.33
1297.184,923.33
1298.091,923.40
1298.995,934.67
1299.900,912.87
1300.806,929.70
1301.710,923.10
1302.614,911.57
1303.518,909.27
1304.424,918.63
1305.327,930.77
1306.231,926.10
1307.137,852.20
1308.040,923.03
1308.943,912.43
1309.847,902.63
1310.752,894.90
1311.655,933.07
1312.558,893.87
1313.463,874.07
1314.366,829.40
1315.269,871.70
1316.171,871.67
1317.076,828.80
1317.978,851.80
1318.881,878.73
1319.785,888.47
1320.687,876.27
1321.589,876.13
1322.491,898.07
1323.395,870.57
1324.297,864.63
1325.198,856.17
1326.102,862.97
1327.004,837.67
1327.905,847.67
1328.806,870.67
1329.709,820.73
1330.611,824.17
1331.512,797.63
1332.413,838.63
1333.316,866.47
1334.216,844.30
1335.117,798.23
1336.020,852.73
1336.920,835.70
1337.821,807.47
1338.721,794.67
1339.623,809.43
1340.523,807.80
1341.423,808.20
1342.323,746.70
1343.225,821.13
1344.125,796.33
1345.025,805.50
1345.924,752.50
1346.826,828.90
1347.725,765.73
1348.624,784.73
1349.524,807.90
1350.425,739.20
1351.324,756.20
1352.223,757.23
1353.121,750.50
1354.022,737.17
1354.921,756.40
1355.819,774.03
1356.718,761.20
1357.618,745.57
1358.516,726.43
1359.415,772.77
1360.313,740.10
1361.213,705.23
1362.111,707.47
1363.008,729.90
1363.906,677.43
1364.806,709.83
1365.703,720.77
1366.601,705.63
1367.498,717.20
1368.397,719.07
1369.295,691.40
1370.192,708.93
1371.089,688.80
1371.987,687.17
1372.884,737.53
1373.781,669.47
1374.678,708.80
1375.574,685.43
1376.473,675.10
1377.369,703.87
1378.265,708.33
1379.161,664.17
1380.059,685.37
1380.955,695.63
1381.851,679.20
1382.747,660.93
1383.643,659.80
1384.540,688.00
1385.436,690.30
1386.331,656.90
1387.227,672.83
1388.124,677.13
1389.019,677.27
1389.914,662.83
1390.809,683.93
1391.704,688.27
1392.601,635.10
1393.495,653.07
1394.390,679.63
1395.285,692.30
1396.179,612.27
1397.075,648.17
1397.969,629.47
1398.864,650.63
1399.758,660.17
1400.652,641.93
1401.547,610.40
1402.441,675.47
1403.335,659.37
1404.229,694.67
1405.122,646.87
1406.017,676.70
1406.911,636.47
1407.804,634.50
1408.697,641.33
1409.590,656.97
1410.485,604.37
1411.378,629.87
1412.271,617.33
1413.163,641.37
1414.056,601.47
1414.949,618.10
1415.843,613.90
1416.735,617.30
1417.627,602.13
1418.520,633.77
1419.412,623.73
1420.306,604.00
1421.197,627.00
1422.089,644.37
1422.981,620.00
1423.873,602.73
1424.764,658.50
1425.657,631.03
1426.549,605.47
1427.440,664.97
1428.331,633.93
1429.222,601.20
1430.113,566.07
1431.006,643.60
1431.897,587.23
1432.787,622.50
1433.678,585.33
1434.568,603.77
1435.459,599.80
1436.351,604.13
1437.241,596.93
1438.131,574.77
1439.021,564.70
1439.911,569.47
1440.801,563.47
1441.693,622.70
1442.583,606.53
1443.472,588.33
1444.362,574.93
1445.251,583.13
1446.140,578.07
1447.030,591.97
1447.921,631.77
1448.810,577.40
1449.699,607.73
1450.588,602.10
1451.476,590.73
1452.365,583.13
1453.254,580.50
1454.144,570.50
1455.032,573.23
1455.921,563.37
1456.809,536.60
1457.697,534.43
1458.585,553.30
1459.473,549.53
1460.361,548.27
1461.251,567.40
1462.138,540.53
1463.026,587.87
1463.913,570.30
1464.801,538.07
1465.688,561.13
1466.575,549.03
1467.463,623.40
1468.351,558.93
1469.238,544.67
1470.125,584.10
1471.012,570.73
1471.899,519.40
1472.785,577.47
1473.672,564.27
1474.558,545.53
1475.446,566.37
1476.333,544.90
1477.219,534.70
1478.105,545.67
1478.991,541.50
1479.877,538.27
1480.762,546.83
1481.648,544.90
1482.534,552.60
1483.419,518.70
1484.307,555.83
1485.192,511.73
1486.077,536.93
1486.962,550.17
1487.847,545.27
1488.732,540.43
1489.617,563.50
1490.502,538.00
1491.387,505.70
1492.271,560.60
1493.156,537.00
1494.042,552.63
1494.927,545.00
1495.811,531.80
1496.695,559.50
1497.579,532.10
1498.463,549.77
1499.347,578.87
1500.231,525.30
1501.114,487.53
1501.998,519.07
1502.881,499.40
1503.765,527.23
1504.648,481.67
1505.533,539.43
1506.417,524.80
1507.300,508.67
1508.183,542.97
1509.066,524.57
1509.948,499.13
1510.831,537.80
1511.714,477.53
1512.596,522.80
1513.479,499.57
1514.361,471.13
1515.243,490.60
1516.125,540.13
1517.008,513.40
1517.890,508.47
1518.771,493.03
1519.655,466.57
1520.537,518.77
1521.419,509.17
1522.300,519.60
1523.182,507.10
1524.063,470.57
1524.944,480.07
1525.825,504.40
1526.707,500.50
1527.588,504.03
1528.468,513.73
1529.349,484.63
1530.230,460.00
1531.111,532.90
1531.991,499.83
1532.872,505.87
1533.752,507.63
1534.632,489.10
1535.513,493.77
1536.393,516.50
1537.273,476.97
1538.153,462.37
1539.032,458.90
1539.912,486.10
1540.792,483.47
1541.672,494.00
1542.551,513.07
1543.430,499.23
1544.310,486.27
1545.189,482.37
1546.068,535.93
1546.947,497.40
1547.826,488.03
1548.705,490.77
1549.584,462.77
1550.462,500.30
1551.341,496.40
1552.219,482.63
1553.098,473.93
1553.976,475.83
1554.854,522.37
1555.733,496.03
1556.611,500.73
1557.489,510.27
1558.367,509.40
1559.244,516.97
1560.122,472.97
1561.000,484.10
1561.877,496.67
1562.755,509.83
1563.632,488.57
1564.509,446.07
1565.386,479.20
1566.264,474.90
1567.141,473.30
1568.017,494.93
1568.894,445.03
1569.771,467.13
1570.648,500.30
1571.524,508.20
1572.401,468.10
1573.277,448.70
1574.153,489.57
1575.029,467.17
1575.906,472.60
1576.781,463.07
1577.657,496.47
1578.533,468.20
1579.409,476.47
1580.285,465.33
1581.160,470.83
1582.036,455.37
1582.911,459.43
1583.786,458.43
1584.662,460.80
1585.537,444.73
1586.412,455.10
1587.287,461.93
1588.160,444.37
1589.035,435.33
1589.909,454.87
1590.784,450.40
1591.658,481.80
1592.533,451.10
1593.407,489.07
1594.281,456.17
1595.155,454.60
1596.029,484.63
1596.903,440.73
1597.777,489.20
1598.651,442.57
1599.525,467.53
1600.398,479.93
1601.272,489.50
1602.144,464.07
1603.017,418.23
1603.890,455.40
1604.763,461.83
1605.636,473.80
1606.509,464.93
1607.382,450.77
1608.255,473.43
1609.128,450.80
1610.000,466.13
1610.873,451.30
1611.746,423.60
1612.616,417.27
1613.488,459.23
1614.361,439.17
1615.233,470.20
1616.105,424.07
1616.977,422.50
1617.849,454.83
1618.720,434.33
1619.592,452.77
1620.464,442.33
1621.333,452.93
1622.205,463.57
1623.076,465.37
1623.947,448.80
1624.818,406.47
1625.689,464.03
1626.560,458.03
1627.431,424.93
1628.302,464.50
1629.171,454.73
1630.042,407.70
1630.912,73.43
1631.782,412.80
1632.653,442.87
1633.523,423.37
1634.393,428.73
1635.263,449.63
1636.131,439.67
1637.001,464.80
1637.871,419.70
1638.741,432.03
1639.611,442.63
1640.480,402.03
1641.350,447.87
1642.219,448.77
1643.087,414.10
1643.956,402.63
1644.825,398.00
1645.694,454.23
1646.563,429.57
1647.432,410.50
1648.299,395.80
1649.167,448.57
1650.036,435.47
1650.904,478.00
1651.773,422.80
1652.641,426.63
1653.509,439.73
1654.376,424.80
1655.244,443.53
1656.112,441.47
1656.980,430.83
1657.847,420.73
1658.715,447.33
1659.581,425.80
1660.448,427.77
1661.316,389.57
1662.183,418.50
1663.051,416.57
1663.918,410.47
1664.783,430.07
1665.650,430.73
1666.517,373.40
1667.384,421.37
1668.251,413.30
1669.115,413.43
1669.982,464.23
1670.849,405.73
1671.715,404.03
1672.581,409.17
1673.446,395.20
1674.312,431.93
1675.178,449.23
1676.044,415.47
1676.910,402.80
1677.774,404.77
1678.639,412.83
1679.505,445.87
1680.370,440.70
1681.236,425.63
1682.099,438.83
1682.965,433.40
1683.830,428.20
1684.695,421.13
1685.560,461.13
1686.423,374.13
1687.288,429.13
1688.153,413.73
1689.017,407.83
1689.880,410.43
1690.745,425.57
1691.609,402.73
1692.473,384.43
1693.338,434.80
1694.200,418.50
1695.064,422.03
1695.928,389.20
1696.792,389.33
1697.654,412.23
1698.517,421.93
1699.381,382.30
1700.245,386.07
1701.106,409.60
1701.969,382.27
1702.833,427.23
1703.696,405.77
1704.557,391.27
1705.420,380.77
1706.283,391.43
1707.146,414.00
1708.007,411.97
1708.870,392.97
1709.732,404.73
1710.595,384.60
1711.455,411.60
1712.318,390.43
1713.180,400.40
1714.040,395.17
1714.902,400.57
1715.764,420.77
1716.626,414.60
1717.486,372.97
1718.348,391.17
1719.209,224.37
1720.071,396.03
1720.930,395.60
1721.792,388.10
1722.653,408.57
1723.512,428.20
1724.374,397.20
1725.234,388.40
1726.095,417.40
1726.954,409.10
1727.815,385.50
1728.676,381.13
1729.535,396.67
1730.395,428.40
1731.256,402.60
1732.114,421.13
1732.974,392.13
1733.834,430.23
1734.693,395.73
1735.553,361.83
1736.413,393.07
1737.272,391.03
1738.130,399.10
1738.990,423.70
1739.849,420.60
1740.707,410.73
1741.566,375.93
1742.426,390.53
1743.283,405.70
1744.142,404.23
1745.001,368.40
1745.858,413.90
1746.717,382.57
1747.576,373.93
1748.433,389.40
1749.292,399.67
1750.150,356.33
1751.007,416.93
1751.865,390.20
1752.723,426.73
1753.579,402.93
1754.438,380.93
1755.296,376.10
1756.152,371.47
1757.010,414.10
1757.865,390.10
1758.723,377.63
1759.581,385.93
1760.436,348.33
1761.294,405.83
1762.151,385.80
1763.006,372.00
1763.864,402.23
1764.721,345.03
1765.576,394.70
1766.433,420.23
1767.288,425.27
1768.144,402.47
1769.001,380.43
1769.856,376.33
1770.712,340.93
1771.568,378.57
1772.423,361.47
1773.279,381.53
1774.133,389.03
1774.989,382.93
1775.845,387.20
1776.699,381.07
1777.555,362.80
1778.409,393.17
1779.265,412.37
1780.120,433.70
1780.974,369.97
1781.829,373.90
1782.682,359.07
1783.538,393.50
1784.393,378.17
1785.246,384.83
1786.101,390.13
1786.954,392.00
1787.808,398.47
1788.661,372.80
1789.516,372.13
1790.370,379.50
1791.223,389.67
1792.077,386.47
1792.930,371.73
1793.784,393.67
1794.636,377.27
1795.490,365.77
1796.344,377.53
1797.196,383.20
1798.049,360.97
1798.901,372.73
1799.755,374.77
1800.606,403.53
1801.460,368.03
1802.311,388.67
1803.165,427.77
1804.018,360.30
1804.869,357.17
1805.722,360.47
1806.573,372.00
1807.426,402.03
1808.276,357.67
1809.129,399.53
1809.980,371.90
1810.832,371.73
1811.683,383.10
1812.535,408.63
1813.385,405.00
1814.237,372.50
1815.089,346.70
1815.940,372.80
1816.791,402.60
1817.641,339.03
1818.493,396.67
1819.343,371.50
1820.194,384.30
1821.044,400.70
1821.895,349.70
1822.745,384.80
1823.596,368.83
1824.445,378.73
1825.296,366.70
1826.145,338.87
1826.996,365.27
1827.845,408.83
1828.695,376.97
1829.544,396.40
1830.395,398.03
1831.243,352.13
1832.094,322.07
1832.942,393.93
1833.792,327.23
1834.640,396.07
1835.490,387.30
1836.338,390.80
1837.186,363.00
1838.036,385.03
1838.884,354.77
1839.733,341.87
1840.581,373.73
1841.430,389.33
1842.278,347.90
1843.127,339.10
1843.974,352.07
1844.823,355.73
1845.671,369.70
1846.519,364.03
1847.366,390.60
1848.213,338.30
1849.062,367.47
1849.909,373.37
1850.757,330.37
1851.604,353.83
1852.452,361.97
1853.298,364.10
1854.146,341.23
1854.993,377.47
1855.839,385.97
1856.687,393.20
1857.532,384.67
1858.380,352.97
1859.226,377.43
1860.073,327.50
1860.919,367.83
1861.765,395.37
1862.612,365.57
1863.457,357.13
1864.304,388.20
1865.150,335.90
1865.995,366.33
1866.842,337.30
1867.686,402.33
1868.533,395.13
1869.378,389.67
1870.223,366.80
1871.069,314.77
1871.914,356.37
1872.760,381.63
1873.604,370.47
1874.448,343.47
1875.294,386.13
1876.139,312.60
1876.984,385.37
1877.828,370.80
1878.672,362.53
1879.518,349.53
1880.361,352.63
1881.205,381.50
1882.050,373.57
1882.894,341.00
1883.739,340.73
1884.582,346.03
1885.425,364.87
1886.270,367.43
1887.113,376.43
1887.956,344.83
1888.801,355.97
1889.644,366.10
1890.486,363.70
1891.331,355.97
1892.173,327.40
1893.017,371.27
1893.860,333.53
1894.702,340.73
1895.546,368.47
1896.388,309.80
1897.230,350.67
1898.074,356.57
1898.916,311.60
1899.757,378.13
1900.601,342.57
1901.443,397.50
1902.284,349.43
1903.125,362.53
1903.969,363.30
1904.810,371.23
1905.651,378.70
1906.494,342.43
1907.335,386.20
1908.176,356.73
1909.018,356.00
1909.859,381.63
1910.700,365.90
1911.542,352.77
1912.383,343.20
1913.223,361.83
1914.064,315.77
1914.906,362.93
1915.746,350.30
1916.586,380.43
1917.428,312.20
1918.268,359.43
1919.107,343.60
1919.947,341.00
1920.789,351.30
1921.628,361.63
1922.468,321.83
1923.309,338.53
1924.148,349.23
1924.988,340.80
1925.827,328.97
1926.667,330.47
1927.507,375.70
1928.345,357.97
1929.184,308.80
1930.025,383.43
1930.864,329.00
1931.702,384.43
1932.541,317.93
1933.381,310.80
1934.219,330.40
1935.057,387.50
1935.896,350.40
1936.735,346.17
1937.573,342.00
1938.411,370.80
1939.249,344.07
1940.089,313.20
1940.927,330.93
1941.764,359.17
1942.602,329.17
1943.439,355.97
1944.278,385.90
1945.115,334.73
1945.953,353.50
1946.790,327.80
1947.628,375.47
1948.465,320.87
1949.302,319.37
1950.139,363.80
1950.976,346.97
1951.814,355.97
1952.651,370.57
1953.487,344.43
1954.323,346.90
1955.160,303.23
1955.998,351.00
1956.834,361.90
1957.670,334.60
1958.506,340.53
1959.342,344.03
1960.177,350.60
1961.015,324.80
1961.850,355.57
1962.686,332.37
1963.521,325.83
1964.357,383.93
1965.192,341.73
1966.029,371.10
1966.864,308.97
1967.699,362.93
1968.534,379.17
1969.369,320.90
1970.204,358.70
1971.040,355.30
1971.875,356.33
1972.709,345.27
1973.544,342.87
1974.378,365.57
1975.212,325.90
1976.047,344.37
1976.882,345.03
1977.716,295.73
1978.550,332.30
1979.384,342.43
1980.218,357.77
1981.052,342.77
1981.885,374.50
1982.719,310.73
1983.554,353.93
1984.388,296.87
1985.221,338.67
1986.054,348.00
1986.887,337.37
1987.720,323.17
1988.553,346.27
1989.386,311.13
1990.219,352.47
1991.053,314.83
1991.886,348.97
1992.719,310.33
1993.551,325.63
1994.383,312.83
1995.216,341.97
1996.048,348.07
1996.880,305.93
1997.712,366.73
1998.544,327.93
1999.376,384.50
2000.208,306.37
2001.040,322.83
2001.873,339.07
2002.705,336.93
2003.536,331.57
2004.367,292.13
2005.199,326.93
2006.030,317.90
2006.861,355.67
2007.692,340.57
2008.523,283.33
2009.354,312.27
2010.185,359.43
2011.016,357.60
2011.846,306.97
2012.677,311.93
2013.507,316.87
2014.338,334.60
2015.168,302.83
2015.999,347.30
2016.829,348.93
2017.659,355.23
2018.489,347.43
2019.319,340.40
2020.149,320.20
2020.980,324.47
2021.810,327.70
2022.639,336.27
2023.469,350.87
2024.298,347.93
2025.128,348.00
2025.957,396.07
2026.786,370.77
2027.615,316.73
2028.444,357.97
2029.273,361.57
2030.102,345.87
2030.931,350.47
2031.758,303.23
2032.586,321.97
2033.415,342.27
2034.243,330.37
2035.072,356.10
2035.900,327.10
2036.728,362.27
2037.556,328.77
2038.385,330.00
2039.213,333.90
2040.040,323.37
2040.868,345.40
2041.696,363.57
2042.524,355.33
2043.351,333.87
2044.179,344.83
2045.006,335.00
2045.006,335.00

Max Intensity Wave.,219.929
Max Intensity Data,4563.00
Min Intensity Wave.,1630.912
Min Intensity Data,73.43
FWHM Wave.,409.417
FWHM Value,0.90
Pressure Wave.,685.390
Pressure Value [GPa],-23.04391
G/D Ratio,0.57471
G/D Gband Wave.,1546.140
G/D Gband Intensity,536.24
G/D Dband Wave.,1311.649
G/D Dband Intensity,933.07

<< BACKGROUND SPECTRUM >>
Wave[dcm-1],No524
146.591,2277.00
147.626,2113.00
148.664,2071.00
149.699,2530.00
150.737,2249.00
151.772,2387.00
152.809,2390.00
153.846,2287.00
154.881,2393.00
155.918,1946.00
156.953,2291.00
157.989,2592.00
159.026,2447.00
160.060,2675.00
161.096,2844.00
162.130,2511.00
163.167,2556.00
164.200,2446.00
165.236,2655.00
166.272,2689.00
167.305,2267.00
168.341,2524.00
169.374,2773.00
170.409,2803.00
171.445,2759.00
172.477,2527.00
173.512,2405.00
174.545,2707.00
175.580,2858.00
176.614,3031.00
177.647,2819.00
178.681,3035.00
179.713,3299.00
180.747,2805.00
181.781,2722.00
182.813,3011.00
183.847,3078.00
184.878,2754.00
185.912,2959.00
186.945,3125.00
187.976,3026.00
189.010,2728.00
190.043,2828.00
191.073,2934.00
192.106,2706.00
193.137,3148.00
194.170,2569.00
195.202,2920.00
196.232,2684.00
197.265,2969.00
198.297,3024.00
199.327,2762.00
200.359,2921.00
201.388,3309.00
202.420,2870.00
203.452,3069.00
204.481,2729.00
205.512,3326.00
206.544,3039.00
207.573,3072.00
208.604,3366.00
209.635,3538.00
210.663,2941.00
211.694,3026.00
212.725,2840.00
213.753,2784.00
214.783,3369.00
215.813,3259.00
216.841,2997.00
217.871,3148.00
218.899,2928.00
219.929,3139.00
220.959,2899.00
221.986,3147.00
223.016,2773.00
224.045,3132.00
225.072,3118.00
226.101,3167.00
227.130,3202.00
228.157,2855.00
229.185,2341.00
230.214,3168.00
231.241,2810.00
232.269,2457.00
233.297,2687.00
234.323,3163.00
235.351,2792.00
236.379,3081.00
237.407,2766.00
238.433,2939.00
239.460,3114.00
240.488,3124.00
241.513,3191.00
242.540,3116.00
243.568,3191.00
244.592,3216.00
245.619,3192.00
246.646,2935.00
247.671,2940.00
248.697,2786.00
249.724,2984.00
250.748,3017.00
251.774,3010.00
252.801,3277.00
253.827,3133.00
254.850,3080.00
255.876,2682.00
256.902,3176.00
257.925,2954.00
258.951,2698.00
259.976,2800.00
260.999,3153.00
262.024,2776.00
263.049,3653.00
264.074,3053.00
265.097,3025.00
266.122,3074.00
267.146,2993.00
268.168,3222.00
269.193,2890.00
270.217,3218.00
271.241,2725.00
272.263,2850.00
273.287,3185.00
274.311,2752.00
275.332,3285.00
276.356,2839.00
277.379,3125.00
278.402,3159.00
279.424,2937.00
280.447,2898.00
281.470,2718.00
282.492,3090.00
283.513,2935.00
284.536,3175.00
285.558,3165.00
286.581,3105.00
287.601,2844.00
288.623,2807.00
289.645,3055.00
290.665,3118.00
291.687,3146.00
292.709,3137.00
293.730,3399.00
294.750,2907.00
295.771,2772.00
296.792,3069.00
297.813,2906.00
298.832,3022.00
299.853,2734.00
300.874,3000.00
301.895,2926.00
302.913,2980.00
303.934,3252.00
304.954,3052.00
305.975,4229.00
306.993,2749.00
308.013,3113.00
309.033,3009.00
310.052,2913.00
311.072,2895.00
312.090,3059.00
313.109,3258.00
314.129,3427.00
315.148,2987.00
316.165,3027.00
317.184,3250.00
318.203,2761.00
319.222,2799.00
320.238,3082.00
321.257,2794.00
322.275,2693.00
323.294,2991.00
324.312,3159.00
325.328,3264.00
326.346,3316.00
327.364,3234.00
328.382,3079.00
329.397,3071.00
330.415,3253.00
331.432,3229.00
332.450,3253.00
333.467,3479.00
334.482,2563.00
335.499,3323.00
336.516,2867.00
337.533,2559.00
338.547,2842.00
339.564,2847.00
340.580,3079.00
341.597,2918.00
342.613,3422.00
343.627,2977.00
344.643,3038.00
345.659,3115.00
346.675,2984.00
347.690,2900.00
348.704,3075.00
349.719,2868.00
350.735,2743.00
351.750,3228.00
352.765,3001.00
353.778,2991.00
354.793,3196.00
355.808,2831.00
356.822,3217.00
357.837,2638.00
358.851,3291.00
359.864,2989.00
360.878,2746.00
361.892,2947.00
362.906,3121.00
363.920,2599.00
364.932,3099.00
365.945,3117.00
366.959,2990.00
367.972,2942.00
368.986,2695.00
369.999,3375.00
371.010,2830.00
372.023,3332.00
373.036,2948.00
374.049,3374.00
375.061,3123.00
376.072,2980.00
377.084,2877.00
378.097,2721.00
379.109,3164.00
380.121,2998.00
381.133,2669.00
382.143,3142.00
383.155,2751.00
384.166,2913.00
385.178,3100.00
386.189,3214.00
387.201,2709.00
388.212,2894.00
389.221,2930.00
390.232,3025.00
391.243,2932.00
392.254,3063.00
393.264,2840.00
394.275,3228.00
395.283,3215.00
396.294,3641.00
397.304,3515.00
398.314,3112.00
399.324,3080.00
400.334,2671.00
401.344,3163.00
402.351,2678.00
403.361,3197.00
404.370,2976.00
405.380,2907.00
406.389,3323.00
407.398,3133.00
408.407,3103.00
409.414,3177.00
410.423,3298.00
411.431,2766.00
412.440,2695.00
413.448,3335.00
414.457,2855.00
415.465,2829.00
416.471,2904.00
417.479,3019.00
418.487,2842.00
419.495,3335.00
420.503,3107.00
421.510,2632.00
422.518,3155.00
423.525,3172.00
424.530,3415.00
425.537,2891.00
426.544,3276.00
427.551,2850.00
428.558,3561.00
429.565,3439.00
430.571,2886.00
431.578,2917.00
432.582,2877.00
433.588,2994.00
434.595,2591.00
435.601,3304.00
436.607,3223.00
437.612,2755.00
438.618,3320.00
439.624,2983.00
440.627,2925.00
441.633,3103.00
442.638,3595.00
443.643,3072.00
444.648,3015.00
445.653,3179.00
446.658,2891.00
447.663,3039.00
448.667,2884.00
449.672,2919.00
450.674,2975.00
451.678,2683.00
452.682,2850.00
453.687,2849.00
454.690,3595.00
455.694,3259.00
456.698,2595.00
457.702,2665.00
458.705,2802.00
459.709,2783.00
460.710,2858.00
461.713,3042.00
462.716,3087.00
463.719,2997.00
464.722,3174.00
465.725,2957.00
466.727,2817.00
467.730,3078.00
468.732,2750.00
469.735,3281.00
470.737,2866.00
471.737,2886.00
472.739,2929.00
473.741,2777.00
474.742,3086.00
475.744,3145.00
476.746,3037.00
477.747,2939.00
478.748,3147.00
479.750,2957.00
480.751,2991.00
481.752,3763.00
482.753,3059.00
483.751,3530.00
484.752,2615.00
485.753,3002.00
486.753,2871.00
487.753,2979.00
488.754,3416.00
489.754,2726.00
490.754,3325.00
491.754,3122.00
492.754,2707.00
493.753,3016.00
494.753,2916.00
495.752,3330.00
496.752,3005.00
497.749,2962.00
498.748,2896.00
499.747,3396.00
500.746,3104.00
501.745,2742.00
502.744,2732.00
503.742,3324.00
504.741,2944.00
505.739,2484.00
506.737,2896.00
507.735,3156.00
508.734,3413.00
509.732,3164.00
510.729,3281.00
511.727,2881.00
512.725,2896.00
513.720,2818.00
514.718,3228.00
515.715,2750.00
516.712,2607.00
517.709,2988.00
518.706,2889.00
519.703,3044.00
520.700,3193.00
521.696,3343.00
522.693,2933.00
523.689,2846.00
524.686,3148.00
525.682,2834.00
526.678,3459.00
527.674,2919.00
528.670,2625.00
529.666,3480.00
530.661,3484.00
531.657,3158.00
532.652,3139.00
533.648,2986.00
534.641,3233.00
535.636,3037.00
536.631,3084.00
537.626,3166.00
538.621,2744.00
539.616,2619.00
540.610,2535.00
541.605,3020.00
542.599,3028.00
543.593,2989.00
544.587,3907.00
545.581,2842.00
546.575,3065.00
547.569,3001.00
548.563,2687.00
549.557,2670.00
550.550,2768.00
551.543,2739.00
552.537,3166.00
553.530,2802.00
554.523,2772.00
555.516,3137.00
556.509,2987.00
557.502,2644.00
558.494,3184.00
559.487,2917.00
560.479,3162.00
561.472,3251.00
562.464,3140.00
563.456,3285.00
564.448,2955.00
565.440,2968.00
566.432,3390.00
567.423,2908.00
568.415,2846.00
569.404,3102.00
570.396,2801.00
571.387,3120.00
572.378,3024.00
573.369,3985.00
574.360,3685.00
575.351,2907.00
576.341,2853.00
577.332,2880.00
578.323,2690.00
579.313,2898.00
580.303,3242.00
581.293,3110.00
582.283,3001.00
583.273,3101.00
584.263,3024.00
585.253,3100.00
586.243,3157.00
587.232,2671.00
588.222,2978.00
589.211,3153.00
590.200,3072.00
591.189,2943.00
592.178,2942.00
593.167,3433.00
594.156,3270.00
595.145,2852.00
596.133,3466.00
597.122,3089.00
598.110,3226.00
599.098,3048.00
600.086,3041.00
601.074,3192.00
602.062,2847.00
603.050,2720.00
604.038,3105.00
605.025,2818.00
606.013,3217.00
607.000,3363.00
607.987,2996.00
608.975,3074.00
609.962,2772.00
610.949,3138.00
611.936,3194.00
612.922,3157.00
613.909,2700.00
614.895,3325.00
615.882,2833.00
616.868,2969.00
617.854,2727.00
618.841,3028.00
619.826,3094.00
620.812,3030.00
621.798,2790.00
622.784,3175.00
623.769,3109.00
624.755,2732.00
625.740,3020.00
626.725,2737.00
627.711,2819.00
628.698,3086.00
629.683,2812.00
630.667,3149.00
631.652,2750.00
632.637,2939.00
633.621,3140.00
634.606,2921.00
635.590,3086.00
636.574,2913.00
637.558,3071.00
638.542,2977.00
639.526,2847.00
640.510,2657.00
641.493,3031.00
642.477,3007.00
643.460,2694.00
644.444,3222.00
645.427,3298.00
646.410,2663.00
647.393,2962.00
648.376,3056.00
649.359,2908.00
650.341,3081.00
651.324,3074.00
652.307,3044.00
653.289,2924.00
654.271,2841.00
655.253,2918.00
656.235,3121.00
657.217,3217.00
658.199,2641.00
659.181,2739.00
660.163,3004.00
661.144,2863.00
662.126,2907.00
663.107,2782.00
664.088,6259.00
665.069,3237.00
666.050,2794.00
667.033,2739.00
668.014,3060.00
668.995,2591.00
669.975,3022.00
670.956,2996.00
671.936,3118.00
672.916,2961.00
673.896,3095.00
674.876,2920.00
675.856,2832.00
676.836,2736.00
677.816,2327.00
678.795,2806.00
679.775,2661.00
680.754,3033.00
681.734,3148.00
682.713,3159.00
683.692,2781.00
684.671,2647.00
685.650,2731.00
686.629,2853.00
687.607,2726.00
688.586,2779.00
689.564,2871.00
690.543,3255.00
691.523,2399.00
692.501,2832.00
693.479,2955.00
694.457,2762.00
695.435,2823.00
696.413,2682.00
697.390,2524.00
698.368,2707.00
699.345,3073.00
700.322,2979.00
701.300,3060.00
702.277,3025.00
703.254,3234.00
704.231,2562.00
705.207,2943.00
706.184,2749.00
707.161,2662.00
708.137,2845.00
709.113,2817.00
710.090,2790.00
711.068,2571.00
712.044,2644.00
713.020,2874.00
713.996,2611.00
714.971,2792.00
715.947,2890.00
716.922,2828.00
717.898,2760.00
718.873,2883.00
719.848,2704.00
720.823,2677.00
721.798,2984.00
722.773,2744.00
723.748,2547.00
724.723,3044.00
725.697,2843.00
726.672,2769.00
727.646,2525.00
728.622,2994.00
729.596,2621.00
730.570,2699.00
731.544,3087.00
732.518,3239.00
733.492,2801.00
734.466,2910.00
735.439,2983.00
736.413,3046.00
737.386,2443.00
738.359,2419.00
739.332,2549.00
740.305,2874.00
741.278,3292.00
742.251,2922.00
743.224,2742.00
744.196,2535.00
745.171,3152.00
746.143,3049.00
747.115,2784.00
748.087,2692.00
749.059,3078.00
750.031,2892.00
751.003,3646.00
751.975,3252.00
752.947,2705.00
753.918,3060.00
754.890,2580.00
755.861,2789.00
756.832,3052.00
757.803,2846.00
758.774,2836.00
759.747,2620.00
760.718,3195.00
761.689,2752.00
762.659,2588.00
763.630,3125.00
764.600,2573.00
765.570,3075.00
766.540,3120.00
767.510,2912.00
768.480,3011.00
769.450,2747.00
770.420,2786.00
771.390,2676.00
772.359,2768.00
773.329,2671.00
774.300,2499.00
775.269,2729.00
776.238,3000.00
777.207,3157.00
778.176,2522.00
779.145,2811.00
780.114,2675.00
781.083,2545.00
782.051,2706.00
783.019,2700.00
783.988,3102.00
784.956,2814.00
785.924,2963.00
786.894,2933.00
787.862,2700.00
788.830,3121.00
789.797,2625.00
790.765,2591.00
791.732,2782.00
792.700,2629.00
793.667,2615.00
794.634,2771.00
795.601,2738.00
796.568,2780.00
797.535,2839.00
798.502,3450.00
799.468,2890.00
800.437,2408.00
801.403,2644.00
802.370,3271.00
803.336,3008.00
804.302,2868.00
805.268,2445.00
806.234,2549.00
807.200,2739.00
808.166,2768.00
809.131,2572.00
810.097,2959.00
811.062,3670.00
812.027,3011.00
812.994,2629.00
813.960,2612.00
814.925,2919.00
815.889,2544.00
816.854,2978.00
817.819,2635.00
818.783,2732.00
819.748,3083.00
820.712,2748.00
821.677,2648.00
822.641,2666.00
823.605,2721.00
824.571,3099.00
825.534,2749.00
826.498,2685.00
827.462,2800.00
828.425,2610.00
829.389,3035.00
830.352,2806.00
831.315,2898.00
832.279,2500.00
833.242,2761.00
834.204,2662.00
835.167,2641.00
836.132,3013.00
837.095,2512.00
838.057,2674.00
839.020,2813.00
839.982,2879.00
840.944,2667.00
841.906,2625.00
842.868,2980.00
843.830,2527.00
844.792,3058.00
845.753,2699.00
846.715,2438.00
847.679,2612.00
848.640,2639.00
849.601,2752.00
850.562,3282.00
851.523,2704.00
852.484,2441.00
853.445,3014.00
854.406,2705.00
855.367,2720.00
856.327,3045.00
857.288,2515.00
858.248,2653.00
859.210,2723.00
860.170,2525.00
861.130,3034.00
862.090,2434.00
863.050,2595.00
864.010,2706.00
864.969,2870.00
865.929,2633.00
866.888,2533.00
867.848,2846.00
868.807,2684.00
869.766,2857.00
870.727,2703.00
871.686,3007.00
872.645,2973.00
873.604,3296.00
874.562,2810.00
875.521,2746.00
876.479,3354.00
877.437,2595.00
878.396,2560.00
879.354,3173.00
880.312,2601.00
881.270,2628.00
882.229,3091.00
883.187,2609.00
884.145,2662.00
885.102,2946.00
886.059,2844.00
887.017,2878.00
887.974,2955.00
888.931,3057.00
889.888,2496.00
890.845,2449.00
891.802,2360.00
892.758,2651.00
893.717,2423.00
894.673,2584.00
895.630,2643.00
896.586,2877.00
897.542,2683.00
898.498,2514.00
899.454,2812.00
900.410,2690.00
901.366,2666.00
902.321,2647.00
903.277,2668.00
904.232,2780.00
905.189,2472.00
906.145,2636.00
907.100,2210.00
908.055,2733.00
909.010,2905.00
909.965,2365.00
910.919,2784.00
911.874,2577.00
912.828,2771.00
913.783,2807.00
914.737,2379.00
915.693,2732.00
916.648,2919.00
917.602,2931.00
918.555,2803.00
919.509,2795.00
920.463,2777.00
921.417,2719.00
922.370,2602.00
923.324,2670.00
924.277,2658.00
925.230,2755.00
926.183,2406.00
927.138,2713.00
928.091,2956.00
929.044,2845.00
929.996,2638.00
930.949,2657.00
931.902,2815.00
932.854,2848.00
933.806,2587.00
934.758,2968.00
935.711,2994.00
936.663,2815.00
937.614,2788.00
938.568,2742.00
939.520,2408.00
940.471,2688.00
941.423,2794.00
942.374,2872.00
943.326,2780.00
944.277,2612.00
945.228,2856.00
946.179,2709.00
947.130,3053.00
948.080,2645.00
949.031,2593.00
949.984,2672.00
950.934,2703.00
951.884,2490.00
952.835,2714.00
953.785,2734.00
954.735,2624.00
955.685,2342.00
956.635,2633.00
957.585,2636.00
958.534,2629.00
959.484,2724.00
960.433,2620.00
961.383,2478.00
962.334,2949.00
963.283,2747.00
964.232,2845.00
965.181,2744.00
966.130,2780.00
967.079,2654.00
968.027,2719.00
968.976,2747.00
969.924,2612.00
970.873,2757.00
971.821,2789.00
972.769,2926.00
973.719,2850.00
974.667,2493.00
975.615,2707.00
976.562,2755.00
977.510,2436.00
978.458,2616.00
979.405,2854.00
980.352,2778.00
981.300,2987.00
982.247,2804.00
983.194,2525.00
984.141,2644.00
985.088,2765.00
986.036,2803.00
986.983,3016.00
987.930,3111.00
988.876,2336.00
989.822,2935.00
990.769,2534.00
991.715,2588.00
992.661,2439.00
993.607,2801.00
994.553,3322.00
995.498,2585.00
996.444,2292.00
997.389,2779.00
998.337,2519.00
999.282,2852.00
1000.227,2643.00
1001.173,2704.00
1002.118,2435.00
1003.062,2906.00
1004.007,2713.00
1004.952,3015.00
1005.897,2937.00
1006.841,2719.00
1007.786,2480.00
1008.730,2431.00
1009.674,3175.00
1010.618,2679.00
1011.564,2483.00
1012.508,2356.00
1013.452,2959.00
1014.396,2742.00
1015.339,2595.00
1016.283,2671.00
1017.226,2708.00
1018.170,2682.00
1019.113,2873.00
1020.056,2747.00
1020.999,2742.00
1021.942,2585.00
1022.885,2860.00
1023.828,3014.00
1024.770,2494.00
1025.715,2744.00
1026.657,2719.00
1027.600,2748.00
1028.542,2892.00
1029.484,2753.00
1030.426,2844.00
1031.368,2787.00
1032.310,2553.00
1033.251,2568.00
1034.193,2747.00
1035.135,2489.00
1036.076,2643.00
1037.017,2567.00
1037.959,2844.00
1038.900,2795.00
1039.843,2811.00
1040.784,2747.00
1041.725,2810.00
1042.665,2617.00
1043.606,2763.00
1044.547,2723.00
1045.487,2375.00
1046.427,2664.00
1047.368,2766.00
1048.308,2254.00
1049.248,2531.00
1050.188,2690.00
1051.128,2613.00
1052.067,2656.00
1053.007,2384.00
1053.947,2386.00
1054.886,2600.00
1055.827,2502.00
1056.766,2857.00
1057.706,2456.00
1058.645,2676.00
1059.584,2757.00
1060.522,3008.00
1061.461,2431.00
1062.400,2481.00
1063.338,2684.00
1064.277,2507.00
1065.215,2548.00
1066.154,2402.00
1067.092,2611.00
1068.030,2620.00
1068.968,2870.00
1069.906,2996.00
1070.843,2957.00
1071.781,2711.00
1072.720,2796.00
1073.658,2868.00
1074.595,2605.00
1075.533,2547.00
1076.470,2555.00
1077.407,3036.00
1078.344,2740.00
1079.281,2790.00
1080.217,2314.00
1081.154,2667.00
1082.091,2721.00
1083.027,2456.00
1083.964,2900.00
1084.900,2537.00
1085.836,2602.00
1086.772,2871.00
1087.708,2461.00
1088.644,2817.00
1089.580,2698.00
1090.515,2761.00
1091.451,2594.00
1092.388,2703.00
1093.324,2438.00
1094.259,3256.00
1095.194,2723.00
1096.129,2633.00
1097.064,2579.00
1097.999,2785.00
1098.934,2533.00
1099.869,2543.00
1100.803,2682.00
1101.738,2698.00
1102.672,2386.00
1103.607,2815.00
1104.541,2562.00
1105.475,2528.00
1106.409,2400.00
1107.343,2609.00
1108.277,2430.00
1109.210,2733.00
1110.144,2673.00
1111.078,2664.00
1112.011,2467.00
1112.944,2772.00
1113.878,2698.00
1114.811,2150.00
1115.744,2580.00
1116.678,2307.00
1117.611,2557.00
1118.544,2592.00
1119.477,2765.00
1120.409,2561.00
1121.342,3114.00
1122.274,2743.00
1123.206,4269.00
1124.138,2659.00
1125.070,2958.00
1126.002,2848.00
1126.934,2327.00
1127.866,2563.00
1128.798,2315.00
1129.729,2380.00
1130.661,2641.00
1131.592,2570.00
1132.523,2746.00
1133.454,2763.00
1134.385,2317.00
1135.317,2674.00
1136.247,2568.00
1137.178,2872.00
1138.109,2367.00
1139.039,3031.00
1139.970,2816.00
1140.900,2645.00
1141.831,2340.00
1142.761,2250.00
1143.691,2735.00
1144.621,2621.00
1145.551,2698.00
1146.480,2697.00
1147.410,2813.00
1148.340,2343.00
1149.269,2390.00
1150.199,2569.00
1151.128,3063.00
1152.057,2450.00
1152.979,2590.00
1153.898,2625.00
1154.819,2715.00
1155.739,2639.00
1156.658,2537.00
1157.579,2661.00
1158.498,2658.00
1159.419,2202.00
1160.338,2730.00
1161.256,2702.00
1162.177,2502.00
1163.095,2629.00
1164.016,2684.00
1164.934,2913.00
1165.852,2800.00
1166.772,2664.00
1167.690,2655.00
1168.610,2685.00
1169.528,2650.00
1170.446,2181.00
1171.365,2569.00
1172.283,2527.00
1173.202,2647.00
1174.120,2661.00
1175.037,2466.00
1175.956,2478.00
1176.873,2495.00
1177.792,2554.00
1178.709,3118.00
1179.626,2505.00
1180.544,2852.00
1181.461,2499.00
1182.379,2740.00
1183.296,2629.00
1184.212,2294.00
1185.130,2477.00
1186.046,2959.00
1186.962,2637.00
1187.880,2927.00
1188.796,2676.00
1189.714,2454.00
1190.629,2775.00
1191.545,2682.00
1192.462,2563.00
1193.378,2597.00
1194.295,2312.00
1195.210,2623.00
1196.125,2721.00
1197.042,2690.00
1197.957,2654.00
1198.872,2516.00
1199.788,2530.00
1200.703,2971.00
1201.619,2629.00
1202.534,2528.00
1203.448,2732.00
1204.364,2561.00
1205.278,2287.00
1206.192,2694.00
1207.108,3096.00
1208.022,2965.00
1208.938,2470.00
1209.851,2798.00
1210.765,2869.00
1211.680,2537.00
1212.594,2451.00
1213.507,2581.00
1214.422,3008.00
1215.335,2735.00
1216.248,2587.00
1217.163,2647.00
1218.076,3191.00
1218.990,2761.00
1219.903,2406.00
1220.816,2466.00
1221.730,2610.00
1222.642,2487.00
1223.554,2550.00
1224.469,2692.00
1225.380,2596.00
1226.292,2285.00
1227.206,2750.00
1228.118,2932.00
1229.032,2288.00
1229.943,2525.00
1230.855,2570.00
1231.768,2401.00
1232.679,2708.00
1233.590,2612.00
1234.503,2851.00
1235.414,2468.00
1236.325,2526.00
1237.238,2700.00
1238.149,2764.00
1239.059,2430.00
1239.972,2772.00
1240.882,2412.00
1241.793,2744.00
1242.705,2965.00
1243.615,2545.00
1244.525,2693.00
1245.437,2205.00
1246.347,2704.00
1247.259,2754.00
1248.168,3058.00
1249.078,2886.00
1249.989,2891.00
1250.899,2413.00
1251.808,2517.00
1252.719,2545.00
1253.628,2492.00
1254.537,3015.00
1255.448,2462.00
1256.357,2447.00
1257.266,2659.00
1258.176,2373.00
1259.085,2342.00
1259.993,2468.00
1260.904,2458.00
1261.812,2435.00
1262.720,3179.00
1263.630,2789.00
1264.538,2460.00
1265.446,2721.00
1266.356,2571.00
1267.263,2894.00
1268.171,2395.00
1269.080,2724.00
1269.988,2815.00
1270.895,2542.00
1271.804,2589.00
1272.711,2791.00
1273.619,2784.00
1274.527,2435.00
1275.434,2721.00
1276.341,2455.00
1277.248,2603.00
1278.156,2940.00
1279.063,2511.00
1279.969,2735.00
1280.877,3558.00
1281.783,2810.00
1282.690,2680.00
1283.598,2603.00
1284.503,2506.00
1285.409,2472.00
1286.317,3001.00
1287.223,2989.00
1288.128,2678.00
1289.036,2509.00
1289.941,2544.00
1290.846,2662.00
1291.751,2454.00
1292.658,2540.00
1293.563,3039.00
1294.468,2648.00
1295.375,2772.00
1296.280,2868.00
1297.184,3348.00
1298.091,2738.00
1298.995,2780.00
1299.900,3004.00
1300.806,2533.00
1301.710,2380.00
1302.614,2216.00
1303.518,2888.00
1304.424,2577.00
1305.327,2799.00
1306.231,2600.00
1307.137,2832.00
1308.040,2668.00
1308.943,2642.00
1309.847,2838.00
1310.752,2825.00
1311.655,2268.00
1312.558,2409.00
1313.463,2584.00
1314.366,2565.00
1315.269,2686.00
1316.171,2624.00
1317.076,2570.00
1317.978,2449.00
1318.881,2231.00
1319.785,2461.00
1320.687,2488.00
1321.589,2228.00
1322.491,2426.00
1323.395,2690.00
1324.297,3167.00
1325.198,2749.00
1326.102,2425.00
1327.004,2461.00
1327.905,3009.00
1328.806,2574.00
1329.709,2686.00
1330.611,2574.00
1331.512,2487.00
1332.413,3071.00
1333.316,2648.00
1334.216,2768.00
1335.117,2393.00
1336.020,2631.00
1336.920,2606.00
1337.821,2492.00
1338.721,2900.00
1339.623,2687.00
1340.523,2590.00
1341.423,2484.00
1342.323,2949.00
1343.225,2681.00
1344.125,2447.00
1345.025,2492.00
1345.924,2328.00
1346.826,2931.00
1347.725,3058.00
1348.624,2850.00
1349.524,2461.00
1350.425,2612.00
1351.324,2735.00
1352.223,2804.00
1353.121,2629.00
1354.022,2847.00
1354.921,3012.00
1355.819,2722.00
1356.718,2660.00
1357.618,2382.00
1358.516,2770.00
1359.415,2981.00
1360.313,2725.00
1361.213,2609.00
1362.111,2929.00
1363.008,3276.00
1363.906,2650.00
1364.806,2655.00
1365.703,2718.00
1366.601,2462.00
1367.498,2468.00
1368.397,2809.00
1369.295,2714.00
1370.192,2469.00
1371.089,2744.00
1371.987,2632.00
1372.884,2846.00
1373.781,2472.00
1374.678,2619.00
1375.574,2488.00
1376.473,2776.00
1377.369,2840.00
1378.265,2461.00
1379.161,2615.00
1380.059,2353.00
1380.955,2744.00
1381.851,2413.00
1382.747,2539.00
1383.643,2582.00
1384.540,2423.00
1385.436,2512.00
1386.331,2703.00
1387.227,2795.00
1388.124,2737.00
1389.019,2438.00
1389.914,2616.00
1390.809,2255.00
1391.704,3023.00
1392.601,2586.00
1393.495,2912.00
1394.390,2792.00
1395.285,2843.00
1396.179,2743.00
1397.075,2600.00
1397.969,2708.00
1398.864,2328.00
1399.758,2567.00
1400.652,2662.00
1401.547,2492.00
1402.441,2389.00
1403.335,2949.00
1404.229,2618.00
1405.122,2705.00
1406.017,2576.00
1406.911,2770.00
1407.804,3034.00
1408.697,2608.00
1409.590,2434.00
1410.485,2828.00
1411.378,2705.00
1412.271,2357.00
1413.163,2668.00
1414.056,2817.00
1414.949,3020.00
1415.843,2687.00
1416.735,2590.00
1417.627,2668.00
1418.520,2595.00
1419.412,2853.00
1420.306,2799.00
1421.197,2900.00
1422.089,2817.00
1422.981,3086.00
1423.873,2827.00
1424.764,2699.00
1425.657,2644.00
1426.549,2782.00
1427.440,2789.00
1428.331,2535.00
1429.222,2343.00
1430.113,2716.00
1431.006,2784.00
1431.897,2566.00
1432.787,2639.00
1433.678,2586.00
1434.568,2460.00
1435.459,2868.00
1436.351,2804.00
1437.241,2771.00
1438.131,2816.00
1439.021,2425.00
1439.911,2648.00
1440.801,2728.00
1441.693,2839.00
1442.583,2640.00
1443.472,2627.00
1444.362,2769.00
1445.251,2585.00
1446.140,2579.00
1447.030,2825.00
1447.921,2794.00
1448.810,2474.00
1449.699,2975.00
1450.588,2658.00
1451.476,2542.00
1452.365,2748.00
1453.254,2553.00
1454.144,2531.00
1455.032,2788.00
1455.921,2392.00
1456.809,2972.00
1457.697,2483.00
1458.585,2603.00
1459.473,2608.00
1460.361,2512.00
1461.251,2713.00
1462.138,2731.00
1463.026,2587.00
1463.913,2869.00
1464.801,2580.00
1465.688,2727.00
1466.575,2675.00
1467.463,3038.00
1468.351,2515.00
1469.238,2637.00
1470.125,2239.00
1471.012,2682.00
1471.899,2761.00
1472.785,2450.00
1473.672,2643.00
1474.558,2882.00
1475.446,2768.00
1476.333,2811.00
1477.219,2477.00
1478.105,2627.00
1478.991,2612.00
1479.877,2953.00
1480.762,2635.00
1481.648,2519.00
1482.534,2778.00
1483.419,2733.00
1484.307,2747.00
1485.192,2650.00
1486.077,2507.00
1486.962,2504.00
1487.847,2390.00
1488.732,2499.00
1489.617,2633.00
1490.502,2918.00
1491.387,2809.00
1492.271,2465.00
1493.156,2483.00
1494.042,2443.00
1494.927,2836.00
1495.811,2551.00
1496.695,2766.00
1497.579,2927.00
1498.463,2615.00
1499.347,2640.00
1500.231,2683.00
1501.114,2744.00
1501.998,2918.00
1502.881,2719.00
1503.765,2932.00
1504.648,3083.00
1505.533,2741.00
1506.417,2664.00
1507.300,2622.00
1508.183,2701.00
1509.066,2139.00
1509.948,2899.00
1510.831,2973.00
1511.714,2477.00
1512.596,2770.00
1513.479,2895.00
1514.361,2899.00
1515.243,2702.00
1516.125,2787.00
1517.008,2912.00
1517.890,2614.00
1518.771,2690.00
1519.655,2896.00
1520.537,2594.00
1521.419,2493.00
1522.300,2676.00
1523.182,2785.00
1524.063,2816.00
1524.944,2968.00
1525.825,2846.00
1526.707,2484.00
1527.588,2446.00
1528.468,2721.00
1529.349,2353.00
1530.230,2612.00
1531.111,2805.00
1531.991,2705.00
1532.872,2362.00
1533.752,2607.00
1534.632,2532.00
1535.513,2538.00
1536.393,2787.00
1537.273,2985.00
1538.153,3322.00
1539.032,2436.00
1539.912,2648.00
1540.792,2671.00
1541.672,2671.00
1542.551,2757.00
1543.430,3241.00
1544.310,2688.00
1545.189,2567.00
1546.068,3038.00
1546.947,2759.00
1547.826,2974.00
1548.705,2657.00
1549.584,2902.00
1550.462,2608.00
1551.341,2799.00
1552.219,2729.00
1553.098,2814.00
1553.976,2881.00
1554.854,3020.00
1555.733,2846.00
1556.611,2570.00
1557.489,2433.00
1558.367,2634.00
1559.244,2784.00
1560.122,2648.00
1561.000,2725.00
1561.877,2947.00
1562.755,2508.00
1563.632,2613.00
1564.509,2949.00
1565.386,3026.00
1566.264,2426.00
1567.141,2293.00
1568.017,2779.00
1568.894,2682.00
1569.771,2708.00
1570.648,2753.00
1571.524,2639.00
1572.401,2439.00
1573.277,2461.00
1574.153,2689.00
1575.029,2534.00
1575.906,3355.00
1576.781,2830.00
1577.657,2579.00
1578.533,2894.00
1579.409,2304.00
1580.285,2626.00
1581.160,3077.00
1582.036,2839.00
1582.911,2504.00
1583.786,3005.00
1584.662,2480.00
1585.537,2646.00
1586.412,2707.00
1587.287,2509.00
1588.160,2851.00
1589.035,2345.00
1589.909,2701.00
1590.784,2638.00
1591.658,2458.00
1592.533,2727.00
1593.407,2650.00
1594.281,2570.00
1595.155,3061.00
1596.029,2564.00
1596.903,2623.00
1597.777,2557.00
1598.651,2929.00
1599.525,2367.00
1600.398,2672.00
1601.272,2598.00
1602.144,3186.00
1603.017,2658.00
1603.890,2906.00
1604.763,2753.00
1605.636,2800.00
1606.509,2349.00
1607.382,2508.00
1608.255,2720.00
1609.128,2891.00
1610.000,2624.00
1610.873,2370.00
1611.746,2589.00
1612.616,2637.00
1613.488,2247.00
1614.361,2677.00
1615.233,2600.00
1616.105,2886.00
1616.977,2611.00
1617.849,2503.00
1618.720,2986.00
1619.592,2961.00
1620.464,2761.00
1621.333,3114.00
1622.205,2650.00
1623.076,2620.00
1623.947,2651.00
1624.818,2943.00
1625.689,2769.00
1626.560,2573.00
1627.431,2744.00
1628.302,3027.00
1629.171,2786.00
1630.042,3015.00
1630.912,3655.00
1631.782,3269.00
1632.653,2486.00
1633.523,2841.00
1634.393,2911.00
1635.263,2526.00
1636.131,2663.00
1637.001,2568.00
1637.871,2319.00
1638.741,2315.00
1639.611,2412.00
1640.480,2830.00
1641.350,2525.00
1642.219,2486.00
1643.087,2203.00
1643.956,3132.00
1644.825,2949.00
1645.694,2851.00
1646.563,2836.00
1647.432,2743.00
1648.299,2733.00
1649.167,2779.00
1650.036,2479.00
1650.904,2832.00
1651.773,2891.00
1652.641,2679.00
1653.509,2846.00
1654.376,2550.00
1655.244,2693.00
1656.112,2706.00
1656.980,2671.00
1657.847,2557.00
1658.715,2829.00
1659.581,2579.00
1660.448,2889.00
1661.316,2234.00
1662.183,2710.00
1663.051,2731.00
1663.918,2719.00
1664.783,2686.00
1665.650,2760.00
1666.517,2885.00
1667.384,2698.00
1668.251,2719.00
1669.115,2893.00
1669.982,2604.00
1670.849,2963.00
1671.715,2661.00
1672.581,2819.00
1673.446,2815.00
1674.312,2681.00
1675.178,3038.00
1676.044,2762.00
1676.910,2775.00
1677.774,2735.00
1678.639,2346.00
1679.505,2649.00
1680.370,2789.00
1681.236,3302.00
1682.099,2599.00
1682.965,2692.00
1683.830,2279.00
1684.695,2491.00
1685.560,2556.00
1686.423,2866.00
1687.288,2796.00
1688.153,2726.00
1689.017,2619.00
1689.880,2760.00
1690.745,2808.00
1691.609,2532.00
1692.473,2872.00
1693.338,2878.00
1694.200,2940.00
1695.064,2684.00
1695.928,2608.00
1696.792,2717.00
1697.654,3181.00
1698.517,2704.00
1699.381,2457.00
1700.245,2372.00
1701.106,2970.00
1701.969,2603.00
1702.833,2801.00
1703.696,2598.00
1704.557,2668.00
1705.420,2581.00
1706.283,2714.00
1707.146,2803.00
1708.007,2488.00
1708.870,2489.00
1709.732,2374.00
1710.595,2588.00
1711.455,2438.00
1712.318,2617.00
1713.180,2959.00
1714.040,2733.00
1714.902,2860.00
1715.764,2676.00
1716.626,2462.00
1717.486,2675.00
1718.348,2946.00
1719.209,4912.00
1720.071,2356.00
1720.930,2444.00
1721.792,2547.00
1722.653,2541.00
1723.512,2552.00
1724.374,2641.00
1725.234,2744.00
1726.095,2695.00
1726.954,2675.00
1727.815,2825.00
1728.676,2687.00
1729.535,2904.00
1730.395,2623.00
1731.256,2598.00
1732.114,2715.00
1732.974,2166.00
1733.834,3016.00
1734.693,2843.00
1735.553,2744.00
1736.413,3107.00
1737.272,2580.00
1738.130,2617.00
1738.990,2743.00
1739.849,2561.00
1740.707,3658.00
1741.566,2740.00
1742.426,2738.00
1743.283,3070.00
1744.142,2562.00
1745.001,2385.00
1745.858,2836.00
1746.717,2777.00
1747.576,2801.00
1748.433,2836.00
1749.292,3259.00
1750.150,3345.00
1751.007,2847.00
1751.865,2895.00
1752.723,2664.00
1753.579,2595.00
1754.438,2914.00
1755.296,2919.00
1756.152,2283.00
1757.010,2353.00
1757.865,2883.00
1758.723,2360.00
1759.581,3007.00
1760.436,2691.00
1761.294,3046.00
1762.151,2682.00
1763.006,2628.00
1763.864,2339.00
1764.721,2927.00
1765.576,2705.00
1766.433,2801.00
1767.288,2564.00
1768.144,2715.00
1769.001,2651.00
1769.856,2787.00
1770.712,2943.00
1771.568,2497.00
1772.423,2627.00
1773.279,2599.00
1774.133,2594.00
1774.989,3079.00
1775.845,3078.00
1776.699,2938.00
1777.555,2703.00
1778.409,3216.00
1779.265,2618.00
1780.120,2588.00
1780.974,2688.00
1781.829,2314.00
1782.682,2769.00
1783.538,2501.00
1784.393,2733.00
1785.246,2589.00
1786.101,2785.00
1786.954,2811.00
1787.808,2871.00
1788.661,2414.00
1789.516,2623.00
1790.370,2643.00
1791.223,2878.00
1792.077,2679.00
1792.930,2789.00
1793.784,2562.00
1794.636,2715.00
1795.490,2672.00
1796.344,2718.00
1797.196,2682.00
1798.049,2873.00
1798.901,2594.00
1799.755,2929.00
1800.606,2464.00
1801.460,3217.00
1802.311,2986.00
1803.165,3045.00
1804.018,3059.00
1804.869,2796.00
1805.722,3163.00
1806.573,2733.00
1807.426,2494.00
1808.276,2707.00
1809.129,2581.00
1809.980,2895.00
1810.832,2975.00
1811.683,2605.00
1812.535,2994.00
1813.385,2599.00
1814.237,2975.00
1815.089,2767.00
1815.940,2971.00
1816.791,2620.00
1817.641,2594.00
1818.493,2822.00
1819.343,2778.00
1820.194,2555.00
1821.044,2780.00
1821.895,2925.00
1822.745,2417.00
1823.596,2589.00
1824.445,3095.00
1825.296,2809.00
1826.145,2694.00
1826.996,2891.00
1827.845,2711.00
1828.695,2755.00
1829.544,2683.00
1830.395,2721.00
1831.243,2639.00
1832.094,2487.00
1832.942,3279.00
1833.792,2862.00
1834.640,2735.00
1835.490,2703.00
1836.338,2742.00
1837.186,2599.00
1838.036,2556.00
1838.884,2719.00
1839.733,3042.00
1840.581,2873.00
1841.430,2803.00
1842.278,3065.00
1843.127,2623.00
1843.974,2409.00
1844.823,3135.00
1845.671,2851.00
1846.519,2723.00
1847.366,2746.00
1848.213,2379.00
1849.062,2519.00
1849.909,2446.00
1850.757,3379.00
1851.604,2829.00
1852.452,2622.00
1853.298,2883.00
1854.146,2773.00
1854.993,2731.00
1855.839,3187.00
1856.687,2793.00
1857.532,2802.00
1858.380,2731.00
1859.226,2754.00
1860.073,2850.00
1860.919,2546.00
1861.765,2564.00
1862.612,2934.00
1863.457,2940.00
1864.304,2632.00
1865.150,2844.00
1865.995,2688.00
1866.842,2852.00
1867.686,2896.00
1868.533,2749.00
1869.378,2736.00
1870.223,2724.00
1871.069,2668.00
1871.914,2720.00
1872.760,2682.00
1873.604,2505.00
1874.448,2864.00
1875.294,2872.00
1876.139,2629.00
1876.984,2816.00
1877.828,2374.00
1878.672,2236.00
1879.518,2600.00
1880.361,2903.00
1881.205,2845.00
1882.050,2509.00
1882.894,3220.00
1883.739,2604.00
1884.582,2502.00
1885.425,2539.00
1886.270,2943.00
1887.113,2457.00
1887.956,2820.00
1888.801,2772.00
1889.644,2515.00
1890.486,2307.00
1891.331,2651.00
1892.173,2768.00
1893.017,2764.00
1893.860,3026.00
1894.702,3014.00
1895.546,2711.00
1896.388,3429.00
1897.230,3076.00
1898.074,2616.00
1898.916,2544.00
1899.757,2519.00
1900.601,3399.00
1901.443,2956.00
1902.284,3021.00
1903.125,3177.00
1903.969,2899.00
1904.810,2922.00
1905.651,2784.00
1906.494,3039.00
1907.335,3134.00
1908.176,2834.00
1909.018,2804.00
1909.859,2657.00
1910.700,2574.00
1911.542,3244.00
1912.383,2797.00
1913.223,2349.00
1914.064,2879.00
1914.906,2968.00
1915.746,3052.00
1916.586,3155.00
1917.428,2754.00
1918.268,2747.00
1919.107,2632.00
1919.947,2489.00
1920.789,2655.00
1921.628,2956.00
1922.468,2730.00
1923.309,2581.00
1924.148,3034.00
1924.988,2802.00
1925.827,2724.00
1926.667,2629.00
1927.507,2742.00
1928.345,2545.00
1929.184,2920.00
1930.025,2517.00
1930.864,2983.00
1931.702,2997.00
1932.541,2666.00
1933.381,2893.00
1934.219,2895.00
1935.057,2970.00
1935.896,2434.00
1936.735,2696.00
1937.573,2642.00
1938.411,2515.00
1939.249,2892.00
1940.089,2645.00
1940.927,2985.00
1941.764,2992.00
1942.602,2658.00
1943.439,2616.00
1944.278,2662.00
1945.115,2659.00
1945.953,2465.00
1946.790,2817.00
1947.628,3049.00
1948.465,2860.00
1949.302,2887.00
1950.139,2834.00
1950.976,2598.00
1951.814,2875.00
1952.651,2764.00
1953.487,2535.00
1954.323,2973.00
1955.160,2752.00
1955.998,3074.00
1956.834,2712.00
1957.670,2803.00
1958.506,2959.00
1959.342,2832.00
1960.177,2776.00
1961.015,2885.00
1961.850,2762.00
1962.686,2795.00
1963.521,2808.00
1964.357,2965.00
1965.192,2514.00
1966.029,2840.00
1966.864,2675.00
1967.699,2928.00
1968.534,2734.00
1969.369,3032.00
1970.204,2684.00
1971.040,2767.00
1971.875,2657.00
1972.709,2764.00
1973.544,2576.00
1974.378,2609.00
1975.212,2850.00
1976.047,2615.00
1976.882,2592.00
1977.716,3173.00
1978.550,2459.00
1979.384,2688.00
1980.218,2682.00
1981.052,2668.00
1981.885,2726.00
1982.719,2771.00
1983.554,2884.00
1984.388,3069.00
1985.221,2817.00
1986.054,2973.00
1986.887,2790.00
1987.720,2609.00
1988.553,3038.00
1989.386,2847.00
1990.219,2858.00
1991.053,3069.00
1991.886,2599.00
1992.719,2960.00
1993.551,2294.00
1994.383,2908.00
1995.216,2650.00
1996.048,2455.00
1996.880,2924.00
1997.712,2589.00
1998.544,2761.00
1999.376,2772.00
2000.208,3054.00
2001.040,3184.00
2001.873,2571.00
2002.705,2563.00
2003.536,2804.00
2004.367,2828.00
2005.199,2797.00
2006.030,2642.00
2006.861,2530.00
2007.692,2756.00
2008.523,2656.00
2009.354,2795.00
2010.185,2532.00
2011.016,2873.00
2011.846,2973.00
2012.677,2712.00
2013.507,3102.00
2014.338,2968.00
2015.168,2707.00
2015.999,3247.00
2016.829,2676.00
2017.659,2940.00
2018.489,3249.00
2019.319,2562.00
2020.149,2943.00
2020.980,2776.00
2021.810,2561.00
2022.639,2631.00
2023.469,2616.00
2024.298,2430.00
2025.128,2356.00
2025.957,2326.00
2026.786,2171.00
2027.615,2433.00
2028.444,2577.00
2029.273,2744.00
2030.102,2353.00
2030.931,2574.00
2031.758,2910.00
2032.586,2559.00
2033.415,2601.00
2034.243,2243.00
2035.072,2024.00
2035.900,2513.00
2036.728,2303.00
2037.556,2375.00
2038.385,2386.00
2039.213,2193.00
2040.040,2198.00
2040.868,2142.00
2041.696,2190.00
2042.524,2200.00
2043.351,2414.00
2044.179,2209.00
2045.006,2009.00
