RamanScope Measure Spectrum Data V3.72

<< MEASURE CONDITION >>
Exposure Type,Aver
Exposure Time [sec],15
Exposure Count,30
Measure Time,2023/07/07 12:00:41
Data Name,""
Data Comment,""
Rayleigh Wave[nm],532.0

<< SAMPLE SPECTRUM >>
Wave[dcm-1],No526
146.591,862.73
147.626,1037.20
148.664,1199.07
149.699,1390.77
150.737,1583.03
151.772,1763.27
152.809,1916.33
153.846,2099.80
154.881,2228.03
155.918,2353.20
156.953,2456.37
157.989,2531.97
159.026,2618.93
160.060,2633.17
161.096,2733.17
162.130,2777.93
163.167,2845.47
164.200,2866.20
165.236,2910.57
166.272,2951.00
167.305,3030.70
168.341,3080.93
169.374,3098.27
170.409,3160.17
171.445,3178.00
172.477,3273.07
173.512,3293.17
174.545,3301.13
175.580,3338.03
176.614,3354.40
177.647,3356.67
178.681,3361.57
179.713,3373.20
180.747,3318.97
181.781,3285.90
182.813,3278.83
183.847,3315.87
184.878,3249.83
185.912,3287.47
186.945,3288.23
187.976,3322.77
189.010,3294.47
190.043,3324.90
191.073,3308.27
192.106,3377.93
193.137,3408.80
194.170,3370.60
195.202,3419.47
196.232,3429.90
197.265,3468.00
198.297,3527.33
199.327,3541.47
200.359,3582.73
201.388,3568.37
202.420,3639.33
203.452,3674.00
204.481,3645.40
205.512,3682.13
206.544,3794.90
207.573,3780.10
208.604,3872.17
209.635,3899.77
210.663,3969.13
211.694,3963.90
212.725,4075.93
213.753,4155.23
214.783,4217.83
215.813,4237.97
216.841,4283.70
217.871,4341.43
218.899,4309.77
219.929,4319.57
220.959,4277.10
221.986,4269.67
223.016,4237.10
224.045,4236.97
225.072,4156.40
226.101,4131.83
227.130,4070.40
228.157,3967.00
229.185,3983.37
230.214,3948.47
231.241,3901.67
232.269,3858.33
233.297,3830.50
234.323,3865.83
235.351,3794.63
236.379,3772.70
237.407,3748.00
238.433,3737.43
239.460,3741.33
240.488,3750.70
241.513,3758.53
242.540,3750.70
243.568,3786.20
244.592,3806.63
245.619,3797.53
246.646,3756.23
247.671,3776.17
248.697,3789.43
249.724,3809.40
250.748,3760.90
251.774,3759.20
252.801,3764.07
253.827,3756.50
254.850,3795.70
255.876,3799.87
256.902,3770.50
257.925,3839.63
258.951,3880.23
259.976,3844.93
260.999,3828.73
262.024,3922.07
263.049,3912.40
264.074,4003.57
265.097,3976.33
266.122,4023.63
267.146,4064.97
268.168,4048.83
269.193,4076.30
270.217,4131.13
271.241,4149.23
272.263,4207.33
273.287,4202.77
274.311,4263.33
275.332,4255.13
276.356,4286.13
277.379,4220.80
278.402,4207.87
279.424,4244.10
280.447,4223.57
281.470,4195.67
282.492,4140.00
283.513,4093.87
284.536,4074.43
285.558,4056.40
286.581,4038.67
287.601,3965.97
288.623,3924.60
289.645,3910.70
290.665,3871.77
291.687,3797.23
292.709,3731.60
293.730,3711.53
294.750,3685.00
295.771,3664.60
296.792,3631.10
297.813,3612.80
298.832,3582.70
299.853,3523.50
300.874,3495.73
301.895,3498.43
302.913,3438.63
303.934,3399.33
304.954,3377.40
305.975,3294.53
306.993,3356.47
308.013,3329.40
309.033,3316.33
310.052,3286.77
311.072,3274.67
312.090,3252.73
313.109,3253.40
314.129,3204.87
315.148,3235.97
316.165,3252.43
317.184,3194.10
318.203,3180.83
319.222,3137.83
320.238,3205.90
321.257,3182.97
322.275,3157.87
323.294,3137.57
324.312,3114.53
325.328,3118.90
326.346,3101.43
327.364,3108.57
328.382,3201.00
329.397,3152.10
330.415,3072.17
331.432,3092.40
332.450,3099.03
333.467,3065.83
334.482,3092.47
335.499,3088.60
336.516,3091.43
337.533,3090.40
338.547,3068.00
339.564,3063.30
340.580,3073.97
341.597,3111.10
342.613,3045.33
343.627,3073.07
344.643,3028.73
345.659,3040.10
346.675,3037.57
347.690,3032.27
348.704,3050.47
349.719,3042.90
350.735,3046.77
351.750,2996.23
352.765,3044.73
353.778,3031.97
354.793,2994.60
355.808,3054.90
356.822,3028.17
357.837,3064.97
358.851,3032.13
359.864,3022.70
360.878,3044.77
361.892,3081.10
362.906,3116.63
363.920,3064.97
364.932,3078.67
365.945,3042.80
366.959,3093.33
367.972,3078.47
368.986,3123.93
369.999,3076.13
371.010,3111.70
372.023,3122.70
373.036,3130.60
374.049,3151.23
375.061,3100.07
376.072,3159.77
377.084,3154.27
378.097,3174.00
379.109,3226.80
380.121,3183.33
381.133,3193.50
382.143,3198.77
383.155,3165.70
384.166,3183.97
385.178,3203.20
386.189,3186.87
387.201,3216.40
388.212,3248.83
389.221,3218.90
390.232,3199.13
391.243,3197.90
392.254,3183.70
393.264,3197.13
394.275,3202.70
395.283,3157.57
396.294,3162.70
397.304,3119.73
398.314,3142.63
399.324,3117.47
400.334,3137.20
401.344,3110.07
402.351,3101.87
403.361,3127.80
404.370,3098.00
405.380,3103.67
406.389,3109.10
407.398,3040.30
408.407,3052.17
409.414,3116.93
410.423,3075.10
411.431,3034.03
412.440,3004.93
413.448,3011.87
414.457,3034.80
415.465,2989.40
416.471,2973.30
417.479,2983.57
418.487,2945.33
419.495,2966.20
420.503,2976.93
421.510,2954.57
422.518,2942.93
423.525,2964.57
424.530,2932.23
425.537,2953.00
426.544,2894.63
427.551,2939.23
428.558,2945.13
429.565,2913.97
430.571,2934.63
431.578,2893.30
432.582,2896.67
433.588,2866.27
434.595,2933.50
435.601,2897.43
436.607,2921.43
437.612,2895.43
438.618,2908.63
439.624,2850.97
440.627,2916.77
441.633,2905.93
442.638,2874.67
443.643,2896.17
444.648,2884.67
445.653,2876.93
446.658,2884.33
447.663,2856.20
448.667,2876.90
449.672,2862.63
450.674,2888.00
451.678,2922.33
452.682,2900.73
453.687,2865.40
454.690,2873.30
455.694,2905.43
456.698,2855.77
457.702,2876.43
458.705,2856.83
459.709,2904.67
460.710,2905.87
461.713,2874.20
462.716,2847.03
463.719,2875.17
464.722,2886.43
465.725,2883.67
466.727,2914.10
467.730,2862.90
468.732,2904.17
469.735,2863.17
470.737,2923.50
471.737,2878.63
472.739,2837.90
473.741,2897.00
474.742,2859.80
475.744,2821.70
476.746,2879.53
477.747,2891.53
478.748,2874.23
479.750,2829.30
480.751,2868.30
481.752,2847.40
482.753,2888.20
483.751,2863.40
484.752,2853.67
485.753,2830.60
486.753,2853.93
487.753,2863.23
488.754,2848.57
489.754,2796.83
490.754,2811.23
491.754,2840.20
492.754,2837.20
493.753,2828.20
494.753,2802.83
495.752,2817.23
496.752,2849.03
497.749,2825.47
498.748,2777.77
499.747,2777.03
500.746,2785.10
501.745,2836.50
502.744,2814.70
503.742,2783.73
504.741,2756.73
505.739,2758.47
506.737,2762.80
507.735,2738.40
508.734,2740.67
509.732,2733.07
510.729,2795.40
511.727,2761.87
512.725,2772.83
513.720,2710.30
514.718,2765.10
515.715,2652.73
516.712,2736.43
517.709,2734.50
518.706,2741.27
519.703,2730.07
520.700,2722.73
521.696,2729.23
522.693,2727.67
523.689,2748.50
524.686,2763.00
525.682,2684.23
526.678,2744.00
527.674,2771.43
528.670,2742.43
529.666,2802.87
530.661,2765.50
531.657,2799.17
532.652,2822.33
533.648,2822.83
534.641,2777.17
535.636,2809.60
536.631,2835.43
537.626,2836.13
538.621,2848.03
539.616,2826.00
540.610,2814.73
541.605,2821.27
542.599,2865.77
543.593,2845.87
544.587,2841.87
545.581,2853.90
546.575,2826.83
547.569,2876.33
548.563,2870.53
549.557,2859.17
550.550,2847.50
551.543,2849.67
552.537,2819.93
553.530,2800.20
554.523,2846.87
555.516,2820.43
556.509,2809.63
557.502,2806.87
558.494,2829.40
559.487,2835.93
560.479,2830.07
561.472,2798.63
562.464,2785.00
563.456,2792.43
564.448,2782.70
565.440,2832.93
566.432,2771.17
567.423,2768.53
568.415,2821.07
569.404,2794.63
570.396,2767.43
571.387,2784.63
572.378,2760.63
573.369,2720.43
574.360,2764.47
575.351,2837.27
576.341,2753.90
577.332,2746.73
578.323,2746.00
579.313,2736.43
580.303,2754.10
581.293,2768.03
582.283,2728.90
583.273,2741.57
584.263,2727.97
585.253,2736.90
586.243,2726.60
587.232,2707.43
588.222,2703.33
589.211,2731.77
590.200,2704.03
591.189,2717.97
592.178,2730.90
593.167,2675.90
594.156,2677.20
595.145,2731.53
596.133,2671.47
597.122,2703.10
598.110,2639.77
599.098,2676.67
600.086,2612.90
601.074,2651.47
602.062,2644.07
603.050,2662.03
604.038,2627.10
605.025,2598.63
606.013,2614.40
607.000,2627.40
607.987,2642.13
608.975,2566.43
609.962,2585.97
610.949,2572.67
611.936,2611.80
612.922,2551.90
613.909,2533.90
614.895,2526.30
615.882,2522.60
616.868,2532.93
617.854,2490.73
618.841,2444.87
619.826,2437.07
620.812,2369.47
621.798,2418.50
622.784,2395.30
623.769,2371.40
624.755,2333.60
625.740,2362.57
626.725,2317.27
627.711,2344.97
628.698,2286.73
629.683,2273.43
630.667,2290.57
631.652,2260.33
632.637,2266.43
633.621,2264.60
634.606,2209.83
635.590,2208.50
636.574,2200.20
637.558,2173.60
638.542,2203.40
639.526,2127.63
640.510,2113.93
641.493,2132.60
642.477,2094.77
643.460,2099.13
644.444,2085.00
645.427,2032.90
646.410,2065.37
647.393,2071.37
648.376,2059.77
649.359,2020.37
650.341,2016.60
651.324,2020.83
652.307,1983.87
653.289,2017.33
654.271,2019.73
655.253,1953.43
656.235,1959.07
657.217,1990.70
658.199,1947.43
659.181,1950.83
660.163,1924.00
661.144,1933.10
662.126,1905.90
663.107,1918.47
664.088,1837.53
665.069,1886.50
666.050,1891.80
667.033,1846.43
668.014,1856.63
668.995,1873.07
669.975,1826.53
670.956,1844.87
671.936,1850.10
672.916,1815.77
673.896,1820.10
674.876,1805.63
675.856,1809.73
676.836,1771.90
677.816,1746.10
678.795,1780.93
679.775,1769.20
680.754,1718.70
681.734,1709.30
682.713,1697.77
683.692,1709.53
684.671,1706.10
685.650,1704.67
686.629,1663.43
687.607,1674.77
688.586,1632.93
689.564,1616.07
690.543,1623.63
691.523,1603.03
692.501,1595.97
693.479,1582.50
694.457,1627.30
695.435,1611.70
696.413,1557.73
697.390,1545.13
698.368,1525.87
699.345,1565.83
700.322,1494.93
701.300,1549.17
702.277,1525.80
703.254,1531.87
704.231,1527.43
705.207,1535.50
706.184,1525.37
707.161,1497.53
708.137,1478.37
709.113,1471.93
710.090,1485.27
711.068,1496.60
712.044,1434.83
713.020,1473.20
713.996,1461.07
714.971,1458.87
715.947,1413.43
716.922,1413.50
717.898,1408.10
718.873,1429.60
719.848,1436.47
720.823,1447.37
721.798,1405.73
722.773,1419.27
723.748,1402.53
724.723,1372.93
725.697,1385.90
726.672,1387.40
727.646,1371.60
728.622,1375.93
729.596,1348.83
730.570,1401.57
731.544,1342.47
732.518,1401.13
733.492,1376.10
734.466,1332.07
735.439,1374.20
736.413,1433.20
737.386,1370.47
738.359,1356.93
739.332,1319.53
740.305,1324.23
741.278,1355.43
742.251,1341.97
743.224,1326.63
744.196,1344.70
745.171,1311.93
746.143,1292.57
747.115,1313.03
748.087,1349.00
749.059,1321.50
750.031,1328.13
751.003,1358.67
751.975,1304.50
752.947,1299.60
753.918,1326.90
754.890,1297.53
755.861,1272.60
756.832,1263.77
757.803,1293.57
758.774,1289.87
759.747,1289.50
760.718,1278.17
761.689,1277.07
762.659,1288.63
763.630,1298.10
764.600,1241.37
765.570,1241.93
766.540,1269.40
767.510,1286.00
768.480,1283.43
769.450,1233.53
770.420,1285.77
771.390,1214.93
772.359,1247.27
773.329,1237.47
774.300,1250.27
775.269,1258.00
776.238,1216.63
777.207,1218.73
778.176,1205.30
779.145,1217.57
780.114,1222.13
781.083,1236.87
782.051,1253.40
783.019,1193.20
783.988,1189.10
784.956,1231.70
785.924,1212.93
786.894,1125.27
787.862,1209.80
788.830,1197.23
789.797,1183.13
790.765,1185.87
791.732,1165.03
792.700,1190.77
793.667,1150.93
794.634,1149.13
795.601,1160.70
796.568,1160.60
797.535,1151.20
798.502,1148.10
799.468,1167.07
800.437,1148.37
801.403,1145.50
802.370,1135.37
803.336,1111.27
804.302,1133.23
805.268,1120.90
806.234,1126.07
807.200,1112.77
808.166,1120.87
809.131,1109.17
810.097,1131.10
811.062,1076.33
812.027,1104.70
812.994,1074.93
813.960,1099.93
814.925,1108.70
815.889,1066.30
816.854,1127.97
817.819,1092.90
818.783,1074.10
819.748,1085.87
820.712,1066.03
821.677,1100.30
822.641,1102.10
823.605,1065.70
824.571,1095.93
825.534,1069.07
826.498,1060.33
827.462,1074.67
828.425,1083.17
829.389,1081.97
830.352,1077.40
831.315,1070.40
832.279,1071.97
833.242,1056.97
834.204,1047.97
835.167,1070.77
836.132,1091.53
837.095,1065.17
838.057,1080.30
839.020,1059.97
839.982,1034.60
840.944,1070.47
841.906,1074.13
842.868,1037.50
843.830,1070.67
844.792,1049.03
845.753,1047.13
846.715,1061.03
847.679,1053.80
848.640,1041.33
849.601,1064.63
850.562,1028.33
851.523,1074.80
852.484,1121.00
853.445,1047.63
854.406,1086.93
855.367,1073.13
856.327,1084.13
857.288,1067.17
858.248,1122.43
859.210,1073.37
860.170,1093.57
861.130,1081.07
862.090,1097.73
863.050,1114.67
864.010,1078.07
864.969,1135.87
865.929,1074.53
866.888,1116.90
867.848,1098.93
868.807,1101.30
869.766,1120.37
870.727,1127.10
871.686,1111.63
872.645,1149.10
873.604,1143.47
874.562,1083.57
875.521,1182.17
876.479,1149.73
877.437,1144.07
878.396,1178.90
879.354,1151.73
880.312,1148.47
881.270,1177.47
882.229,1160.77
883.187,1174.17
884.145,1181.63
885.102,1154.10
886.059,1160.90
887.017,1195.63
887.974,1173.10
888.931,1196.30
889.888,1207.03
890.845,1178.00
891.802,1184.70
892.758,1191.00
893.717,1208.17
894.673,1180.87
895.630,1194.63
896.586,1232.67
897.542,1212.80
898.498,1218.87
899.454,1266.17
900.410,1206.80
901.366,1225.67
902.321,1205.73
903.277,1257.07
904.232,1196.53
905.189,1241.80
906.145,1264.57
907.100,1251.63
908.055,1213.10
909.010,1264.40
909.965,1231.00
910.919,1269.20
911.874,1238.70
912.828,1253.50
913.783,1242.43
914.737,1242.50
915.693,1298.47
916.648,1264.77
917.602,1292.53
918.555,1268.87
919.509,1330.73
920.463,1265.73
921.417,1329.80
922.370,1235.60
923.324,1295.83
924.277,1278.67
925.230,1298.40
926.183,1309.50
927.138,1268.20
928.091,1277.33
929.044,1254.77
929.996,1320.77
930.949,1301.37
931.902,1320.33
932.854,1289.17
933.806,1306.83
934.758,1313.80
935.711,1303.13
936.663,1321.60
937.614,1317.03
938.568,1300.83
939.520,1305.27
940.471,1341.40
941.423,1304.90
942.374,1336.27
943.326,1279.73
944.277,1294.30
945.228,1289.33
946.179,1291.47
947.130,1270.40
948.080,1315.87
949.031,1263.67
949.984,1293.50
950.934,1294.73
951.884,1283.87
952.835,1275.60
953.785,1303.70
954.735,1259.77
955.685,1289.67
956.635,1270.27
957.585,1275.87
958.534,1275.60
959.484,1289.40
960.433,1247.40
961.383,1250.43
962.334,1265.03
963.283,1306.00
964.232,1255.63
965.181,1217.80
966.130,1250.67
967.079,1217.97
968.027,1244.83
968.976,1220.07
969.924,1234.70
970.873,1278.30
971.821,1186.20
972.769,1230.63
973.719,1233.73
974.667,1233.73
975.615,1244.50
976.562,1193.20
977.510,1210.03
978.458,1235.33
979.405,1195.33
980.352,1213.57
981.300,1186.60
982.247,1219.33
983.194,1247.90
984.141,1205.20
985.088,1191.10
986.036,1185.13
986.983,1203.00
987.930,1223.80
988.876,1246.13
989.822,1219.53
990.769,1232.97
991.715,1220.30
992.661,1201.60
993.607,1205.47
994.553,1147.40
995.498,1208.73
996.444,1194.30
997.389,1204.13
998.337,1208.40
999.282,1215.93
1000.227,1208.93
1001.173,1207.43
1002.118,1200.47
1003.062,1198.93
1004.007,1173.47
1004.952,1163.53
1005.897,1183.87
1006.841,1183.50
1007.786,1178.87
1008.730,1188.10
1009.674,1183.30
1010.618,1169.13
1011.564,1228.77
1012.508,1234.97
1013.452,1180.67
1014.396,1191.87
1015.339,1227.47
1016.283,1231.73
1017.226,1245.00
1018.170,1236.67
1019.113,1225.73
1020.056,1195.43
1020.999,1186.67
1021.942,1224.00
1022.885,1204.63
1023.828,1205.40
1024.770,1230.70
1025.715,1221.23
1026.657,1178.73
1027.600,1230.97
1028.542,1253.97
1029.484,1219.53
1030.426,1239.47
1031.368,1229.03
1032.310,1259.37
1033.251,1202.90
1034.193,1190.03
1035.135,1255.93
1036.076,1229.27
1037.017,1223.97
1037.959,1234.20
1038.900,1246.40
1039.843,1245.77
1040.784,1264.13
1041.725,1266.07
1042.665,1274.10
1043.606,1269.77
1044.547,1306.60
1045.487,1277.03
1046.427,1295.13
1047.368,1285.80
1048.308,1284.07
1049.248,1281.63
1050.188,1305.87
1051.128,1298.83
1052.067,1323.33
1053.007,1334.67
1053.947,1320.23
1054.886,1303.37
1055.827,1307.30
1056.766,1365.67
1057.706,1342.73
1058.645,1330.77
1059.584,1336.47
1060.522,1312.37
1061.461,1384.83
1062.400,1360.60
1063.338,1330.33
1064.277,1364.63
1065.215,1349.93
1066.154,1384.97
1067.092,1370.07
1068.030,1419.13
1068.968,1393.87
1069.906,1419.80
1070.843,1407.80
1071.781,1438.67
1072.720,1434.70
1073.658,1374.87
1074.595,1424.83
1075.533,1444.83
1076.470,1467.40
1077.407,1365.60
1078.344,1472.93
1079.281,1458.83
1080.217,1447.07
1081.154,1449.40
1082.091,1451.80
1083.027,1444.07
1083.964,1480.30
1084.900,1473.63
1085.836,1456.80
1086.772,1449.57
1087.708,1455.33
1088.644,1452.47
1089.580,1426.93
1090.515,1433.27
1091.451,1454.53
1092.388,1453.53
1093.324,1460.07
1094.259,1416.13
1095.194,1460.93
1096.129,1412.50
1097.064,1411.40
1097.999,1445.17
1098.934,1420.47
1099.869,1412.60
1100.803,1429.83
1101.738,1402.60
1102.672,1396.37
1103.607,1370.70
1104.541,1352.60
1105.475,1373.17
1106.409,1383.23
1107.343,1321.57
1108.277,1335.73
1109.210,1291.77
1110.144,1310.33
1111.078,1307.67
1112.011,1277.30
1112.944,1268.07
1113.878,1299.47
1114.811,1307.30
1115.744,1259.53
1116.678,1257.27
1117.611,1247.83
1118.544,1237.80
1119.477,1196.63
1120.409,1200.90
1121.342,1213.90
1122.274,1187.77
1123.206,176.50
1124.138,1185.07
1125.070,1176.70
1126.002,1142.00
1126.934,1117.43
1127.866,1129.70
1128.798,1144.97
1129.729,1117.13
1130.661,1113.80
1131.592,1095.83
1132.523,1087.03
1133.454,1077.80
1134.385,1062.77
1135.317,1042.27
1136.247,1077.53
1137.178,1045.17
1138.109,1061.63
1139.039,1018.07
1139.970,1051.10
1140.900,959.07
1141.831,1031.53
1142.761,1003.07
1143.691,1033.03
1144.621,1027.77
1145.551,1000.50
1146.480,976.20
1147.410,1023.50
1148.340,940.73
1149.269,952.20
1150.199,967.67
1151.128,940.83
1152.057,951.10
1152.979,949.07
1153.898,941.37
1154.819,941.53
1155.739,922.83
1156.658,951.97
1157.579,946.70
1158.498,895.57
1159.419,887.70
1160.338,853.73
1161.256,888.80
1162.177,887.37
1163.095,885.63
1164.016,916.47
1164.934,860.10
1165.852,905.50
1166.772,837.37
1167.690,862.67
1168.610,889.87
1169.528,863.70
1170.446,881.17
1171.365,849.00
1172.283,843.70
1173.202,832.97
1174.120,858.83
1175.037,860.60
1175.956,819.50
1176.873,854.20
1177.792,806.00
1178.709,812.33
1179.626,848.90
1180.544,807.90
1181.461,821.83
1182.379,787.60
1183.296,806.30
1184.212,784.50
1185.130,791.37
1186.046,818.53
1186.962,800.77
1187.880,774.87
1188.796,804.63
1189.714,774.60
1190.629,775.40
1191.545,790.30
1192.462,785.23
1193.378,790.77
1194.295,811.43
1195.210,803.13
1196.125,816.87
1197.042,798.67
1197.957,748.60
1198.872,762.83
1199.788,775.67
1200.703,746.93
1201.619,781.10
1202.534,735.57
1203.448,743.77
1204.364,766.20
1205.278,774.30
1206.192,744.27
1207.108,791.97
1208.022,790.73
1208.938,762.93
1209.851,718.60
1210.765,741.47
1211.680,738.03
1212.594,703.13
1213.507,733.00
1214.422,765.40
1215.335,770.70
1216.248,717.83
1217.163,754.97
1218.076,780.70
1218.990,728.50
1219.903,752.83
1220.816,741.17
1221.730,732.93
1222.642,743.90
1223.554,730.63
1224.469,764.10
1225.380,723.00
1226.292,758.13
1227.206,747.90
1228.118,770.70
1229.032,720.93
1229.943,732.80
1230.855,771.70
1231.768,744.00
1232.679,752.20
1233.590,727.70
1234.503,734.77
1235.414,755.87
1236.325,728.43
1237.238,742.90
1238.149,707.90
1239.059,767.00
1239.972,780.13
1240.882,774.80
1241.793,757.43
1242.705,771.70
1243.615,787.43
1244.525,776.30
1245.437,749.60
1246.347,727.53
1247.259,792.53
1248.168,757.67
1249.078,746.60
1249.989,749.23
1250.899,777.57
1251.808,740.20
1252.719,783.97
1253.628,746.53
1254.537,736.00
1255.448,754.37
1256.357,768.17
1257.266,750.50
1258.176,751.30
1259.085,761.00
1259.993,741.40
1260.904,771.13
1261.812,771.20
1262.720,749.47
1263.630,774.67
1264.538,755.10
1265.446,777.77
1266.356,818.63
1267.263,752.93
1268.171,790.90
1269.080,728.97
1269.988,745.40
1270.895,762.70
1271.804,765.43
1272.711,772.37
1273.619,741.80
1274.527,751.90
1275.434,792.67
1276.341,730.60
1277.248,815.50
1278.156,720.10
1279.063,735.97
1279.969,738.13
1280.877,708.73
1281.783,775.57
1282.690,772.80
1283.598,740.00
1284.503,728.10
1285.409,741.73
1286.317,737.40
1287.223,777.20
1288.128,760.17
1289.036,755.30
1289.941,770.93
1290.846,727.20
1291.751,748.53
1292.658,728.53
1293.563,766.30
1294.468,739.97
1295.375,749.63
1296.280,730.90
1297.184,722.73
1298.091,731.43
1298.995,737.43
1299.900,732.63
1300.806,727.00
1301.710,724.47
1302.614,722.03
1303.518,713.20
1304.424,717.43
1305.327,746.43
1306.231,724.13
1307.137,664.87
1308.040,728.17
1308.943,727.40
1309.847,715.67
1310.752,702.53
1311.655,745.43
1312.558,703.20
1313.463,679.47
1314.366,637.23
1315.269,687.47
1316.171,684.43
1317.076,644.93
1317.978,664.57
1318.881,703.27
1319.785,710.47
1320.687,701.20
1321.589,698.23
1322.491,711.23
1323.395,695.00
1324.297,690.90
1325.198,688.87
1326.102,687.60
1327.004,668.13
1327.905,677.90
1328.806,695.47
1329.709,651.47
1330.611,637.20
1331.512,618.40
1332.413,674.00
1333.316,694.60
1334.216,686.70
1335.117,636.67
1336.020,682.67
1336.920,676.80
1337.821,652.60
1338.721,639.63
1339.623,650.87
1340.523,641.90
1341.423,648.70
1342.323,588.67
1343.225,664.57
1344.125,642.73
1345.025,650.57
1345.924,604.70
1346.826,672.10
1347.725,611.30
1348.624,636.57
1349.524,652.57
1350.425,591.87
1351.324,611.03
1352.223,618.10
1353.121,600.67
1354.022,590.50
1354.921,619.37
1355.819,625.47
1356.718,620.47
1357.618,607.37
1358.516,574.20
1359.415,633.87
1360.313,592.10
1361.213,571.23
1362.111,572.33
1363.008,580.53
1363.906,543.53
1364.806,571.80
1365.703,584.30
1366.601,572.00
1367.498,574.10
1368.397,590.00
1369.295,556.63
1370.192,581.80
1371.089,560.17
1371.987,550.20
1372.884,606.73
1373.781,532.93
1374.678,577.63
1375.574,551.00
1376.473,537.30
1377.369,579.93
1378.265,579.67
1379.161,536.23
1380.059,560.37
1380.955,566.07
1381.851,554.30
1382.747,532.33
1383.643,539.57
1384.540,567.50
1385.436,571.07
1386.331,553.10
1387.227,549.90
1388.124,558.03
1389.019,550.50
1389.914,545.27
1390.809,567.37
1391.704,568.20
1392.601,509.67
1393.495,538.13
1394.390,546.73
1395.285,567.60
1396.179,509.73
1397.075,533.17
1397.969,518.20
1398.864,538.30
1399.758,553.97
1400.652,531.07
1401.547,496.20
1402.441,551.20
1403.335,544.73
1404.229,586.97
1405.122,525.07
1406.017,567.83
1406.911,524.13
1407.804,534.60
1408.697,533.07
1409.590,543.90
1410.485,498.10
1411.378,512.90
1412.271,509.30
1413.163,539.53
1414.056,492.50
1414.949,521.77
1415.843,506.00
1416.735,515.43
1417.627,492.63
1418.520,526.20
1419.412,507.33
1420.306,501.23
1421.197,522.97
1422.089,534.63
1422.981,503.63
1423.873,493.57
1424.764,549.17
1425.657,532.83
1426.549,498.80
1427.440,552.70
1428.331,530.53
1429.222,504.07
1430.113,459.23
1431.006,536.53
1431.897,482.17
1432.787,516.20
1433.678,485.17
1434.568,499.20
1435.459,506.87
1436.351,502.13
1437.241,498.57
1438.131,477.33
1439.021,465.90
1439.911,471.80
1440.801,460.93
1441.693,520.17
1442.583,499.43
1443.472,498.37
1444.362,477.27
1445.251,491.93
1446.140,473.67
1447.030,492.37
1447.921,518.70
1448.810,486.73
1449.699,509.33
1450.588,501.63
1451.476,489.33
1452.365,483.30
1453.254,478.10
1454.144,478.30
1455.032,469.37
1455.921,469.93
1456.809,447.03
1457.697,446.70
1458.585,470.93
1459.473,463.07
1460.361,460.97
1461.251,471.50
1462.138,455.67
1463.026,493.77
1463.913,480.40
1464.801,450.03
1465.688,470.47
1466.575,462.80
1467.463,516.77
1468.351,472.80
1469.238,444.43
1470.125,491.27
1471.012,483.07
1471.899,437.63
1472.785,486.03
1473.672,468.73
1474.558,452.13
1475.446,473.07
1476.333,450.43
1477.219,450.70
1478.105,464.13
1478.991,458.93
1479.877,445.73
1480.762,461.07
1481.648,454.07
1482.534,462.30
1483.419,435.10
1484.307,478.40
1485.192,434.13
1486.077,448.57
1486.962,465.90
1487.847,466.60
1488.732,454.70
1489.617,477.00
1490.502,442.07
1491.387,415.73
1492.271,479.80
1493.156,457.00
1494.042,463.63
1494.927,463.37
1495.811,451.87
1496.695,475.30
1497.579,447.90
1498.463,473.50
1499.347,499.73
1500.231,440.43
1501.114,401.83
1501.998,448.80
1502.881,408.50
1503.765,438.63
1504.648,398.30
1505.533,460.07
1506.417,441.77
1507.300,427.17
1508.183,456.23
1509.066,457.40
1509.948,421.90
1510.831,454.33
1511.714,399.60
1512.596,450.70
1513.479,439.00
1514.361,386.93
1515.243,407.70
1516.125,458.83
1517.008,425.77
1517.890,436.30
1518.771,427.40
1519.655,400.80
1520.537,441.33
1521.419,434.13
1522.300,450.43
1523.182,430.23
1524.063,396.13
1524.944,415.67
1525.825,427.53
1526.707,418.30
1527.588,433.67
1528.468,437.83
1529.349,410.33
1530.230,395.17
1531.111,447.37
1531.991,428.17
1532.872,428.17
1533.752,444.37
1534.632,413.80
1535.513,417.57
1536.393,428.43
1537.273,402.43
1538.153,409.33
1539.032,392.27
1539.912,402.33
1540.792,416.60
1541.672,405.53
1542.551,430.53
1543.430,418.73
1544.310,412.03
1545.189,410.17
1546.068,457.67
1546.947,421.30
1547.826,416.37
1548.705,417.63
1549.584,394.17
1550.462,428.00
1551.341,424.43
1552.219,406.00
1553.098,407.37
1553.976,405.33
1554.854,458.77
1555.733,423.13
1556.611,428.93
1557.489,438.60
1558.367,446.83
1559.244,442.23
1560.122,403.60
1561.000,409.63
1561.877,425.90
1562.755,429.80
1563.632,426.37
1564.509,368.97
1565.386,407.33
1566.264,407.87
1567.141,392.33
1568.017,422.40
1568.894,378.70
1569.771,400.77
1570.648,423.43
1571.524,445.53
1572.401,390.90
1573.277,377.80
1574.153,417.87
1575.029,387.13
1575.906,400.93
1576.781,389.03
1577.657,421.67
1578.533,388.27
1579.409,400.77
1580.285,396.17
1581.160,407.03
1582.036,383.63
1582.911,385.13
1583.786,387.87
1584.662,384.97
1585.537,377.37
1586.412,396.03
1587.287,382.57
1588.160,389.37
1589.035,363.37
1589.909,381.63
1590.784,381.73
1591.658,410.33
1592.533,394.60
1593.407,425.13
1594.281,385.43
1595.155,390.67
1596.029,408.13
1596.903,387.70
1597.777,429.73
1598.651,376.83
1599.525,397.37
1600.398,416.00
1601.272,416.47
1602.144,394.07
1603.017,337.83
1603.890,391.03
1604.763,385.40
1605.636,390.43
1606.509,395.13
1607.382,384.37
1608.255,403.00
1609.128,368.50
1610.000,378.40
1610.873,379.83
1611.746,355.80
1612.616,353.27
1613.488,384.43
1614.361,374.20
1615.233,409.53
1616.105,368.33
1616.977,354.87
1617.849,382.80
1618.720,368.70
1619.592,386.87
1620.464,373.03
1621.333,388.93
1622.205,391.40
1623.076,403.03
1623.947,383.00
1624.818,333.70
1625.689,395.20
1626.560,393.07
1627.431,362.00
1628.302,406.73
1629.171,392.23
1630.042,344.13
1630.912,6.37
1631.782,346.57
1632.653,376.70
1633.523,366.63
1634.393,361.10
1635.263,385.53
1636.131,370.83
1637.001,403.50
1637.871,363.33
1638.741,365.23
1639.611,377.30
1640.480,327.83
1641.350,372.57
1642.219,378.47
1643.087,354.57
1643.956,332.83
1644.825,330.30
1645.694,390.37
1646.563,371.47
1647.432,342.63
1648.299,323.97
1649.167,388.33
1650.036,371.77
1650.904,405.93
1651.773,360.33
1652.641,367.80
1653.509,384.90
1654.376,359.77
1655.244,379.23
1656.112,378.53
1656.980,373.77
1657.847,354.73
1658.715,385.77
1659.581,368.30
1660.448,374.90
1661.316,336.07
1662.183,356.73
1663.051,341.80
1663.918,346.53
1664.783,371.50
1665.650,361.63
1666.517,315.37
1667.384,361.13
1668.251,352.70
1669.115,351.93
1669.982,402.10
1670.849,340.77
1671.715,345.57
1672.581,348.30
1673.446,340.50
1674.312,367.23
1675.178,396.53
1676.044,363.00
1676.910,334.47
1677.774,342.93
1678.639,357.50
1679.505,392.67
1680.370,384.90
1681.236,374.13
1682.099,381.97
1682.965,366.57
1683.830,363.40
1684.695,365.43
1685.560,408.17
1686.423,311.63
1687.288,372.27
1688.153,345.87
1689.017,359.10
1689.880,350.43
1690.745,365.13
1691.609,351.13
1692.473,323.73
1693.338,366.30
1694.200,359.50
1695.064,357.57
1695.928,334.67
1696.792,328.03
1697.654,342.37
1698.517,365.13
1699.381,331.63
1700.245,321.00
1701.106,357.27
1701.969,322.40
1702.833,373.07
1703.696,353.10
1704.557,331.43
1705.420,319.73
1706.283,341.13
1707.146,361.53
1708.007,352.43
1708.870,346.87
1709.732,351.00
1710.595,335.47
1711.455,350.03
1712.318,329.47
1713.180,334.00
1714.040,338.70
1714.902,339.50
1715.764,368.30
1716.626,359.53
1717.486,316.63
1718.348,343.13
1719.209,-572.10
1720.071,340.50
1720.930,343.97
1721.792,332.43
1722.653,353.90
1723.512,372.97
1724.374,345.10
1725.234,337.87
1726.095,368.33
1726.954,357.70
1727.815,330.20
1728.676,330.53
1729.535,338.33
1730.395,383.53
1731.256,351.40
1732.114,364.73
1732.974,344.90
1733.834,360.07
1734.693,343.93
1735.553,318.47
1736.413,342.17
1737.272,341.63
1738.130,348.07
1738.990,369.93
1739.849,373.03
1740.707,352.43
1741.566,326.43
1742.426,338.67
1743.283,353.27
1744.142,351.13
1745.001,321.23
1745.858,358.23
1746.717,331.27
1747.576,327.57
1748.433,332.80
1749.292,347.87
1750.150,297.43
1751.007,373.00
1751.865,337.60
1752.723,390.37
1753.579,358.27
1754.438,345.37
1755.296,317.50
1756.152,328.40
1757.010,367.43
1757.865,338.80
1758.723,334.30
1759.581,326.10
1760.436,306.53
1761.294,346.67
1762.151,331.60
1763.006,320.10
1763.864,355.80
1764.721,296.40
1765.576,348.63
1766.433,373.43
1767.288,371.23
1768.144,350.43
1769.001,327.07
1769.856,318.77
1770.712,294.43
1771.568,327.97
1772.423,318.03
1773.279,329.77
1774.133,345.53
1774.989,339.23
1775.845,332.27
1776.699,330.90
1777.555,324.70
1778.409,345.50
1779.265,353.23
1780.120,383.87
1780.974,318.80
1781.829,320.43
1782.682,307.53
1783.538,341.40
1784.393,332.60
1785.246,338.20
1786.101,344.53
1786.954,337.03
1787.808,348.70
1788.661,322.23
1789.516,326.27
1790.370,324.23
1791.223,338.13
1792.077,333.30
1792.930,318.40
1793.784,337.57
1794.636,323.20
1795.490,318.87
1796.344,328.27
1797.196,333.27
1798.049,317.30
1798.901,318.37
1799.755,322.97
1800.606,354.13
1801.460,323.23
1802.311,339.30
1803.165,377.70
1804.018,300.50
1804.869,300.50
1805.722,313.10
1806.573,330.57
1807.426,355.37
1808.276,300.33
1809.129,347.00
1809.980,334.87
1810.832,309.93
1811.683,332.90
1812.535,354.67
1813.385,350.37
1814.237,325.23
1815.089,299.57
1815.940,319.57
1816.791,346.63
1817.641,295.23
1818.493,349.83
1819.343,324.27
1820.194,334.87
1821.044,345.00
1821.895,308.27
1822.745,331.77
1823.596,321.63
1824.445,322.10
1825.296,309.27
1826.145,284.87
1826.996,322.13
1827.845,354.17
1828.695,324.97
1829.544,341.53
1830.395,341.30
1831.243,310.57
1832.094,272.67
1832.942,344.00
1833.792,275.10
1834.640,347.83
1835.490,324.43
1836.338,339.20
1837.186,310.27
1838.036,333.07
1838.884,289.10
1839.733,288.17
1840.581,329.20
1841.430,343.70
1842.278,302.83
1843.127,285.80
1843.974,304.67
1844.823,308.20
1845.671,318.97
1846.519,312.27
1847.366,344.67
1848.213,284.50
1849.062,328.03
1849.909,315.70
1850.757,284.30
1851.604,295.87
1852.452,325.40
1853.298,327.70
1854.146,295.93
1854.993,321.77
1855.839,339.87
1856.687,348.37
1857.532,334.70
1858.380,305.20
1859.226,332.83
1860.073,289.20
1860.919,322.17
1861.765,350.63
1862.612,327.90
1863.457,308.93
1864.304,341.37
1865.150,288.43
1865.995,311.67
1866.842,280.87
1867.686,345.30
1868.533,338.27
1869.378,334.10
1870.223,328.53
1871.069,270.97
1871.914,327.40
1872.760,326.93
1873.604,314.90
1874.448,293.37
1875.294,338.00
1876.139,270.87
1876.984,321.37
1877.828,317.50
1878.672,310.10
1879.518,299.90
1880.361,304.73
1881.205,333.30
1882.050,330.00
1882.894,302.90
1883.739,299.07
1884.582,295.67
1885.425,311.13
1886.270,316.97
1887.113,322.13
1887.956,301.40
1888.801,308.27
1889.644,325.33
1890.486,315.17
1891.331,299.80
1892.173,289.83
1893.017,323.17
1893.860,275.47
1894.702,300.53
1895.546,319.20
1896.388,274.00
1897.230,297.07
1898.074,307.83
1898.916,275.63
1899.757,334.83
1900.601,283.33
1901.443,347.03
1902.284,293.40
1903.125,316.60
1903.969,318.20
1904.810,322.07
1905.651,321.00
1906.494,296.47
1907.335,338.83
1908.176,300.47
1909.018,313.67
1909.859,335.50
1910.700,322.27
1911.542,302.77
1912.383,303.50
1913.223,312.57
1914.064,274.53
1914.906,319.23
1915.746,304.70
1916.586,327.80
1917.428,269.30
1918.268,306.97
1919.107,293.17
1919.947,307.00
1920.789,301.53
1921.628,307.17
1922.468,279.37
1923.309,290.40
1924.148,307.63
1924.988,298.63
1925.827,289.67
1926.667,290.83
1927.507,332.23
1928.345,311.83
1929.184,265.97
1930.025,330.30
1930.864,281.73
1931.702,328.30
1932.541,272.53
1933.381,264.23
1934.219,289.80
1935.057,344.40
1935.896,298.27
1936.735,295.77
1937.573,298.07
1938.411,329.43
1939.249,296.20
1940.089,264.23
1940.927,283.83
1941.764,319.27
1942.602,281.67
1943.439,317.87
1944.278,340.40
1945.115,295.97
1945.953,313.43
1946.790,293.40
1947.628,323.47
1948.465,275.53
1949.302,288.97
1950.139,325.57
1950.976,308.03
1951.814,315.30
1952.651,329.00
1953.487,292.17
1954.323,307.80
1955.160,263.47
1955.998,307.63
1956.834,318.40
1957.670,292.63
1958.506,295.90
1959.342,296.43
1960.177,309.63
1961.015,274.87
1961.850,313.67
1962.686,276.50
1963.521,273.47
1964.357,346.60
1965.192,304.10
1966.029,329.30
1966.864,269.57
1967.699,319.57
1968.534,331.90
1969.369,281.83
1970.204,310.87
1971.040,297.60
1971.875,307.93
1972.709,309.03
1973.544,287.60
1974.378,329.10
1975.212,293.70
1976.047,302.13
1976.882,305.00
1977.716,247.43
1978.550,291.37
1979.384,292.57
1980.218,320.27
1981.052,298.00
1981.885,337.70
1982.719,258.47
1983.554,301.57
1984.388,257.83
1985.221,300.93
1986.054,300.73
1986.887,282.40
1987.720,278.70
1988.553,301.57
1989.386,275.50
1990.219,310.07
1991.053,276.30
1991.886,308.83
1992.719,265.73
1993.551,286.00
1994.383,276.10
1995.216,301.23
1996.048,309.30
1996.880,261.30
1997.712,323.63
1998.544,291.13
1999.376,338.73
2000.208,261.20
2001.040,280.87
2001.873,296.80
2002.705,296.63
2003.536,285.40
2004.367,263.63
2005.199,279.53
2006.030,267.00
2006.861,314.37
2007.692,299.00
2008.523,246.57
2009.354,270.13
2010.185,319.63
2011.016,307.77
2011.846,263.43
2012.677,264.93
2013.507,280.97
2014.338,290.77
2015.168,262.03
2015.999,316.93
2016.829,310.87
2017.659,306.93
2018.489,310.83
2019.319,298.33
2020.149,270.40
2020.980,287.70
2021.810,290.00
2022.639,286.53
2023.469,306.13
2024.298,311.40
2025.128,305.43
2025.957,350.93
2026.786,327.07
2027.615,280.13
2028.444,316.73
2029.273,317.10
2030.102,306.13
2030.931,306.97
2031.758,258.33
2032.586,267.63
2033.415,301.17
2034.243,290.90
2035.072,307.60
2035.900,285.47
2036.728,313.43
2037.556,277.93
2038.385,292.53
2039.213,290.33
2040.040,281.27
2040.868,311.00
2041.696,314.70
2042.524,314.20
2043.351,294.60
2044.179,314.03
2045.006,296.07
2045.006,296.07

Max Intensity Wave.,217.871
Max Intensity Data,4341.43
Min Intensity Wave.,1719.209
Min Intensity Data,-572.10
FWHM Wave.,400.300
FWHM Value,0.43
Pressure Wave.,684.671
Pressure Value [GPa],-24.91530
G/D Ratio,0.61512
G/D Gband Wave.,1554.942
G/D Gband Intensity,459.21
G/D Dband Wave.,1305.386
G/D Dband Intensity,746.54

<< BACKGROUND SPECTRUM >>
Wave[dcm-1],No526
146.591,2277.00
147.626,2113.00
148.664,2071.00
149.699,2530.00
150.737,2249.00
151.772,2387.00
152.809,2390.00
153.846,2287.00
154.881,2393.00
155.918,1946.00
156.953,2291.00
157.989,2592.00
159.026,2447.00
160.060,2675.00
161.096,2844.00
162.130,2511.00
163.167,2556.00
164.200,2446.00
165.236,2655.00
166.272,2689.00
167.305,2267.00
168.341,2524.00
169.374,2773.00
170.409,2803.00
171.445,2759.00
172.477,2527.00
173.512,2405.00
174.545,2707.00
175.580,2858.00
176.614,3031.00
177.647,2819.00
178.681,3035.00
179.713,3299.00
180.747,2805.00
181.781,2722.00
182.813,3011.00
183.847,3078.00
184.878,2754.00
185.912,2959.00
186.945,3125.00
187.976,3026.00
189.010,2728.00
190.043,2828.00
191.073,2934.00
192.106,2706.00
193.137,3148.00
194.170,2569.00
195.202,2920.00
196.232,2684.00
197.265,2969.00
198.297,3024.00
199.327,2762.00
200.359,2921.00
201.388,3309.00
202.420,2870.00
203.452,3069.00
204.481,2729.00
205.512,3326.00
206.544,3039.00
207.573,3072.00
208.604,3366.00
209.635,3538.00
210.663,2941.00
211.694,3026.00
212.725,2840.00
213.753,2784.00
214.783,3369.00
215.813,3259.00
216.841,2997.00
217.871,3148.00
218.899,2928.00
219.929,3139.00
220.959,2899.00
221.986,3147.00
223.016,2773.00
224.045,3132.00
225.072,3118.00
226.101,3167.00
227.130,3202.00
228.157,2855.00
229.185,2341.00
230.214,3168.00
231.241,2810.00
232.269,2457.00
233.297,2687.00
234.323,3163.00
235.351,2792.00
236.379,3081.00
237.407,2766.00
238.433,2939.00
239.460,3114.00
240.488,3124.00
241.513,3191.00
242.540,3116.00
243.568,3191.00
244.592,3216.00
245.619,3192.00
246.646,2935.00
247.671,2940.00
248.697,2786.00
249.724,2984.00
250.748,3017.00
251.774,3010.00
252.801,3277.00
253.827,3133.00
254.850,3080.00
255.876,2682.00
256.902,3176.00
257.925,2954.00
258.951,2698.00
259.976,2800.00
260.999,3153.00
262.024,2776.00
263.049,3653.00
264.074,3053.00
265.097,3025.00
266.122,3074.00
267.146,2993.00
268.168,3222.00
269.193,2890.00
270.217,3218.00
271.241,2725.00
272.263,2850.00
273.287,3185.00
274.311,2752.00
275.332,3285.00
276.356,2839.00
277.379,3125.00
278.402,3159.00
279.424,2937.00
280.447,2898.00
281.470,2718.00
282.492,3090.00
283.513,2935.00
284.536,3175.00
285.558,3165.00
286.581,3105.00
287.601,2844.00
288.623,2807.00
289.645,3055.00
290.665,3118.00
291.687,3146.00
292.709,3137.00
293.730,3399.00
294.750,2907.00
295.771,2772.00
296.792,3069.00
297.813,2906.00
298.832,3022.00
299.853,2734.00
300.874,3000.00
301.895,2926.00
302.913,2980.00
303.934,3252.00
304.954,3052.00
305.975,4229.00
306.993,2749.00
308.013,3113.00
309.033,3009.00
310.052,2913.00
311.072,2895.00
312.090,3059.00
313.109,3258.00
314.129,3427.00
315.148,2987.00
316.165,3027.00
317.184,3250.00
318.203,2761.00
319.222,2799.00
320.238,3082.00
321.257,2794.00
322.275,2693.00
323.294,2991.00
324.312,3159.00
325.328,3264.00
326.346,3316.00
327.364,3234.00
328.382,3079.00
329.397,3071.00
330.415,3253.00
331.432,3229.00
332.450,3253.00
333.467,3479.00
334.482,2563.00
335.499,3323.00
336.516,2867.00
337.533,2559.00
338.547,2842.00
339.564,2847.00
340.580,3079.00
341.597,2918.00
342.613,3422.00
343.627,2977.00
344.643,3038.00
345.659,3115.00
346.675,2984.00
347.690,2900.00
348.704,3075.00
349.719,2868.00
350.735,2743.00
351.750,3228.00
352.765,3001.00
353.778,2991.00
354.793,3196.00
355.808,2831.00
356.822,3217.00
357.837,2638.00
358.851,3291.00
359.864,2989.00
360.878,2746.00
361.892,2947.00
362.906,3121.00
363.920,2599.00
364.932,3099.00
365.945,3117.00
366.959,2990.00
367.972,2942.00
368.986,2695.00
369.999,3375.00
371.010,2830.00
372.023,3332.00
373.036,2948.00
374.049,3374.00
375.061,3123.00
376.072,2980.00
377.084,2877.00
378.097,2721.00
379.109,3164.00
380.121,2998.00
381.133,2669.00
382.143,3142.00
383.155,2751.00
384.166,2913.00
385.178,3100.00
386.189,3214.00
387.201,2709.00
388.212,2894.00
389.221,2930.00
390.232,3025.00
391.243,2932.00
392.254,3063.00
393.264,2840.00
394.275,3228.00
395.283,3215.00
396.294,3641.00
397.304,3515.00
398.314,3112.00
399.324,3080.00
400.334,2671.00
401.344,3163.00
402.351,2678.00
403.361,3197.00
404.370,2976.00
405.380,2907.00
406.389,3323.00
407.398,3133.00
408.407,3103.00
409.414,3177.00
410.423,3298.00
411.431,2766.00
412.440,2695.00
413.448,3335.00
414.457,2855.00
415.465,2829.00
416.471,2904.00
417.479,3019.00
418.487,2842.00
419.495,3335.00
420.503,3107.00
421.510,2632.00
422.518,3155.00
423.525,3172.00
424.530,3415.00
425.537,2891.00
426.544,3276.00
427.551,2850.00
428.558,3561.00
429.565,3439.00
430.571,2886.00
431.578,2917.00
432.582,2877.00
433.588,2994.00
434.595,2591.00
435.601,3304.00
436.607,3223.00
437.612,2755.00
438.618,3320.00
439.624,2983.00
440.627,2925.00
441.633,3103.00
442.638,3595.00
443.643,3072.00
444.648,3015.00
445.653,3179.00
446.658,2891.00
447.663,3039.00
448.667,2884.00
449.672,2919.00
450.674,2975.00
451.678,2683.00
452.682,2850.00
453.687,2849.00
454.690,3595.00
455.694,3259.00
456.698,2595.00
457.702,2665.00
458.705,2802.00
459.709,2783.00
460.710,2858.00
461.713,3042.00
462.716,3087.00
463.719,2997.00
464.722,3174.00
465.725,2957.00
466.727,2817.00
467.730,3078.00
468.732,2750.00
469.735,3281.00
470.737,2866.00
471.737,2886.00
472.739,2929.00
473.741,2777.00
474.742,3086.00
475.744,3145.00
476.746,3037.00
477.747,2939.00
478.748,3147.00
479.750,2957.00
480.751,2991.00
481.752,3763.00
482.753,3059.00
483.751,3530.00
484.752,2615.00
485.753,3002.00
486.753,2871.00
487.753,2979.00
488.754,3416.00
489.754,2726.00
490.754,3325.00
491.754,3122.00
492.754,2707.00
493.753,3016.00
494.753,2916.00
495.752,3330.00
496.752,3005.00
497.749,2962.00
498.748,2896.00
499.747,3396.00
500.746,3104.00
501.745,2742.00
502.744,2732.00
503.742,3324.00
504.741,2944.00
505.739,2484.00
506.737,2896.00
507.735,3156.00
508.734,3413.00
509.732,3164.00
510.729,3281.00
511.727,2881.00
512.725,2896.00
513.720,2818.00
514.718,3228.00
515.715,2750.00
516.712,2607.00
517.709,2988.00
518.706,2889.00
519.703,3044.00
520.700,3193.00
521.696,3343.00
522.693,2933.00
523.689,2846.00
524.686,3148.00
525.682,2834.00
526.678,3459.00
527.674,2919.00
528.670,2625.00
529.666,3480.00
530.661,3484.00
531.657,3158.00
532.652,3139.00
533.648,2986.00
534.641,3233.00
535.636,3037.00
536.631,3084.00
537.626,3166.00
538.621,2744.00
539.616,2619.00
540.610,2535.00
541.605,3020.00
542.599,3028.00
543.593,2989.00
544.587,3907.00
545.581,2842.00
546.575,3065.00
547.569,3001.00
548.563,2687.00
549.557,2670.00
550.550,2768.00
551.543,2739.00
552.537,3166.00
553.530,2802.00
554.523,2772.00
555.516,3137.00
556.509,2987.00
557.502,2644.00
558.494,3184.00
559.487,2917.00
560.479,3162.00
561.472,3251.00
562.464,3140.00
563.456,3285.00
564.448,2955.00
565.440,2968.00
566.432,3390.00
567.423,2908.00
568.415,2846.00
569.404,3102.00
570.396,2801.00
571.387,3120.00
572.378,3024.00
573.369,3985.00
574.360,3685.00
575.351,2907.00
576.341,2853.00
577.332,2880.00
578.323,2690.00
579.313,2898.00
580.303,3242.00
581.293,3110.00
582.283,3001.00
583.273,3101.00
584.263,3024.00
585.253,3100.00
586.243,3157.00
587.232,2671.00
588.222,2978.00
589.211,3153.00
590.200,3072.00
591.189,2943.00
592.178,2942.00
593.167,3433.00
594.156,3270.00
595.145,2852.00
596.133,3466.00
597.122,3089.00
598.110,3226.00
599.098,3048.00
600.086,3041.00
601.074,3192.00
602.062,2847.00
603.050,2720.00
604.038,3105.00
605.025,2818.00
606.013,3217.00
607.000,3363.00
607.987,2996.00
608.975,3074.00
609.962,2772.00
610.949,3138.00
611.936,3194.00
612.922,3157.00
613.909,2700.00
614.895,3325.00
615.882,2833.00
616.868,2969.00
617.854,2727.00
618.841,3028.00
619.826,3094.00
620.812,3030.00
621.798,2790.00
622.784,3175.00
623.769,3109.00
624.755,2732.00
625.740,3020.00
626.725,2737.00
627.711,2819.00
628.698,3086.00
629.683,2812.00
630.667,3149.00
631.652,2750.00
632.637,2939.00
633.621,3140.00
634.606,2921.00
635.590,3086.00
636.574,2913.00
637.558,3071.00
638.542,2977.00
639.526,2847.00
640.510,2657.00
641.493,3031.00
642.477,3007.00
643.460,2694.00
644.444,3222.00
645.427,3298.00
646.410,2663.00
647.393,2962.00
648.376,3056.00
649.359,2908.00
650.341,3081.00
651.324,3074.00
652.307,3044.00
653.289,2924.00
654.271,2841.00
655.253,2918.00
656.235,3121.00
657.217,3217.00
658.199,2641.00
659.181,2739.00
660.163,3004.00
661.144,2863.00
662.126,2907.00
663.107,2782.00
664.088,6259.00
665.069,3237.00
666.050,2794.00
667.033,2739.00
668.014,3060.00
668.995,2591.00
669.975,3022.00
670.956,2996.00
671.936,3118.00
672.916,2961.00
673.896,3095.00
674.876,2920.00
675.856,2832.00
676.836,2736.00
677.816,2327.00
678.795,2806.00
679.775,2661.00
680.754,3033.00
681.734,3148.00
682.713,3159.00
683.692,2781.00
684.671,2647.00
685.650,2731.00
686.629,2853.00
687.607,2726.00
688.586,2779.00
689.564,2871.00
690.543,3255.00
691.523,2399.00
692.501,2832.00
693.479,2955.00
694.457,2762.00
695.435,2823.00
696.413,2682.00
697.390,2524.00
698.368,2707.00
699.345,3073.00
700.322,2979.00
701.300,3060.00
702.277,3025.00
703.254,3234.00
704.231,2562.00
705.207,2943.00
706.184,2749.00
707.161,2662.00
708.137,2845.00
709.113,2817.00
710.090,2790.00
711.068,2571.00
712.044,2644.00
713.020,2874.00
713.996,2611.00
714.971,2792.00
715.947,2890.00
716.922,2828.00
717.898,2760.00
718.873,2883.00
719.848,2704.00
720.823,2677.00
721.798,2984.00
722.773,2744.00
723.748,2547.00
724.723,3044.00
725.697,2843.00
726.672,2769.00
727.646,2525.00
728.622,2994.00
729.596,2621.00
730.570,2699.00
731.544,3087.00
732.518,3239.00
733.492,2801.00
734.466,2910.00
735.439,2983.00
736.413,3046.00
737.386,2443.00
738.359,2419.00
739.332,2549.00
740.305,2874.00
741.278,3292.00
742.251,2922.00
743.224,2742.00
744.196,2535.00
745.171,3152.00
746.143,3049.00
747.115,2784.00
748.087,2692.00
749.059,3078.00
750.031,2892.00
751.003,3646.00
751.975,3252.00
752.947,2705.00
753.918,3060.00
754.890,2580.00
755.861,2789.00
756.832,3052.00
757.803,2846.00
758.774,2836.00
759.747,2620.00
760.718,3195.00
761.689,2752.00
762.659,2588.00
763.630,3125.00
764.600,2573.00
765.570,3075.00
766.540,3120.00
767.510,2912.00
768.480,3011.00
769.450,2747.00
770.420,2786.00
771.390,2676.00
772.359,2768.00
773.329,2671.00
774.300,2499.00
775.269,2729.00
776.238,3000.00
777.207,3157.00
778.176,2522.00
779.145,2811.00
780.114,2675.00
781.083,2545.00
782.051,2706.00
783.019,2700.00
783.988,3102.00
784.956,2814.00
785.924,2963.00
786.894,2933.00
787.862,2700.00
788.830,3121.00
789.797,2625.00
790.765,2591.00
791.732,2782.00
792.700,2629.00
793.667,2615.00
794.634,2771.00
795.601,2738.00
796.568,2780.00
797.535,2839.00
798.502,3450.00
799.468,2890.00
800.437,2408.00
801.403,2644.00
802.370,3271.00
803.336,3008.00
804.302,2868.00
805.268,2445.00
806.234,2549.00
807.200,2739.00
808.166,2768.00
809.131,2572.00
810.097,2959.00
811.062,3670.00
812.027,3011.00
812.994,2629.00
813.960,2612.00
814.925,2919.00
815.889,2544.00
816.854,2978.00
817.819,2635.00
818.783,2732.00
819.748,3083.00
820.712,2748.00
821.677,2648.00
822.641,2666.00
823.605,2721.00
824.571,3099.00
825.534,2749.00
826.498,2685.00
827.462,2800.00
828.425,2610.00
829.389,3035.00
830.352,2806.00
831.315,2898.00
832.279,2500.00
833.242,2761.00
834.204,2662.00
835.167,2641.00
836.132,3013.00
837.095,2512.00
838.057,2674.00
839.020,2813.00
839.982,2879.00
840.944,2667.00
841.906,2625.00
842.868,2980.00
843.830,2527.00
844.792,3058.00
845.753,2699.00
846.715,2438.00
847.679,2612.00
848.640,2639.00
849.601,2752.00
850.562,3282.00
851.523,2704.00
852.484,2441.00
853.445,3014.00
854.406,2705.00
855.367,2720.00
856.327,3045.00
857.288,2515.00
858.248,2653.00
859.210,2723.00
860.170,2525.00
861.130,3034.00
862.090,2434.00
863.050,2595.00
864.010,2706.00
864.969,2870.00
865.929,2633.00
866.888,2533.00
867.848,2846.00
868.807,2684.00
869.766,2857.00
870.727,2703.00
871.686,3007.00
872.645,2973.00
873.604,3296.00
874.562,2810.00
875.521,2746.00
876.479,3354.00
877.437,2595.00
878.396,2560.00
879.354,3173.00
880.312,2601.00
881.270,2628.00
882.229,3091.00
883.187,2609.00
884.145,2662.00
885.102,2946.00
886.059,2844.00
887.017,2878.00
887.974,2955.00
888.931,3057.00
889.888,2496.00
890.845,2449.00
891.802,2360.00
892.758,2651.00
893.717,2423.00
894.673,2584.00
895.630,2643.00
896.586,2877.00
897.542,2683.00
898.498,2514.00
899.454,2812.00
900.410,2690.00
901.366,2666.00
902.321,2647.00
903.277,2668.00
904.232,2780.00
905.189,2472.00
906.145,2636.00
907.100,2210.00
908.055,2733.00
909.010,2905.00
909.965,2365.00
910.919,2784.00
911.874,2577.00
912.828,2771.00
913.783,2807.00
914.737,2379.00
915.693,2732.00
916.648,2919.00
917.602,2931.00
918.555,2803.00
919.509,2795.00
920.463,2777.00
921.417,2719.00
922.370,2602.00
923.324,2670.00
924.277,2658.00
925.230,2755.00
926.183,2406.00
927.138,2713.00
928.091,2956.00
929.044,2845.00
929.996,2638.00
930.949,2657.00
931.902,2815.00
932.854,2848.00
933.806,2587.00
934.758,2968.00
935.711,2994.00
936.663,2815.00
937.614,2788.00
938.568,2742.00
939.520,2408.00
940.471,2688.00
941.423,2794.00
942.374,2872.00
943.326,2780.00
944.277,2612.00
945.228,2856.00
946.179,2709.00
947.130,3053.00
948.080,2645.00
949.031,2593.00
949.984,2672.00
950.934,2703.00
951.884,2490.00
952.835,2714.00
953.785,2734.00
954.735,2624.00
955.685,2342.00
956.635,2633.00
957.585,2636.00
958.534,2629.00
959.484,2724.00
960.433,2620.00
961.383,2478.00
962.334,2949.00
963.283,2747.00
964.232,2845.00
965.181,2744.00
966.130,2780.00
967.079,2654.00
968.027,2719.00
968.976,2747.00
969.924,2612.00
970.873,2757.00
971.821,2789.00
972.769,2926.00
973.719,2850.00
974.667,2493.00
975.615,2707.00
976.562,2755.00
977.510,2436.00
978.458,2616.00
979.405,2854.00
980.352,2778.00
981.300,2987.00
982.247,2804.00
983.194,2525.00
984.141,2644.00
985.088,2765.00
986.036,2803.00
986.983,3016.00
987.930,3111.00
988.876,2336.00
989.822,2935.00
990.769,2534.00
991.715,2588.00
992.661,2439.00
993.607,2801.00
994.553,3322.00
995.498,2585.00
996.444,2292.00
997.389,2779.00
998.337,2519.00
999.282,2852.00
1000.227,2643.00
1001.173,2704.00
1002.118,2435.00
1003.062,2906.00
1004.007,2713.00
1004.952,3015.00
1005.897,2937.00
1006.841,2719.00
1007.786,2480.00
1008.730,2431.00
1009.674,3175.00
1010.618,2679.00
1011.564,2483.00
1012.508,2356.00
1013.452,2959.00
1014.396,2742.00
1015.339,2595.00
1016.283,2671.00
1017.226,2708.00
1018.170,2682.00
1019.113,2873.00
1020.056,2747.00
1020.999,2742.00
1021.942,2585.00
1022.885,2860.00
1023.828,3014.00
1024.770,2494.00
1025.715,2744.00
1026.657,2719.00
1027.600,2748.00
1028.542,2892.00
1029.484,2753.00
1030.426,2844.00
1031.368,2787.00
1032.310,2553.00
1033.251,2568.00
1034.193,2747.00
1035.135,2489.00
1036.076,2643.00
1037.017,2567.00
1037.959,2844.00
1038.900,2795.00
1039.843,2811.00
1040.784,2747.00
1041.725,2810.00
1042.665,2617.00
1043.606,2763.00
1044.547,2723.00
1045.487,2375.00
1046.427,2664.00
1047.368,2766.00
1048.308,2254.00
1049.248,2531.00
1050.188,2690.00
1051.128,2613.00
1052.067,2656.00
1053.007,2384.00
1053.947,2386.00
1054.886,2600.00
1055.827,2502.00
1056.766,2857.00
1057.706,2456.00
1058.645,2676.00
1059.584,2757.00
1060.522,3008.00
1061.461,2431.00
1062.400,2481.00
1063.338,2684.00
1064.277,2507.00
1065.215,2548.00
1066.154,2402.00
1067.092,2611.00
1068.030,2620.00
1068.968,2870.00
1069.906,2996.00
1070.843,2957.00
1071.781,2711.00
1072.720,2796.00
1073.658,2868.00
1074.595,2605.00
1075.533,2547.00
1076.470,2555.00
1077.407,3036.00
1078.344,2740.00
1079.281,2790.00
1080.217,2314.00
1081.154,2667.00
1082.091,2721.00
1083.027,2456.00
1083.964,2900.00
1084.900,2537.00
1085.836,2602.00
1086.772,2871.00
1087.708,2461.00
1088.644,2817.00
1089.580,2698.00
1090.515,2761.00
1091.451,2594.00
1092.388,2703.00
1093.324,2438.00
1094.259,3256.00
1095.194,2723.00
1096.129,2633.00
1097.064,2579.00
1097.999,2785.00
1098.934,2533.00
1099.869,2543.00
1100.803,2682.00
1101.738,2698.00
1102.672,2386.00
1103.607,2815.00
1104.541,2562.00
1105.475,2528.00
1106.409,2400.00
1107.343,2609.00
1108.277,2430.00
1109.210,2733.00
1110.144,2673.00
1111.078,2664.00
1112.011,2467.00
1112.944,2772.00
1113.878,2698.00
1114.811,2150.00
1115.744,2580.00
1116.678,2307.00
1117.611,2557.00
1118.544,2592.00
1119.477,2765.00
1120.409,2561.00
1121.342,3114.00
1122.274,2743.00
1123.206,4269.00
1124.138,2659.00
1125.070,2958.00
1126.002,2848.00
1126.934,2327.00
1127.866,2563.00
1128.798,2315.00
1129.729,2380.00
1130.661,2641.00
1131.592,2570.00
1132.523,2746.00
1133.454,2763.00
1134.385,2317.00
1135.317,2674.00
1136.247,2568.00
1137.178,2872.00
1138.109,2367.00
1139.039,3031.00
1139.970,2816.00
1140.900,2645.00
1141.831,2340.00
1142.761,2250.00
1143.691,2735.00
1144.621,2621.00
1145.551,2698.00
1146.480,2697.00
1147.410,2813.00
1148.340,2343.00
1149.269,2390.00
1150.199,2569.00
1151.128,3063.00
1152.057,2450.00
1152.979,2590.00
1153.898,2625.00
1154.819,2715.00
1155.739,2639.00
1156.658,2537.00
1157.579,2661.00
1158.498,2658.00
1159.419,2202.00
1160.338,2730.00
1161.256,2702.00
1162.177,2502.00
1163.095,2629.00
1164.016,2684.00
1164.934,2913.00
1165.852,2800.00
1166.772,2664.00
1167.690,2655.00
1168.610,2685.00
1169.528,2650.00
1170.446,2181.00
1171.365,2569.00
1172.283,2527.00
1173.202,2647.00
1174.120,2661.00
1175.037,2466.00
1175.956,2478.00
1176.873,2495.00
1177.792,2554.00
1178.709,3118.00
1179.626,2505.00
1180.544,2852.00
1181.461,2499.00
1182.379,2740.00
1183.296,2629.00
1184.212,2294.00
1185.130,2477.00
1186.046,2959.00
1186.962,2637.00
1187.880,2927.00
1188.796,2676.00
1189.714,2454.00
1190.629,2775.00
1191.545,2682.00
1192.462,2563.00
1193.378,2597.00
1194.295,2312.00
1195.210,2623.00
1196.125,2721.00
1197.042,2690.00
1197.957,2654.00
1198.872,2516.00
1199.788,2530.00
1200.703,2971.00
1201.619,2629.00
1202.534,2528.00
1203.448,2732.00
1204.364,2561.00
1205.278,2287.00
1206.192,2694.00
1207.108,3096.00
1208.022,2965.00
1208.938,2470.00
1209.851,2798.00
1210.765,2869.00
1211.680,2537.00
1212.594,2451.00
1213.507,2581.00
1214.422,3008.00
1215.335,2735.00
1216.248,2587.00
1217.163,2647.00
1218.076,3191.00
1218.990,2761.00
1219.903,2406.00
1220.816,2466.00
1221.730,2610.00
1222.642,2487.00
1223.554,2550.00
1224.469,2692.00
1225.380,2596.00
1226.292,2285.00
1227.206,2750.00
1228.118,2932.00
1229.032,2288.00
1229.943,2525.00
1230.855,2570.00
1231.768,2401.00
1232.679,2708.00
1233.590,2612.00
1234.503,2851.00
1235.414,2468.00
1236.325,2526.00
1237.238,2700.00
1238.149,2764.00
1239.059,2430.00
1239.972,2772.00
1240.882,2412.00
1241.793,2744.00
1242.705,2965.00
1243.615,2545.00
1244.525,2693.00
1245.437,2205.00
1246.347,2704.00
1247.259,2754.00
1248.168,3058.00
1249.078,2886.00
1249.989,2891.00
1250.899,2413.00
1251.808,2517.00
1252.719,2545.00
1253.628,2492.00
1254.537,3015.00
1255.448,2462.00
1256.357,2447.00
1257.266,2659.00
1258.176,2373.00
1259.085,2342.00
1259.993,2468.00
1260.904,2458.00
1261.812,2435.00
1262.720,3179.00
1263.630,2789.00
1264.538,2460.00
1265.446,2721.00
1266.356,2571.00
1267.263,2894.00
1268.171,2395.00
1269.080,2724.00
1269.988,2815.00
1270.895,2542.00
1271.804,2589.00
1272.711,2791.00
1273.619,2784.00
1274.527,2435.00
1275.434,2721.00
1276.341,2455.00
1277.248,2603.00
1278.156,2940.00
1279.063,2511.00
1279.969,2735.00
1280.877,3558.00
1281.783,2810.00
1282.690,2680.00
1283.598,2603.00
1284.503,2506.00
1285.409,2472.00
1286.317,3001.00
1287.223,2989.00
1288.128,2678.00
1289.036,2509.00
1289.941,2544.00
1290.846,2662.00
1291.751,2454.00
1292.658,2540.00
1293.563,3039.00
1294.468,2648.00
1295.375,2772.00
1296.280,2868.00
1297.184,3348.00
1298.091,2738.00
1298.995,2780.00
1299.900,3004.00
1300.806,2533.00
1301.710,2380.00
1302.614,2216.00
1303.518,2888.00
1304.424,2577.00
1305.327,2799.00
1306.231,2600.00
1307.137,2832.00
1308.040,2668.00
1308.943,2642.00
1309.847,2838.00
1310.752,2825.00
1311.655,2268.00
1312.558,2409.00
1313.463,2584.00
1314.366,2565.00
1315.269,2686.00
1316.171,2624.00
1317.076,2570.00
1317.978,2449.00
1318.881,2231.00
1319.785,2461.00
1320.687,2488.00
1321.589,2228.00
1322.491,2426.00
1323.395,2690.00
1324.297,3167.00
1325.198,2749.00
1326.102,2425.00
1327.004,2461.00
1327.905,3009.00
1328.806,2574.00
1329.709,2686.00
1330.611,2574.00
1331.512,2487.00
1332.413,3071.00
1333.316,2648.00
1334.216,2768.00
1335.117,2393.00
1336.020,2631.00
1336.920,2606.00
1337.821,2492.00
1338.721,2900.00
1339.623,2687.00
1340.523,2590.00
1341.423,2484.00
1342.323,2949.00
1343.225,2681.00
1344.125,2447.00
1345.025,2492.00
1345.924,2328.00
1346.826,2931.00
1347.725,3058.00
1348.624,2850.00
1349.524,2461.00
1350.425,2612.00
1351.324,2735.00
1352.223,2804.00
1353.121,2629.00
1354.022,2847.00
1354.921,3012.00
1355.819,2722.00
1356.718,2660.00
1357.618,2382.00
1358.516,2770.00
1359.415,2981.00
1360.313,2725.00
1361.213,2609.00
1362.111,2929.00
1363.008,3276.00
1363.906,2650.00
1364.806,2655.00
1365.703,2718.00
1366.601,2462.00
1367.498,2468.00
1368.397,2809.00
1369.295,2714.00
1370.192,2469.00
1371.089,2744.00
1371.987,2632.00
1372.884,2846.00
1373.781,2472.00
1374.678,2619.00
1375.574,2488.00
1376.473,2776.00
1377.369,2840.00
1378.265,2461.00
1379.161,2615.00
1380.059,2353.00
1380.955,2744.00
1381.851,2413.00
1382.747,2539.00
1383.643,2582.00
1384.540,2423.00
1385.436,2512.00
1386.331,2703.00
1387.227,2795.00
1388.124,2737.00
1389.019,2438.00
1389.914,2616.00
1390.809,2255.00
1391.704,3023.00
1392.601,2586.00
1393.495,2912.00
1394.390,2792.00
1395.285,2843.00
1396.179,2743.00
1397.075,2600.00
1397.969,2708.00
1398.864,2328.00
1399.758,2567.00
1400.652,2662.00
1401.547,2492.00
1402.441,2389.00
1403.335,2949.00
1404.229,2618.00
1405.122,2705.00
1406.017,2576.00
1406.911,2770.00
1407.804,3034.00
1408.697,2608.00
1409.590,2434.00
1410.485,2828.00
1411.378,2705.00
1412.271,2357.00
1413.163,2668.00
1414.056,2817.00
1414.949,3020.00
1415.843,2687.00
1416.735,2590.00
1417.627,2668.00
1418.520,2595.00
1419.412,2853.00
1420.306,2799.00
1421.197,2900.00
1422.089,2817.00
1422.981,3086.00
1423.873,2827.00
1424.764,2699.00
1425.657,2644.00
1426.549,2782.00
1427.440,2789.00
1428.331,2535.00
1429.222,2343.00
1430.113,2716.00
1431.006,2784.00
1431.897,2566.00
1432.787,2639.00
1433.678,2586.00
1434.568,2460.00
1435.459,2868.00
1436.351,2804.00
1437.241,2771.00
1438.131,2816.00
1439.021,2425.00
1439.911,2648.00
1440.801,2728.00
1441.693,2839.00
1442.583,2640.00
1443.472,2627.00
1444.362,2769.00
1445.251,2585.00
1446.140,2579.00
1447.030,2825.00
1447.921,2794.00
1448.810,2474.00
1449.699,2975.00
1450.588,2658.00
1451.476,2542.00
1452.365,2748.00
1453.254,2553.00
1454.144,2531.00
1455.032,2788.00
1455.921,2392.00
1456.809,2972.00
1457.697,2483.00
1458.585,2603.00
1459.473,2608.00
1460.361,2512.00
1461.251,2713.00
1462.138,2731.00
1463.026,2587.00
1463.913,2869.00
1464.801,2580.00
1465.688,2727.00
1466.575,2675.00
1467.463,3038.00
1468.351,2515.00
1469.238,2637.00
1470.125,2239.00
1471.012,2682.00
1471.899,2761.00
1472.785,2450.00
1473.672,2643.00
1474.558,2882.00
1475.446,2768.00
1476.333,2811.00
1477.219,2477.00
1478.105,2627.00
1478.991,2612.00
1479.877,2953.00
1480.762,2635.00
1481.648,2519.00
1482.534,2778.00
1483.419,2733.00
1484.307,2747.00
1485.192,2650.00
1486.077,2507.00
1486.962,2504.00
1487.847,2390.00
1488.732,2499.00
1489.617,2633.00
1490.502,2918.00
1491.387,2809.00
1492.271,2465.00
1493.156,2483.00
1494.042,2443.00
1494.927,2836.00
1495.811,2551.00
1496.695,2766.00
1497.579,2927.00
1498.463,2615.00
1499.347,2640.00
1500.231,2683.00
1501.114,2744.00
1501.998,2918.00
1502.881,2719.00
1503.765,2932.00
1504.648,3083.00
1505.533,2741.00
1506.417,2664.00
1507.300,2622.00
1508.183,2701.00
1509.066,2139.00
1509.948,2899.00
1510.831,2973.00
1511.714,2477.00
1512.596,2770.00
1513.479,2895.00
1514.361,2899.00
1515.243,2702.00
1516.125,2787.00
1517.008,2912.00
1517.890,2614.00
1518.771,2690.00
1519.655,2896.00
1520.537,2594.00
1521.419,2493.00
1522.300,2676.00
1523.182,2785.00
1524.063,2816.00
1524.944,2968.00
1525.825,2846.00
1526.707,2484.00
1527.588,2446.00
1528.468,2721.00
1529.349,2353.00
1530.230,2612.00
1531.111,2805.00
1531.991,2705.00
1532.872,2362.00
1533.752,2607.00
1534.632,2532.00
1535.513,2538.00
1536.393,2787.00
1537.273,2985.00
1538.153,3322.00
1539.032,2436.00
1539.912,2648.00
1540.792,2671.00
1541.672,2671.00
1542.551,2757.00
1543.430,3241.00
1544.310,2688.00
1545.189,2567.00
1546.068,3038.00
1546.947,2759.00
1547.826,2974.00
1548.705,2657.00
1549.584,2902.00
1550.462,2608.00
1551.341,2799.00
1552.219,2729.00
1553.098,2814.00
1553.976,2881.00
1554.854,3020.00
1555.733,2846.00
1556.611,2570.00
1557.489,2433.00
1558.367,2634.00
1559.244,2784.00
1560.122,2648.00
1561.000,2725.00
1561.877,2947.00
1562.755,2508.00
1563.632,2613.00
1564.509,2949.00
1565.386,3026.00
1566.264,2426.00
1567.141,2293.00
1568.017,2779.00
1568.894,2682.00
1569.771,2708.00
1570.648,2753.00
1571.524,2639.00
1572.401,2439.00
1573.277,2461.00
1574.153,2689.00
1575.029,2534.00
1575.906,3355.00
1576.781,2830.00
1577.657,2579.00
1578.533,2894.00
1579.409,2304.00
1580.285,2626.00
1581.160,3077.00
1582.036,2839.00
1582.911,2504.00
1583.786,3005.00
1584.662,2480.00
1585.537,2646.00
1586.412,2707.00
1587.287,2509.00
1588.160,2851.00
1589.035,2345.00
1589.909,2701.00
1590.784,2638.00
1591.658,2458.00
1592.533,2727.00
1593.407,2650.00
1594.281,2570.00
1595.155,3061.00
1596.029,2564.00
1596.903,2623.00
1597.777,2557.00
1598.651,2929.00
1599.525,2367.00
1600.398,2672.00
1601.272,2598.00
1602.144,3186.00
1603.017,2658.00
1603.890,2906.00
1604.763,2753.00
1605.636,2800.00
1606.509,2349.00
1607.382,2508.00
1608.255,2720.00
1609.128,2891.00
1610.000,2624.00
1610.873,2370.00
1611.746,2589.00
1612.616,2637.00
1613.488,2247.00
1614.361,2677.00
1615.233,2600.00
1616.105,2886.00
1616.977,2611.00
1617.849,2503.00
1618.720,2986.00
1619.592,2961.00
1620.464,2761.00
1621.333,3114.00
1622.205,2650.00
1623.076,2620.00
1623.947,2651.00
1624.818,2943.00
1625.689,2769.00
1626.560,2573.00
1627.431,2744.00
1628.302,3027.00
1629.171,2786.00
1630.042,3015.00
1630.912,3655.00
1631.782,3269.00
1632.653,2486.00
1633.523,2841.00
1634.393,2911.00
1635.263,2526.00
1636.131,2663.00
1637.001,2568.00
1637.871,2319.00
1638.741,2315.00
1639.611,2412.00
1640.480,2830.00
1641.350,2525.00
1642.219,2486.00
1643.087,2203.00
1643.956,3132.00
1644.825,2949.00
1645.694,2851.00
1646.563,2836.00
1647.432,2743.00
1648.299,2733.00
1649.167,2779.00
1650.036,2479.00
1650.904,2832.00
1651.773,2891.00
1652.641,2679.00
1653.509,2846.00
1654.376,2550.00
1655.244,2693.00
1656.112,2706.00
1656.980,2671.00
1657.847,2557.00
1658.715,2829.00
1659.581,2579.00
1660.448,2889.00
1661.316,2234.00
1662.183,2710.00
1663.051,2731.00
1663.918,2719.00
1664.783,2686.00
1665.650,2760.00
1666.517,2885.00
1667.384,2698.00
1668.251,2719.00
1669.115,2893.00
1669.982,2604.00
1670.849,2963.00
1671.715,2661.00
1672.581,2819.00
1673.446,2815.00
1674.312,2681.00
1675.178,3038.00
1676.044,2762.00
1676.910,2775.00
1677.774,2735.00
1678.639,2346.00
1679.505,2649.00
1680.370,2789.00
1681.236,3302.00
1682.099,2599.00
1682.965,2692.00
1683.830,2279.00
1684.695,2491.00
1685.560,2556.00
1686.423,2866.00
1687.288,2796.00
1688.153,2726.00
1689.017,2619.00
1689.880,2760.00
1690.745,2808.00
1691.609,2532.00
1692.473,2872.00
1693.338,2878.00
1694.200,2940.00
1695.064,2684.00
1695.928,2608.00
1696.792,2717.00
1697.654,3181.00
1698.517,2704.00
1699.381,2457.00
1700.245,2372.00
1701.106,2970.00
1701.969,2603.00
1702.833,2801.00
1703.696,2598.00
1704.557,2668.00
1705.420,2581.00
1706.283,2714.00
1707.146,2803.00
1708.007,2488.00
1708.870,2489.00
1709.732,2374.00
1710.595,2588.00
1711.455,2438.00
1712.318,2617.00
1713.180,2959.00
1714.040,2733.00
1714.902,2860.00
1715.764,2676.00
1716.626,2462.00
1717.486,2675.00
1718.348,2946.00
1719.209,4912.00
1720.071,2356.00
1720.930,2444.00
1721.792,2547.00
1722.653,2541.00
1723.512,2552.00
1724.374,2641.00
1725.234,2744.00
1726.095,2695.00
1726.954,2675.00
1727.815,2825.00
1728.676,2687.00
1729.535,2904.00
1730.395,2623.00
1731.256,2598.00
1732.114,2715.00
1732.974,2166.00
1733.834,3016.00
1734.693,2843.00
1735.553,2744.00
1736.413,3107.00
1737.272,2580.00
1738.130,2617.00
1738.990,2743.00
1739.849,2561.00
1740.707,3658.00
1741.566,2740.00
1742.426,2738.00
1743.283,3070.00
1744.142,2562.00
1745.001,2385.00
1745.858,2836.00
1746.717,2777.00
1747.576,2801.00
1748.433,2836.00
1749.292,3259.00
1750.150,3345.00
1751.007,2847.00
1751.865,2895.00
1752.723,2664.00
1753.579,2595.00
1754.438,2914.00
1755.296,2919.00
1756.152,2283.00
1757.010,2353.00
1757.865,2883.00
1758.723,2360.00
1759.581,3007.00
1760.436,2691.00
1761.294,3046.00
1762.151,2682.00
1763.006,2628.00
1763.864,2339.00
1764.721,2927.00
1765.576,2705.00
1766.433,2801.00
1767.288,2564.00
1768.144,2715.00
1769.001,2651.00
1769.856,2787.00
1770.712,2943.00
1771.568,2497.00
1772.423,2627.00
1773.279,2599.00
1774.133,2594.00
1774.989,3079.00
1775.845,3078.00
1776.699,2938.00
1777.555,2703.00
1778.409,3216.00
1779.265,2618.00
1780.120,2588.00
1780.974,2688.00
1781.829,2314.00
1782.682,2769.00
1783.538,2501.00
1784.393,2733.00
1785.246,2589.00
1786.101,2785.00
1786.954,2811.00
1787.808,2871.00
1788.661,2414.00
1789.516,2623.00
1790.370,2643.00
1791.223,2878.00
1792.077,2679.00
1792.930,2789.00
1793.784,2562.00
1794.636,2715.00
1795.490,2672.00
1796.344,2718.00
1797.196,2682.00
1798.049,2873.00
1798.901,2594.00
1799.755,2929.00
1800.606,2464.00
1801.460,3217.00
1802.311,2986.00
1803.165,3045.00
1804.018,3059.00
1804.869,2796.00
1805.722,3163.00
1806.573,2733.00
1807.426,2494.00
1808.276,2707.00
1809.129,2581.00
1809.980,2895.00
1810.832,2975.00
1811.683,2605.00
1812.535,2994.00
1813.385,2599.00
1814.237,2975.00
1815.089,2767.00
1815.940,2971.00
1816.791,2620.00
1817.641,2594.00
1818.493,2822.00
1819.343,2778.00
1820.194,2555.00
1821.044,2780.00
1821.895,2925.00
1822.745,2417.00
1823.596,2589.00
1824.445,3095.00
1825.296,2809.00
1826.145,2694.00
1826.996,2891.00
1827.845,2711.00
1828.695,2755.00
1829.544,2683.00
1830.395,2721.00
1831.243,2639.00
1832.094,2487.00
1832.942,3279.00
1833.792,2862.00
1834.640,2735.00
1835.490,2703.00
1836.338,2742.00
1837.186,2599.00
1838.036,2556.00
1838.884,2719.00
1839.733,3042.00
1840.581,2873.00
1841.430,2803.00
1842.278,3065.00
1843.127,2623.00
1843.974,2409.00
1844.823,3135.00
1845.671,2851.00
1846.519,2723.00
1847.366,2746.00
1848.213,2379.00
1849.062,2519.00
1849.909,2446.00
1850.757,3379.00
1851.604,2829.00
1852.452,2622.00
1853.298,2883.00
1854.146,2773.00
1854.993,2731.00
1855.839,3187.00
1856.687,2793.00
1857.532,2802.00
1858.380,2731.00
1859.226,2754.00
1860.073,2850.00
1860.919,2546.00
1861.765,2564.00
1862.612,2934.00
1863.457,2940.00
1864.304,2632.00
1865.150,2844.00
1865.995,2688.00
1866.842,2852.00
1867.686,2896.00
1868.533,2749.00
1869.378,2736.00
1870.223,2724.00
1871.069,2668.00
1871.914,2720.00
1872.760,2682.00
1873.604,2505.00
1874.448,2864.00
1875.294,2872.00
1876.139,2629.00
1876.984,2816.00
1877.828,2374.00
1878.672,2236.00
1879.518,2600.00
1880.361,2903.00
1881.205,2845.00
1882.050,2509.00
1882.894,3220.00
1883.739,2604.00
1884.582,2502.00
1885.425,2539.00
1886.270,2943.00
1887.113,2457.00
1887.956,2820.00
1888.801,2772.00
1889.644,2515.00
1890.486,2307.00
1891.331,2651.00
1892.173,2768.00
1893.017,2764.00
1893.860,3026.00
1894.702,3014.00
1895.546,2711.00
1896.388,3429.00
1897.230,3076.00
1898.074,2616.00
1898.916,2544.00
1899.757,2519.00
1900.601,3399.00
1901.443,2956.00
1902.284,3021.00
1903.125,3177.00
1903.969,2899.00
1904.810,2922.00
1905.651,2784.00
1906.494,3039.00
1907.335,3134.00
1908.176,2834.00
1909.018,2804.00
1909.859,2657.00
1910.700,2574.00
1911.542,3244.00
1912.383,2797.00
1913.223,2349.00
1914.064,2879.00
1914.906,2968.00
1915.746,3052.00
1916.586,3155.00
1917.428,2754.00
1918.268,2747.00
1919.107,2632.00
1919.947,2489.00
1920.789,2655.00
1921.628,2956.00
1922.468,2730.00
1923.309,2581.00
1924.148,3034.00
1924.988,2802.00
1925.827,2724.00
1926.667,2629.00
1927.507,2742.00
1928.345,2545.00
1929.184,2920.00
1930.025,2517.00
1930.864,2983.00
1931.702,2997.00
1932.541,2666.00
1933.381,2893.00
1934.219,2895.00
1935.057,2970.00
1935.896,2434.00
1936.735,2696.00
1937.573,2642.00
1938.411,2515.00
1939.249,2892.00
1940.089,2645.00
1940.927,2985.00
1941.764,2992.00
1942.602,2658.00
1943.439,2616.00
1944.278,2662.00
1945.115,2659.00
1945.953,2465.00
1946.790,2817.00
1947.628,3049.00
1948.465,2860.00
1949.302,2887.00
1950.139,2834.00
1950.976,2598.00
1951.814,2875.00
1952.651,2764.00
1953.487,2535.00
1954.323,2973.00
1955.160,2752.00
1955.998,3074.00
1956.834,2712.00
1957.670,2803.00
1958.506,2959.00
1959.342,2832.00
1960.177,2776.00
1961.015,2885.00
1961.850,2762.00
1962.686,2795.00
1963.521,2808.00
1964.357,2965.00
1965.192,2514.00
1966.029,2840.00
1966.864,2675.00
1967.699,2928.00
1968.534,2734.00
1969.369,3032.00
1970.204,2684.00
1971.040,2767.00
1971.875,2657.00
1972.709,2764.00
1973.544,2576.00
1974.378,2609.00
1975.212,2850.00
1976.047,2615.00
1976.882,2592.00
1977.716,3173.00
1978.550,2459.00
1979.384,2688.00
1980.218,2682.00
1981.052,2668.00
1981.885,2726.00
1982.719,2771.00
1983.554,2884.00
1984.388,3069.00
1985.221,2817.00
1986.054,2973.00
1986.887,2790.00
1987.720,2609.00
1988.553,3038.00
1989.386,2847.00
1990.219,2858.00
1991.053,3069.00
1991.886,2599.00
1992.719,2960.00
1993.551,2294.00
1994.383,2908.00
1995.216,2650.00
1996.048,2455.00
1996.880,2924.00
1997.712,2589.00
1998.544,2761.00
1999.376,2772.00
2000.208,3054.00
2001.040,3184.00
2001.873,2571.00
2002.705,2563.00
2003.536,2804.00
2004.367,2828.00
2005.199,2797.00
2006.030,2642.00
2006.861,2530.00
2007.692,2756.00
2008.523,2656.00
2009.354,2795.00
2010.185,2532.00
2011.016,2873.00
2011.846,2973.00
2012.677,2712.00
2013.507,3102.00
2014.338,2968.00
2015.168,2707.00
2015.999,3247.00
2016.829,2676.00
2017.659,2940.00
2018.489,3249.00
2019.319,2562.00
2020.149,2943.00
2020.980,2776.00
2021.810,2561.00
2022.639,2631.00
2023.469,2616.00
2024.298,2430.00
2025.128,2356.00
2025.957,2326.00
2026.786,2171.00
2027.615,2433.00
2028.444,2577.00
2029.273,2744.00
2030.102,2353.00
2030.931,2574.00
2031.758,2910.00
2032.586,2559.00
2033.415,2601.00
2034.243,2243.00
2035.072,2024.00
2035.900,2513.00
2036.728,2303.00
2037.556,2375.00
2038.385,2386.00
2039.213,2193.00
2040.040,2198.00
2040.868,2142.00
2041.696,2190.00
2042.524,2200.00
2043.351,2414.00
2044.179,2209.00
2045.006,2009.00
