RamanScope Measure Spectrum Data V3.72

<< MEASURE CONDITION >>
Exposure Type,Aver
Exposure Time [sec],15
Exposure Count,30
Measure Time,2023/07/11 21:29:36
Data Name,""
Data Comment,""
Rayleigh Wave[nm],532.0

<< SAMPLE SPECTRUM >>
Wave[dcm-1],No488
146.591,1596.73
147.626,1838.53
148.664,2117.50
149.699,2425.33
150.737,2659.70
151.772,2931.17
152.809,3192.37
153.846,3395.70
154.881,3601.83
155.918,3741.93
156.953,3878.20
157.989,3988.00
159.026,4136.13
160.060,4225.77
161.096,4290.93
162.130,4439.27
163.167,4517.90
164.200,4529.27
165.236,4642.70
166.272,4709.53
167.305,4787.40
168.341,4867.20
169.374,4917.27
170.409,4985.77
171.445,5018.23
172.477,5079.20
173.512,5126.10
174.545,5205.00
175.580,5212.60
176.614,5233.87
177.647,5258.50
178.681,5269.63
179.713,5259.23
180.747,5238.20
181.781,5225.97
182.813,5285.70
183.847,5324.87
184.878,5248.57
185.912,5304.73
186.945,5365.60
187.976,5411.37
189.010,5413.30
190.043,5437.73
191.073,5546.07
192.106,5514.63
193.137,5571.00
194.170,5637.53
195.202,5663.90
196.232,5715.17
197.265,5726.43
198.297,5829.63
199.327,5857.53
200.359,5852.83
201.388,5925.03
202.420,5961.47
203.452,5979.93
204.481,6027.27
205.512,6044.17
206.544,6099.13
207.573,6176.63
208.604,6176.20
209.635,6212.00
210.663,6275.13
211.694,6367.87
212.725,6300.33
213.753,6401.70
214.783,6355.30
215.813,6318.07
216.841,6342.23
217.871,6361.53
218.899,6297.00
219.929,6304.23
220.959,6305.50
221.986,6244.37
223.016,6197.40
224.045,6138.87
225.072,6089.23
226.101,6057.43
227.130,6039.23
228.157,6053.23
229.185,5974.63
230.214,5973.17
231.241,5941.27
232.269,5911.43
233.297,5896.07
234.323,5901.27
235.351,5886.63
236.379,5858.60
237.407,5878.33
238.433,5859.63
239.460,5835.77
240.488,5878.30
241.513,5908.63
242.540,5892.87
243.568,5897.10
244.592,5898.43
245.619,5862.17
246.646,5902.33
247.671,5905.33
248.697,6005.10
249.724,5973.73
250.748,6015.23
251.774,5957.47
252.801,6017.83
253.827,5968.13
254.850,6037.57
255.876,6051.67
256.902,6057.13
257.925,6049.00
258.951,6152.00
259.976,6175.27
260.999,6186.30
262.024,6219.13
263.049,6262.93
264.074,6262.73
265.097,6291.30
266.122,6301.50
267.146,6352.83
268.168,6288.03
269.193,6386.93
270.217,6351.07
271.241,6408.60
272.263,6352.33
273.287,6432.07
274.311,6411.30
275.332,6435.47
276.356,6436.17
277.379,6303.30
278.402,6341.90
279.424,6347.90
280.447,6314.47
281.470,6269.63
282.492,6258.70
283.513,6201.67
284.536,6179.10
285.558,6190.43
286.581,6121.77
287.601,6063.97
288.623,6057.63
289.645,6003.57
290.665,6038.60
291.687,6006.80
292.709,5900.47
293.730,5849.17
294.750,5890.73
295.771,5924.93
296.792,5867.83
297.813,5827.27
298.832,5755.80
299.853,5784.40
300.874,5773.73
301.895,5729.83
302.913,5720.83
303.934,5676.17
304.954,5731.80
305.975,5767.50
306.993,5665.13
308.013,5637.10
309.033,5641.57
310.052,5623.63
311.072,5636.60
312.090,5652.27
313.109,5634.00
314.129,5615.57
315.148,5630.10
316.165,5656.27
317.184,5605.37
318.203,5604.37
319.222,5549.77
320.238,5609.30
321.257,5595.10
322.275,5595.40
323.294,5564.10
324.312,5545.90
325.328,5593.27
326.346,5604.90
327.364,5537.07
328.382,5619.97
329.397,5530.80
330.415,5572.33
331.432,5570.93
332.450,5604.53
333.467,5533.23
334.482,5519.77
335.499,5517.37
336.516,5551.90
337.533,5564.63
338.547,5500.70
339.564,5486.73
340.580,5528.53
341.597,5491.43
342.613,5479.70
343.627,5500.17
344.643,5482.93
345.659,5441.33
346.675,5477.93
347.690,5473.53
348.704,5426.63
349.719,5445.50
350.735,5472.47
351.750,5401.07
352.765,5474.10
353.778,5447.30
354.793,5437.27
355.808,5461.83
356.822,5422.37
357.837,5458.47
358.851,5480.93
359.864,5455.13
360.878,5450.63
361.892,5470.43
362.906,5436.97
363.920,5480.07
364.932,5446.17
365.945,5456.90
366.959,5471.90
367.972,5524.60
368.986,5508.13
369.999,5453.90
371.010,5452.47
372.023,5491.07
373.036,5513.37
374.049,5480.57
375.061,5453.97
376.072,5469.50
377.084,5473.90
378.097,5523.40
379.109,5512.93
380.121,5471.83
381.133,5475.63
382.143,5477.03
383.155,5473.57
384.166,5498.83
385.178,5424.77
386.189,5427.60
387.201,5441.27
388.212,5477.20
389.221,5456.27
390.232,5414.43
391.243,5404.30
392.254,5387.03
393.264,5404.03
394.275,5372.77
395.283,5352.87
396.294,5319.83
397.304,5328.57
398.314,5305.43
399.324,5331.27
400.334,5281.00
401.344,5254.13
402.351,5254.03
403.361,5265.47
404.370,5292.47
405.380,5243.80
406.389,5194.57
407.398,5178.17
408.407,5204.77
409.414,4939.33
410.423,5165.47
411.431,5095.57
412.440,5066.47
413.448,5115.53
414.457,5128.37
415.465,5082.97
416.471,5081.50
417.479,5032.47
418.487,5089.47
419.495,5026.20
420.503,5046.20
421.510,5061.03
422.518,4968.90
423.525,4995.30
424.530,5008.83
425.537,4986.90
426.544,4977.37
427.551,4971.00
428.558,4966.17
429.565,4950.50
430.571,4942.20
431.578,4879.07
432.582,4871.07
433.588,4950.43
434.595,4925.13
435.601,4903.07
436.607,4808.40
437.612,4867.20
438.618,4885.60
439.624,4881.37
440.627,4828.57
441.633,4846.30
442.638,4824.03
443.643,4806.03
444.648,4847.37
445.653,4797.17
446.658,4790.00
447.663,4793.53
448.667,4799.60
449.672,4769.37
450.674,4828.03
451.678,4772.30
452.682,4757.57
453.687,4749.00
454.690,4762.93
455.694,4783.50
456.698,4758.53
457.702,4762.87
458.705,4742.53
459.709,4747.40
460.710,4734.20
461.713,4754.93
462.716,4729.53
463.719,4717.00
464.722,4735.77
465.725,4750.03
466.727,4742.37
467.730,4735.53
468.732,4670.20
469.735,4700.87
470.737,4706.03
471.737,4736.00
472.739,4632.00
473.741,4617.23
474.742,4686.23
475.744,4667.43
476.746,4662.67
477.747,4649.73
478.748,4631.43
479.750,4634.67
480.751,4644.10
481.752,4674.90
482.753,4608.67
483.751,4587.57
484.752,4600.50
485.753,4576.53
486.753,4620.57
487.753,4613.77
488.754,4568.13
489.754,4535.33
490.754,4547.93
491.754,4562.70
492.754,4543.67
493.753,4506.27
494.753,4508.63
495.752,4526.70
496.752,4554.40
497.749,4533.37
498.748,4480.53
499.747,4481.77
500.746,4512.87
501.745,4512.40
502.744,4506.10
503.742,4481.90
504.741,4444.13
505.739,4462.00
506.737,4469.40
507.735,4505.13
508.734,4434.50
509.732,4429.83
510.729,4419.80
511.727,4451.07
512.725,4427.53
513.720,4411.00
514.718,4362.00
515.715,4377.73
516.712,4399.37
517.709,4454.93
518.706,4409.80
519.703,4401.20
520.700,4379.17
521.696,4396.47
522.693,4425.03
523.689,4372.37
524.686,4405.50
525.682,4377.77
526.678,4385.23
527.674,4395.20
528.670,4413.87
529.666,4409.37
530.661,4381.33
531.657,4223.20
532.652,4392.43
533.648,4367.97
534.641,4345.83
535.636,4294.50
536.631,4391.57
537.626,4367.70
538.621,4396.70
539.616,4322.63
540.610,4311.30
541.605,4301.67
542.599,4341.17
543.593,4293.77
544.587,4276.67
545.581,4283.73
546.575,4227.90
547.569,4267.83
548.563,4281.43
549.557,4213.00
550.550,4182.13
551.543,4139.87
552.537,4174.33
553.530,4143.33
554.523,4184.30
555.516,4153.60
556.509,4091.80
557.502,4102.00
558.494,4072.23
559.487,4073.97
560.479,4043.77
561.472,4020.00
562.464,4066.93
563.456,3980.20
564.448,4035.17
565.440,3999.90
566.432,3971.47
567.423,3939.87
568.415,3953.07
569.404,3955.53
570.396,3898.60
571.387,3882.50
572.378,3882.10
573.369,3903.30
574.360,3898.50
575.351,3874.57
576.341,3827.30
577.332,3839.23
578.323,3830.17
579.313,3814.53
580.303,3781.37
581.293,3765.37
582.283,3766.33
583.273,3738.20
584.263,3708.27
585.253,3735.97
586.243,3728.53
587.232,3685.60
588.222,3633.83
589.211,3646.37
590.200,3683.03
591.189,3665.77
592.178,3589.90
593.167,3643.37
594.156,3587.90
595.145,3625.70
596.133,3583.67
597.122,3514.40
598.110,3550.40
599.098,3513.37
600.086,3490.10
601.074,3518.97
602.062,3517.00
603.050,3417.40
604.038,3423.70
605.025,3459.43
606.013,3463.90
607.000,3463.30
607.987,3385.43
608.975,3374.63
609.962,3407.80
610.949,3387.57
611.936,3372.37
612.922,3364.37
613.909,3378.00
614.895,3333.53
615.882,3346.47
616.868,3290.77
617.854,3328.77
618.841,3286.83
619.826,3301.60
620.812,3302.17
621.798,3308.57
622.784,3260.80
623.769,3244.47
624.755,3223.00
625.740,3269.50
626.725,3247.40
627.711,3212.73
628.698,3195.27
629.683,3190.03
630.667,3190.97
631.652,3186.77
632.637,3175.80
633.621,3151.80
634.606,3161.57
635.590,3135.83
636.574,3175.97
637.558,3133.00
638.542,3108.57
639.526,3088.97
640.510,3097.40
641.493,3093.60
642.477,3124.73
643.460,3102.57
644.444,3079.33
645.427,3054.90
646.410,3043.27
647.393,3079.93
648.376,3024.43
649.359,3013.33
650.341,2994.97
651.324,2988.03
652.307,3028.40
653.289,3003.90
654.271,3035.13
655.253,3001.17
656.235,2932.67
657.217,2988.80
658.199,2946.63
659.181,2962.17
660.163,2974.10
661.144,2957.87
662.126,2924.23
663.107,2940.00
664.088,2922.50
665.069,2892.43
666.050,2882.93
667.033,2875.97
668.014,2908.40
668.995,2852.73
669.975,2832.80
670.956,2817.13
671.936,2858.67
672.916,2782.23
673.896,2854.60
674.876,2812.77
675.856,2770.13
676.836,2768.33
677.816,2763.73
678.795,2833.53
679.775,2783.90
680.754,2723.93
681.734,2754.67
682.713,2753.13
683.692,2728.97
684.671,2709.43
685.650,2705.20
686.629,2703.27
687.607,2664.17
688.586,2686.57
689.564,2656.23
690.543,2718.50
691.523,2623.20
692.501,2636.70
693.479,2647.17
694.457,2640.13
695.435,2636.97
696.413,2597.10
697.390,2574.97
698.368,2616.63
699.345,2635.93
700.322,2655.43
701.300,2592.30
702.277,2538.80
703.254,2567.83
704.231,2564.67
705.207,2581.73
706.184,2573.90
707.161,2548.27
708.137,2584.37
709.113,2555.87
710.090,2558.47
711.068,2548.50
712.044,2521.77
713.020,2531.57
713.996,2545.07
714.971,2536.27
715.947,2537.50
716.922,2539.83
717.898,2489.37
718.873,2479.97
719.848,2491.27
720.823,2506.60
721.798,2478.00
722.773,2536.30
723.748,2464.00
724.723,2499.03
725.697,2485.33
726.672,2438.60
727.646,2491.13
728.622,2447.67
729.596,2441.40
730.570,2464.17
731.544,2455.93
732.518,2507.97
733.492,2438.37
734.466,2452.13
735.439,2436.73
736.413,2438.13
737.386,2439.03
738.359,2412.00
739.332,2451.73
740.305,2420.87
741.278,2399.50
742.251,2380.30
743.224,2386.57
744.196,2415.57
745.171,2399.77
746.143,2347.57
747.115,2379.47
748.087,2375.90
749.059,2374.00
750.031,2388.20
751.003,2364.83
751.975,2383.27
752.947,2326.67
753.918,2360.23
754.890,2351.37
755.861,2337.60
756.832,2334.67
757.803,2366.53
758.774,2309.67
759.747,2310.07
760.718,2322.80
761.689,2291.77
762.659,2288.27
763.630,2278.60
764.600,2270.90
765.570,2286.10
766.540,2223.70
767.510,2280.13
768.480,2278.67
769.450,2250.33
770.420,2247.83
771.390,2229.33
772.359,2246.37
773.329,2248.23
774.300,2216.80
775.269,2202.20
776.238,2197.43
777.207,2207.20
778.176,2188.17
779.145,2182.00
780.114,2146.73
781.083,2176.90
782.051,2174.93
783.019,2125.80
783.988,2125.43
784.956,2141.93
785.924,2120.77
786.894,2094.57
787.862,2108.87
788.830,2093.60
789.797,2055.60
790.765,2065.17
791.732,2052.07
792.700,2073.80
793.667,2028.23
794.634,2053.83
795.601,2052.93
796.568,2057.40
797.535,2046.73
798.502,2017.60
799.468,2065.53
800.437,2002.90
801.403,2039.53
802.370,1960.83
803.336,2019.03
804.302,2044.07
805.268,2024.00
806.234,2006.30
807.200,1973.33
808.166,1992.30
809.131,1976.17
810.097,1991.17
811.062,1950.20
812.027,1986.83
812.994,1939.23
813.960,1930.87
814.925,1987.40
815.889,1943.30
816.854,1932.87
817.819,1976.17
818.783,1950.60
819.748,1909.00
820.712,1938.23
821.677,1940.80
822.641,1925.87
823.605,1946.30
824.571,1918.57
825.534,1959.60
826.498,1921.67
827.462,1953.60
828.425,1938.60
829.389,1915.53
830.352,1992.50
831.315,1929.00
832.279,1930.37
833.242,1945.93
834.204,1953.23
835.167,1936.43
836.132,1986.37
837.095,1982.60
838.057,1962.70
839.020,1926.70
839.982,2002.77
840.944,1970.83
841.906,1984.13
842.868,1985.17
843.830,1978.43
844.792,2011.03
845.753,1945.50
846.715,2012.03
847.679,1972.00
848.640,1969.53
849.601,2026.30
850.562,2009.87
851.523,2069.80
852.484,1999.77
853.445,1998.40
854.406,2020.90
855.367,2008.23
856.327,2089.03
857.288,2041.77
858.248,2024.87
859.210,2036.93
860.170,2071.80
861.130,2079.07
862.090,2050.50
863.050,2076.70
864.010,2064.10
864.969,2087.80
865.929,2092.37
866.888,2086.73
867.848,2089.97
868.807,2045.53
869.766,2118.10
870.727,2097.80
871.686,2119.60
872.645,2130.43
873.604,2105.17
874.562,2124.93
875.521,2133.30
876.479,2117.60
877.437,2179.53
878.396,2232.33
879.354,2214.57
880.312,2177.17
881.270,2189.23
882.229,2218.90
883.187,2186.90
884.145,2215.83
885.102,2207.03
886.059,2233.20
887.017,2254.47
887.974,2252.47
888.931,2250.87
889.888,2204.63
890.845,2265.93
891.802,2275.63
892.758,2256.43
893.717,2308.97
894.673,2253.83
895.630,2317.57
896.586,2332.60
897.542,2307.80
898.498,2325.70
899.454,2355.30
900.410,2366.27
901.366,2331.37
902.321,2366.90
903.277,2323.97
904.232,2416.87
905.189,2422.40
906.145,2393.67
907.100,2409.17
908.055,2415.83
909.010,2418.57
909.965,2449.37
910.919,2450.30
911.874,2419.77
912.828,2437.83
913.783,2426.33
914.737,2466.57
915.693,2531.60
916.648,2463.63
917.602,2478.80
918.555,2490.43
919.509,2502.87
920.463,2506.33
921.417,2494.90
922.370,2475.23
923.324,2519.77
924.277,2521.57
925.230,2521.67
926.183,2526.73
927.138,2557.33
928.091,2508.27
929.044,2540.93
929.996,2560.27
930.949,2594.30
931.902,2572.83
932.854,2551.57
933.806,2575.27
934.758,2575.73
935.711,2547.87
936.663,2555.43
937.614,2605.80
938.568,2571.57
939.520,2546.10
940.471,2574.17
941.423,2562.50
942.374,2568.00
943.326,2541.77
944.277,2496.63
945.228,2540.37
946.179,2548.73
947.130,2554.00
948.080,2549.27
949.031,2525.73
949.984,2539.87
950.934,2514.60
951.884,2490.20
952.835,2483.33
953.785,2491.60
954.735,2446.37
955.685,2477.57
956.635,2488.57
957.585,2529.70
958.534,2468.77
959.484,2437.43
960.433,2463.07
961.383,2415.90
962.334,2389.67
963.283,2416.10
964.232,2398.53
965.181,2371.70
966.130,2379.43
967.079,2437.83
968.027,2392.53
968.976,2368.07
969.924,2361.77
970.873,2359.40
971.821,2343.60
972.769,2334.03
973.719,2330.53
974.667,2320.40
975.615,2295.97
976.562,2268.53
977.510,2289.67
978.458,2323.53
979.405,2285.03
980.352,2277.90
981.300,2289.30
982.247,2298.33
983.194,2262.73
984.141,2192.57
985.088,2218.30
986.036,2177.53
986.983,2220.67
987.930,2167.83
988.876,2178.43
989.822,2158.57
990.769,2122.93
991.715,2158.10
992.661,2111.90
993.607,2168.03
994.553,2111.30
995.498,2108.90
996.444,2076.07
997.389,2084.23
998.337,2082.90
999.282,2145.03
1000.227,2100.03
1001.173,2052.23
1002.118,2083.10
1003.062,2073.20
1004.007,2065.80
1004.952,2037.20
1005.897,2042.33
1006.841,2017.53
1007.786,2021.90
1008.730,1975.97
1009.674,2052.40
1010.618,2004.23
1011.564,2042.53
1012.508,2010.77
1013.452,2029.33
1014.396,1990.00
1015.339,2027.73
1016.283,1971.03
1017.226,1960.90
1018.170,1959.70
1019.113,1947.40
1020.056,1971.63
1020.999,1965.87
1021.942,1961.90
1022.885,1916.67
1023.828,1953.50
1024.770,1959.60
1025.715,1954.77
1026.657,1941.83
1027.600,1934.87
1028.542,1937.90
1029.484,1954.37
1030.426,1898.07
1031.368,1973.07
1032.310,1923.00
1033.251,1913.07
1034.193,1933.77
1035.135,1916.80
1036.076,1898.23
1037.017,1911.63
1037.959,1891.47
1038.900,1897.17
1039.843,1924.87
1040.784,1867.30
1041.725,1856.67
1042.665,1901.73
1043.606,1909.33
1044.547,1903.40
1045.487,1927.83
1046.427,1900.93
1047.368,1889.90
1048.308,1864.10
1049.248,1850.77
1050.188,1844.53
1051.128,1872.57
1052.067,1901.20
1053.007,1852.90
1053.947,1869.70
1054.886,1858.67
1055.827,1901.03
1056.766,1871.63
1057.706,1914.10
1058.645,1878.23
1059.584,1865.47
1060.522,1878.87
1061.461,1864.43
1062.400,1840.57
1063.338,1852.33
1064.277,1882.87
1065.215,1844.30
1066.154,1868.87
1067.092,1858.73
1068.030,1851.30
1068.968,1864.30
1069.906,1854.80
1070.843,1812.07
1071.781,1861.07
1072.720,1841.30
1073.658,1830.33
1074.595,1854.17
1075.533,1860.63
1076.470,1829.03
1077.407,1820.20
1078.344,1844.83
1079.281,1870.87
1080.217,1852.50
1081.154,1853.13
1082.091,1810.83
1083.027,1819.63
1083.964,1850.07
1084.900,1852.47
1085.836,1820.87
1086.772,1813.87
1087.708,1840.33
1088.644,1793.50
1089.580,1801.33
1090.515,1804.20
1091.451,1761.27
1092.388,1792.63
1093.324,1746.67
1094.259,1752.93
1095.194,1794.43
1096.129,1778.97
1097.064,1766.87
1097.999,1744.40
1098.934,1754.33
1099.869,1717.83
1100.803,1738.13
1101.738,1741.17
1102.672,1723.10
1103.607,1725.17
1104.541,1675.57
1105.475,1702.33
1106.409,1688.93
1107.343,1667.43
1108.277,1727.67
1109.210,1713.00
1110.144,1691.37
1111.078,1697.13
1112.011,1636.50
1112.944,1645.57
1113.878,1671.67
1114.811,1630.37
1115.744,1621.93
1116.678,1609.87
1117.611,1637.23
1118.544,1596.30
1119.477,1611.70
1120.409,1587.50
1121.342,1626.30
1122.274,1566.83
1123.206,1562.13
1124.138,1605.50
1125.070,1600.00
1126.002,1584.37
1126.934,1552.20
1127.866,1566.30
1128.798,1511.97
1129.729,1549.80
1130.661,1522.20
1131.592,1492.37
1132.523,1514.87
1133.454,1476.37
1134.385,1511.03
1135.317,1493.23
1136.247,1469.27
1137.178,1552.30
1138.109,1487.47
1139.039,1501.53
1139.970,1482.77
1140.900,1474.90
1141.831,1476.90
1142.761,1464.20
1143.691,1423.73
1144.621,1445.67
1145.551,1458.97
1146.480,1443.00
1147.410,1432.77
1148.340,1459.37
1149.269,1428.97
1150.199,1403.17
1151.128,1373.13
1152.057,1410.20
1152.979,1408.63
1153.898,1412.13
1154.819,1380.97
1155.739,1383.97
1156.658,1381.63
1157.579,1409.47
1158.498,1407.47
1159.419,1403.37
1160.338,1374.57
1161.256,1373.47
1162.177,1343.23
1163.095,1366.13
1164.016,1369.57
1164.934,1362.53
1165.852,1327.13
1166.772,1333.63
1167.690,1321.07
1168.610,1349.30
1169.528,1357.30
1170.446,1370.57
1171.365,1380.07
1172.283,1327.40
1173.202,1325.00
1174.120,1330.73
1175.037,1341.47
1175.956,1294.03
1176.873,1333.93
1177.792,1275.43
1178.709,1320.53
1179.626,1301.43
1180.544,1318.77
1181.461,1298.47
1182.379,1319.40
1183.296,1286.40
1184.212,1265.80
1185.130,1233.77
1186.046,1310.33
1186.962,1286.30
1187.880,1281.83
1188.796,1264.33
1189.714,1311.13
1190.629,1283.30
1191.545,1268.57
1192.462,1256.97
1193.378,1280.53
1194.295,1286.57
1195.210,1263.30
1196.125,1299.07
1197.042,1269.77
1197.957,1263.03
1198.872,1257.50
1199.788,1247.90
1200.703,1274.60
1201.619,1245.30
1202.534,1253.40
1203.448,1270.37
1204.364,1239.17
1205.278,1262.20
1206.192,1262.30
1207.108,1209.03
1208.022,1244.23
1208.938,1225.30
1209.851,1264.13
1210.765,1274.07
1211.680,1218.10
1212.594,1254.67
1213.507,1230.90
1214.422,1257.13
1215.335,1265.83
1216.248,1247.17
1217.163,1234.17
1218.076,1215.40
1218.990,1267.83
1219.903,1278.87
1220.816,1261.63
1221.730,1231.47
1222.642,1223.83
1223.554,1248.70
1224.469,1279.17
1225.380,1228.17
1226.292,1275.20
1227.206,1248.73
1228.118,1296.30
1229.032,1238.63
1229.943,1215.23
1230.855,1233.80
1231.768,1234.47
1232.679,1204.83
1233.590,1236.47
1234.503,1262.10
1235.414,1232.77
1236.325,1228.57
1237.238,1267.63
1238.149,1223.07
1239.059,1250.07
1239.972,1203.13
1240.882,1200.67
1241.793,1235.70
1242.705,1263.73
1243.615,1220.63
1244.525,1231.50
1245.437,1233.43
1246.347,1245.20
1247.259,1252.80
1248.168,1242.67
1249.078,1294.80
1249.989,1272.40
1250.899,1228.77
1251.808,1278.37
1252.719,1205.77
1253.628,1213.30
1254.537,1218.23
1255.448,1240.40
1256.357,1244.57
1257.266,1285.67
1258.176,1255.63
1259.085,1206.13
1259.993,1234.10
1260.904,1248.57
1261.812,1226.67
1262.720,1224.90
1263.630,1224.77
1264.538,1207.70
1265.446,1242.17
1266.356,1252.80
1267.263,1253.73
1268.171,1223.80
1269.080,1272.47
1269.988,1214.73
1270.895,1237.80
1271.804,1219.53
1272.711,1269.13
1273.619,1247.03
1274.527,1231.97
1275.434,1249.97
1276.341,1234.27
1277.248,1213.13
1278.156,1226.57
1279.063,1240.50
1279.969,1253.87
1280.877,1254.00
1281.783,1222.10
1282.690,1236.50
1283.598,1231.23
1284.503,1216.03
1285.409,1236.13
1286.317,1261.53
1287.223,1243.47
1288.128,1217.97
1289.036,1241.60
1289.941,1248.53
1290.846,1165.63
1291.751,1221.67
1292.658,1227.00
1293.563,1248.90
1294.468,1197.13
1295.375,1209.47
1296.280,1273.13
1297.184,1212.30
1298.091,1223.57
1298.995,1200.73
1299.900,1213.43
1300.806,1207.00
1301.710,1181.63
1302.614,1195.83
1303.518,1208.93
1304.424,1200.20
1305.327,1211.73
1306.231,1138.63
1307.137,1167.30
1308.040,1159.73
1308.943,1147.63
1309.847,1178.50
1310.752,1188.63
1311.655,1163.77
1312.558,1170.90
1313.463,1178.27
1314.366,1171.90
1315.269,1160.50
1316.171,1143.50
1317.076,1151.63
1317.978,1136.90
1318.881,1136.17
1319.785,1187.00
1320.687,1103.93
1321.589,1141.03
1322.491,1138.30
1323.395,1151.33
1324.297,1111.87
1325.198,1116.53
1326.102,1167.87
1327.004,1121.20
1327.905,1099.80
1328.806,1121.90
1329.709,1156.03
1330.611,1101.47
1331.512,1124.27
1332.413,1141.33
1333.316,1100.90
1334.216,1139.17
1335.117,1114.90
1336.020,1139.43
1336.920,1108.13
1337.821,1095.73
1338.721,1076.60
1339.623,1079.17
1340.523,1081.37
1341.423,1056.03
1342.323,1084.90
1343.225,1119.10
1344.125,1117.87
1345.025,1060.47
1345.924,1099.50
1346.826,1099.53
1347.725,1061.73
1348.624,1077.30
1349.524,1077.53
1350.425,1062.53
1351.324,1053.13
1352.223,1106.50
1353.121,1075.73
1354.022,1029.73
1354.921,1061.23
1355.819,1013.57
1356.718,1083.83
1357.618,1075.20
1358.516,1055.20
1359.415,1070.97
1360.313,1061.67
1361.213,1029.53
1362.111,1048.60
1363.008,1085.57
1363.906,1071.43
1364.806,1012.57
1365.703,1047.87
1366.601,1009.30
1367.498,1077.57
1368.397,1026.90
1369.295,1021.43
1370.192,1013.97
1371.089,1047.87
1371.987,1039.37
1372.884,1003.70
1373.781,1013.80
1374.678,1056.27
1375.574,1049.43
1376.473,1026.33
1377.369,1062.70
1378.265,971.27
1379.161,1004.23
1380.059,986.97
1380.955,1018.13
1381.851,994.93
1382.747,998.23
1383.643,1000.27
1384.540,1007.40
1385.436,1026.60
1386.331,997.57
1387.227,996.23
1388.124,972.60
1389.019,1012.07
1389.914,1025.33
1390.809,975.23
1391.704,1018.57
1392.601,981.17
1393.495,969.43
1394.390,951.20
1395.285,979.67
1396.179,974.97
1397.075,964.80
1397.969,959.97
1398.864,1012.43
1399.758,980.23
1400.652,973.63
1401.547,969.67
1402.441,982.40
1403.335,961.30
1404.229,1025.13
1405.122,951.23
1406.017,955.77
1406.911,963.00
1407.804,953.63
1408.697,991.93
1409.590,947.50
1410.485,976.50
1411.378,952.60
1412.271,943.37
1413.163,938.20
1414.056,964.03
1414.949,940.27
1415.843,938.43
1416.735,976.70
1417.627,957.13
1418.520,1020.67
1419.412,947.30
1420.306,944.17
1421.197,940.23
1422.089,954.60
1422.981,962.93
1423.873,918.43
1424.764,938.93
1425.657,890.50
1426.549,940.57
1427.440,918.43
1428.331,933.07
1429.222,923.97
1430.113,959.53
1431.006,949.27
1431.897,917.80
1432.787,911.17
1433.678,925.93
1434.568,915.77
1435.459,930.17
1436.351,939.50
1437.241,891.37
1438.131,904.20
1439.021,924.73
1439.911,932.77
1440.801,931.60
1441.693,924.83
1442.583,894.07
1443.472,872.23
1444.362,938.77
1445.251,931.00
1446.140,910.27
1447.030,918.23
1447.921,919.10
1448.810,896.10
1449.699,932.53
1450.588,883.10
1451.476,891.93
1452.365,947.07
1453.254,918.90
1454.144,914.53
1455.032,909.57
1455.921,908.90
1456.809,895.03
1457.697,894.73
1458.585,885.87
1459.473,937.33
1460.361,902.20
1461.251,918.67
1462.138,904.63
1463.026,903.40
1463.913,921.83
1464.801,912.90
1465.688,876.17
1466.575,894.80
1467.463,904.57
1468.351,931.97
1469.238,855.17
1470.125,873.33
1471.012,886.33
1471.899,867.23
1472.785,847.17
1473.672,899.93
1474.558,843.43
1475.446,864.93
1476.333,919.60
1477.219,870.20
1478.105,896.30
1478.991,879.97
1479.877,867.33
1480.762,901.37
1481.648,813.17
1482.534,857.53
1483.419,850.43
1484.307,852.67
1485.192,909.33
1486.077,859.93
1486.962,884.10
1487.847,887.83
1488.732,866.47
1489.617,853.87
1490.502,845.60
1491.387,862.43
1492.271,846.93
1493.156,874.87
1494.042,880.87
1494.927,864.03
1495.811,810.87
1496.695,854.03
1497.579,859.83
1498.463,869.87
1499.347,863.10
1500.231,906.27
1501.114,865.77
1501.998,855.97
1502.881,866.70
1503.765,892.93
1504.648,825.77
1505.533,846.60
1506.417,849.27
1507.300,840.03
1508.183,874.00
1509.066,854.83
1509.948,857.27
1510.831,860.40
1511.714,838.37
1512.596,828.53
1513.479,856.97
1514.361,806.90
1515.243,873.73
1516.125,828.37
1517.008,834.07
1517.890,857.67
1518.771,838.13
1519.655,872.43
1520.537,814.47
1521.419,835.17
1522.300,882.17
1523.182,824.50
1524.063,818.60
1524.944,807.40
1525.825,804.57
1526.707,822.70
1527.588,817.20
1528.468,834.43
1529.349,793.93
1530.230,849.87
1531.111,861.93
1531.991,808.00
1532.872,798.13
1533.752,847.10
1534.632,810.20
1535.513,783.23
1536.393,824.13
1537.273,797.87
1538.153,814.13
1539.032,825.87
1539.912,778.53
1540.792,821.73
1541.672,811.83
1542.551,810.00
1543.430,809.90
1544.310,800.93
1545.189,806.23
1546.068,832.70
1546.947,805.80
1547.826,849.07
1548.705,804.60
1549.584,832.00
1550.462,770.97
1551.341,805.20
1552.219,812.13
1553.098,841.30
1553.976,816.67
1554.854,824.93
1555.733,828.47
1556.611,780.80
1557.489,815.43
1558.367,805.47
1559.244,803.67
1560.122,807.70
1561.000,769.20
1561.877,776.93
1562.755,840.90
1563.632,796.17
1564.509,778.20
1565.386,779.07
1566.264,810.97
1567.141,779.43
1568.017,786.43
1568.894,813.03
1569.771,795.90
1570.648,774.90
1571.524,751.03
1572.401,779.47
1573.277,787.50
1574.153,801.43
1575.029,788.97
1575.906,785.03
1576.781,776.77
1577.657,811.57
1578.533,764.97
1579.409,778.73
1580.285,797.97
1581.160,753.90
1582.036,762.70
1582.911,765.10
1583.786,831.17
1584.662,793.87
1585.537,747.47
1586.412,801.70
1587.287,772.67
1588.160,773.77
1589.035,779.20
1589.909,743.50
1590.784,787.53
1591.658,793.77
1592.533,791.73
1593.407,758.10
1594.281,725.37
1595.155,804.70
1596.029,782.40
1596.903,740.20
1597.777,771.20
1598.651,773.03
1599.525,761.63
1600.398,751.97
1601.272,788.90
1602.144,809.20
1603.017,780.13
1603.890,818.20
1604.763,780.77
1605.636,776.17
1606.509,748.40
1607.382,753.23
1608.255,743.13
1609.128,752.13
1610.000,739.87
1610.873,759.47
1611.746,730.23
1612.616,742.93
1613.488,747.63
1614.361,729.23
1615.233,775.30
1616.105,797.73
1616.977,740.73
1617.849,768.97
1618.720,759.67
1619.592,785.93
1620.464,746.20
1621.333,735.37
1622.205,794.17
1623.076,792.90
1623.947,748.37
1624.818,737.30
1625.689,754.63
1626.560,787.67
1627.431,748.27
1628.302,749.17
1629.171,754.57
1630.042,777.27
1630.912,715.97
1631.782,772.23
1632.653,732.40
1633.523,773.47
1634.393,778.43
1635.263,770.10
1636.131,752.37
1637.001,776.27
1637.871,737.50
1638.741,697.23
1639.611,754.50
1640.480,761.50
1641.350,784.03
1642.219,758.17
1643.087,741.40
1643.956,743.93
1644.825,746.47
1645.694,784.30
1646.563,750.57
1647.432,779.10
1648.299,725.77
1649.167,773.57
1650.036,766.13
1650.904,751.33
1651.773,716.17
1652.641,747.50
1653.509,751.30
1654.376,730.10
1655.244,729.97
1656.112,736.67
1656.980,811.40
1657.847,747.73
1658.715,748.87
1659.581,767.03
1660.448,752.77
1661.316,760.83
1662.183,786.53
1663.051,727.27
1663.918,741.40
1664.783,749.80
1665.650,728.60
1666.517,742.13
1667.384,724.63
1668.251,745.57
1669.115,740.77
1669.982,748.13
1670.849,755.00
1671.715,731.37
1672.581,776.93
1673.446,743.50
1674.312,731.07
1675.178,754.77
1676.044,726.27
1676.910,750.10
1677.774,760.50
1678.639,733.67
1679.505,741.83
1680.370,742.77
1681.236,753.03
1682.099,735.73
1682.965,749.07
1683.830,753.83
1684.695,711.00
1685.560,732.47
1686.423,708.57
1687.288,782.13
1688.153,714.80
1689.017,735.60
1689.880,717.63
1690.745,742.63
1691.609,707.87
1692.473,679.90
1693.338,696.80
1694.200,742.93
1695.064,735.60
1695.928,727.53
1696.792,704.70
1697.654,752.33
1698.517,739.30
1699.381,733.93
1700.245,692.93
1701.106,693.87
1701.969,752.37
1702.833,761.30
1703.696,692.33
1704.557,708.50
1705.420,720.80
1706.283,753.00
1707.146,730.77
1708.007,750.23
1708.870,694.07
1709.732,734.57
1710.595,732.90
1711.455,712.70
1712.318,729.73
1713.180,691.10
1714.040,711.87
1714.902,717.93
1715.764,739.63
1716.626,710.47
1717.486,705.93
1718.348,722.07
1719.209,741.67
1720.071,720.63
1720.930,751.33
1721.792,731.53
1722.653,712.77
1723.512,719.23
1724.374,700.63
1725.234,692.50
1726.095,752.60
1726.954,718.77
1727.815,707.03
1728.676,723.03
1729.535,735.00
1730.395,737.43
1731.256,762.40
1732.114,719.03
1732.974,708.07
1733.834,688.53
1734.693,730.00
1735.553,696.60
1736.413,710.80
1737.272,721.50
1738.130,711.73
1738.990,755.73
1739.849,740.97
1740.707,689.20
1741.566,656.57
1742.426,738.23
1743.283,696.60
1744.142,716.27
1745.001,707.27
1745.858,706.57
1746.717,740.70
1747.576,706.33
1748.433,722.13
1749.292,749.07
1750.150,740.57
1751.007,695.13
1751.865,716.90
1752.723,719.63
1753.579,677.90
1754.438,717.17
1755.296,697.30
1756.152,704.37
1757.010,688.43
1757.865,696.10
1758.723,702.53
1759.581,711.50
1760.436,710.10
1761.294,717.23
1762.151,700.43
1763.006,720.33
1763.864,712.20
1764.721,693.10
1765.576,701.40
1766.433,701.27
1767.288,723.73
1768.144,706.83
1769.001,732.40
1769.856,685.87
1770.712,681.77
1771.568,697.77
1772.423,724.40
1773.279,704.80
1774.133,685.73
1774.989,693.70
1775.845,689.77
1776.699,697.43
1777.555,677.73
1778.409,678.67
1779.265,676.27
1780.120,664.67
1780.974,714.77
1781.829,679.83
1782.682,713.30
1783.538,655.13
1784.393,674.23
1785.246,683.83
1786.101,718.50
1786.954,706.70
1787.808,730.50
1788.661,652.03
1789.516,652.67
1790.370,709.37
1791.223,683.37
1792.077,682.17
1792.930,668.27
1793.784,690.50
1794.636,715.70
1795.490,704.27
1796.344,726.40
1797.196,677.47
1798.049,701.63
1798.901,695.20
1799.755,681.27
1800.606,687.23
1801.460,734.20
1802.311,683.57
1803.165,650.27
1804.018,747.70
1804.869,670.30
1805.722,640.63
1806.573,711.73
1807.426,675.80
1808.276,694.87
1809.129,660.10
1809.980,645.30
1810.832,727.47
1811.683,686.93
1812.535,708.00
1813.385,667.90
1814.237,695.53
1815.089,699.10
1815.940,671.47
1816.791,674.47
1817.641,670.50
1818.493,701.20
1819.343,665.17
1820.194,693.83
1821.044,681.27
1821.895,655.47
1822.745,692.50
1823.596,668.97
1824.445,662.93
1825.296,673.07
1826.145,649.13
1826.996,671.77
1827.845,684.87
1828.695,635.40
1829.544,688.97
1830.395,658.10
1831.243,639.10
1832.094,684.30
1832.942,652.10
1833.792,722.23
1834.640,704.87
1835.490,677.30
1836.338,628.20
1837.186,670.27
1838.036,649.37
1838.884,694.63
1839.733,692.00
1840.581,659.40
1841.430,673.00
1842.278,644.47
1843.127,658.40
1843.974,643.97
1844.823,652.30
1845.671,671.47
1846.519,642.37
1847.366,668.50
1848.213,659.37
1849.062,644.63
1849.909,705.57
1850.757,673.60
1851.604,649.40
1852.452,630.87
1853.298,656.77
1854.146,687.50
1854.993,675.83
1855.839,676.83
1856.687,660.07
1857.532,687.37
1858.380,629.77
1859.226,670.97
1860.073,670.53
1860.919,679.23
1861.765,672.37
1862.612,700.67
1863.457,644.17
1864.304,687.23
1865.150,668.43
1865.995,674.73
1866.842,634.30
1867.686,659.73
1868.533,649.10
1869.378,664.27
1870.223,664.90
1871.069,645.07
1871.914,633.80
1872.760,640.30
1873.604,667.27
1874.448,650.63
1875.294,683.73
1876.139,678.90
1876.984,661.93
1877.828,677.47
1878.672,613.40
1879.518,629.37
1880.361,645.37
1881.205,667.20
1882.050,666.13
1882.894,594.13
1883.739,649.87
1884.582,680.03
1885.425,626.50
1886.270,676.77
1887.113,665.57
1887.956,637.60
1888.801,696.17
1889.644,633.47
1890.486,623.73
1891.331,697.93
1892.173,624.87
1893.017,656.87
1893.860,670.77
1894.702,644.67
1895.546,662.70
1896.388,675.50
1897.230,648.50
1898.074,650.63
1898.916,620.57
1899.757,650.70
1900.601,700.47
1901.443,618.80
1902.284,640.30
1903.125,641.53
1903.969,635.67
1904.810,650.03
1905.651,655.97
1906.494,676.70
1907.335,642.00
1908.176,622.93
1909.018,644.23
1909.859,659.70
1910.700,671.33
1911.542,655.77
1912.383,675.77
1913.223,605.87
1914.064,602.63
1914.906,643.20
1915.746,641.40
1916.586,645.00
1917.428,617.10
1918.268,673.50
1919.107,617.50
1919.947,650.27
1920.789,658.67
1921.628,616.57
1922.468,674.47
1923.309,678.63
1924.148,640.10
1924.988,643.33
1925.827,638.67
1926.667,653.53
1927.507,639.30
1928.345,662.93
1929.184,634.93
1930.025,615.13
1930.864,658.43
1931.702,628.20
1932.541,576.10
1933.381,649.40
1934.219,593.00
1935.057,643.13
1935.896,645.27
1936.735,608.47
1937.573,592.13
1938.411,658.50
1939.249,641.23
1940.089,616.37
1940.927,637.37
1941.764,650.90
1942.602,628.33
1943.439,634.17
1944.278,622.87
1945.115,627.37
1945.953,653.70
1946.790,623.13
1947.628,603.10
1948.465,678.33
1949.302,610.07
1950.139,654.83
1950.976,656.40
1951.814,608.30
1952.651,626.10
1953.487,651.57
1954.323,639.70
1955.160,625.50
1955.998,647.70
1956.834,627.70
1957.670,648.57
1958.506,656.83
1959.342,639.73
1960.177,612.27
1961.015,634.67
1961.850,625.37
1962.686,637.03
1963.521,609.07
1964.357,632.27
1965.192,610.37
1966.029,666.03
1966.864,605.03
1967.699,612.83
1968.534,684.60
1969.369,631.77
1970.204,610.70
1971.040,623.03
1971.875,623.03
1972.709,650.27
1973.544,600.87
1974.378,628.53
1975.212,606.97
1976.047,611.77
1976.882,598.03
1977.716,616.20
1978.550,593.80
1979.384,665.00
1980.218,607.67
1981.052,624.07
1981.885,584.33
1982.719,654.23
1983.554,660.03
1984.388,611.80
1985.221,617.97
1986.054,660.13
1986.887,607.50
1987.720,606.47
1988.553,625.50
1989.386,566.83
1990.219,623.83
1991.053,635.20
1991.886,608.20
1992.719,643.73
1993.551,616.07
1994.383,623.00
1995.216,598.13
1996.048,588.37
1996.880,609.03
1997.712,671.30
1998.544,586.10
1999.376,636.17
2000.208,616.17
2001.040,653.97
2001.873,594.50
2002.705,599.10
2003.536,608.00
2004.367,650.47
2005.199,588.63
2006.030,638.10
2006.861,618.13
2007.692,627.33
2008.523,647.30
2009.354,610.57
2010.185,630.43
2011.016,649.07
2011.846,593.43
2012.677,606.10
2013.507,638.47
2014.338,661.30
2015.168,596.23
2015.999,614.80
2016.829,640.60
2017.659,673.60
2018.489,624.77
2019.319,614.17
2020.149,626.30
2020.980,652.53
2021.810,633.93
2022.639,625.00
2023.469,633.10
2024.298,589.33
2025.128,651.93
2025.957,634.60
2026.786,597.97
2027.615,636.00
2028.444,626.87
2029.273,623.13
2030.102,622.63
2030.931,616.63
2031.758,662.80
2032.586,671.13
2033.415,621.73
2034.243,598.40
2035.072,622.50
2035.900,599.63
2036.728,630.60
2037.556,624.17
2038.385,609.17
2039.213,629.90
2040.040,626.27
2040.868,612.93
2041.696,631.30
2042.524,622.07
2043.351,626.07
2044.179,623.73
2045.006,622.20
2045.006,622.20

Max Intensity Wave.,276.356
Max Intensity Data,6436.17
Min Intensity Wave.,1989.386
Min Intensity Data,566.83
FWHM Wave.,404.167
FWHM Value,1.42
Pressure Wave.,690.441
Pressure Value [GPa],-9.66463
G/D Ratio,0.69748
G/D Gband Wave.,1547.820
G/D Gband Intensity,849.07
G/D Dband Wave.,1304.999
G/D Dband Intensity,1217.33

<< BACKGROUND SPECTRUM >>
Wave[dcm-1],No488
146.591,2455.00
147.626,2303.00
148.664,2237.00
149.699,2742.00
150.737,2496.00
151.772,2638.00
152.809,2619.00
153.846,2526.00
154.881,2605.00
155.918,2136.00
156.953,2524.00
157.989,2903.00
159.026,2696.00
160.060,2902.00
161.096,3185.00
162.130,2713.00
163.167,2771.00
164.200,2709.00
165.236,2889.00
166.272,2943.00
167.305,2487.00
168.341,2779.00
169.374,3062.00
170.409,3087.00
171.445,3034.00
172.477,2794.00
173.512,2659.00
174.545,2916.00
175.580,3131.00
176.614,3352.00
177.647,3081.00
178.681,3323.00
179.713,3681.00
180.747,3095.00
181.781,3016.00
182.813,3294.00
183.847,3387.00
184.878,3063.00
185.912,3311.00
186.945,3473.00
187.976,3385.00
189.010,3011.00
190.043,3159.00
191.073,3187.00
192.106,3027.00
193.137,3559.00
194.170,2795.00
195.202,3206.00
196.232,2939.00
197.265,3318.00
198.297,3383.00
199.327,3051.00
200.359,3289.00
201.388,3659.00
202.420,3196.00
203.452,3439.00
204.481,2963.00
205.512,3690.00
206.544,3403.00
207.573,3348.00
208.604,3783.00
209.635,3899.00
210.663,3260.00
211.694,3215.00
212.725,3161.00
213.753,3058.00
214.783,3763.00
215.813,3613.00
216.841,3310.00
217.871,3479.00
218.899,3237.00
219.929,3478.00
220.959,3142.00
221.986,3473.00
223.016,3047.00
224.045,3514.00
225.072,3469.00
226.101,3557.00
227.130,3578.00
228.157,3074.00
229.185,2601.00
230.214,3538.00
231.241,3143.00
232.269,2733.00
233.297,2981.00
234.323,3599.00
235.351,3085.00
236.379,3434.00
237.407,3027.00
238.433,3223.00
239.460,3471.00
240.488,3451.00
241.513,3505.00
242.540,3418.00
243.568,3547.00
244.592,3591.00
245.619,3583.00
246.646,3234.00
247.671,3281.00
248.697,3055.00
249.724,3331.00
250.748,3287.00
251.774,3337.00
252.801,3614.00
253.827,3482.00
254.850,3423.00
255.876,2951.00
256.902,3486.00
257.925,3357.00
258.951,3021.00
259.976,3070.00
260.999,3431.00
262.024,3076.00
263.049,3994.00
264.074,3447.00
265.097,3352.00
266.122,3422.00
267.146,3309.00
268.168,3605.00
269.193,3146.00
270.217,3605.00
271.241,2945.00
272.263,3231.00
273.287,3471.00
274.311,3073.00
275.332,3631.00
276.356,3127.00
277.379,3475.00
278.402,3470.00
279.424,3238.00
280.447,3187.00
281.470,2986.00
282.492,3387.00
283.513,3205.00
284.536,3528.00
285.558,3490.00
286.581,3477.00
287.601,3147.00
288.623,3095.00
289.645,3425.00
290.665,3424.00
291.687,3418.00
292.709,3463.00
293.730,3818.00
294.750,3191.00
295.771,2997.00
296.792,3384.00
297.813,3211.00
298.832,3389.00
299.853,3022.00
300.874,3307.00
301.895,3281.00
302.913,3270.00
303.934,3646.00
304.954,3320.00
305.975,3486.00
306.993,3047.00
308.013,3460.00
309.033,3328.00
310.052,3276.00
311.072,3209.00
312.090,3366.00
313.109,3612.00
314.129,3765.00
315.148,3320.00
316.165,3383.00
317.184,3608.00
318.203,3016.00
319.222,3074.00
320.238,3464.00
321.257,3130.00
322.275,2993.00
323.294,3324.00
324.312,3492.00
325.328,3592.00
326.346,3640.00
327.364,3622.00
328.382,3445.00
329.397,3477.00
330.415,3573.00
331.432,3560.00
332.450,3581.00
333.467,3854.00
334.482,2847.00
335.499,3722.00
336.516,3152.00
337.533,2814.00
338.547,3129.00
339.564,3146.00
340.580,3417.00
341.597,3305.00
342.613,3841.00
343.627,3278.00
344.643,3332.00
345.659,3466.00
346.675,3315.00
347.690,3214.00
348.704,3453.00
349.719,3176.00
350.735,3017.00
351.750,3582.00
352.765,3301.00
353.778,3311.00
354.793,3484.00
355.808,3103.00
356.822,3564.00
357.837,2906.00
358.851,3598.00
359.864,3260.00
360.878,3027.00
361.892,3261.00
362.906,3545.00
363.920,2829.00
364.932,3436.00
365.945,3415.00
366.959,3327.00
367.972,3202.00
368.986,2950.00
369.999,3756.00
371.010,3147.00
372.023,3702.00
373.036,3253.00
374.049,3761.00
375.061,3437.00
376.072,3307.00
377.084,3204.00
378.097,2959.00
379.109,3531.00
380.121,3315.00
381.133,2959.00
382.143,3500.00
383.155,3002.00
384.166,3182.00
385.178,3451.00
386.189,3542.00
387.201,3008.00
388.212,3213.00
389.221,3204.00
390.232,3319.00
391.243,3205.00
392.254,3340.00
393.264,3118.00
394.275,3548.00
395.283,3531.00
396.294,4026.00
397.304,3833.00
398.314,3461.00
399.324,3332.00
400.334,2903.00
401.344,3489.00
402.351,2927.00
403.361,3539.00
404.370,3229.00
405.380,3183.00
406.389,3691.00
407.398,3454.00
408.407,3406.00
409.414,4022.00
410.423,3630.00
411.431,3079.00
412.440,3013.00
413.448,3716.00
414.457,3152.00
415.465,3093.00
416.471,3166.00
417.479,3347.00
418.487,3072.00
419.495,3689.00
420.503,3443.00
421.510,2833.00
422.518,3507.00
423.525,3537.00
424.530,3782.00
425.537,3207.00
426.544,3575.00
427.551,3118.00
428.558,3971.00
429.565,3817.00
430.571,3186.00
431.578,3219.00
432.582,3184.00
433.588,3223.00
434.595,2858.00
435.601,3653.00
436.607,3643.00
437.612,3016.00
438.618,3674.00
439.624,3224.00
440.627,3266.00
441.633,3431.00
442.638,3988.00
443.643,3425.00
444.648,3325.00
445.653,3564.00
446.658,3203.00
447.663,3341.00
448.667,3186.00
449.672,3246.00
450.674,3257.00
451.678,3010.00
452.682,3175.00
453.687,3149.00
454.690,4016.00
455.694,3630.00
456.698,2813.00
457.702,2915.00
458.705,3066.00
459.709,3076.00
460.710,3177.00
461.713,3338.00
462.716,3371.00
463.719,3320.00
464.722,3533.00
465.725,3234.00
466.727,3104.00
467.730,3330.00
468.732,3088.00
469.735,3638.00
470.737,3229.00
471.737,3152.00
472.739,3208.00
473.741,3128.00
474.742,3381.00
475.744,3442.00
476.746,3349.00
477.747,3277.00
478.748,3504.00
479.750,3234.00
480.751,3320.00
481.752,4126.00
482.753,3410.00
483.751,3913.00
484.752,2897.00
485.753,3312.00
486.753,3152.00
487.753,3269.00
488.754,3791.00
489.754,2974.00
490.754,3680.00
491.754,3452.00
492.754,2963.00
493.753,3347.00
494.753,3213.00
495.752,3677.00
496.752,3328.00
497.749,3278.00
498.748,3170.00
499.747,3734.00
500.746,3403.00
501.745,3044.00
502.744,3024.00
503.742,3648.00
504.741,3229.00
505.739,2711.00
506.737,3189.00
507.735,3436.00
508.734,3733.00
509.732,3463.00
510.729,3683.00
511.727,3154.00
512.725,3213.00
513.720,3071.00
514.718,3627.00
515.715,2946.00
516.712,2896.00
517.709,3255.00
518.706,3174.00
519.703,3350.00
520.700,3529.00
521.696,3693.00
522.693,3195.00
523.689,3160.00
524.686,3476.00
525.682,3083.00
526.678,3855.00
527.674,3203.00
528.670,2824.00
529.666,3857.00
530.661,3819.00
531.657,4026.00
532.652,3478.00
533.648,3325.00
534.641,3562.00
535.636,3398.00
536.631,3400.00
537.626,3472.00
538.621,2994.00
539.616,2860.00
540.610,2737.00
541.605,3321.00
542.599,3344.00
543.593,3320.00
544.587,4336.00
545.581,3122.00
546.575,3370.00
547.569,3336.00
548.563,2933.00
549.557,2937.00
550.550,3052.00
551.543,3057.00
552.537,3469.00
553.530,3063.00
554.523,3023.00
555.516,3409.00
556.509,3262.00
557.502,2894.00
558.494,3539.00
559.487,3223.00
560.479,3527.00
561.472,3592.00
562.464,3408.00
563.456,3658.00
564.448,3199.00
565.440,3286.00
566.432,3744.00
567.423,3180.00
568.415,3169.00
569.404,3419.00
570.396,3113.00
571.387,3460.00
572.378,3332.00
573.369,4359.00
574.360,4062.00
575.351,3255.00
576.341,3125.00
577.332,3120.00
578.323,2919.00
579.313,3157.00
580.303,3594.00
581.293,3442.00
582.283,3260.00
583.273,3434.00
584.263,3334.00
585.253,3416.00
586.243,3489.00
587.232,2901.00
588.222,3289.00
589.211,3525.00
590.200,3340.00
591.189,3222.00
592.178,3286.00
593.167,3714.00
594.156,3594.00
595.145,3148.00
596.133,3805.00
597.122,3485.00
598.110,3520.00
599.098,3380.00
600.086,3325.00
601.074,3498.00
602.062,3091.00
603.050,3037.00
604.038,3460.00
605.025,3074.00
606.013,3532.00
607.000,3715.00
607.987,3363.00
608.975,3385.00
609.962,3028.00
610.949,3473.00
611.936,3587.00
612.922,3466.00
613.909,2919.00
614.895,3696.00
615.882,3123.00
616.868,3346.00
617.854,3009.00
618.841,3314.00
619.826,3421.00
620.812,3283.00
621.798,3040.00
622.784,3522.00
623.769,3408.00
624.755,2990.00
625.740,3327.00
626.725,2976.00
627.711,3152.00
628.698,3392.00
629.683,3089.00
630.667,3503.00
631.652,3020.00
632.637,3273.00
633.621,3517.00
634.606,3215.00
635.590,3451.00
636.574,3217.00
637.558,3398.00
638.542,3347.00
639.526,3130.00
640.510,2898.00
641.493,3374.00
642.477,3264.00
643.460,2939.00
644.444,3564.00
645.427,3600.00
646.410,2944.00
647.393,3245.00
648.376,3395.00
649.359,3201.00
650.341,3421.00
651.324,3432.00
652.307,3338.00
653.289,3246.00
654.271,3134.00
655.253,3170.00
656.235,3481.00
657.217,3556.00
658.199,2900.00
659.181,3009.00
660.163,3268.00
661.144,3110.00
662.126,3176.00
663.107,3052.00
664.088,5207.00
665.069,3565.00
666.050,3085.00
667.033,2992.00
668.014,3313.00
668.995,2842.00
669.975,3307.00
670.956,3314.00
671.936,3428.00
672.916,3283.00
673.896,3376.00
674.876,3190.00
675.856,3156.00
676.836,3013.00
677.816,2527.00
678.795,3029.00
679.775,2912.00
680.754,3345.00
681.734,3442.00
682.713,3451.00
683.692,3051.00
684.671,2921.00
685.650,3030.00
686.629,3124.00
687.607,3038.00
688.586,3026.00
689.564,3154.00
690.543,3532.00
691.523,2621.00
692.501,3116.00
693.479,3209.00
694.457,3057.00
695.435,3137.00
696.413,2942.00
697.390,2777.00
698.368,2930.00
699.345,3387.00
700.322,3190.00
701.300,3360.00
702.277,3391.00
703.254,3604.00
704.231,2819.00
705.207,3249.00
706.184,3041.00
707.161,2915.00
708.137,3085.00
709.113,3071.00
710.090,3066.00
711.068,2826.00
712.044,2858.00
713.020,3167.00
713.996,2843.00
714.971,3061.00
715.947,3097.00
716.922,3056.00
717.898,3007.00
718.873,3195.00
719.848,2994.00
720.823,2954.00
721.798,3281.00
722.773,2963.00
723.748,2774.00
724.723,3284.00
725.697,3108.00
726.672,3054.00
727.646,2715.00
728.622,3304.00
729.596,2884.00
730.570,3009.00
731.544,3372.00
732.518,3550.00
733.492,3109.00
734.466,3129.00
735.439,3303.00
736.413,3428.00
737.386,2669.00
738.359,2647.00
739.332,2734.00
740.305,3107.00
741.278,3660.00
742.251,3234.00
743.224,3019.00
744.196,2773.00
745.171,3451.00
746.143,3377.00
747.115,3045.00
748.087,2978.00
749.059,3406.00
750.031,3174.00
751.003,4067.00
751.975,3562.00
752.947,2981.00
753.918,3388.00
754.890,2808.00
755.861,3034.00
756.832,3365.00
757.803,3070.00
758.774,3136.00
759.747,2853.00
760.718,3501.00
761.689,3002.00
762.659,2861.00
763.630,3480.00
764.600,2798.00
765.570,3342.00
766.540,3489.00
767.510,3202.00
768.480,3320.00
769.450,2985.00
770.420,3084.00
771.390,2902.00
772.359,3016.00
773.329,2893.00
774.300,2727.00
775.269,3016.00
776.238,3292.00
777.207,3465.00
778.176,2735.00
779.145,3055.00
780.114,2940.00
781.083,2777.00
782.051,2982.00
783.019,2947.00
783.988,3423.00
784.956,3096.00
785.924,3262.00
786.894,3169.00
787.862,2963.00
788.830,3463.00
789.797,2888.00
790.765,2841.00
791.732,3038.00
792.700,2887.00
793.667,2871.00
794.634,3017.00
795.601,2986.00
796.568,3024.00
797.535,3091.00
798.502,3798.00
799.468,3159.00
800.437,2632.00
801.403,2872.00
802.370,3655.00
803.336,3276.00
804.302,3099.00
805.268,2637.00
806.234,2765.00
807.200,2995.00
808.166,3021.00
809.131,2806.00
810.097,3270.00
811.062,4043.00
812.027,3286.00
812.994,2850.00
813.960,2884.00
814.925,3192.00
815.889,2755.00
816.854,3328.00
817.819,2864.00
818.783,2981.00
819.748,3433.00
820.712,2999.00
821.677,2865.00
822.641,2960.00
823.605,2951.00
824.571,3482.00
825.534,2995.00
826.498,2935.00
827.462,3053.00
828.425,2871.00
829.389,3393.00
830.352,3043.00
831.315,3211.00
832.279,2751.00
833.242,3026.00
834.204,2886.00
835.167,2927.00
836.132,3327.00
837.095,2739.00
838.057,2940.00
839.020,3132.00
839.982,3087.00
840.944,2927.00
841.906,2871.00
842.868,3225.00
843.830,2769.00
844.792,3315.00
845.753,2979.00
846.715,2638.00
847.679,2863.00
848.640,2874.00
849.601,2978.00
850.562,3579.00
851.523,2900.00
852.484,2718.00
853.445,3285.00
854.406,2960.00
855.367,2986.00
856.327,3285.00
857.288,2721.00
858.248,2931.00
859.210,2937.00
860.170,2725.00
861.130,3283.00
862.090,2638.00
863.050,2834.00
864.010,2923.00
864.969,3154.00
865.929,2806.00
866.888,2753.00
867.848,3104.00
868.807,2942.00
869.766,3113.00
870.727,2981.00
871.686,3282.00
872.645,3276.00
873.604,3648.00
874.562,3014.00
875.521,3059.00
876.479,3725.00
877.437,2816.00
878.396,2768.00
879.354,3424.00
880.312,2834.00
881.270,2894.00
882.229,3392.00
883.187,2876.00
884.145,2924.00
885.102,3204.00
886.059,3069.00
887.017,3149.00
887.974,3228.00
888.931,3360.00
889.888,2792.00
890.845,2642.00
891.802,2535.00
892.758,2905.00
893.717,2636.00
894.673,2837.00
895.630,2844.00
896.586,3159.00
897.542,2954.00
898.498,2757.00
899.454,3107.00
900.410,2896.00
901.366,2926.00
902.321,2848.00
903.277,2979.00
904.232,2971.00
905.189,2673.00
906.145,2876.00
907.100,2392.00
908.055,2946.00
909.010,3207.00
909.965,2522.00
910.919,3052.00
911.874,2804.00
912.828,3025.00
913.783,3067.00
914.737,2553.00
915.693,2961.00
916.648,3161.00
917.602,3226.00
918.555,3043.00
919.509,3118.00
920.463,3006.00
921.417,3030.00
922.370,2792.00
923.324,2914.00
924.277,2905.00
925.230,3029.00
926.183,2609.00
927.138,2905.00
928.091,3229.00
929.044,3079.00
929.996,2886.00
930.949,2846.00
931.902,3054.00
932.854,3098.00
933.806,2799.00
934.758,3241.00
935.711,3289.00
936.663,3089.00
937.614,3001.00
938.568,2987.00
939.520,2623.00
940.471,2931.00
941.423,3034.00
942.374,3155.00
943.326,3010.00
944.277,2875.00
945.228,3106.00
946.179,2949.00
947.130,3310.00
948.080,2880.00
949.031,2795.00
949.984,2896.00
950.934,2970.00
951.884,2709.00
952.835,2976.00
953.785,3007.00
954.735,2872.00
955.685,2565.00
956.635,2858.00
957.585,2820.00
958.534,2859.00
959.484,3004.00
960.433,2814.00
961.383,2705.00
962.334,3284.00
963.283,3030.00
964.232,3133.00
965.181,2997.00
966.130,3058.00
967.079,2820.00
968.027,2957.00
968.976,2971.00
969.924,2846.00
970.873,3056.00
971.821,3000.00
972.769,3202.00
973.719,3115.00
974.667,2701.00
975.615,2972.00
976.562,3000.00
977.510,2649.00
978.458,2811.00
979.405,3066.00
980.352,2988.00
981.300,3224.00
982.247,3058.00
983.194,2759.00
984.141,2893.00
985.088,2980.00
986.036,3040.00
986.983,3268.00
987.930,3446.00
988.876,2570.00
989.822,3249.00
990.769,2821.00
991.715,2828.00
992.661,2673.00
993.607,3036.00
994.553,3599.00
995.498,2830.00
996.444,2517.00
997.389,3063.00
998.337,2784.00
999.282,3082.00
1000.227,2884.00
1001.173,2962.00
1002.118,2646.00
1003.062,3165.00
1004.007,2929.00
1004.952,3281.00
1005.897,3240.00
1006.841,2973.00
1007.786,2683.00
1008.730,2691.00
1009.674,3438.00
1010.618,2888.00
1011.564,2674.00
1012.508,2575.00
1013.452,3170.00
1014.396,2992.00
1015.339,2812.00
1016.283,2944.00
1017.226,2999.00
1018.170,2968.00
1019.113,3177.00
1020.056,2969.00
1020.999,2960.00
1021.942,2822.00
1022.885,3144.00
1023.828,3283.00
1024.770,2711.00
1025.715,3009.00
1026.657,2929.00
1027.600,2997.00
1028.542,3191.00
1029.484,2974.00
1030.426,3127.00
1031.368,2991.00
1032.310,2790.00
1033.251,2762.00
1034.193,2916.00
1035.135,2699.00
1036.076,2878.00
1037.017,2749.00
1037.959,3096.00
1038.900,3017.00
1039.843,3026.00
1040.784,3024.00
1041.725,3086.00
1042.665,2840.00
1043.606,2982.00
1044.547,2981.00
1045.487,2537.00
1046.427,2893.00
1047.368,3021.00
1048.308,2437.00
1049.248,2767.00
1050.188,2971.00
1051.128,2847.00
1052.067,2879.00
1053.007,2622.00
1053.947,2583.00
1054.886,2791.00
1055.827,2679.00
1056.766,3234.00
1057.706,2624.00
1058.645,2863.00
1059.584,2995.00
1060.522,3234.00
1061.461,2668.00
1062.400,2713.00
1063.338,2883.00
1064.277,2699.00
1065.215,2740.00
1066.154,2596.00
1067.092,2822.00
1068.030,2906.00
1068.968,3118.00
1069.906,3280.00
1070.843,3264.00
1071.781,2988.00
1072.720,3084.00
1073.658,3100.00
1074.595,2832.00
1075.533,2772.00
1076.470,2829.00
1077.407,3292.00
1078.344,3016.00
1079.281,3033.00
1080.217,2489.00
1081.154,2875.00
1082.091,2989.00
1083.027,2677.00
1083.964,3174.00
1084.900,2754.00
1085.836,2839.00
1086.772,3126.00
1087.708,2634.00
1088.644,3100.00
1089.580,2921.00
1090.515,2991.00
1091.451,2861.00
1092.388,2964.00
1093.324,2692.00
1094.259,3574.00
1095.194,2975.00
1096.129,2831.00
1097.064,2785.00
1097.999,3084.00
1098.934,2764.00
1099.869,2795.00
1100.803,2963.00
1101.738,2931.00
1102.672,2605.00
1103.607,3069.00
1104.541,2811.00
1105.475,2767.00
1106.409,2643.00
1107.343,2854.00
1108.277,2606.00
1109.210,2915.00
1110.144,2883.00
1111.078,2875.00
1112.011,2680.00
1112.944,3001.00
1113.878,2931.00
1114.811,2366.00
1115.744,2814.00
1116.678,2508.00
1117.611,2779.00
1118.544,2822.00
1119.477,2984.00
1120.409,2773.00
1121.342,3373.00
1122.274,2999.00
1123.206,3385.00
1124.138,2865.00
1125.070,3219.00
1126.002,3075.00
1126.934,2471.00
1127.866,2775.00
1128.798,2539.00
1129.729,2563.00
1130.661,2878.00
1131.592,2810.00
1132.523,2987.00
1133.454,3030.00
1134.385,2470.00
1135.317,2888.00
1136.247,2840.00
1137.178,3062.00
1138.109,2557.00
1139.039,3249.00
1139.970,3081.00
1140.900,2785.00
1141.831,2532.00
1142.761,2406.00
1143.691,3587.00
1144.621,2866.00
1145.551,2918.00
1146.480,2925.00
1147.410,3104.00
1148.340,2450.00
1149.269,2557.00
1150.199,2832.00
1151.128,3382.00
1152.057,2653.00
1152.979,2808.00
1153.898,2819.00
1154.819,2976.00
1155.739,2872.00
1156.658,2782.00
1157.579,2885.00
1158.498,2847.00
1159.419,2333.00
1160.338,2920.00
1161.256,2933.00
1162.177,2739.00
1163.095,2842.00
1164.016,2939.00
1164.934,3136.00
1165.852,3099.00
1166.772,2859.00
1167.690,2905.00
1168.610,2938.00
1169.528,2861.00
1170.446,2330.00
1171.365,2719.00
1172.283,2731.00
1173.202,2869.00
1174.120,2914.00
1175.037,2669.00
1175.956,2686.00
1176.873,2690.00
1177.792,2778.00
1178.709,3377.00
1179.626,2755.00
1180.544,3084.00
1181.461,2729.00
1182.379,2957.00
1183.296,2875.00
1184.212,2491.00
1185.130,2741.00
1186.046,3218.00
1186.962,2867.00
1187.880,3182.00
1188.796,2934.00
1189.714,2611.00
1190.629,3008.00
1191.545,2939.00
1192.462,2809.00
1193.378,2837.00
1194.295,2523.00
1195.210,2881.00
1196.125,2987.00
1197.042,2950.00
1197.957,2867.00
1198.872,2726.00
1199.788,2775.00
1200.703,3210.00
1201.619,2892.00
1202.534,2715.00
1203.448,2949.00
1204.364,2814.00
1205.278,2481.00
1206.192,2909.00
1207.108,3462.00
1208.022,3271.00
1208.938,2712.00
1209.851,3026.00
1210.765,3090.00
1211.680,2781.00
1212.594,2598.00
1213.507,2801.00
1214.422,3285.00
1215.335,2976.00
1216.248,2783.00
1217.163,2885.00
1218.076,3550.00
1218.990,2963.00
1219.903,2592.00
1220.816,2650.00
1221.730,2830.00
1222.642,2740.00
1223.554,2763.00
1224.469,2913.00
1225.380,2824.00
1226.292,2449.00
1227.206,3000.00
1228.118,3158.00
1229.032,2455.00
1229.943,2761.00
1230.855,2810.00
1231.768,2584.00
1232.679,2988.00
1233.590,2831.00
1234.503,3094.00
1235.414,2717.00
1236.325,2733.00
1237.238,2896.00
1238.149,2986.00
1239.059,2645.00
1239.972,3106.00
1240.882,2683.00
1241.793,3001.00
1242.705,3233.00
1243.615,2834.00
1244.525,2964.00
1245.437,2390.00
1246.347,2906.00
1247.259,3038.00
1248.168,3337.00
1249.078,3080.00
1249.989,3129.00
1250.899,2644.00
1251.808,2676.00
1252.719,2815.00
1253.628,2725.00
1254.537,3295.00
1255.448,2652.00
1256.357,2669.00
1257.266,2818.00
1258.176,2542.00
1259.085,2583.00
1259.993,2653.00
1260.904,2667.00
1261.812,2673.00
1262.720,3488.00
1263.630,3059.00
1264.538,2695.00
1265.446,2978.00
1266.356,2814.00
1267.263,3152.00
1268.171,2647.00
1269.080,2907.00
1269.988,3069.00
1270.895,2753.00
1271.804,2836.00
1272.711,3035.00
1273.619,3014.00
1274.527,2647.00
1275.434,2971.00
1276.341,2636.00
1277.248,2911.00
1278.156,3200.00
1279.063,2702.00
1279.969,2930.00
1280.877,3821.00
1281.783,3082.00
1282.690,2924.00
1283.598,2821.00
1284.503,2708.00
1285.409,2647.00
1286.317,3233.00
1287.223,3276.00
1288.128,2914.00
1289.036,2712.00
1289.941,2759.00
1290.846,2910.00
1291.751,2648.00
1292.658,2749.00
1293.563,3320.00
1294.468,2895.00
1295.375,3037.00
1296.280,3069.00
1297.184,3639.00
1298.091,2957.00
1298.995,3042.00
1299.900,3263.00
1300.806,2746.00
1301.710,2591.00
1302.614,2382.00
1303.518,3120.00
1304.424,2790.00
1305.327,3049.00
1306.231,2898.00
1307.137,3033.00
1308.040,2945.00
1308.943,2932.00
1309.847,3094.00
1310.752,3052.00
1311.655,2487.00
1312.558,2614.00
1313.463,2781.00
1314.366,2720.00
1315.269,2912.00
1316.171,2866.00
1317.076,2736.00
1317.978,2654.00
1318.881,2440.00
1319.785,2668.00
1320.687,2748.00
1321.589,2425.00
1322.491,2684.00
1323.395,2933.00
1324.297,3509.00
1325.198,3025.00
1326.102,2618.00
1327.004,2672.00
1327.905,3339.00
1328.806,2835.00
1329.709,2910.00
1330.611,2801.00
1331.512,2664.00
1332.413,3339.00
1333.316,2938.00
1334.216,3036.00
1335.117,2590.00
1336.020,2888.00
1336.920,2879.00
1337.821,2725.00
1338.721,3185.00
1339.623,2956.00
1340.523,2848.00
1341.423,2750.00
1342.323,3183.00
1343.225,2931.00
1344.125,2644.00
1345.025,2752.00
1345.924,2477.00
1346.826,3238.00
1347.725,3330.00
1348.624,3124.00
1349.524,2717.00
1350.425,2822.00
1351.324,2976.00
1352.223,3020.00
1353.121,2832.00
1354.022,3123.00
1354.921,3304.00
1355.819,3021.00
1356.718,2892.00
1357.618,2573.00
1358.516,2986.00
1359.415,3284.00
1360.313,2959.00
1361.213,2836.00
1362.111,3187.00
1363.008,3568.00
1363.906,2809.00
1364.806,2895.00
1365.703,2960.00
1366.601,2694.00
1367.498,2644.00
1368.397,3074.00
1369.295,2939.00
1370.192,2697.00
1371.089,2945.00
1371.987,2833.00
1372.884,3168.00
1373.781,2654.00
1374.678,2846.00
1375.574,2651.00
1376.473,2998.00
1377.369,3073.00
1378.265,2733.00
1379.161,2841.00
1380.059,2551.00
1380.955,2984.00
1381.851,2622.00
1382.747,2751.00
1383.643,2803.00
1384.540,2646.00
1385.436,2724.00
1386.331,2941.00
1387.227,3038.00
1388.124,3019.00
1389.019,2632.00
1389.914,2801.00
1390.809,2490.00
1391.704,3300.00
1392.601,2791.00
1393.495,3188.00
1394.390,3102.00
1395.285,3136.00
1396.179,2969.00
1397.075,2867.00
1397.969,2936.00
1398.864,2488.00
1399.758,2809.00
1400.652,2894.00
1401.547,2674.00
1402.441,2609.00
1403.335,3269.00
1404.229,2863.00
1405.122,2969.00
1406.017,2861.00
1406.911,3026.00
1407.804,3334.00
1408.697,2835.00
1409.590,2687.00
1410.485,3042.00
1411.378,2952.00
1412.271,2553.00
1413.163,2951.00
1414.056,3035.00
1414.949,3301.00
1415.843,2936.00
1416.735,2810.00
1417.627,2882.00
1418.520,2770.00
1419.412,3126.00
1420.306,3057.00
1421.197,3205.00
1422.089,3112.00
1422.981,3368.00
1423.873,3104.00
1424.764,2994.00
1425.657,2958.00
1426.549,3024.00
1427.440,3120.00
1428.331,2788.00
1429.222,2541.00
1430.113,2909.00
1431.006,3060.00
1431.897,2801.00
1432.787,2924.00
1433.678,2807.00
1434.568,2679.00
1435.459,3124.00
1436.351,3075.00
1437.241,3065.00
1438.131,3075.00
1439.021,2606.00
1439.911,2836.00
1440.801,2942.00
1441.693,3135.00
1442.583,2938.00
1443.472,2916.00
1444.362,2980.00
1445.251,2801.00
1446.140,2803.00
1447.030,3093.00
1447.921,3100.00
1448.810,2700.00
1449.699,3274.00
1450.588,2951.00
1451.476,2798.00
1452.365,2960.00
1453.254,2772.00
1454.144,2744.00
1455.032,3019.00
1455.921,2584.00
1456.809,3220.00
1457.697,2668.00
1458.585,2840.00
1459.473,2790.00
1460.361,2692.00
1461.251,2949.00
1462.138,2969.00
1463.026,2841.00
1463.913,3121.00
1464.801,2760.00
1465.688,3002.00
1466.575,2914.00
1467.463,3370.00
1468.351,2678.00
1469.238,2892.00
1470.125,2461.00
1471.012,2941.00
1471.899,2993.00
1472.785,2725.00
1473.672,2872.00
1474.558,3162.00
1475.446,3062.00
1476.333,3035.00
1477.219,2682.00
1478.105,2841.00
1478.991,2836.00
1479.877,3225.00
1480.762,2854.00
1481.648,2781.00
1482.534,3062.00
1483.419,2976.00
1484.307,3027.00
1485.192,2828.00
1486.077,2734.00
1486.962,2728.00
1487.847,2577.00
1488.732,2707.00
1489.617,2917.00
1490.502,3208.00
1491.387,3044.00
1492.271,2719.00
1493.156,2702.00
1494.042,2646.00
1494.927,3117.00
1495.811,2813.00
1496.695,3063.00
1497.579,3200.00
1498.463,2877.00
1499.347,2930.00
1500.231,2878.00
1501.114,2958.00
1501.998,3192.00
1502.881,2923.00
1503.765,3180.00
1504.648,3365.00
1505.533,3020.00
1506.417,2908.00
1507.300,2854.00
1508.183,2953.00
1509.066,2307.00
1509.948,3144.00
1510.831,3273.00
1511.714,2669.00
1512.596,3067.00
1513.479,3166.00
1514.361,3157.00
1515.243,2890.00
1516.125,3087.00
1517.008,3203.00
1517.890,2832.00
1518.771,2931.00
1519.655,3100.00
1520.537,2862.00
1521.419,2718.00
1522.300,2901.00
1523.182,3067.00
1524.063,3073.00
1524.944,3249.00
1525.825,3132.00
1526.707,2691.00
1527.588,2670.00
1528.468,2983.00
1529.349,2570.00
1530.230,2796.00
1531.111,3055.00
1531.991,2977.00
1532.872,2602.00
1533.752,2841.00
1534.632,2753.00
1535.513,2779.00
1536.393,3075.00
1537.273,3276.00
1538.153,3615.00
1539.032,2599.00
1539.912,2907.00
1540.792,2919.00
1541.672,2928.00
1542.551,3034.00
1543.430,3566.00
1544.310,2946.00
1545.189,2802.00
1546.068,3352.00
1546.947,3032.00
1547.826,3213.00
1548.705,2904.00
1549.584,3129.00
1550.462,2897.00
1551.341,3093.00
1552.219,2982.00
1553.098,3045.00
1553.976,3135.00
1554.854,3347.00
1555.733,3115.00
1556.611,2849.00
1557.489,2683.00
1558.367,2907.00
1559.244,3082.00
1560.122,2891.00
1561.000,3023.00
1561.877,3262.00
1562.755,2727.00
1563.632,2872.00
1564.509,3223.00
1565.386,3346.00
1566.264,2633.00
1567.141,2506.00
1568.017,3089.00
1568.894,2894.00
1569.771,2968.00
1570.648,3050.00
1571.524,2968.00
1572.401,2650.00
1573.277,2660.00
1574.153,2957.00
1575.029,2760.00
1575.906,3736.00
1576.781,3105.00
1577.657,2832.00
1578.533,3214.00
1579.409,2509.00
1580.285,2852.00
1581.160,3407.00
1582.036,3129.00
1582.911,2732.00
1583.786,3246.00
1584.662,2669.00
1585.537,2903.00
1586.412,2946.00
1587.287,2732.00
1588.160,3125.00
1589.035,2515.00
1589.909,2974.00
1590.784,2864.00
1591.658,2684.00
1592.533,2959.00
1593.407,2955.00
1594.281,2849.00
1595.155,3340.00
1596.029,2817.00
1596.903,2890.00
1597.777,2831.00
1598.651,3207.00
1599.525,2597.00
1600.398,2978.00
1601.272,2869.00
1602.144,3510.00
1603.017,2866.00
1603.890,3151.00
1604.763,3017.00
1605.636,3071.00
1606.509,2617.00
1607.382,2745.00
1608.255,3022.00
1609.128,3166.00
1610.000,2903.00
1610.873,2598.00
1611.746,2835.00
1612.616,2884.00
1613.488,2477.00
1614.361,2955.00
1615.233,2860.00
1616.105,3135.00
1616.977,2844.00
1617.849,2734.00
1618.720,3274.00
1619.592,3232.00
1620.464,3030.00
1621.333,3476.00
1622.205,2889.00
1623.076,2872.00
1623.947,2929.00
1624.818,3216.00
1625.689,3060.00
1626.560,2795.00
1627.431,2992.00
1628.302,3386.00
1629.171,3061.00
1630.042,3253.00
1630.912,3679.00
1631.782,3541.00
1632.653,2724.00
1633.523,3095.00
1634.393,3154.00
1635.263,2770.00
1636.131,2919.00
1637.001,2817.00
1637.871,2526.00
1638.741,2576.00
1639.611,2632.00
1640.480,3047.00
1641.350,2751.00
1642.219,2745.00
1643.087,2368.00
1643.956,3421.00
1644.825,3246.00
1645.694,3134.00
1646.563,3118.00
1647.432,2953.00
1648.299,2982.00
1649.167,3045.00
1650.036,2704.00
1650.904,3160.00
1651.773,3219.00
1652.641,2952.00
1653.509,3134.00
1654.376,2796.00
1655.244,2996.00
1656.112,2995.00
1656.980,2897.00
1657.847,2772.00
1658.715,3113.00
1659.581,2804.00
1660.448,3195.00
1661.316,2366.00
1662.183,2932.00
1663.051,3007.00
1663.918,2968.00
1664.783,2951.00
1665.650,3041.00
1666.517,3121.00
1667.384,2974.00
1668.251,2972.00
1669.115,3199.00
1669.982,2891.00
1670.849,3234.00
1671.715,2916.00
1672.581,3060.00
1673.446,3074.00
1674.312,2971.00
1675.178,3369.00
1676.044,3049.00
1676.910,3020.00
1677.774,2961.00
1678.639,2555.00
1679.505,2923.00
1680.370,3091.00
1681.236,3652.00
1682.099,2895.00
1682.965,2950.00
1683.830,2467.00
1684.695,2755.00
1685.560,2857.00
1686.423,3115.00
1687.288,3033.00
1688.153,3015.00
1689.017,2862.00
1689.880,3034.00
1690.745,3099.00
1691.609,2778.00
1692.473,3159.00
1693.338,3228.00
1694.200,3229.00
1695.064,2950.00
1695.928,2828.00
1696.792,2967.00
1697.654,3472.00
1698.517,2979.00
1699.381,2653.00
1700.245,2584.00
1701.106,3307.00
1701.969,2809.00
1702.833,3083.00
1703.696,2871.00
1704.557,2924.00
1705.420,2799.00
1706.283,2947.00
1707.146,3090.00
1708.007,2703.00
1708.870,2749.00
1709.732,2566.00
1710.595,2818.00
1711.455,2680.00
1712.318,2858.00
1713.180,3263.00
1714.040,3000.00
1714.902,3145.00
1715.764,2933.00
1716.626,2713.00
1717.486,2942.00
1718.348,3245.00
1719.209,4674.00
1720.071,2562.00
1720.930,2627.00
1721.792,2753.00
1722.653,2786.00
1723.512,2833.00
1724.374,2905.00
1725.234,3030.00
1726.095,2930.00
1726.954,2941.00
1727.815,3102.00
1728.676,2939.00
1729.535,3181.00
1730.395,2896.00
1731.256,2806.00
1732.114,3004.00
1732.974,2339.00
1733.834,3379.00
1734.693,3116.00
1735.553,2996.00
1736.413,3417.00
1737.272,2818.00
1738.130,2870.00
1738.990,3004.00
1739.849,2800.00
1740.707,4083.00
1741.566,3041.00
1742.426,2976.00
1743.283,3421.00
1744.142,2828.00
1745.001,2578.00
1745.858,3159.00
1746.717,3001.00
1747.576,3067.00
1748.433,3113.00
1749.292,3576.00
1750.150,3627.00
1751.007,3179.00
1751.865,3171.00
1752.723,2958.00
1753.579,2892.00
1754.438,3195.00
1755.296,3198.00
1756.152,2471.00
1757.010,2604.00
1757.865,3180.00
1758.723,2566.00
1759.581,3293.00
1760.436,2919.00
1761.294,3337.00
1762.151,2941.00
1763.006,2853.00
1763.864,2550.00
1764.721,3199.00
1765.576,3006.00
1766.433,3123.00
1767.288,2827.00
1768.144,3000.00
1769.001,2871.00
1769.856,3065.00
1770.712,3215.00
1771.568,2711.00
1772.423,2817.00
1773.279,2839.00
1774.133,2854.00
1774.989,3398.00
1775.845,3391.00
1776.699,3227.00
1777.555,2954.00
1778.409,3552.00
1779.265,2908.00
1780.120,2943.00
1780.974,2918.00
1781.829,2528.00
1782.682,3001.00
1783.538,2780.00
1784.393,3030.00
1785.246,2836.00
1786.101,3040.00
1786.954,3087.00
1787.808,3148.00
1788.661,2664.00
1789.516,2896.00
1790.370,2856.00
1791.223,3186.00
1792.077,2968.00
1792.930,3076.00
1793.784,2812.00
1794.636,2944.00
1795.490,2905.00
1796.344,2953.00
1797.196,2948.00
1798.049,3121.00
1798.901,2828.00
1799.755,3227.00
1800.606,2730.00
1801.460,3500.00
1802.311,3306.00
1803.165,3449.00
1804.018,3282.00
1804.869,3069.00
1805.722,3520.00
1806.573,2977.00
1807.426,2770.00
1808.276,2936.00
1809.129,2862.00
1809.980,3217.00
1810.832,3223.00
1811.683,2873.00
1812.535,3308.00
1813.385,2892.00
1814.237,3250.00
1815.089,2983.00
1815.940,3279.00
1816.791,2908.00
1817.641,2813.00
1818.493,3104.00
1819.343,3050.00
1820.194,2810.00
1821.044,3076.00
1821.895,3227.00
1822.745,2645.00
1823.596,2849.00
1824.445,3429.00
1825.296,3096.00
1826.145,2943.00
1826.996,3194.00
1827.845,3018.00
1828.695,3074.00
1829.544,2937.00
1830.395,3023.00
1831.243,2908.00
1832.094,2665.00
1832.942,3669.00
1833.792,3063.00
1834.640,3010.00
1835.490,2964.00
1836.338,3083.00
1837.186,2838.00
1838.036,2835.00
1838.884,2941.00
1839.733,3305.00
1840.581,3194.00
1841.430,3096.00
1842.278,3366.00
1843.127,2854.00
1843.974,2638.00
1844.823,3444.00
1845.671,3140.00
1846.519,3009.00
1847.366,3032.00
1848.213,2573.00
1849.062,2792.00
1849.909,2637.00
1850.757,3671.00
1851.604,3108.00
1852.452,2918.00
1853.298,3177.00
1854.146,3014.00
1854.993,3002.00
1855.839,3524.00
1856.687,3101.00
1857.532,3086.00
1858.380,3013.00
1859.226,3033.00
1860.073,3092.00
1860.919,2759.00
1861.765,2828.00
1862.612,3203.00
1863.457,3234.00
1864.304,2897.00
1865.150,3110.00
1865.995,2933.00
1866.842,3130.00
1867.686,3244.00
1868.533,3066.00
1869.378,3040.00
1870.223,2999.00
1871.069,2880.00
1871.914,3036.00
1872.760,2980.00
1873.604,2733.00
1874.448,3138.00
1875.294,3161.00
1876.139,2800.00
1876.984,3105.00
1877.828,2575.00
1878.672,2473.00
1879.518,2863.00
1880.361,3193.00
1881.205,3126.00
1882.050,2763.00
1882.894,3602.00
1883.739,2834.00
1884.582,2674.00
1885.425,2808.00
1886.270,3231.00
1887.113,2680.00
1887.956,3105.00
1888.801,2996.00
1889.644,2789.00
1890.486,2550.00
1891.331,2844.00
1892.173,3042.00
1893.017,3077.00
1893.860,3275.00
1894.702,3324.00
1895.546,2984.00
1896.388,3725.00
1897.230,3379.00
1898.074,2862.00
1898.916,2757.00
1899.757,2789.00
1900.601,3690.00
1901.443,3331.00
1902.284,3328.00
1903.125,3522.00
1903.969,3214.00
1904.810,3241.00
1905.651,3083.00
1906.494,3305.00
1907.335,3497.00
1908.176,3148.00
1909.018,3087.00
1909.859,2922.00
1910.700,2810.00
1911.542,3574.00
1912.383,3033.00
1913.223,2595.00
1914.064,3188.00
1914.906,3293.00
1915.746,3376.00
1916.586,3507.00
1917.428,3011.00
1918.268,3004.00
1919.107,2894.00
1919.947,2717.00
1920.789,2898.00
1921.628,3283.00
1922.468,2969.00
1923.309,2785.00
1924.148,3354.00
1924.988,3076.00
1925.827,2979.00
1926.667,2850.00
1927.507,3038.00
1928.345,2785.00
1929.184,3177.00
1930.025,2826.00
1930.864,3264.00
1931.702,3340.00
1932.541,2951.00
1933.381,3138.00
1934.219,3220.00
1935.057,3324.00
1935.896,2660.00
1936.735,2987.00
1937.573,2936.00
1938.411,2752.00
1939.249,3172.00
1940.089,2885.00
1940.927,3278.00
1941.764,3309.00
1942.602,2929.00
1943.439,2876.00
1944.278,2975.00
1945.115,2916.00
1945.953,2679.00
1946.790,3095.00
1947.628,3433.00
1948.465,3078.00
1949.302,3193.00
1950.139,3119.00
1950.976,2843.00
1951.814,3206.00
1952.651,3072.00
1953.487,2763.00
1954.323,3295.00
1955.160,3007.00
1955.998,3388.00
1956.834,3000.00
1957.670,3063.00
1958.506,3227.00
1959.342,3107.00
1960.177,3072.00
1961.015,3169.00
1961.850,3054.00
1962.686,3050.00
1963.521,3087.00
1964.357,3329.00
1965.192,2786.00
1966.029,3144.00
1966.864,2937.00
1967.699,3270.00
1968.534,2998.00
1969.369,3316.00
1970.204,2972.00
1971.040,3082.00
1971.875,2948.00
1972.709,3033.00
1973.544,2837.00
1974.378,2888.00
1975.212,3149.00
1976.047,2901.00
1976.882,2887.00
1977.716,3466.00
1978.550,2705.00
1979.384,2903.00
1980.218,2970.00
1981.052,2938.00
1981.885,3085.00
1982.719,2983.00
1983.554,3167.00
1984.388,3381.00
1985.221,3105.00
1986.054,3270.00
1986.887,3090.00
1987.720,2847.00
1988.553,3351.00
1989.386,3175.00
1990.219,3160.00
1991.053,3352.00
1991.886,2874.00
1992.719,3215.00
1993.551,2490.00
1994.383,3176.00
1995.216,2940.00
1996.048,2732.00
1996.880,3222.00
1997.712,2828.00
1998.544,3041.00
1999.376,3076.00
2000.208,3340.00
2001.040,3488.00
2001.873,2841.00
2002.705,2850.00
2003.536,3084.00
2004.367,3041.00
2005.199,3100.00
2006.030,2882.00
2006.861,2796.00
2007.692,3033.00
2008.523,2834.00
2009.354,3072.00
2010.185,2793.00
2011.016,3161.00
2011.846,3283.00
2012.677,2976.00
2013.507,3389.00
2014.338,3234.00
2015.168,2979.00
2015.999,3618.00
2016.829,2937.00
2017.659,3226.00
2018.489,3605.00
2019.319,2823.00
2020.149,3225.00
2020.980,3034.00
2021.810,2784.00
2022.639,2895.00
2023.469,2887.00
2024.298,2711.00
2025.128,2565.00
2025.957,2592.00
2026.786,2426.00
2027.615,2602.00
2028.444,2850.00
2029.273,3039.00
2030.102,2601.00
2030.931,2868.00
2031.758,3137.00
2032.586,2737.00
2033.415,2867.00
2034.243,2459.00
2035.072,2204.00
2035.900,2779.00
2036.728,2534.00
2037.556,2586.00
2038.385,2626.00
2039.213,2396.00
2040.040,2382.00
2040.868,2352.00
2041.696,2409.00
2042.524,2421.00
2043.351,2644.00
2044.179,2429.00
2045.006,2173.00
