RamanScope Measure Spectrum Data V3.72

<< MEASURE CONDITION >>
Exposure Type,Aver
Exposure Time [sec],15
Exposure Count,30
Measure Time,2023/07/11 21:13:59
Data Name,""
Data Comment,""
Rayleigh Wave[nm],532.0

<< SAMPLE SPECTRUM >>
Wave[dcm-1],No610
146.591,845.30
147.626,959.80
148.664,1091.63
149.699,1213.37
150.737,1350.50
151.772,1455.63
152.809,1593.43
153.846,1668.53
154.881,1772.90
155.918,1825.03
156.953,1893.13
157.989,1954.60
159.026,1962.03
160.060,2018.93
161.096,2098.93
162.130,2126.10
163.167,2133.03
164.200,2156.03
165.236,2198.93
166.272,2226.83
167.305,2281.00
168.341,2329.60
169.374,2368.07
170.409,2349.83
171.445,2377.17
172.477,2405.77
173.512,2418.43
174.545,2420.53
175.580,2465.60
176.614,2405.53
177.647,2461.23
178.681,2477.50
179.713,2505.53
180.747,2454.87
181.781,2473.87
182.813,2425.40
183.847,2458.33
184.878,2459.77
185.912,2481.80
186.945,2518.80
187.976,2533.13
189.010,2513.17
190.043,2459.57
191.073,2560.67
192.106,2602.73
193.137,2604.97
194.170,2596.27
195.202,2663.00
196.232,2652.20
197.265,2676.97
198.297,2670.23
199.327,2708.10
200.359,2712.83
201.388,2790.23
202.420,2790.70
203.452,2820.67
204.481,2819.40
205.512,2877.97
206.544,2910.00
207.573,2983.27
208.604,3014.57
209.635,3060.00
210.663,3162.63
211.694,3198.10
212.725,3277.13
213.753,3300.63
214.783,3378.73
215.813,3372.83
216.841,3421.37
217.871,3446.33
218.899,3472.53
219.929,3469.83
220.959,3430.33
221.986,3458.47
223.016,3348.93
224.045,3340.30
225.072,3266.90
226.101,3199.17
227.130,3129.07
228.157,3171.00
229.185,3061.37
230.214,3050.80
231.241,3014.57
232.269,2958.03
233.297,2940.07
234.323,2924.60
235.351,2900.77
236.379,2885.70
237.407,2894.57
238.433,2907.83
239.460,2913.93
240.488,2941.57
241.513,2947.67
242.540,2974.37
243.568,3036.37
244.592,3049.87
245.619,3000.40
246.646,2974.63
247.671,2973.33
248.697,2995.00
249.724,2972.13
250.748,2893.63
251.774,2924.10
252.801,2924.53
253.827,2894.23
254.850,2946.53
255.876,2884.20
256.902,2945.67
257.925,2897.90
258.951,2950.93
259.976,2988.80
260.999,2957.33
262.024,2989.50
263.049,3001.63
264.074,3024.03
265.097,3076.63
266.122,3079.73
267.146,3104.37
268.168,3105.47
269.193,3137.70
270.217,3213.03
271.241,3183.33
272.263,3208.80
273.287,3218.77
274.311,3272.40
275.332,3288.40
276.356,3307.47
277.379,3282.77
278.402,3297.07
279.424,3288.17
280.447,3309.30
281.470,3212.87
282.492,3183.77
283.513,3168.87
284.536,3183.27
285.558,3130.23
286.581,3103.47
287.601,3040.17
288.623,3065.33
289.645,2963.77
290.665,3009.40
291.687,2938.80
292.709,2848.87
293.730,2820.07
294.750,2846.57
295.771,2795.43
296.792,2767.93
297.813,2687.70
298.832,2709.73
299.853,2690.60
300.874,2618.37
301.895,2607.13
302.913,2613.77
303.934,2572.30
304.954,2576.30
305.975,3688.47
306.993,2482.77
308.013,2533.47
309.033,2471.27
310.052,2441.90
311.072,2432.83
312.090,2413.80
313.109,2418.33
314.129,2371.63
315.148,2349.10
316.165,2386.93
317.184,2427.23
318.203,2354.37
319.222,2354.73
320.238,2325.87
321.257,2322.07
322.275,2346.87
323.294,2314.37
324.312,2298.87
325.328,2343.27
326.346,2324.20
327.364,2279.13
328.382,2318.23
329.397,2309.90
330.415,2312.90
331.432,2312.43
332.450,2259.60
333.467,2264.83
334.482,2208.63
335.499,2237.77
336.516,2261.80
337.533,2267.30
338.547,2222.77
339.564,2229.17
340.580,2241.07
341.597,2226.90
342.613,2204.13
343.627,2200.70
344.643,2198.83
345.659,2185.07
346.675,2192.50
347.690,2180.10
348.704,2195.10
349.719,2165.37
350.735,2202.43
351.750,2250.37
352.765,2182.37
353.778,2228.87
354.793,2169.53
355.808,2204.27
356.822,2228.77
357.837,2165.20
358.851,2191.97
359.864,2216.53
360.878,2211.97
361.892,2218.50
362.906,2212.30
363.920,2191.47
364.932,2187.40
365.945,2243.43
366.959,2268.37
367.972,2220.53
368.986,2242.13
369.999,2253.40
371.010,2228.93
372.023,2259.37
373.036,2232.50
374.049,2278.90
375.061,2255.80
376.072,2256.73
377.084,2328.47
378.097,2285.63
379.109,2299.47
380.121,2275.07
381.133,2301.37
382.143,2258.17
383.155,2344.20
384.166,2320.20
385.178,2325.43
386.189,2344.23
387.201,2339.63
388.212,2354.13
389.221,2341.77
390.232,2279.77
391.243,2332.57
392.254,2338.53
393.264,2319.03
394.275,2287.37
395.283,2296.27
396.294,2318.97
397.304,2320.27
398.314,2331.10
399.324,2273.13
400.334,2258.53
401.344,2271.30
402.351,2233.13
403.361,2237.03
404.370,2227.70
405.380,2185.07
406.389,2244.60
407.398,2231.60
408.407,2214.73
409.414,2309.07
410.423,2175.37
411.431,2197.97
412.440,2159.30
413.448,2158.43
414.457,2186.87
415.465,2146.60
416.471,2122.33
417.479,2099.93
418.487,2145.37
419.495,2132.77
420.503,2098.20
421.510,2115.73
422.518,2097.43
423.525,2106.90
424.530,2123.40
425.537,2104.23
426.544,2117.27
427.551,2120.40
428.558,2110.73
429.565,2083.23
430.571,2145.47
431.578,2098.40
432.582,2113.77
433.588,2065.73
434.595,2103.67
435.601,2079.93
436.607,2094.77
437.612,2074.17
438.618,2090.63
439.624,2063.77
440.627,2054.30
441.633,2076.97
442.638,2082.43
443.643,2061.67
444.648,2093.00
445.653,2093.57
446.658,2075.87
447.663,2122.97
448.667,2002.27
449.672,2096.53
450.674,2050.60
451.678,2099.93
452.682,2074.27
453.687,2078.87
454.690,2075.37
455.694,2096.67
456.698,2073.47
457.702,2096.20
458.705,2069.00
459.709,2121.40
460.710,2075.53
461.713,2093.50
462.716,2120.83
463.719,2124.90
464.722,2127.40
465.725,2069.67
466.727,2049.20
467.730,2082.37
468.732,2099.47
469.735,2134.93
470.737,2104.40
471.737,2112.40
472.739,2125.63
473.741,2134.33
474.742,2105.80
475.744,2121.83
476.746,2110.93
477.747,2119.53
478.748,2154.83
479.750,2126.23
480.751,2137.87
481.752,2137.37
482.753,2127.03
483.751,2123.13
484.752,2148.57
485.753,2116.30
486.753,2118.17
487.753,2068.67
488.754,2122.67
489.754,2106.03
490.754,2132.40
491.754,2171.87
492.754,2098.47
493.753,2120.53
494.753,2112.67
495.752,2099.67
496.752,2101.87
497.749,2078.03
498.748,2108.73
499.747,2091.60
500.746,2056.80
501.745,2074.80
502.744,2095.87
503.742,2077.17
504.741,2055.23
505.739,2021.73
506.737,2116.60
507.735,2078.67
508.734,2104.13
509.732,2047.70
510.729,2073.03
511.727,2084.23
512.725,2004.37
513.720,2030.90
514.718,2079.33
515.715,2000.70
516.712,2050.70
517.709,2047.47
518.706,2069.50
519.703,2034.23
520.700,2006.27
521.696,2027.03
522.693,2029.80
523.689,2017.47
524.686,2003.37
525.682,1993.87
526.678,2069.47
527.674,2060.10
528.670,2043.17
529.666,2013.10
530.661,2035.90
531.657,2076.30
532.652,2012.17
533.648,2070.23
534.641,2036.87
535.636,2000.47
536.631,2065.13
537.626,2097.90
538.621,2070.03
539.616,2002.60
540.610,2025.87
541.605,2049.53
542.599,2052.07
543.593,2067.03
544.587,2059.83
545.581,2064.47
546.575,2043.07
547.569,2111.03
548.563,2048.07
549.557,2044.23
550.550,2007.23
551.543,2069.87
552.537,2029.60
553.530,2039.20
554.523,2078.83
555.516,2026.37
556.509,2045.37
557.502,2060.27
558.494,2015.73
559.487,2004.63
560.479,1991.13
561.472,1966.27
562.464,2015.07
563.456,2082.90
564.448,2062.33
565.440,1994.07
566.432,2034.23
567.423,2028.93
568.415,2041.57
569.404,2066.47
570.396,2039.73
571.387,2030.30
572.378,2044.83
573.369,2065.20
574.360,2061.00
575.351,2079.60
576.341,2011.33
577.332,2005.20
578.323,2059.53
579.313,2081.37
580.303,2075.23
581.293,2040.63
582.283,2048.43
583.273,2112.90
584.263,2026.73
585.253,2094.10
586.243,2021.03
587.232,2053.33
588.222,2078.80
589.211,2061.17
590.200,2046.00
591.189,2035.37
592.178,2031.23
593.167,2039.10
594.156,2024.83
595.145,2041.63
596.133,2058.47
597.122,1993.47
598.110,2007.23
599.098,2037.07
600.086,2057.33
601.074,2001.17
602.062,1982.73
603.050,2015.00
604.038,2040.13
605.025,2009.43
606.013,2029.10
607.000,2033.97
607.987,1980.53
608.975,1958.43
609.962,2025.20
610.949,1942.83
611.936,1948.77
612.922,1958.40
613.909,1920.27
614.895,1792.70
615.882,1938.97
616.868,1945.83
617.854,1887.00
618.841,1903.40
619.826,1867.93
620.812,1825.20
621.798,1849.73
622.784,1874.57
623.769,1837.47
624.755,1863.00
625.740,1793.00
626.725,1811.67
627.711,1803.07
628.698,1817.67
629.683,1782.97
630.667,1770.10
631.652,1790.70
632.637,1747.83
633.621,1769.73
634.606,1692.50
635.590,1758.13
636.574,1730.77
637.558,1737.70
638.542,1698.33
639.526,1742.27
640.510,1700.27
641.493,1719.10
642.477,1735.27
643.460,1675.00
644.444,1646.03
645.427,1686.13
646.410,1623.33
647.393,1648.53
648.376,1610.47
649.359,1610.27
650.341,1661.73
651.324,1638.27
652.307,1628.13
653.289,1611.27
654.271,1589.03
655.253,1587.63
656.235,1597.83
657.217,1619.87
658.199,1590.23
659.181,1594.07
660.163,1550.93
661.144,1553.13
662.126,1561.83
663.107,1543.07
664.088,1660.07
665.069,1530.57
666.050,1580.03
667.033,1557.13
668.014,1491.17
668.995,1552.47
669.975,1545.53
670.956,1530.17
671.936,1519.20
672.916,1526.20
673.896,1528.37
674.876,1518.53
675.856,1496.93
676.836,1470.30
677.816,1454.73
678.795,1489.50
679.775,1471.13
680.754,1438.90
681.734,1436.50
682.713,1433.90
683.692,1426.70
684.671,1435.90
685.650,1416.03
686.629,1445.67
687.607,1348.97
688.586,1407.77
689.564,1411.17
690.543,1385.47
691.523,1373.97
692.501,1386.00
693.479,1382.20
694.457,1358.70
695.435,1354.17
696.413,1340.00
697.390,1329.90
698.368,1304.27
699.345,1312.60
700.322,1332.63
701.300,1325.97
702.277,1315.80
703.254,1329.67
704.231,1300.10
705.207,1366.83
706.184,1334.43
707.161,1301.67
708.137,1320.47
709.113,1301.80
710.090,1275.83
711.068,1275.47
712.044,1281.37
713.020,1261.80
713.996,1289.77
714.971,1254.77
715.947,1265.77
716.922,1257.70
717.898,1243.97
718.873,1246.07
719.848,1249.47
720.823,1259.83
721.798,1253.70
722.773,1184.33
723.748,1219.17
724.723,1220.80
725.697,1211.57
726.672,1203.63
727.646,1211.53
728.622,1229.93
729.596,1181.93
730.570,1211.17
731.544,1223.87
732.518,1257.13
733.492,1178.10
734.466,1168.30
735.439,1177.60
736.413,1245.27
737.386,1145.50
738.359,1138.70
739.332,1186.70
740.305,1176.40
741.278,1191.60
742.251,1182.73
743.224,1182.20
744.196,1174.93
745.171,1203.57
746.143,1159.50
747.115,1135.60
748.087,1147.20
749.059,1146.30
750.031,1146.30
751.003,1140.90
751.975,1140.37
752.947,1133.43
753.918,1119.37
754.890,1125.67
755.861,1153.57
756.832,1149.77
757.803,1140.30
758.774,1080.73
759.747,1102.30
760.718,1065.03
761.689,1098.83
762.659,1121.00
763.630,1129.20
764.600,1059.83
765.570,1114.27
766.540,1089.73
767.510,1072.77
768.480,1079.67
769.450,1122.17
770.420,1061.93
771.390,1089.20
772.359,1097.03
773.329,1063.70
774.300,1054.30
775.269,1061.53
776.238,1075.20
777.207,1133.73
778.176,1086.43
779.145,1041.53
780.114,1043.90
781.083,1061.40
782.051,1018.37
783.019,1036.97
783.988,1072.83
784.956,1032.13
785.924,1003.80
786.894,1031.77
787.862,999.27
788.830,1063.70
789.797,1002.50
790.765,996.73
791.732,1037.20
792.700,1035.43
793.667,1035.50
794.634,1039.53
795.601,997.43
796.568,990.07
797.535,992.03
798.502,1044.73
799.468,1029.07
800.437,963.17
801.403,985.67
802.370,988.90
803.336,1013.70
804.302,1012.83
805.268,983.70
806.234,948.40
807.200,972.93
808.166,1013.47
809.131,995.67
810.097,1005.07
811.062,1007.10
812.027,991.73
812.994,988.17
813.960,966.00
814.925,945.80
815.889,1008.77
816.854,983.10
817.819,943.77
818.783,957.17
819.748,1005.40
820.712,955.70
821.677,927.40
822.641,1006.73
823.605,1007.97
824.571,1003.37
825.534,997.80
826.498,965.40
827.462,1031.20
828.425,973.90
829.389,992.97
830.352,1027.67
831.315,1019.97
832.279,999.43
833.242,987.27
834.204,990.97
835.167,1014.00
836.132,1040.73
837.095,1016.53
838.057,1002.00
839.020,1045.20
839.982,1016.63
840.944,1007.03
841.906,1036.83
842.868,1036.33
843.830,988.10
844.792,1030.27
845.753,992.40
846.715,994.70
847.679,1008.43
848.640,1022.70
849.601,1028.83
850.562,1061.77
851.523,1042.43
852.484,1045.87
853.445,1011.07
854.406,1039.50
855.367,1041.37
856.327,1070.70
857.288,1009.83
858.248,1027.67
859.210,1002.57
860.170,1044.90
861.130,1040.27
862.090,1023.10
863.050,1044.83
864.010,1049.10
864.969,1069.00
865.929,1029.20
866.888,1039.83
867.848,1062.03
868.807,1076.33
869.766,1065.23
870.727,1039.80
871.686,1060.50
872.645,1058.40
873.604,1079.63
874.562,1052.27
875.521,1054.43
876.479,1068.17
877.437,1033.60
878.396,1014.67
879.354,1063.53
880.312,1033.43
881.270,1049.77
882.229,1057.33
883.187,1064.07
884.145,1065.00
885.102,1071.47
886.059,1035.37
887.017,1040.90
887.974,1042.43
888.931,1048.63
889.888,1024.90
890.845,1019.53
891.802,1072.47
892.758,1068.83
893.717,1060.30
894.673,1059.60
895.630,1039.07
896.586,1045.23
897.542,1061.63
898.498,1028.00
899.454,1027.47
900.410,1054.07
901.366,1068.80
902.321,1086.60
903.277,1064.93
904.232,1058.17
905.189,1068.30
906.145,1067.00
907.100,1019.70
908.055,1067.97
909.010,1069.20
909.965,1070.60
910.919,1081.00
911.874,1021.97
912.828,1043.97
913.783,1055.70
914.737,1047.03
915.693,1070.83
916.648,1072.53
917.602,1021.93
918.555,1006.83
919.509,1129.60
920.463,1019.03
921.417,1030.53
922.370,1010.47
923.324,1042.30
924.277,1006.27
925.230,1045.67
926.183,1005.83
927.138,1023.07
928.091,1028.83
929.044,1061.87
929.996,1065.13
930.949,1037.93
931.902,1020.03
932.854,1021.33
933.806,1005.00
934.758,1041.77
935.711,1066.83
936.663,986.70
937.614,1025.67
938.568,1040.00
939.520,1016.60
940.471,1041.93
941.423,1006.53
942.374,1029.83
943.326,1018.67
944.277,1001.90
945.228,977.97
946.179,1059.93
947.130,1009.93
948.080,1010.97
949.031,1007.67
949.984,1004.03
950.934,1001.10
951.884,1018.23
952.835,986.03
953.785,1019.90
954.735,1008.30
955.685,986.27
956.635,975.23
957.585,1006.90
958.534,974.10
959.484,977.87
960.433,1028.80
961.383,967.57
962.334,994.33
963.283,977.47
964.232,1013.03
965.181,1008.20
966.130,971.23
967.079,988.30
968.027,996.03
968.976,970.07
969.924,960.63
970.873,954.30
971.821,992.70
972.769,953.57
973.719,1003.93
974.667,982.33
975.615,993.93
976.562,944.63
977.510,966.97
978.458,961.10
979.405,978.57
980.352,982.60
981.300,972.47
982.247,1004.87
983.194,1002.93
984.141,965.07
985.088,969.90
986.036,966.80
986.983,930.93
987.930,980.80
988.876,981.60
989.822,973.23
990.769,936.90
991.715,960.97
992.661,963.30
993.607,978.67
994.553,943.53
995.498,954.33
996.444,926.97
997.389,987.87
998.337,954.53
999.282,955.63
1000.227,989.10
1001.173,963.57
1002.118,932.27
1003.062,944.53
1004.007,911.97
1004.952,977.93
1005.897,926.27
1006.841,974.03
1007.786,956.53
1008.730,974.97
1009.674,984.70
1010.618,999.60
1011.564,917.23
1012.508,947.37
1013.452,974.83
1014.396,976.27
1015.339,960.93
1016.283,965.87
1017.226,945.47
1018.170,929.67
1019.113,948.40
1020.056,947.90
1020.999,950.47
1021.942,962.80
1022.885,964.67
1023.828,949.70
1024.770,996.83
1025.715,957.87
1026.657,957.57
1027.600,945.00
1028.542,970.27
1029.484,964.83
1030.426,966.57
1031.368,988.53
1032.310,934.60
1033.251,985.67
1034.193,944.27
1035.135,976.97
1036.076,977.43
1037.017,962.43
1037.959,935.97
1038.900,938.30
1039.843,949.97
1040.784,1010.10
1041.725,997.03
1042.665,962.90
1043.606,955.53
1044.547,951.97
1045.487,947.90
1046.427,948.00
1047.368,994.13
1048.308,980.13
1049.248,940.53
1050.188,960.17
1051.128,951.40
1052.067,988.60
1053.007,1004.40
1053.947,979.83
1054.886,1017.53
1055.827,982.07
1056.766,968.83
1057.706,960.87
1058.645,980.77
1059.584,969.93
1060.522,999.83
1061.461,988.87
1062.400,975.63
1063.338,981.87
1064.277,994.90
1065.215,976.80
1066.154,1010.77
1067.092,985.77
1068.030,980.50
1068.968,994.67
1069.906,998.70
1070.843,1012.57
1071.781,989.67
1072.720,1014.17
1073.658,1022.80
1074.595,993.73
1075.533,991.17
1076.470,1002.73
1077.407,1000.83
1078.344,1008.17
1079.281,1022.40
1080.217,982.20
1081.154,985.83
1082.091,1002.37
1083.027,1020.53
1083.964,1041.67
1084.900,990.03
1085.836,993.83
1086.772,989.60
1087.708,993.67
1088.644,998.97
1089.580,930.10
1090.515,980.30
1091.451,956.27
1092.388,1006.70
1093.324,965.60
1094.259,986.17
1095.194,991.97
1096.129,972.37
1097.064,957.57
1097.999,960.83
1098.934,922.87
1099.869,950.70
1100.803,945.07
1101.738,945.37
1102.672,908.17
1103.607,956.00
1104.541,924.93
1105.475,878.67
1106.409,943.33
1107.343,865.07
1108.277,926.83
1109.210,926.17
1110.144,895.73
1111.078,900.83
1112.011,914.20
1112.944,881.70
1113.878,862.87
1114.811,875.53
1115.744,952.53
1116.678,847.73
1117.611,843.17
1118.544,874.70
1119.477,843.90
1120.409,844.93
1121.342,871.93
1122.274,854.70
1123.206,2035.37
1124.138,838.47
1125.070,849.13
1126.002,807.73
1126.934,837.47
1127.866,823.27
1128.798,786.87
1129.729,821.87
1130.661,811.80
1131.592,775.10
1132.523,790.83
1133.454,839.33
1134.385,763.40
1135.317,757.30
1136.247,764.03
1137.178,775.87
1138.109,781.17
1139.039,788.43
1139.970,747.07
1140.900,764.07
1141.831,750.27
1142.761,764.37
1143.691,271.67
1144.621,778.33
1145.551,739.47
1146.480,741.43
1147.410,806.40
1148.340,749.40
1149.269,735.70
1150.199,740.60
1151.128,725.60
1152.057,708.23
1152.979,735.13
1153.898,748.93
1154.819,728.47
1155.739,794.63
1156.658,759.93
1157.579,750.53
1158.498,730.80
1159.419,706.30
1160.338,722.00
1161.256,716.63
1162.177,689.00
1163.095,709.53
1164.016,719.63
1164.934,689.87
1165.852,733.43
1166.772,702.83
1167.690,637.60
1168.610,698.50
1169.528,726.80
1170.446,732.80
1171.365,705.90
1172.283,693.30
1173.202,691.13
1174.120,704.83
1175.037,677.67
1175.956,677.07
1176.873,706.23
1177.792,683.80
1178.709,709.10
1179.626,680.10
1180.544,702.87
1181.461,717.17
1182.379,695.27
1183.296,697.93
1184.212,651.60
1185.130,670.27
1186.046,691.60
1186.962,688.43
1187.880,681.27
1188.796,719.70
1189.714,728.40
1190.629,710.87
1191.545,715.00
1192.462,678.07
1193.378,720.67
1194.295,708.50
1195.210,694.17
1196.125,727.47
1197.042,710.33
1197.957,690.43
1198.872,680.80
1199.788,660.83
1200.703,701.23
1201.619,692.03
1202.534,685.07
1203.448,659.10
1204.364,708.93
1205.278,671.80
1206.192,677.70
1207.108,694.27
1208.022,677.93
1208.938,675.17
1209.851,679.97
1210.765,626.40
1211.680,704.20
1212.594,668.63
1213.507,683.80
1214.422,669.20
1215.335,654.10
1216.248,685.60
1217.163,679.50
1218.076,694.33
1218.990,681.67
1219.903,679.50
1220.816,673.50
1221.730,710.73
1222.642,683.67
1223.554,667.67
1224.469,687.57
1225.380,712.33
1226.292,699.43
1227.206,686.03
1228.118,704.40
1229.032,703.93
1229.943,691.83
1230.855,676.80
1231.768,695.37
1232.679,657.60
1233.590,674.67
1234.503,734.23
1235.414,687.90
1236.325,714.40
1237.238,728.23
1238.149,682.53
1239.059,680.53
1239.972,730.40
1240.882,716.67
1241.793,714.73
1242.705,712.03
1243.615,675.03
1244.525,742.07
1245.437,679.77
1246.347,699.83
1247.259,676.57
1248.168,758.57
1249.078,675.53
1249.989,692.73
1250.899,682.50
1251.808,695.20
1252.719,728.30
1253.628,726.30
1254.537,710.23
1255.448,705.83
1256.357,735.97
1257.266,743.80
1258.176,680.20
1259.085,716.17
1259.993,735.17
1260.904,723.93
1261.812,692.17
1262.720,674.10
1263.630,709.27
1264.538,700.50
1265.446,708.80
1266.356,758.70
1267.263,722.57
1268.171,724.37
1269.080,718.33
1269.988,738.47
1270.895,705.07
1271.804,695.87
1272.711,733.60
1273.619,712.23
1274.527,725.33
1275.434,677.90
1276.341,712.87
1277.248,680.30
1278.156,719.27
1279.063,685.10
1279.969,727.03
1280.877,697.60
1281.783,728.13
1282.690,702.87
1283.598,683.20
1284.503,708.03
1285.409,721.50
1286.317,734.73
1287.223,710.40
1288.128,728.37
1289.036,712.30
1289.941,684.17
1290.846,728.93
1291.751,684.57
1292.658,706.03
1293.563,734.27
1294.468,678.50
1295.375,746.57
1296.280,714.57
1297.184,723.70
1298.091,686.67
1298.995,724.50
1299.900,726.33
1300.806,679.47
1301.710,675.67
1302.614,686.97
1303.518,721.07
1304.424,683.13
1305.327,697.70
1306.231,720.13
1307.137,698.83
1308.040,679.53
1308.943,677.33
1309.847,716.70
1310.752,660.83
1311.655,683.30
1312.558,646.40
1313.463,648.37
1314.366,676.60
1315.269,671.50
1316.171,685.70
1317.076,646.30
1317.978,680.40
1318.881,673.00
1319.785,654.13
1320.687,671.20
1321.589,651.17
1322.491,653.93
1323.395,634.00
1324.297,650.50
1325.198,639.30
1326.102,616.40
1327.004,630.57
1327.905,710.00
1328.806,624.27
1329.709,642.13
1330.611,604.60
1331.512,673.20
1332.413,626.57
1333.316,635.70
1334.216,634.97
1335.117,660.37
1336.020,607.60
1336.920,654.43
1337.821,625.73
1338.721,623.23
1339.623,592.87
1340.523,636.33
1341.423,575.57
1342.323,613.13
1343.225,660.20
1344.125,618.07
1345.025,606.80
1345.924,623.67
1346.826,609.23
1347.725,620.50
1348.624,607.53
1349.524,570.40
1350.425,626.30
1351.324,607.20
1352.223,569.53
1353.121,599.03
1354.022,597.07
1354.921,559.30
1355.819,596.13
1356.718,570.77
1357.618,553.80
1358.516,603.00
1359.415,601.07
1360.313,629.40
1361.213,543.17
1362.111,592.47
1363.008,591.53
1363.906,570.00
1364.806,572.67
1365.703,577.80
1366.601,522.53
1367.498,568.87
1368.397,563.47
1369.295,567.17
1370.192,565.90
1371.089,602.40
1371.987,551.90
1372.884,562.13
1373.781,566.33
1374.678,579.43
1375.574,574.43
1376.473,608.07
1377.369,529.27
1378.265,563.70
1379.161,563.90
1380.059,558.47
1380.955,547.43
1381.851,505.03
1382.747,567.73
1383.643,554.40
1384.540,543.10
1385.436,548.00
1386.331,540.00
1387.227,520.30
1388.124,524.73
1389.019,550.13
1389.914,536.70
1390.809,512.47
1391.704,559.17
1392.601,543.87
1393.495,565.47
1394.390,524.13
1395.285,561.60
1396.179,529.20
1397.075,531.50
1397.969,515.63
1398.864,526.27
1399.758,505.83
1400.652,542.87
1401.547,513.83
1402.441,517.97
1403.335,550.50
1404.229,489.13
1405.122,531.50
1406.017,494.17
1406.911,532.43
1407.804,587.63
1408.697,491.43
1409.590,498.93
1410.485,535.17
1411.378,532.03
1412.271,508.43
1413.163,557.97
1414.056,537.53
1414.949,543.83
1415.843,480.10
1416.735,479.80
1417.627,499.63
1418.520,440.70
1419.412,554.30
1420.306,501.40
1421.197,521.50
1422.089,526.00
1422.981,520.00
1423.873,490.80
1424.764,510.77
1425.657,514.83
1426.549,487.40
1427.440,502.13
1428.331,496.00
1429.222,506.10
1430.113,478.97
1431.006,470.50
1431.897,487.83
1432.787,484.67
1433.678,480.20
1434.568,506.27
1435.459,515.57
1436.351,498.33
1437.241,504.63
1438.131,489.93
1439.021,465.40
1439.911,465.13
1440.801,466.57
1441.693,466.90
1442.583,515.47
1443.472,500.07
1444.362,445.70
1445.251,473.47
1446.140,463.60
1447.030,463.93
1447.921,510.03
1448.810,463.33
1449.699,481.73
1450.588,502.17
1451.476,478.43
1452.365,465.83
1453.254,483.13
1454.144,471.87
1455.032,473.43
1455.921,465.67
1456.809,471.47
1457.697,505.80
1458.585,460.00
1459.473,454.97
1460.361,441.53
1461.251,458.67
1462.138,465.70
1463.026,455.57
1463.913,483.50
1464.801,433.77
1465.688,476.43
1466.575,481.53
1467.463,478.97
1468.351,480.83
1469.238,437.07
1470.125,389.80
1471.012,492.97
1471.899,459.40
1472.785,450.63
1473.672,428.73
1474.558,490.43
1475.446,443.03
1476.333,478.13
1477.219,457.00
1478.105,485.23
1478.991,445.13
1479.877,436.40
1480.762,464.77
1481.648,472.90
1482.534,443.60
1483.419,503.90
1484.307,422.33
1485.192,447.97
1486.077,487.40
1486.962,419.83
1487.847,423.73
1488.732,463.13
1489.617,461.07
1490.502,482.10
1491.387,427.93
1492.271,459.53
1493.156,456.27
1494.042,432.87
1494.927,430.10
1495.811,448.00
1496.695,456.77
1497.579,443.80
1498.463,465.40
1499.347,447.83
1500.231,430.30
1501.114,427.07
1501.998,451.30
1502.881,454.27
1503.765,435.03
1504.648,460.37
1505.533,436.17
1506.417,430.17
1507.300,427.33
1508.183,403.90
1509.066,413.93
1509.948,413.20
1510.831,454.97
1511.714,416.13
1512.596,429.57
1513.479,427.57
1514.361,434.60
1515.243,427.57
1516.125,447.57
1517.008,440.63
1517.890,401.23
1518.771,431.07
1519.655,433.90
1520.537,405.30
1521.419,427.90
1522.300,418.00
1523.182,448.57
1524.063,427.20
1524.944,426.73
1525.825,423.40
1526.707,422.30
1527.588,410.37
1528.468,435.50
1529.349,449.17
1530.230,399.33
1531.111,421.77
1531.991,387.03
1532.872,421.30
1533.752,424.77
1534.632,445.60
1535.513,412.47
1536.393,417.03
1537.273,449.10
1538.153,405.43
1539.032,403.87
1539.912,443.67
1540.792,422.30
1541.672,423.70
1542.551,399.17
1543.430,407.20
1544.310,405.97
1545.189,387.07
1546.068,402.93
1546.947,428.43
1547.826,420.87
1548.705,421.50
1549.584,390.20
1550.462,392.97
1551.341,389.80
1552.219,395.20
1553.098,425.33
1553.976,416.17
1554.854,430.90
1555.733,438.50
1556.611,405.17
1557.489,408.77
1558.367,394.67
1559.244,401.13
1560.122,384.40
1561.000,401.47
1561.877,413.40
1562.755,429.63
1563.632,393.70
1564.509,438.83
1565.386,402.63
1566.264,414.33
1567.141,399.17
1568.017,385.70
1568.894,386.37
1569.771,396.30
1570.648,407.60
1571.524,375.97
1572.401,399.33
1573.277,374.27
1574.153,414.90
1575.029,416.07
1575.906,350.03
1576.781,390.80
1577.657,402.50
1578.533,429.20
1579.409,380.70
1580.285,370.83
1581.160,382.93
1582.036,437.23
1582.911,420.57
1583.786,388.93
1584.662,392.73
1585.537,387.40
1586.412,381.17
1587.287,405.83
1588.160,390.73
1589.035,396.33
1589.909,424.13
1590.784,364.97
1591.658,395.37
1592.533,373.53
1593.407,360.60
1594.281,407.50
1595.155,427.60
1596.029,363.97
1596.903,407.37
1597.777,375.97
1598.651,381.43
1599.525,357.00
1600.398,381.17
1601.272,392.40
1602.144,395.63
1603.017,392.50
1603.890,380.17
1604.763,400.67
1605.636,412.57
1606.509,383.70
1607.382,383.33
1608.255,382.13
1609.128,363.87
1610.000,374.73
1610.873,414.40
1611.746,380.67
1612.616,382.70
1613.488,366.03
1614.361,386.53
1615.233,368.63
1616.105,424.07
1616.977,371.80
1617.849,366.67
1618.720,371.83
1619.592,396.10
1620.464,421.83
1621.333,376.97
1622.205,375.87
1623.076,384.23
1623.947,378.87
1624.818,366.37
1625.689,376.87
1626.560,390.60
1627.431,380.13
1628.302,392.63
1629.171,405.33
1630.042,355.87
1630.912,417.90
1631.782,389.07
1632.653,418.73
1633.523,370.03
1634.393,389.77
1635.263,442.70
1636.131,423.50
1637.001,376.67
1637.871,362.63
1638.741,369.17
1639.611,401.27
1640.480,393.60
1641.350,353.40
1642.219,382.63
1643.087,393.83
1643.956,389.73
1644.825,378.07
1645.694,386.37
1646.563,336.77
1647.432,391.20
1648.299,334.23
1649.167,361.50
1650.036,360.77
1650.904,395.03
1651.773,379.23
1652.641,394.40
1653.509,392.50
1654.376,384.37
1655.244,398.23
1656.112,378.47
1656.980,395.33
1657.847,328.27
1658.715,403.27
1659.581,353.17
1660.448,396.77
1661.316,355.40
1662.183,404.10
1663.051,345.50
1663.918,337.77
1664.783,398.20
1665.650,386.50
1666.517,388.90
1667.384,357.23
1668.251,357.87
1669.115,357.97
1669.982,337.87
1670.849,376.63
1671.715,373.20
1672.581,406.10
1673.446,351.13
1674.312,346.07
1675.178,379.13
1676.044,362.50
1676.910,359.83
1677.774,374.73
1678.639,381.43
1679.505,363.23
1680.370,351.87
1681.236,399.40
1682.099,394.40
1682.965,379.20
1683.830,358.50
1684.695,377.77
1685.560,359.50
1686.423,399.37
1687.288,358.00
1688.153,351.73
1689.017,358.00
1689.880,394.53
1690.745,349.57
1691.609,354.53
1692.473,336.97
1693.338,381.03
1694.200,404.97
1695.064,372.90
1695.928,375.50
1696.792,355.10
1697.654,351.20
1698.517,333.60
1699.381,340.03
1700.245,376.90
1701.106,328.30
1701.969,341.17
1702.833,337.37
1703.696,389.57
1704.557,357.10
1705.420,336.53
1706.283,352.27
1707.146,352.13
1708.007,336.30
1708.870,371.93
1709.732,373.40
1710.595,359.03
1711.455,371.73
1712.318,384.37
1713.180,353.23
1714.040,339.63
1714.902,339.47
1715.764,417.47
1716.626,366.93
1717.486,311.30
1718.348,313.23
1719.209,-59.07
1720.071,329.03
1720.930,373.87
1721.792,333.63
1722.653,356.00
1723.512,378.43
1724.374,354.93
1725.234,313.97
1726.095,321.07
1726.954,351.73
1727.815,419.43
1728.676,330.80
1729.535,382.30
1730.395,358.97
1731.256,373.33
1732.114,341.07
1732.974,333.30
1733.834,354.97
1734.693,353.30
1735.553,338.87
1736.413,353.57
1737.272,345.83
1738.130,366.53
1738.990,365.40
1739.849,359.40
1740.707,383.07
1741.566,327.30
1742.426,339.73
1743.283,338.63
1744.142,374.83
1745.001,315.03
1745.858,353.50
1746.717,371.27
1747.576,371.03
1748.433,342.83
1749.292,318.30
1750.150,392.90
1751.007,371.07
1751.865,378.00
1752.723,315.23
1753.579,338.27
1754.438,374.77
1755.296,366.60
1756.152,318.77
1757.010,343.23
1757.865,353.10
1758.723,338.53
1759.581,375.70
1760.436,351.37
1761.294,358.60
1762.151,329.63
1763.006,331.33
1763.864,334.13
1764.721,361.87
1765.576,331.90
1766.433,336.30
1767.288,321.03
1768.144,374.10
1769.001,321.20
1769.856,344.07
1770.712,373.00
1771.568,370.17
1772.423,318.07
1773.279,324.40
1774.133,318.20
1774.989,345.60
1775.845,379.23
1776.699,325.33
1777.555,323.63
1778.409,348.93
1779.265,329.57
1780.120,309.70
1780.974,342.03
1781.829,349.00
1782.682,343.23
1783.538,341.67
1784.393,380.33
1785.246,307.97
1786.101,372.73
1786.954,357.63
1787.808,361.73
1788.661,354.57
1789.516,311.20
1790.370,343.33
1791.223,381.50
1792.077,339.40
1792.930,325.63
1793.784,372.57
1794.636,334.27
1795.490,316.30
1796.344,290.70
1797.196,322.23
1798.049,333.17
1798.901,296.60
1799.755,351.30
1800.606,292.20
1801.460,304.57
1802.311,327.93
1803.165,349.87
1804.018,342.33
1804.869,322.47
1805.722,340.47
1806.573,356.90
1807.426,326.87
1808.276,322.10
1809.129,298.10
1809.980,342.43
1810.832,304.90
1811.683,272.37
1812.535,312.53
1813.385,303.03
1814.237,316.80
1815.089,369.83
1815.940,332.63
1816.791,352.90
1817.641,338.73
1818.493,306.27
1819.343,305.00
1820.194,292.67
1821.044,389.50
1821.895,304.60
1822.745,323.10
1823.596,323.10
1824.445,314.67
1825.296,326.30
1826.145,300.90
1826.996,316.67
1827.845,303.27
1828.695,329.97
1829.544,321.70
1830.395,335.63
1831.243,282.87
1832.094,296.67
1832.942,363.33
1833.792,288.13
1834.640,291.23
1835.490,302.07
1836.338,362.50
1837.186,347.07
1838.036,293.77
1838.884,314.77
1839.733,342.13
1840.581,327.77
1841.430,336.43
1842.278,326.57
1843.127,291.57
1843.974,321.07
1844.823,322.73
1845.671,361.37
1846.519,291.63
1847.366,357.90
1848.213,290.17
1849.062,319.70
1849.909,304.93
1850.757,335.93
1851.604,327.40
1852.452,315.40
1853.298,373.67
1854.146,346.07
1854.993,325.27
1855.839,303.43
1856.687,347.93
1857.532,296.43
1858.380,335.17
1859.226,338.57
1860.073,331.80
1860.919,303.23
1861.765,322.80
1862.612,339.17
1863.457,340.20
1864.304,287.57
1865.150,306.30
1865.995,353.60
1866.842,298.13
1867.686,332.00
1868.533,317.03
1869.378,296.63
1870.223,308.57
1871.069,316.30
1871.914,334.37
1872.760,280.77
1873.604,351.23
1874.448,315.57
1875.294,335.17
1876.139,293.97
1876.984,334.80
1877.828,326.70
1878.672,291.13
1879.518,287.43
1880.361,301.60
1881.205,343.67
1882.050,312.07
1882.894,310.80
1883.739,322.83
1884.582,293.60
1885.425,308.10
1886.270,330.53
1887.113,321.27
1887.956,348.70
1888.801,360.07
1889.644,270.17
1890.486,295.67
1891.331,322.63
1892.173,297.80
1893.017,316.77
1893.860,307.33
1894.702,320.90
1895.546,326.60
1896.388,291.50
1897.230,320.47
1898.074,306.93
1898.916,323.13
1899.757,309.27
1900.601,267.97
1901.443,314.67
1902.284,325.60
1903.125,274.37
1903.969,312.87
1904.810,324.30
1905.651,289.70
1906.494,307.17
1907.335,319.30
1908.176,314.90
1909.018,336.27
1909.859,279.23
1910.700,313.20
1911.542,358.07
1912.383,283.60
1913.223,295.33
1914.064,306.23
1914.906,311.07
1915.746,358.30
1916.586,315.77
1917.428,302.10
1918.268,306.37
1919.107,315.90
1919.947,293.30
1920.789,310.63
1921.628,320.53
1922.468,320.83
1923.309,273.23
1924.148,307.90
1924.988,290.83
1925.827,300.13
1926.667,322.53
1927.507,306.13
1928.345,290.77
1929.184,306.50
1930.025,314.33
1930.864,319.73
1931.702,318.10
1932.541,285.60
1933.381,305.33
1934.219,326.03
1935.057,327.43
1935.896,310.47
1936.735,351.07
1937.573,283.33
1938.411,292.90
1939.249,317.37
1940.089,311.03
1940.927,309.47
1941.764,280.80
1942.602,280.50
1943.439,283.37
1944.278,286.23
1945.115,276.00
1945.953,312.00
1946.790,295.97
1947.628,329.93
1948.465,323.07
1949.302,285.40
1950.139,309.97
1950.976,267.13
1951.814,330.13
1952.651,319.67
1953.487,286.20
1954.323,331.53
1955.160,312.10
1955.998,266.77
1956.834,290.93
1957.670,275.57
1958.506,305.03
1959.342,303.70
1960.177,305.53
1961.015,313.93
1961.850,268.43
1962.686,346.00
1963.521,337.17
1964.357,301.33
1965.192,296.10
1966.029,285.83
1966.864,309.40
1967.699,333.20
1968.534,310.37
1969.369,301.27
1970.204,289.33
1971.040,307.20
1971.875,297.67
1972.709,308.80
1973.544,305.07
1974.378,273.20
1975.212,314.00
1976.047,264.63
1976.882,286.03
1977.716,289.53
1978.550,271.13
1979.384,287.73
1980.218,319.63
1981.052,291.93
1981.885,258.93
1982.719,303.73
1983.554,274.27
1984.388,306.63
1985.221,275.93
1986.054,280.97
1986.887,292.60
1987.720,304.53
1988.553,342.17
1989.386,291.23
1990.219,291.13
1991.053,274.97
1991.886,244.63
1992.719,310.80
1993.551,281.43
1994.383,306.50
1995.216,287.87
1996.048,284.70
1996.880,292.67
1997.712,259.77
1998.544,298.83
1999.376,338.27
2000.208,326.90
2001.040,313.67
2001.873,269.27
2002.705,295.77
2003.536,259.33
2004.367,320.53
2005.199,308.47
2006.030,265.33
2006.861,250.37
2007.692,297.07
2008.523,295.00
2009.354,297.27
2010.185,263.63
2011.016,308.00
2011.846,278.43
2012.677,310.47
2013.507,298.67
2014.338,270.07
2015.168,299.43
2015.999,299.27
2016.829,302.10
2017.659,303.63
2018.489,278.03
2019.319,294.47
2020.149,220.70
2020.980,276.40
2021.810,301.13
2022.639,302.57
2023.469,312.63
2024.298,292.27
2025.128,278.23
2025.957,253.30
2026.786,304.13
2027.615,259.20
2028.444,309.90
2029.273,306.53
2030.102,261.20
2030.931,268.27
2031.758,284.13
2032.586,302.83
2033.415,309.07
2034.243,282.07
2035.072,273.03
2035.900,295.37
2036.728,324.07
2037.556,309.87
2038.385,308.93
2039.213,256.97
2040.040,291.13
2040.868,256.83
2041.696,259.03
2042.524,289.47
2043.351,259.73
2044.179,308.07
2045.006,297.07
2045.006,297.07

Max Intensity Wave.,305.975
Max Intensity Data,3688.47
Min Intensity Wave.,1719.209
Min Intensity Data,-59.07
FWHM Wave.,409.340
FWHM Value,0.87
Pressure Wave.,1123.203
Pressure Value [GPa],3847.74511
G/D Ratio,0.61664
G/D Gband Wave.,1635.466
G/D Gband Intensity,444.65
G/D Dband Wave.,1303.495
G/D Dband Intensity,721.09

<< BACKGROUND SPECTRUM >>
Wave[dcm-1],No610
146.591,2362.00
147.626,2204.00
148.664,2145.00
149.699,2687.00
150.737,2405.00
151.772,2569.00
152.809,2525.00
153.846,2450.00
154.881,2526.00
155.918,2075.00
156.953,2423.00
157.989,2754.00
159.026,2641.00
160.060,2809.00
161.096,3030.00
162.130,2642.00
163.167,2729.00
164.200,2603.00
165.236,2803.00
166.272,2864.00
167.305,2401.00
168.341,2658.00
169.374,2907.00
170.409,2987.00
171.445,2905.00
172.477,2686.00
173.512,2536.00
174.545,2851.00
175.580,3014.00
176.614,3294.00
177.647,2989.00
178.681,3228.00
179.713,3535.00
180.747,3000.00
181.781,2868.00
182.813,3231.00
183.847,3301.00
184.878,2898.00
185.912,3153.00
186.945,3332.00
187.976,3231.00
189.010,2883.00
190.043,3076.00
191.073,3095.00
192.106,2856.00
193.137,3394.00
194.170,2710.00
195.202,3044.00
196.232,2850.00
197.265,3176.00
198.297,3301.00
199.327,2941.00
200.359,3160.00
201.388,3520.00
202.420,3092.00
203.452,3306.00
204.481,2863.00
205.512,3540.00
206.544,3305.00
207.573,3236.00
208.604,3632.00
209.635,3763.00
210.663,3101.00
211.694,3158.00
212.725,3000.00
213.753,2985.00
214.783,3582.00
215.813,3483.00
216.841,3213.00
217.871,3397.00
218.899,3106.00
219.929,3356.00
220.959,3062.00
221.986,3311.00
223.016,2983.00
224.045,3352.00
225.072,3317.00
226.101,3424.00
227.130,3475.00
228.157,2950.00
229.185,2485.00
230.214,3355.00
231.241,2973.00
232.269,2631.00
233.297,2860.00
234.323,3450.00
235.351,2999.00
236.379,3318.00
237.407,2935.00
238.433,3120.00
239.460,3308.00
240.488,3306.00
241.513,3408.00
242.540,3306.00
243.568,3372.00
244.592,3401.00
245.619,3397.00
246.646,3113.00
247.671,3145.00
248.697,2949.00
249.724,3182.00
250.748,3219.00
251.774,3182.00
252.801,3494.00
253.827,3330.00
254.850,3256.00
255.876,2866.00
256.902,3308.00
257.925,3208.00
258.951,2913.00
259.976,2925.00
260.999,3304.00
262.024,2960.00
263.049,3901.00
264.074,3315.00
265.097,3199.00
266.122,3272.00
267.146,3208.00
268.168,3438.00
269.193,3051.00
270.217,3394.00
271.241,2864.00
272.263,3077.00
273.287,3416.00
274.311,2966.00
275.332,3528.00
276.356,3020.00
277.379,3307.00
278.402,3341.00
279.424,3133.00
280.447,3044.00
281.470,2904.00
282.492,3302.00
283.513,3095.00
284.536,3358.00
285.558,3360.00
286.581,3312.00
287.601,3021.00
288.623,2938.00
289.645,3304.00
290.665,3269.00
291.687,3313.00
292.709,3327.00
293.730,3648.00
294.750,3061.00
295.771,2922.00
296.792,3259.00
297.813,3139.00
298.832,3225.00
299.853,2894.00
300.874,3224.00
301.895,3162.00
302.913,3150.00
303.934,3490.00
304.954,3220.00
305.975,3397.00
306.993,2933.00
308.013,3277.00
309.033,3205.00
310.052,3144.00
311.072,3094.00
312.090,3270.00
313.109,3494.00
314.129,3667.00
315.148,3261.00
316.165,3272.00
317.184,3417.00
318.203,2933.00
319.222,2923.00
320.238,3363.00
321.257,3024.00
322.275,2835.00
323.294,3175.00
324.312,3346.00
325.328,3462.00
326.346,3512.00
327.364,3463.00
328.382,3335.00
329.397,3293.00
330.415,3432.00
331.432,3397.00
332.450,3479.00
333.467,3694.00
334.482,2771.00
335.499,3600.00
336.516,3047.00
337.533,2706.00
338.547,3017.00
339.564,3015.00
340.580,3292.00
341.597,3166.00
342.613,3697.00
343.627,3190.00
344.643,3210.00
345.659,3341.00
346.675,3193.00
347.690,3102.00
348.704,3285.00
349.719,3092.00
350.735,2915.00
351.750,3358.00
352.765,3200.00
353.778,3127.00
354.793,3380.00
355.808,2999.00
356.822,3385.00
357.837,2836.00
358.851,3466.00
359.864,3117.00
360.878,2895.00
361.892,3142.00
362.906,3380.00
363.920,2757.00
364.932,3306.00
365.945,3255.00
366.959,3172.00
367.972,3120.00
368.986,2842.00
369.999,3569.00
371.010,3018.00
372.023,3580.00
373.036,3164.00
374.049,3596.00
375.061,3283.00
376.072,3200.00
377.084,3009.00
378.097,2876.00
379.109,3400.00
380.121,3202.00
381.133,2840.00
382.143,3394.00
383.155,2849.00
384.166,3085.00
385.178,3296.00
386.189,3389.00
387.201,2868.00
388.212,3083.00
389.221,3087.00
390.232,3229.00
391.243,3083.00
392.254,3196.00
393.264,3002.00
394.275,3450.00
395.283,3382.00
396.294,3851.00
397.304,3665.00
398.314,3281.00
399.324,3244.00
400.334,2809.00
401.344,3346.00
402.351,2830.00
403.361,3434.00
404.370,3157.00
405.380,3115.00
406.389,3529.00
407.398,3304.00
408.407,3277.00
409.414,3311.00
410.423,3535.00
411.431,2915.00
412.440,2840.00
413.448,3579.00
414.457,3011.00
415.465,2974.00
416.471,3063.00
417.479,3232.00
418.487,2983.00
419.495,3530.00
420.503,3341.00
421.510,2767.00
422.518,3364.00
423.525,3403.00
424.530,3616.00
425.537,3066.00
426.544,3426.00
427.551,3009.00
428.558,3835.00
429.565,3680.00
430.571,3005.00
431.578,3057.00
432.582,3015.00
433.588,3159.00
434.595,2749.00
435.601,3515.00
436.607,3423.00
437.612,2918.00
438.618,3563.00
439.624,3131.00
440.627,3147.00
441.633,3299.00
442.638,3836.00
443.643,3303.00
444.648,3194.00
445.653,3382.00
446.658,3059.00
447.663,3157.00
448.667,3130.00
449.672,3072.00
450.674,3188.00
451.678,2855.00
452.682,3050.00
453.687,3028.00
454.690,3876.00
455.694,3492.00
456.698,2714.00
457.702,2808.00
458.705,2972.00
459.709,2952.00
460.710,3080.00
461.713,3212.00
462.716,3217.00
463.719,3164.00
464.722,3388.00
465.725,3177.00
466.727,3064.00
467.730,3247.00
468.732,2953.00
469.735,3481.00
470.737,3114.00
471.737,3053.00
472.739,3047.00
473.741,2955.00
474.742,3262.00
475.744,3288.00
476.746,3219.00
477.747,3135.00
478.748,3327.00
479.750,3100.00
480.751,3200.00
481.752,3994.00
482.753,3263.00
483.751,3759.00
484.752,2741.00
485.753,3164.00
486.753,3032.00
487.753,3223.00
488.754,3643.00
489.754,2855.00
490.754,3525.00
491.754,3272.00
492.754,2855.00
493.753,3179.00
494.753,3074.00
495.752,3554.00
496.752,3225.00
497.749,3194.00
498.748,3026.00
499.747,3612.00
500.746,3329.00
501.745,2958.00
502.744,2928.00
503.742,3533.00
504.741,3129.00
505.739,2655.00
506.737,3032.00
507.735,3333.00
508.734,3547.00
509.732,3346.00
510.729,3530.00
511.727,3028.00
512.725,3130.00
513.720,2942.00
514.718,3412.00
515.715,2848.00
516.712,2773.00
517.709,3160.00
518.706,3032.00
519.703,3220.00
520.700,3413.00
521.696,3574.00
522.693,3093.00
523.689,3020.00
524.686,3385.00
525.682,2979.00
526.678,3665.00
527.674,3078.00
528.670,2733.00
529.666,3767.00
530.661,3682.00
531.657,3334.00
532.652,3413.00
533.648,3178.00
534.641,3435.00
535.636,3280.00
536.631,3293.00
537.626,3330.00
538.621,2905.00
539.616,2782.00
540.610,2665.00
541.605,3207.00
542.599,3257.00
543.593,3174.00
544.587,4168.00
545.581,2999.00
546.575,3239.00
547.569,3174.00
548.563,2852.00
549.557,2817.00
550.550,2950.00
551.543,2886.00
552.537,3360.00
553.530,2940.00
554.523,2914.00
555.516,3317.00
556.509,3129.00
557.502,2768.00
558.494,3400.00
559.487,3121.00
560.479,3423.00
561.472,3494.00
562.464,3352.00
563.456,3453.00
564.448,3091.00
565.440,3226.00
566.432,3593.00
567.423,3061.00
568.415,3047.00
569.404,3278.00
570.396,2961.00
571.387,3319.00
572.378,3183.00
573.369,4202.00
574.360,3909.00
575.351,3094.00
576.341,3015.00
577.332,3058.00
578.323,2813.00
579.313,3018.00
580.303,3428.00
581.293,3315.00
582.283,3153.00
583.273,3247.00
584.263,3213.00
585.253,3249.00
586.243,3386.00
587.232,2782.00
588.222,3103.00
589.211,3382.00
590.200,3251.00
591.189,3133.00
592.178,3148.00
593.167,3619.00
594.156,3484.00
595.145,3062.00
596.133,3655.00
597.122,3340.00
598.110,3423.00
599.098,3253.00
600.086,3165.00
601.074,3399.00
602.062,3032.00
603.050,2875.00
604.038,3258.00
605.025,2967.00
606.013,3399.00
607.000,3568.00
607.987,3223.00
608.975,3273.00
609.962,2886.00
610.949,3366.00
611.936,3468.00
612.922,3346.00
613.909,2875.00
614.895,3736.00
615.882,3004.00
616.868,3168.00
617.854,2920.00
618.841,3183.00
619.826,3313.00
620.812,3204.00
621.798,2960.00
622.784,3361.00
623.769,3282.00
624.755,2838.00
625.740,3265.00
626.725,2873.00
627.711,3010.00
628.698,3228.00
629.683,2957.00
630.667,3370.00
631.652,2899.00
632.637,3141.00
633.621,3336.00
634.606,3142.00
635.590,3272.00
636.574,3111.00
637.558,3235.00
638.542,3224.00
639.526,2952.00
640.510,2776.00
641.493,3199.00
642.477,3107.00
643.460,2836.00
644.444,3449.00
645.427,3436.00
646.410,2843.00
647.393,3151.00
648.376,3265.00
649.359,3098.00
650.341,3241.00
651.324,3251.00
652.307,3215.00
653.289,3114.00
654.271,3053.00
655.253,3082.00
656.235,3318.00
657.217,3407.00
658.199,2761.00
659.181,2891.00
660.163,3196.00
661.144,3041.00
662.126,3067.00
663.107,2983.00
664.088,4942.00
665.069,3444.00
666.050,2947.00
667.033,2866.00
668.014,3283.00
668.995,2717.00
669.975,3149.00
670.956,3159.00
671.936,3325.00
672.916,3115.00
673.896,3258.00
674.876,3051.00
675.856,3015.00
676.836,2918.00
677.816,2454.00
678.795,2957.00
679.775,2815.00
680.754,3207.00
681.734,3345.00
682.713,3345.00
683.692,2931.00
684.671,2786.00
685.650,2919.00
686.629,2979.00
687.607,2942.00
688.586,2914.00
689.564,2988.00
690.543,3446.00
691.523,2495.00
692.501,2972.00
693.479,3088.00
694.457,2949.00
695.435,3032.00
696.413,2810.00
697.390,2653.00
698.368,2869.00
699.345,3302.00
700.322,3101.00
701.300,3236.00
702.277,3223.00
703.254,3443.00
704.231,2708.00
705.207,3083.00
706.184,2901.00
707.161,2806.00
708.137,2967.00
709.113,2940.00
710.090,2954.00
711.068,2719.00
712.044,2745.00
713.020,3051.00
713.996,2732.00
714.971,2972.00
715.947,2975.00
716.922,2947.00
717.898,2895.00
718.873,3061.00
719.848,2872.00
720.823,2822.00
721.798,3127.00
722.773,2938.00
723.748,2667.00
724.723,3189.00
725.697,3013.00
726.672,2927.00
727.646,2633.00
728.622,3138.00
729.596,2771.00
730.570,2879.00
731.544,3227.00
732.518,3407.00
733.492,2996.00
734.466,3054.00
735.439,3179.00
736.413,3242.00
737.386,2618.00
738.359,2580.00
739.332,2645.00
740.305,3006.00
741.278,3492.00
742.251,3081.00
743.224,2876.00
744.196,2679.00
745.171,3292.00
746.143,3204.00
747.115,2942.00
748.087,2868.00
749.059,3290.00
750.031,3068.00
751.003,3932.00
751.975,3456.00
752.947,2845.00
753.918,3276.00
754.890,2716.00
755.861,2897.00
756.832,3204.00
757.803,2971.00
758.774,3056.00
759.747,2752.00
760.718,3438.00
761.689,2905.00
762.659,2731.00
763.630,3320.00
764.600,2732.00
765.570,3212.00
766.540,3326.00
767.510,3123.00
768.480,3224.00
769.450,2841.00
770.420,2996.00
771.390,2781.00
772.359,2910.00
773.329,2813.00
774.300,2654.00
775.269,2917.00
776.238,3170.00
777.207,3284.00
778.176,2606.00
779.145,2961.00
780.114,2826.00
781.083,2681.00
782.051,2921.00
783.019,2833.00
783.988,3238.00
784.956,3004.00
785.924,3175.00
786.894,3050.00
787.862,2883.00
788.830,3292.00
789.797,2773.00
790.765,2754.00
791.732,2896.00
792.700,2778.00
793.667,2708.00
794.634,2875.00
795.601,2904.00
796.568,2949.00
797.535,3013.00
798.502,3609.00
799.468,3043.00
800.437,2544.00
801.403,2794.00
802.370,3494.00
803.336,3142.00
804.302,3015.00
805.268,2572.00
806.234,2720.00
807.200,2881.00
808.166,2905.00
809.131,2695.00
810.097,3153.00
811.062,3860.00
812.027,3175.00
812.994,2726.00
813.960,2762.00
814.925,3138.00
815.889,2617.00
816.854,3175.00
817.819,2825.00
818.783,2901.00
819.748,3248.00
820.712,2903.00
821.677,2811.00
822.641,2818.00
823.605,2831.00
824.571,3312.00
825.534,2883.00
826.498,2826.00
827.462,2917.00
828.425,2775.00
829.389,3221.00
830.352,2942.00
831.315,3041.00
832.279,2627.00
833.242,2918.00
834.204,2791.00
835.167,2776.00
836.132,3198.00
837.095,2630.00
838.057,2829.00
839.020,2939.00
839.982,2992.00
840.944,2817.00
841.906,2745.00
842.868,3094.00
843.830,2690.00
844.792,3205.00
845.753,2854.00
846.715,2583.00
847.679,2745.00
848.640,2753.00
849.601,2891.00
850.562,3408.00
851.523,2835.00
852.484,2591.00
853.445,3170.00
854.406,2842.00
855.367,2857.00
856.327,3186.00
857.288,2647.00
858.248,2817.00
859.210,2865.00
860.170,2638.00
861.130,3180.00
862.090,2547.00
863.050,2734.00
864.010,2807.00
864.969,3033.00
865.929,2740.00
866.888,2658.00
867.848,2972.00
868.807,2750.00
869.766,2999.00
870.727,2860.00
871.686,3156.00
872.645,3153.00
873.604,3464.00
874.562,2891.00
875.521,2957.00
876.479,3540.00
877.437,2742.00
878.396,2772.00
879.354,3334.00
880.312,2763.00
881.270,2808.00
882.229,3288.00
883.187,2749.00
884.145,2813.00
885.102,3079.00
886.059,2985.00
887.017,3072.00
887.974,3143.00
888.931,3239.00
889.888,2667.00
890.845,2586.00
891.802,2436.00
892.758,2778.00
893.717,2550.00
894.673,2695.00
895.630,2765.00
896.586,3072.00
897.542,2824.00
898.498,2677.00
899.454,3026.00
900.410,2823.00
901.366,2792.00
902.321,2717.00
903.277,2822.00
904.232,2884.00
905.189,2598.00
906.145,2761.00
907.100,2338.00
908.055,2836.00
909.010,3065.00
909.965,2432.00
910.919,2923.00
911.874,2721.00
912.828,2920.00
913.783,2911.00
914.737,2456.00
915.693,2875.00
916.648,3022.00
917.602,3129.00
918.555,2971.00
919.509,2908.00
920.463,2922.00
921.417,2924.00
922.370,2698.00
923.324,2815.00
924.277,2832.00
925.230,2897.00
926.183,2545.00
927.138,2837.00
928.091,3118.00
929.044,2948.00
929.996,2763.00
930.949,2783.00
931.902,2991.00
932.854,3005.00
933.806,2740.00
934.758,3127.00
935.711,3127.00
936.663,3019.00
937.614,2939.00
938.568,2868.00
939.520,2527.00
940.471,2834.00
941.423,2942.00
942.374,3043.00
943.326,2897.00
944.277,2739.00
945.228,3020.00
946.179,2796.00
947.130,3223.00
948.080,2795.00
949.031,2690.00
949.984,2813.00
950.934,2857.00
951.884,2583.00
952.835,2866.00
953.785,2885.00
954.735,2723.00
955.685,2478.00
956.635,2779.00
957.585,2752.00
958.534,2782.00
959.484,2903.00
960.433,2700.00
961.383,2606.00
962.334,3116.00
963.283,2924.00
964.232,2975.00
965.181,2833.00
966.130,2948.00
967.079,2753.00
968.027,2841.00
968.976,2875.00
969.924,2758.00
970.873,2977.00
971.821,2867.00
972.769,3111.00
973.719,2983.00
974.667,2601.00
975.615,2843.00
976.562,2898.00
977.510,2551.00
978.458,2759.00
979.405,2971.00
980.352,2903.00
981.300,3132.00
982.247,2918.00
983.194,2639.00
984.141,2755.00
985.088,2871.00
986.036,2920.00
986.983,3208.00
987.930,3275.00
988.876,2450.00
989.822,3115.00
990.769,2701.00
991.715,2740.00
992.661,2547.00
993.607,2924.00
994.553,3486.00
995.498,2711.00
996.444,2416.00
997.389,2894.00
998.337,2665.00
999.282,3024.00
1000.227,2755.00
1001.173,2829.00
1002.118,2592.00
1003.062,3071.00
1004.007,2857.00
1004.952,3135.00
1005.897,3150.00
1006.841,2833.00
1007.786,2571.00
1008.730,2526.00
1009.674,3322.00
1010.618,2740.00
1011.564,2654.00
1012.508,2515.00
1013.452,3064.00
1014.396,2856.00
1015.339,2748.00
1016.283,2824.00
1017.226,2891.00
1018.170,2869.00
1019.113,3044.00
1020.056,2876.00
1020.999,2856.00
1021.942,2714.00
1022.885,3007.00
1023.828,3168.00
1024.770,2592.00
1025.715,2900.00
1026.657,2832.00
1027.600,2902.00
1028.542,3072.00
1029.484,2885.00
1030.426,2992.00
1031.368,2896.00
1032.310,2728.00
1033.251,2637.00
1034.193,2839.00
1035.135,2605.00
1036.076,2749.00
1037.017,2664.00
1037.959,3010.00
1038.900,2930.00
1039.843,2947.00
1040.784,2846.00
1041.725,2912.00
1042.665,2744.00
1043.606,2925.00
1044.547,2907.00
1045.487,2493.00
1046.427,2829.00
1047.368,2892.00
1048.308,2326.00
1049.248,2678.00
1050.188,2855.00
1051.128,2763.00
1052.067,2789.00
1053.007,2473.00
1053.947,2488.00
1054.886,2654.00
1055.827,2610.00
1056.766,3130.00
1057.706,2574.00
1058.645,2784.00
1059.584,2892.00
1060.522,3125.00
1061.461,2565.00
1062.400,2601.00
1063.338,2777.00
1064.277,2624.00
1065.215,2650.00
1066.154,2490.00
1067.092,2718.00
1068.030,2790.00
1068.968,3004.00
1069.906,3160.00
1070.843,3089.00
1071.781,2885.00
1072.720,2933.00
1073.658,2949.00
1074.595,2737.00
1075.533,2683.00
1076.470,2711.00
1077.407,3138.00
1078.344,2898.00
1079.281,2914.00
1080.217,2411.00
1081.154,2811.00
1082.091,2869.00
1083.027,2536.00
1083.964,3029.00
1084.900,2691.00
1085.836,2730.00
1086.772,3023.00
1087.708,2580.00
1088.644,2963.00
1089.580,2866.00
1090.515,2873.00
1091.451,2754.00
1092.388,2817.00
1093.324,2570.00
1094.259,3400.00
1095.194,2855.00
1096.129,2736.00
1097.064,2694.00
1097.999,2953.00
1098.934,2684.00
1099.869,2666.00
1100.803,2840.00
1101.738,2837.00
1102.672,2531.00
1103.607,2952.00
1104.541,2669.00
1105.475,2701.00
1106.409,2499.00
1107.343,2767.00
1108.277,2537.00
1109.210,2814.00
1110.144,2799.00
1111.078,2790.00
1112.011,2546.00
1112.944,2902.00
1113.878,2868.00
1114.811,2267.00
1115.744,2632.00
1116.678,2429.00
1117.611,2728.00
1118.544,2700.00
1119.477,2902.00
1120.409,2673.00
1121.342,3266.00
1122.274,2865.00
1123.206,3156.00
1124.138,2797.00
1125.070,3111.00
1126.002,3012.00
1126.934,2366.00
1127.866,2693.00
1128.798,2450.00
1129.729,2482.00
1130.661,2773.00
1131.592,2712.00
1132.523,2891.00
1133.454,2853.00
1134.385,2413.00
1135.317,2814.00
1136.247,2740.00
1137.178,3006.00
1138.109,2474.00
1139.039,3151.00
1139.970,3000.00
1140.900,2717.00
1141.831,2468.00
1142.761,2337.00
1143.691,3467.00
1144.621,2753.00
1145.551,2851.00
1146.480,2836.00
1147.410,2939.00
1148.340,2399.00
1149.269,2475.00
1150.199,2718.00
1151.128,3221.00
1152.057,2590.00
1152.979,2711.00
1153.898,2727.00
1154.819,2865.00
1155.739,2707.00
1156.658,2649.00
1157.579,2803.00
1158.498,2766.00
1159.419,2278.00
1160.338,2818.00
1161.256,2839.00
1162.177,2642.00
1163.095,2749.00
1164.016,2837.00
1164.934,3069.00
1165.852,2947.00
1166.772,2741.00
1167.690,2855.00
1168.610,2859.00
1169.528,2746.00
1170.446,2259.00
1171.365,2679.00
1172.283,2646.00
1173.202,2766.00
1174.120,2809.00
1175.037,2619.00
1175.956,2602.00
1176.873,2605.00
1177.792,2661.00
1178.709,3262.00
1179.626,2663.00
1180.544,2977.00
1181.461,2603.00
1182.379,2866.00
1183.296,2752.00
1184.212,2407.00
1185.130,2607.00
1186.046,3118.00
1186.962,2757.00
1187.880,3065.00
1188.796,2782.00
1189.714,2491.00
1190.629,2885.00
1191.545,2802.00
1192.462,2702.00
1193.378,2701.00
1194.295,2418.00
1195.210,2763.00
1196.125,2876.00
1197.042,2828.00
1197.957,2751.00
1198.872,2621.00
1199.788,2666.00
1200.703,3085.00
1201.619,2764.00
1202.534,2618.00
1203.448,2875.00
1204.364,2668.00
1205.278,2411.00
1206.192,2816.00
1207.108,3292.00
1208.022,3171.00
1208.938,2597.00
1209.851,2926.00
1210.765,3053.00
1211.680,2636.00
1212.594,2526.00
1213.507,2691.00
1214.422,3197.00
1215.335,2923.00
1216.248,2685.00
1217.163,2776.00
1218.076,3391.00
1218.990,2886.00
1219.903,2539.00
1220.816,2587.00
1221.730,2688.00
1222.642,2630.00
1223.554,2681.00
1224.469,2851.00
1225.380,2683.00
1226.292,2381.00
1227.206,2912.00
1228.118,3087.00
1229.032,2358.00
1229.943,2639.00
1230.855,2723.00
1231.768,2476.00
1232.679,2882.00
1233.590,2737.00
1234.503,2967.00
1235.414,2607.00
1236.325,2605.00
1237.238,2801.00
1238.149,2879.00
1239.059,2587.00
1239.972,2930.00
1240.882,2535.00
1241.793,2878.00
1242.705,3130.00
1243.615,2743.00
1244.525,2813.00
1245.437,2319.00
1246.347,2817.00
1247.259,2965.00
1248.168,3163.00
1249.078,3051.00
1249.989,3054.00
1250.899,2571.00
1251.808,2630.00
1252.719,2666.00
1253.628,2587.00
1254.537,3161.00
1255.448,2575.00
1256.357,2557.00
1257.266,2725.00
1258.176,2495.00
1259.085,2459.00
1259.993,2539.00
1260.904,2563.00
1261.812,2591.00
1262.720,3402.00
1263.630,2951.00
1264.538,2590.00
1265.446,2875.00
1266.356,2687.00
1267.263,3052.00
1268.171,2535.00
1269.080,2833.00
1269.988,2918.00
1270.895,2671.00
1271.804,2741.00
1272.711,2935.00
1273.619,2935.00
1274.527,2540.00
1275.434,2926.00
1276.341,2559.00
1277.248,2830.00
1278.156,3070.00
1279.063,2645.00
1279.969,2840.00
1280.877,3722.00
1281.783,2957.00
1282.690,2852.00
1283.598,2766.00
1284.503,2605.00
1285.409,2561.00
1286.317,3130.00
1287.223,3200.00
1288.128,2805.00
1289.036,2642.00
1289.941,2719.00
1290.846,2741.00
1291.751,2580.00
1292.658,2662.00
1293.563,3217.00
1294.468,2810.00
1295.375,2890.00
1296.280,3013.00
1297.184,3517.00
1298.091,2887.00
1298.995,2913.00
1299.900,3148.00
1300.806,2666.00
1301.710,2499.00
1302.614,2307.00
1303.518,2999.00
1304.424,2697.00
1305.327,2964.00
1306.231,2718.00
1307.137,2911.00
1308.040,2818.00
1308.943,2787.00
1309.847,2960.00
1310.752,2984.00
1311.655,2386.00
1312.558,2548.00
1313.463,2710.00
1314.366,2633.00
1315.269,2813.00
1316.171,2728.00
1317.076,2648.00
1317.978,2524.00
1318.881,2326.00
1319.785,2614.00
1320.687,2600.00
1321.589,2336.00
1322.491,2585.00
1323.395,2853.00
1324.297,3368.00
1325.198,2909.00
1326.102,2581.00
1327.004,2578.00
1327.905,3130.00
1328.806,2732.00
1329.709,2838.00
1330.611,2715.00
1331.512,2532.00
1332.413,3245.00
1333.316,2812.00
1334.216,2945.00
1335.117,2458.00
1336.020,2821.00
1336.920,2751.00
1337.821,2612.00
1338.721,3038.00
1339.623,2856.00
1340.523,2707.00
1341.423,2647.00
1342.323,3069.00
1343.225,2808.00
1344.125,2560.00
1345.025,2623.00
1345.924,2382.00
1346.826,3127.00
1347.725,3185.00
1348.624,3008.00
1349.524,2638.00
1350.425,2676.00
1351.324,2851.00
1352.223,2983.00
1353.121,2728.00
1354.022,2960.00
1354.921,3213.00
1355.819,2867.00
1356.718,2830.00
1357.618,2512.00
1358.516,2865.00
1359.415,3158.00
1360.313,2811.00
1361.213,2748.00
1362.111,3049.00
1363.008,3447.00
1363.906,2740.00
1364.806,2775.00
1365.703,2860.00
1366.601,2611.00
1367.498,2579.00
1368.397,2969.00
1369.295,2815.00
1370.192,2589.00
1371.089,2814.00
1371.987,2750.00
1372.884,3034.00
1373.781,2526.00
1374.678,2742.00
1375.574,2561.00
1376.473,2849.00
1377.369,3020.00
1378.265,2573.00
1379.161,2708.00
1380.059,2423.00
1380.955,2879.00
1381.851,2553.00
1382.747,2611.00
1383.643,2680.00
1384.540,2539.00
1385.436,2643.00
1386.331,2831.00
1387.227,2951.00
1388.124,2904.00
1389.019,2535.00
1389.914,2731.00
1390.809,2410.00
1391.704,3187.00
1392.601,2665.00
1393.495,3031.00
1394.390,2962.00
1395.285,2992.00
1396.179,2854.00
1397.075,2735.00
1397.969,2822.00
1398.864,2432.00
1399.758,2724.00
1400.652,2768.00
1401.547,2579.00
1402.441,2524.00
1403.335,3120.00
1404.229,2845.00
1405.122,2820.00
1406.017,2763.00
1406.911,2901.00
1407.804,3132.00
1408.697,2771.00
1409.590,2589.00
1410.485,2931.00
1411.378,2815.00
1412.271,2445.00
1413.163,2786.00
1414.056,2919.00
1414.949,3143.00
1415.843,2834.00
1416.735,2738.00
1417.627,2788.00
1418.520,2795.00
1419.412,2954.00
1420.306,2949.00
1421.197,3060.00
1422.089,2985.00
1422.981,3246.00
1423.873,2980.00
1424.764,2878.00
1425.657,2789.00
1426.549,2938.00
1427.440,2985.00
1428.331,2673.00
1429.222,2428.00
1430.113,2834.00
1431.006,2993.00
1431.897,2682.00
1432.787,2794.00
1433.678,2717.00
1434.568,2560.00
1435.459,2987.00
1436.351,2965.00
1437.241,2912.00
1438.131,2950.00
1439.021,2528.00
1439.911,2751.00
1440.801,2870.00
1441.693,3045.00
1442.583,2765.00
1443.472,2753.00
1444.362,2943.00
1445.251,2724.00
1446.140,2706.00
1447.030,3002.00
1447.921,2958.00
1448.810,2599.00
1449.699,3172.00
1450.588,2796.00
1451.476,2676.00
1452.365,2905.00
1453.254,2670.00
1454.144,2653.00
1455.032,2916.00
1455.921,2500.00
1456.809,3110.00
1457.697,2532.00
1458.585,2722.00
1459.473,2733.00
1460.361,2625.00
1461.251,2873.00
1462.138,2869.00
1463.026,2756.00
1463.913,3027.00
1464.801,2711.00
1465.688,2870.00
1466.575,2787.00
1467.463,3256.00
1468.351,2607.00
1469.238,2774.00
1470.125,2425.00
1471.012,2811.00
1471.899,2877.00
1472.785,2590.00
1473.672,2808.00
1474.558,2991.00
1475.446,2959.00
1476.333,2954.00
1477.219,2580.00
1478.105,2732.00
1478.991,2739.00
1479.877,3123.00
1480.762,2757.00
1481.648,2609.00
1482.534,2953.00
1483.419,2807.00
1484.307,2927.00
1485.192,2754.00
1486.077,2583.00
1486.962,2671.00
1487.847,2519.00
1488.732,2591.00
1489.617,2784.00
1490.502,3043.00
1491.387,2946.00
1492.271,2590.00
1493.156,2607.00
1494.042,2592.00
1494.927,3019.00
1495.811,2660.00
1496.695,2936.00
1497.579,3095.00
1498.463,2773.00
1499.347,2827.00
1500.231,2832.00
1501.114,2861.00
1501.998,3067.00
1502.881,2814.00
1503.765,3107.00
1504.648,3201.00
1505.533,2906.00
1506.417,2811.00
1507.300,2764.00
1508.183,2890.00
1509.066,2259.00
1509.948,3064.00
1510.831,3154.00
1511.714,2588.00
1512.596,2944.00
1513.479,3083.00
1514.361,3009.00
1515.243,2820.00
1516.125,2964.00
1517.008,3077.00
1517.890,2771.00
1518.771,2823.00
1519.655,3021.00
1520.537,2757.00
1521.419,2607.00
1522.300,2838.00
1523.182,2923.00
1524.063,2955.00
1524.944,3111.00
1525.825,2999.00
1526.707,2601.00
1527.588,2570.00
1528.468,2871.00
1529.349,2422.00
1530.230,2743.00
1531.111,2975.00
1531.991,2893.00
1532.872,2478.00
1533.752,2764.00
1534.632,2622.00
1535.513,2650.00
1536.393,2958.00
1537.273,3109.00
1538.153,3501.00
1539.032,2528.00
1539.912,2757.00
1540.792,2813.00
1541.672,2822.00
1542.551,2935.00
1543.430,3441.00
1544.310,2823.00
1545.189,2715.00
1546.068,3269.00
1546.947,2911.00
1547.826,3139.00
1548.705,2783.00
1549.584,3066.00
1550.462,2771.00
1551.341,3002.00
1552.219,2886.00
1553.098,2951.00
1553.976,3024.00
1554.854,3223.00
1555.733,3000.00
1556.611,2729.00
1557.489,2594.00
1558.367,2821.00
1559.244,2979.00
1560.122,2808.00
1561.000,2886.00
1561.877,3117.00
1562.755,2646.00
1563.632,2775.00
1564.509,3061.00
1565.386,3208.00
1566.264,2539.00
1567.141,2405.00
1568.017,2990.00
1568.894,2823.00
1569.771,2857.00
1570.648,2930.00
1571.524,2850.00
1572.401,2541.00
1573.277,2591.00
1574.153,2843.00
1575.029,2645.00
1575.906,3640.00
1576.781,2995.00
1577.657,2742.00
1578.533,3038.00
1579.409,2434.00
1580.285,2792.00
1581.160,3278.00
1582.036,2961.00
1582.911,2593.00
1583.786,3188.00
1584.662,2592.00
1585.537,2785.00
1586.412,2866.00
1587.287,2619.00
1588.160,3009.00
1589.035,2428.00
1589.909,2806.00
1590.784,2805.00
1591.658,2590.00
1592.533,2887.00
1593.407,2864.00
1594.281,2680.00
1595.155,3211.00
1596.029,2752.00
1596.903,2742.00
1597.777,2744.00
1598.651,3096.00
1599.525,2527.00
1600.398,2857.00
1601.272,2761.00
1602.144,3412.00
1603.017,2764.00
1603.890,3091.00
1604.763,2902.00
1605.636,2939.00
1606.509,2504.00
1607.382,2636.00
1608.255,2894.00
1609.128,3060.00
1610.000,2786.00
1610.873,2461.00
1611.746,2705.00
1612.616,2752.00
1613.488,2380.00
1614.361,2813.00
1615.233,2767.00
1616.105,3015.00
1616.977,2741.00
1617.849,2656.00
1618.720,3166.00
1619.592,3122.00
1620.464,2867.00
1621.333,3334.00
1622.205,2812.00
1623.076,2789.00
1623.947,2805.00
1624.818,3099.00
1625.689,2945.00
1626.560,2708.00
1627.431,2867.00
1628.302,3246.00
1629.171,2931.00
1630.042,3186.00
1630.912,3473.00
1631.782,3430.00
1632.653,2568.00
1633.523,3007.00
1634.393,3053.00
1635.263,2615.00
1636.131,2761.00
1637.001,2733.00
1637.871,2435.00
1638.741,2431.00
1639.611,2518.00
1640.480,2930.00
1641.350,2694.00
1642.219,2630.00
1643.087,2259.00
1643.956,3273.00
1644.825,3096.00
1645.694,3033.00
1646.563,3033.00
1647.432,2854.00
1648.299,2882.00
1649.167,2973.00
1650.036,2635.00
1650.904,3014.00
1651.773,3064.00
1652.641,2809.00
1653.509,2999.00
1654.376,2663.00
1655.244,2849.00
1656.112,2869.00
1656.980,2819.00
1657.847,2711.00
1658.715,2967.00
1659.581,2739.00
1660.448,3059.00
1661.316,2318.00
1662.183,2834.00
1663.051,2902.00
1663.918,2887.00
1664.783,2822.00
1665.650,2904.00
1666.517,2996.00
1667.384,2856.00
1668.251,2874.00
1669.115,3089.00
1669.982,2813.00
1670.849,3124.00
1671.715,2805.00
1672.581,2944.00
1673.446,2967.00
1674.312,2871.00
1675.178,3252.00
1676.044,2931.00
1676.910,2913.00
1677.774,2862.00
1678.639,2443.00
1679.505,2829.00
1680.370,3002.00
1681.236,3499.00
1682.099,2757.00
1682.965,2843.00
1683.830,2402.00
1684.695,2620.00
1685.560,2755.00
1686.423,2947.00
1687.288,2971.00
1688.153,2892.00
1689.017,2764.00
1689.880,2882.00
1690.745,3002.00
1691.609,2658.00
1692.473,3029.00
1693.338,3060.00
1694.200,3085.00
1695.064,2833.00
1695.928,2704.00
1696.792,2846.00
1697.654,3381.00
1698.517,2898.00
1699.381,2583.00
1700.245,2441.00
1701.106,3192.00
1701.969,2734.00
1702.833,3017.00
1703.696,2710.00
1704.557,2802.00
1705.420,2712.00
1706.283,2869.00
1707.146,2990.00
1708.007,2636.00
1708.870,2601.00
1709.732,2473.00
1710.595,2723.00
1711.455,2548.00
1712.318,2720.00
1713.180,3126.00
1714.040,2898.00
1714.902,3043.00
1715.764,2784.00
1716.626,2592.00
1717.486,2860.00
1718.348,3161.00
1719.209,5150.00
1720.071,2497.00
1720.930,2541.00
1721.792,2684.00
1722.653,2670.00
1723.512,2700.00
1724.374,2778.00
1725.234,2927.00
1726.095,2897.00
1726.954,2833.00
1727.815,2909.00
1728.676,2856.00
1729.535,3046.00
1730.395,2807.00
1731.256,2718.00
1732.114,2902.00
1732.974,2276.00
1733.834,3237.00
1734.693,3023.00
1735.553,2877.00
1736.413,3285.00
1737.272,2724.00
1738.130,2754.00
1738.990,2918.00
1739.849,2714.00
1740.707,3879.00
1741.566,2896.00
1742.426,2888.00
1743.283,3284.00
1744.142,2685.00
1745.001,2515.00
1745.858,3025.00
1746.717,2905.00
1747.576,2925.00
1748.433,3011.00
1749.292,3503.00
1750.150,3482.00
1751.007,3034.00
1751.865,3043.00
1752.723,2895.00
1753.579,2763.00
1754.438,3052.00
1755.296,3057.00
1756.152,2403.00
1757.010,2502.00
1757.865,3055.00
1758.723,2476.00
1759.581,3151.00
1760.436,2802.00
1761.294,3217.00
1762.151,2839.00
1763.006,2777.00
1763.864,2470.00
1764.721,3060.00
1765.576,2899.00
1766.433,3018.00
1767.288,2758.00
1768.144,2865.00
1769.001,2820.00
1769.856,2938.00
1770.712,3049.00
1771.568,2585.00
1772.423,2763.00
1773.279,2753.00
1774.133,2765.00
1774.989,3271.00
1775.845,3226.00
1776.699,3123.00
1777.555,2839.00
1778.409,3407.00
1779.265,2803.00
1780.120,2836.00
1780.974,2827.00
1781.829,2406.00
1782.682,2894.00
1783.538,2643.00
1784.393,2856.00
1785.246,2751.00
1786.101,2916.00
1786.954,2964.00
1787.808,3054.00
1788.661,2525.00
1789.516,2766.00
1790.370,2749.00
1791.223,3016.00
1792.077,2844.00
1792.930,2939.00
1793.784,2672.00
1794.636,2870.00
1795.490,2817.00
1796.344,2912.00
1797.196,2843.00
1798.049,3025.00
1798.901,2756.00
1799.755,3091.00
1800.606,2661.00
1801.460,3451.00
1802.311,3191.00
1803.165,3276.00
1804.018,3218.00
1804.869,2947.00
1805.722,3343.00
1806.573,2870.00
1807.426,2668.00
1808.276,2856.00
1809.129,2775.00
1809.980,3058.00
1810.832,3177.00
1811.683,2833.00
1812.535,3233.00
1813.385,2802.00
1814.237,3165.00
1815.089,2854.00
1815.940,3159.00
1816.791,2767.00
1817.641,2701.00
1818.493,3043.00
1819.343,2945.00
1820.194,2742.00
1821.044,2915.00
1821.895,3107.00
1822.745,2558.00
1823.596,2739.00
1824.445,3312.00
1825.296,2967.00
1826.145,2831.00
1826.996,3076.00
1827.845,2918.00
1828.695,2920.00
1829.544,2851.00
1830.395,2890.00
1831.243,2809.00
1832.094,2601.00
1832.942,3476.00
1833.792,3023.00
1834.640,2956.00
1835.490,2882.00
1836.338,2890.00
1837.186,2712.00
1838.036,2738.00
1838.884,2856.00
1839.733,3188.00
1840.581,3076.00
1841.430,2977.00
1842.278,3228.00
1843.127,2776.00
1843.974,2524.00
1844.823,3304.00
1845.671,2995.00
1846.519,2908.00
1847.366,2892.00
1848.213,2496.00
1849.062,2669.00
1849.909,2591.00
1850.757,3540.00
1851.604,2980.00
1852.452,2777.00
1853.298,2998.00
1854.146,2895.00
1854.993,2897.00
1855.839,3441.00
1856.687,2958.00
1857.532,3028.00
1858.380,2850.00
1859.226,2919.00
1860.073,2979.00
1860.919,2693.00
1861.765,2740.00
1862.612,3097.00
1863.457,3086.00
1864.304,2847.00
1865.150,3014.00
1865.995,2797.00
1866.842,3007.00
1867.686,3109.00
1868.533,2950.00
1869.378,2952.00
1870.223,2899.00
1871.069,2762.00
1871.914,2887.00
1872.760,2888.00
1873.604,2612.00
1874.448,3030.00
1875.294,3048.00
1876.139,2746.00
1876.984,2988.00
1877.828,2497.00
1878.672,2365.00
1879.518,2753.00
1880.361,3081.00
1881.205,3005.00
1882.050,2671.00
1882.894,3426.00
1883.739,2727.00
1884.582,2626.00
1885.425,2674.00
1886.270,3122.00
1887.113,2580.00
1887.956,2954.00
1888.801,2884.00
1889.644,2713.00
1890.486,2461.00
1891.331,2780.00
1892.173,2924.00
1893.017,2957.00
1893.860,3191.00
1894.702,3199.00
1895.546,2876.00
1896.388,3640.00
1897.230,3266.00
1898.074,2763.00
1898.916,2626.00
1899.757,2692.00
1900.601,3641.00
1901.443,3188.00
1902.284,3190.00
1903.125,3433.00
1903.969,3081.00
1904.810,3122.00
1905.651,3000.00
1906.494,3216.00
1907.335,3359.00
1908.176,3003.00
1909.018,2953.00
1909.859,2868.00
1910.700,2729.00
1911.542,3427.00
1912.383,2987.00
1913.223,2494.00
1914.064,3029.00
1914.906,3175.00
1915.746,3206.00
1916.586,3378.00
1917.428,2888.00
1918.268,2923.00
1919.107,2758.00
1919.947,2637.00
1920.789,2800.00
1921.628,3128.00
1922.468,2878.00
1923.309,2745.00
1924.148,3230.00
1924.988,2984.00
1925.827,2864.00
1926.667,2733.00
1927.507,2935.00
1928.345,2708.00
1929.184,3065.00
1930.025,2685.00
1930.864,3151.00
1931.702,3195.00
1932.541,2805.00
1933.381,3035.00
1934.219,3038.00
1935.057,3195.00
1935.896,2571.00
1936.735,2803.00
1937.573,2802.00
1938.411,2696.00
1939.249,3063.00
1940.089,2751.00
1940.927,3158.00
1941.764,3228.00
1942.602,2828.00
1943.439,2795.00
1944.278,2866.00
1945.115,2837.00
1945.953,2600.00
1946.790,2977.00
1947.628,3251.00
1948.465,2988.00
1949.302,3066.00
1950.139,3021.00
1950.976,2798.00
1951.814,3046.00
1952.651,2933.00
1953.487,2676.00
1954.323,3142.00
1955.160,2860.00
1955.998,3316.00
1956.834,2890.00
1957.670,2988.00
1958.506,3137.00
1959.342,2997.00
1960.177,2940.00
1961.015,3037.00
1961.850,2968.00
1962.686,2907.00
1963.521,2910.00
1964.357,3208.00
1965.192,2662.00
1966.029,3076.00
1966.864,2799.00
1967.699,3104.00
1968.534,2924.00
1969.369,3208.00
1970.204,2865.00
1971.040,2946.00
1971.875,2833.00
1972.709,2936.00
1973.544,2716.00
1974.378,2810.00
1975.212,3013.00
1976.047,2819.00
1976.882,2773.00
1977.716,3340.00
1978.550,2608.00
1979.384,2843.00
1980.218,2838.00
1981.052,2831.00
1981.885,2977.00
1982.719,2893.00
1983.554,3099.00
1984.388,3236.00
1985.221,3010.00
1986.054,3202.00
1986.887,2963.00
1987.720,2714.00
1988.553,3197.00
1989.386,3012.00
1990.219,3057.00
1991.053,3267.00
1991.886,2809.00
1992.719,3107.00
1993.551,2400.00
1994.383,3050.00
1995.216,2818.00
1996.048,2610.00
1996.880,3094.00
1997.712,2804.00
1998.544,2885.00
1999.376,2941.00
2000.208,3188.00
2001.040,3376.00
2001.873,2729.00
2002.705,2718.00
2003.536,2998.00
2004.367,2933.00
2005.199,2929.00
2006.030,2815.00
2006.861,2736.00
2007.692,2925.00
2008.523,2750.00
2009.354,2946.00
2010.185,2734.00
2011.016,3052.00
2011.846,3158.00
2012.677,2836.00
2013.507,3280.00
2014.338,3181.00
2015.168,2829.00
2015.999,3469.00
2016.829,2836.00
2017.659,3148.00
2018.489,3502.00
2019.319,2714.00
2020.149,3182.00
2020.980,2957.00
2021.810,2697.00
2022.639,2780.00
2023.469,2764.00
2024.298,2580.00
2025.128,2506.00
2025.957,2542.00
2026.786,2300.00
2027.615,2565.00
2028.444,2732.00
2029.273,2913.00
2030.102,2532.00
2030.931,2773.00
2031.758,3058.00
2032.586,2677.00
2033.415,2742.00
2034.243,2349.00
2035.072,2135.00
2035.900,2640.00
2036.728,2415.00
2037.556,2476.00
2038.385,2495.00
2039.213,2342.00
2040.040,2293.00
2040.868,2286.00
2041.696,2348.00
2042.524,2335.00
2043.351,2577.00
2044.179,2327.00
2045.006,2084.00
