RamanScope Measure Spectrum Data V3.72

<< MEASURE CONDITION >>
Exposure Type,Aver
Exposure Time [sec],15
Exposure Count,30
Measure Time,2023/07/11 20:50:52
Data Name,""
Data Comment,""
Rayleigh Wave[nm],532.0

<< SAMPLE SPECTRUM >>
Wave[dcm-1],No606
146.591,1152.13
147.626,1314.27
148.664,1510.60
149.699,1759.50
150.737,1970.07
151.772,2197.80
152.809,2384.10
153.846,2526.87
154.881,2690.77
155.918,2808.60
156.953,2908.20
157.989,2998.00
159.026,3067.13
160.060,3127.80
161.096,3170.23
162.130,3251.27
163.167,3260.67
164.200,3311.83
165.236,3410.70
166.272,3425.97
167.305,3510.13
168.341,3642.47
169.374,3702.90
170.409,3811.47
171.445,3903.70
172.477,3967.70
173.512,4016.67
174.545,4042.30
175.580,4118.47
176.614,4116.40
177.647,4106.50
178.681,4083.83
179.713,4004.93
180.747,4002.07
181.781,3913.70
182.813,3941.07
183.847,3835.47
184.878,3793.90
185.912,3782.73
186.945,3792.57
187.976,3748.10
189.010,3756.87
190.043,3792.00
191.073,3810.40
192.106,3865.70
193.137,3848.67
194.170,3851.73
195.202,3835.93
196.232,3939.47
197.265,3987.63
198.297,4023.23
199.327,4035.33
200.359,4068.73
201.388,4079.17
202.420,4141.13
203.452,4188.37
204.481,4232.00
205.512,4215.73
206.544,4286.70
207.573,4434.50
208.604,4412.07
209.635,4479.50
210.663,4589.67
211.694,4568.53
212.725,4581.20
213.753,4620.10
214.783,4589.87
215.813,4672.47
216.841,4648.57
217.871,4652.30
218.899,4637.13
219.929,4579.17
220.959,4612.37
221.986,4566.00
223.016,4531.80
224.045,4533.67
225.072,4461.27
226.101,4433.73
227.130,4379.30
228.157,4349.67
229.185,4340.90
230.214,4365.03
231.241,4291.93
232.269,4313.47
233.297,4268.27
234.323,4290.20
235.351,4276.77
236.379,4246.13
237.407,4259.00
238.433,4227.57
239.460,4262.50
240.488,4252.93
241.513,4246.43
242.540,4268.07
243.568,4236.30
244.592,4305.70
245.619,4267.97
246.646,4296.73
247.671,4302.83
248.697,4373.30
249.724,4287.87
250.748,4319.97
251.774,4375.43
252.801,4426.37
253.827,4363.83
254.850,4448.67
255.876,4463.20
256.902,4468.30
257.925,4538.40
258.951,4526.47
259.976,4579.50
260.999,4616.77
262.024,4676.00
263.049,4668.23
264.074,4682.67
265.097,4708.83
266.122,4728.77
267.146,4770.37
268.168,4787.77
269.193,4717.93
270.217,4793.80
271.241,4786.80
272.263,4800.47
273.287,4797.57
274.311,4796.97
275.332,4791.27
276.356,4743.80
277.379,4741.00
278.402,4700.57
279.424,4648.63
280.447,4649.33
281.470,4583.50
282.492,4541.53
283.513,4492.00
284.536,4539.57
285.558,4490.43
286.581,4397.90
287.601,4389.10
288.623,4333.80
289.645,4316.90
290.665,4261.27
291.687,4236.63
292.709,4240.47
293.730,4183.37
294.750,4181.10
295.771,4111.73
296.792,4104.43
297.813,4091.57
298.832,4078.63
299.853,4036.20
300.874,3997.37
301.895,3956.17
302.913,3949.33
303.934,3962.20
304.954,3901.07
305.975,5026.67
306.993,3923.83
308.013,3942.47
309.033,3907.87
310.052,3869.80
311.072,3851.97
312.090,3870.97
313.109,3872.57
314.129,3813.90
315.148,3818.07
316.165,3822.70
317.184,3811.80
318.203,3843.53
319.222,3822.67
320.238,3795.50
321.257,3848.67
322.275,3817.43
323.294,3814.53
324.312,3784.97
325.328,3786.03
326.346,3807.37
327.364,3766.80
328.382,3745.43
329.397,3740.57
330.415,3768.73
331.432,3772.90
332.450,3776.40
333.467,3773.53
334.482,3744.83
335.499,3723.67
336.516,3788.37
337.533,3730.87
338.547,3696.70
339.564,3773.53
340.580,3762.40
341.597,3739.67
342.613,3754.93
343.627,3724.07
344.643,3718.27
345.659,3732.10
346.675,3730.93
347.690,3744.57
348.704,3730.43
349.719,3670.17
350.735,3676.00
351.750,3715.40
352.765,3692.30
353.778,3707.90
354.793,3733.17
355.808,3696.17
356.822,3728.00
357.837,3706.97
358.851,3746.30
359.864,3746.50
360.878,3705.83
361.892,3747.93
362.906,3756.90
363.920,3742.20
364.932,3760.80
365.945,3718.70
366.959,3770.27
367.972,3773.60
368.986,3766.63
369.999,3760.53
371.010,3758.43
372.023,3746.17
373.036,3752.43
374.049,3755.27
375.061,3757.87
376.072,3722.43
377.084,3764.00
378.097,3765.17
379.109,3745.07
380.121,3724.90
381.133,3725.33
382.143,3712.07
383.155,3657.47
384.166,3653.10
385.178,3691.37
386.189,3668.43
387.201,3647.90
388.212,3693.87
389.221,3680.97
390.232,3605.50
391.243,3625.83
392.254,3605.23
393.264,3560.23
394.275,3584.53
395.283,3551.70
396.294,3520.33
397.304,3533.03
398.314,3501.07
399.324,3486.87
400.334,3446.30
401.344,3481.37
402.351,3422.73
403.361,3389.20
404.370,3405.90
405.380,3392.30
406.389,3386.93
407.398,3358.23
408.407,3382.37
409.414,3343.43
410.423,3333.53
411.431,3344.20
412.440,3275.93
413.448,3265.07
414.457,3278.50
415.465,3256.63
416.471,3247.37
417.479,3282.80
418.487,3217.60
419.495,3259.63
420.503,3209.43
421.510,3201.00
422.518,3197.13
423.525,3174.83
424.530,3155.47
425.537,3186.83
426.544,3156.67
427.551,3149.20
428.558,3117.97
429.565,3119.23
430.571,3148.97
431.578,3146.83
432.582,3112.13
433.588,3131.93
434.595,3104.93
435.601,3137.80
436.607,3095.80
437.612,3069.73
438.618,3076.27
439.624,3082.83
440.627,3073.57
441.633,3041.77
442.638,3031.57
443.643,3022.30
444.648,3041.80
445.653,3048.13
446.658,3026.10
447.663,3048.60
448.667,2999.77
449.672,3046.77
450.674,3040.90
451.678,3026.83
452.682,3070.63
453.687,3015.20
454.690,3009.67
455.694,3079.13
456.698,3015.70
457.702,3016.73
458.705,3016.93
459.709,2991.50
460.710,2974.20
461.713,3005.20
462.716,2980.70
463.719,2960.73
464.722,2981.23
465.725,2971.60
466.727,2951.50
467.730,3014.87
468.732,3027.50
469.735,2975.43
470.737,2958.87
471.737,2968.87
472.739,2956.23
473.741,2998.30
474.742,2966.63
475.744,2938.53
476.746,2995.87
477.747,2987.20
478.748,2973.87
479.750,2921.13
480.751,2960.73
481.752,2960.23
482.753,2893.13
483.751,2850.33
484.752,2941.00
485.753,2929.53
486.753,2907.07
487.753,2933.70
488.754,2904.87
489.754,2851.37
490.754,2923.30
491.754,2907.83
492.754,2904.23
493.753,2875.73
494.753,2833.40
495.752,2866.50
496.752,2888.00
497.749,2834.57
498.748,2886.20
499.747,2842.10
500.746,2851.43
501.745,2858.53
502.744,2888.17
503.742,2831.97
504.741,2808.20
505.739,2839.97
506.737,2846.40
507.735,2840.73
508.734,2817.50
509.732,2816.60
510.729,2789.53
511.727,2822.83
512.725,2835.23
513.720,2804.40
514.718,2831.93
515.715,2814.80
516.712,2769.57
517.709,2800.43
518.706,2798.80
519.703,2858.83
520.700,2787.60
521.696,2780.87
522.693,2791.67
523.689,2783.13
524.686,2793.90
525.682,2780.30
526.678,2828.07
527.674,2781.40
528.670,2804.00
529.666,2769.40
530.661,2773.50
531.657,2827.00
532.652,2786.93
533.648,2809.60
534.641,2831.80
535.636,2780.00
536.631,2820.97
537.626,2789.83
538.621,2813.33
539.616,2774.90
540.610,2765.37
541.605,2771.37
542.599,2801.73
543.593,2777.43
544.587,2823.27
545.581,2786.67
546.575,2744.83
547.569,2761.87
548.563,2799.20
549.557,2760.13
550.550,2745.43
551.543,2710.93
552.537,2741.13
553.530,2745.90
554.523,2753.20
555.516,2738.77
556.509,2707.63
557.502,2732.73
558.494,2726.77
559.487,2742.17
560.479,2755.53
561.472,2704.33
562.464,2683.67
563.456,2709.47
564.448,2672.30
565.440,2719.30
566.432,2645.17
567.423,2673.10
568.415,2683.73
569.404,2719.90
570.396,2665.10
571.387,2649.50
572.378,2686.37
573.369,2619.97
574.360,2676.30
575.351,2702.47
576.341,2623.63
577.332,2643.63
578.323,2629.63
579.313,2631.90
580.303,2646.80
581.293,2629.27
582.283,2647.57
583.273,2600.37
584.263,2613.70
585.253,2587.70
586.243,2624.03
587.232,2611.17
588.222,2553.43
589.211,2577.40
590.200,2573.53
591.189,2564.80
592.178,2541.23
593.167,2500.47
594.156,2492.03
595.145,2526.33
596.133,2495.37
597.122,2482.07
598.110,2460.57
599.098,2504.67
600.086,2431.40
601.074,2459.27
602.062,2439.03
603.050,2439.97
604.038,2438.37
605.025,2435.10
606.013,2455.03
607.000,2426.60
607.987,2405.80
608.975,2421.13
609.962,2414.63
610.949,2416.97
611.936,2415.37
612.922,2418.27
613.909,2376.70
614.895,2367.57
615.882,2367.87
616.868,2363.20
617.854,2374.03
618.841,2373.30
619.826,2374.00
620.812,2363.27
621.798,2379.43
622.784,2311.10
623.769,2347.40
624.755,2297.30
625.740,2367.63
626.725,2309.90
627.711,2368.73
628.698,2288.47
629.683,2314.87
630.667,2307.90
631.652,2315.20
632.637,2262.73
633.621,2293.43
634.606,2256.90
635.590,2242.10
636.574,2232.67
637.558,2223.57
638.542,2255.20
639.526,2215.03
640.510,2201.97
641.493,2208.40
642.477,2239.67
643.460,2186.20
644.444,2194.33
645.427,2174.87
646.410,2168.70
647.393,2142.97
648.376,2150.67
649.359,2170.20
650.341,2174.87
651.324,2163.90
652.307,2209.40
653.289,2155.93
654.271,2152.43
655.253,2137.37
656.235,2099.27
657.217,2121.70
658.199,2146.40
659.181,2123.23
660.163,2077.53
661.144,2064.07
662.126,2046.33
663.107,2053.60
664.088,2107.50
665.069,2066.30
666.050,2086.80
667.033,2053.30
668.014,2014.77
668.995,2026.73
669.975,2073.03
670.956,2020.33
671.936,2055.50
672.916,2007.77
673.896,2031.73
674.876,2027.70
675.856,1963.47
676.836,1966.07
677.816,1997.37
678.795,1957.90
679.775,1969.70
680.754,1986.17
681.734,1967.20
682.713,1971.50
683.692,1923.60
684.671,1946.40
685.650,1917.63
686.629,1969.33
687.607,1881.13
688.586,1897.93
689.564,1874.90
690.543,1890.80
691.523,1902.23
692.501,1901.07
693.479,1864.47
694.457,1875.00
695.435,1859.53
696.413,1859.57
697.390,1848.57
698.368,1864.87
699.345,1840.07
700.322,1850.70
701.300,1883.07
702.277,1853.57
703.254,1806.53
704.231,1849.23
705.207,1817.20
706.184,1822.33
707.161,1776.00
708.137,1798.13
709.113,1807.67
710.090,1837.77
711.068,1821.40
712.044,1824.27
713.020,1781.50
713.996,1787.70
714.971,1811.40
715.947,1800.87
716.922,1776.50
717.898,1791.67
718.873,1805.00
719.848,1793.23
720.823,1805.23
721.798,1791.57
722.773,1720.03
723.748,1763.90
724.723,1752.40
725.697,1745.30
726.672,1763.73
727.646,1757.27
728.622,1756.40
729.596,1759.40
730.570,1754.60
731.544,1764.47
732.518,1687.80
733.492,1722.67
734.466,1729.30
735.439,1752.87
736.413,1761.93
737.386,1736.27
738.359,1722.97
739.332,1751.87
740.305,1712.93
741.278,1720.40
742.251,1724.20
743.224,1710.80
744.196,1680.10
745.171,1683.57
746.143,1679.70
747.115,1687.93
748.087,1673.93
749.059,1682.50
750.031,1688.30
751.003,1721.13
751.975,1730.90
752.947,1710.77
753.918,1723.00
754.890,1642.90
755.861,1660.03
756.832,1662.87
757.803,1671.17
758.774,1707.47
759.747,1683.33
760.718,1671.23
761.689,1642.40
762.659,1702.10
763.630,1654.50
764.600,1616.60
765.570,1644.90
766.540,1699.63
767.510,1615.33
768.480,1647.67
769.450,1613.53
770.420,1654.23
771.390,1612.53
772.359,1643.60
773.329,1626.53
774.300,1617.43
775.269,1620.33
776.238,1577.30
777.207,1616.27
778.176,1598.27
779.145,1551.40
780.114,1614.30
781.083,1595.93
782.051,1550.77
783.019,1557.30
783.988,1549.13
784.956,1479.73
785.924,1509.63
786.894,1552.43
787.862,1541.97
788.830,1570.17
789.797,1525.67
790.765,1527.13
791.732,1539.03
792.700,1486.07
793.667,1554.20
794.634,1530.20
795.601,1494.80
796.568,1491.60
797.535,1516.13
798.502,1505.83
799.468,1483.53
800.437,1511.37
801.403,1488.70
802.370,1471.53
803.336,1480.43
804.302,1514.40
805.268,1491.07
806.234,1445.93
807.200,1488.63
808.166,1466.47
809.131,1499.20
810.097,1479.20
811.062,1409.63
812.027,1464.03
812.994,1480.97
813.960,1486.37
814.925,1448.83
815.889,1449.80
816.854,1447.70
817.819,1432.70
818.783,1433.60
819.748,1461.17
820.712,1429.23
821.677,1436.47
822.641,1443.93
823.605,1445.57
824.571,1417.10
825.534,1480.77
826.498,1456.17
827.462,1449.13
828.425,1489.50
829.389,1484.10
830.352,1420.53
831.315,1455.00
832.279,1425.57
833.242,1470.60
834.204,1426.47
835.167,1454.80
836.132,1485.90
837.095,1443.43
838.057,1435.57
839.020,1463.47
839.982,1461.50
840.944,1482.80
841.906,1441.23
842.868,1470.37
843.830,1478.03
844.792,1413.07
845.753,1472.37
846.715,1463.97
847.679,1449.43
848.640,1451.27
849.601,1453.87
850.562,1481.40
851.523,1477.13
852.484,1474.77
853.445,1414.10
854.406,1458.33
855.367,1463.43
856.327,1433.33
857.288,1477.87
858.248,1464.57
859.210,1441.60
860.170,1469.10
861.130,1504.00
862.090,1451.77
863.050,1503.57
864.010,1489.83
864.969,1481.77
865.929,1453.33
866.888,1509.67
867.848,1482.07
868.807,1503.13
869.766,1488.10
870.727,1473.70
871.686,1470.03
872.645,1503.37
873.604,1482.83
874.562,1512.30
875.521,1483.77
876.479,1473.20
877.437,1493.47
878.396,1469.17
879.354,1520.97
880.312,1479.53
881.270,1506.17
882.229,1512.87
883.187,1468.07
884.145,1510.40
885.102,1509.73
886.059,1539.03
887.017,1469.50
887.974,1539.97
888.931,1525.40
889.888,1510.23
890.845,1487.37
891.802,1513.40
892.758,1564.90
893.717,1534.93
894.673,1559.70
895.630,1560.67
896.586,1536.10
897.542,1516.60
898.498,1514.57
899.454,1564.47
900.410,1554.13
901.366,1543.70
902.321,1564.57
903.277,1527.10
904.232,1571.97
905.189,1535.67
906.145,1527.77
907.100,1555.43
908.055,1532.27
909.010,1539.63
909.965,1588.67
910.919,1598.30
911.874,1570.33
912.828,1593.00
913.783,1536.93
914.737,1561.23
915.693,1594.80
916.648,1565.17
917.602,1583.97
918.555,1565.90
919.509,1591.03
920.463,1626.00
921.417,1582.37
922.370,1600.40
923.324,1613.00
924.277,1590.77
925.230,1590.90
926.183,1615.17
927.138,1629.60
928.091,1582.87
929.044,1619.37
929.996,1609.30
930.949,1612.03
931.902,1610.83
932.854,1610.33
933.806,1610.30
934.758,1647.33
935.711,1659.73
936.663,1614.37
937.614,1599.87
938.568,1600.30
939.520,1602.77
940.471,1640.03
941.423,1603.00
942.374,1640.13
943.326,1638.73
944.277,1598.00
945.228,1635.97
946.179,1645.13
947.130,1657.40
948.080,1607.27
949.031,1642.90
949.984,1613.57
950.934,1637.07
951.884,1625.97
952.835,1584.40
953.785,1580.10
954.735,1599.47
955.685,1584.63
956.635,1542.90
957.585,1580.10
958.534,1605.90
959.484,1587.50
960.433,1547.67
961.383,1588.03
962.334,1600.00
963.283,1586.50
964.232,1551.40
965.181,1564.27
966.130,1617.77
967.079,1559.93
968.027,1599.67
968.976,1571.33
969.924,1548.33
970.873,1585.07
971.821,1521.73
972.769,1548.70
973.719,1562.10
974.667,1543.40
975.615,1527.93
976.562,1567.70
977.510,1549.50
978.458,1550.53
979.405,1545.47
980.352,1558.07
981.300,1561.77
982.247,1521.70
983.194,1533.63
984.141,1541.43
985.088,1521.80
986.036,1507.77
986.983,1470.20
987.930,1540.40
988.876,1536.03
989.822,1500.63
990.769,1543.07
991.715,1507.37
992.661,1489.17
993.607,1492.80
994.553,1479.90
995.498,1517.83
996.444,1495.90
997.389,1498.73
998.337,1494.50
999.282,1477.23
1000.227,1509.43
1001.173,1466.00
1002.118,1452.97
1003.062,1441.43
1004.007,1486.27
1004.952,1463.73
1005.897,1438.93
1006.841,1459.37
1007.786,1435.43
1008.730,1464.73
1009.674,1456.80
1010.618,1446.10
1011.564,1425.27
1012.508,1414.50
1013.452,1430.47
1014.396,1434.47
1015.339,1432.80
1016.283,1431.70
1017.226,1416.13
1018.170,1427.97
1019.113,1403.27
1020.056,1427.17
1020.999,1390.83
1021.942,1433.43
1022.885,1402.20
1023.828,1423.20
1024.770,1388.37
1025.715,1428.83
1026.657,1411.03
1027.600,1390.90
1028.542,1428.83
1029.484,1395.30
1030.426,1381.47
1031.368,1412.20
1032.310,1377.70
1033.251,1370.60
1034.193,1366.70
1035.135,1414.10
1036.076,1385.77
1037.017,1381.37
1037.959,1377.23
1038.900,1361.90
1039.843,1389.60
1040.784,1422.97
1041.725,1391.20
1042.665,1347.07
1043.606,1394.87
1044.547,1384.77
1045.487,1429.23
1046.427,1385.80
1047.368,1385.63
1048.308,1402.47
1049.248,1349.17
1050.188,1381.80
1051.128,1356.03
1052.067,1339.87
1053.007,1400.90
1053.947,1372.10
1054.886,1389.33
1055.827,1374.20
1056.766,1329.83
1057.706,1359.10
1058.645,1363.17
1059.584,1406.87
1060.522,1419.13
1061.461,1387.07
1062.400,1391.43
1063.338,1363.07
1064.277,1353.77
1065.215,1360.50
1066.154,1405.07
1067.092,1337.83
1068.030,1379.47
1068.968,1347.30
1069.906,1385.97
1070.843,1369.23
1071.781,1376.37
1072.720,1378.87
1073.658,1390.03
1074.595,1376.93
1075.533,1394.73
1076.470,1374.40
1077.407,1399.10
1078.344,1380.47
1079.281,1388.40
1080.217,1384.13
1081.154,1359.57
1082.091,1359.23
1083.027,1380.93
1083.964,1386.83
1084.900,1381.03
1085.836,1352.50
1086.772,1363.97
1087.708,1387.60
1088.644,1350.33
1089.580,1355.37
1090.515,1382.23
1091.451,1371.93
1092.388,1345.93
1093.324,1359.40
1094.259,1331.50
1095.194,1369.70
1096.129,1338.07
1097.064,1355.40
1097.999,1325.10
1098.934,1339.60
1099.869,1353.13
1100.803,1288.87
1101.738,1308.40
1102.672,1324.53
1103.607,1310.13
1104.541,1284.97
1105.475,1321.10
1106.409,1333.47
1107.343,1333.87
1108.277,1306.13
1109.210,1274.43
1110.144,1313.77
1111.078,1371.87
1112.011,1306.90
1112.944,1280.73
1113.878,1293.70
1114.811,1277.50
1115.744,1304.67
1116.678,1281.70
1117.611,1273.60
1118.544,1273.57
1119.477,1279.03
1120.409,1276.53
1121.342,1272.67
1122.274,1238.77
1123.206,1252.07
1124.138,1255.47
1125.070,1254.83
1126.002,1256.67
1126.934,1256.60
1127.866,1237.00
1128.798,1243.83
1129.729,1256.47
1130.661,1241.27
1131.592,1255.50
1132.523,1220.57
1133.454,1260.77
1134.385,1223.90
1135.317,1216.67
1136.247,1209.23
1137.178,1211.47
1138.109,1232.90
1139.039,1225.17
1139.970,1186.03
1140.900,1228.70
1141.831,1216.80
1142.761,1153.87
1143.691,1463.03
1144.621,1209.27
1145.551,1239.63
1146.480,1204.30
1147.410,1193.40
1148.340,1214.80
1149.269,1165.10
1150.199,1177.93
1151.128,1172.00
1152.057,1176.73
1152.979,1168.13
1153.898,1216.67
1154.819,1166.10
1155.739,1184.10
1156.658,1146.57
1157.579,1196.47
1158.498,1216.03
1159.419,1181.27
1160.338,1151.87
1161.256,1186.67
1162.177,1161.03
1163.095,1192.17
1164.016,1142.10
1164.934,1137.43
1165.852,1130.23
1166.772,1154.33
1167.690,1169.50
1168.610,1166.40
1169.528,1215.23
1170.446,1163.70
1171.365,1171.27
1172.283,1174.07
1173.202,1151.23
1174.120,1179.27
1175.037,1150.53
1175.956,1152.10
1176.873,1152.53
1177.792,1139.17
1178.709,1149.87
1179.626,1138.30
1180.544,1158.43
1181.461,1136.43
1182.379,1161.63
1183.296,1154.23
1184.212,1150.23
1185.130,1140.13
1186.046,1179.27
1186.962,1148.33
1187.880,1130.70
1188.796,1138.83
1189.714,1112.40
1190.629,1081.27
1191.545,1149.23
1192.462,1130.17
1193.378,1161.03
1194.295,1120.97
1195.210,1147.50
1196.125,1110.00
1197.042,1112.97
1197.957,1135.30
1198.872,1130.30
1199.788,1156.90
1200.703,1137.53
1201.619,1123.97
1202.534,1152.53
1203.448,1112.03
1204.364,1149.33
1205.278,1149.10
1206.192,1147.47
1207.108,1129.03
1208.022,1131.63
1208.938,1116.60
1209.851,1116.37
1210.765,1183.00
1211.680,1143.83
1212.594,1118.50
1213.507,1156.00
1214.422,1100.33
1215.335,1154.40
1216.248,1133.30
1217.163,1144.17
1218.076,1148.30
1218.990,1129.77
1219.903,1140.73
1220.816,1097.07
1221.730,1123.93
1222.642,1157.57
1223.554,1137.87
1224.469,1104.10
1225.380,1132.17
1226.292,1106.57
1227.206,1142.10
1228.118,1097.27
1229.032,1152.50
1229.943,1145.07
1230.855,1130.83
1231.768,1128.63
1232.679,1120.63
1233.590,1111.37
1234.503,1136.13
1235.414,1101.27
1236.325,1154.30
1237.238,1169.87
1238.149,1140.47
1239.059,1143.80
1239.972,1132.50
1240.882,1127.43
1241.793,1141.43
1242.705,1150.17
1243.615,1154.83
1244.525,1133.63
1245.437,1163.60
1246.347,1144.10
1247.259,1095.20
1248.168,1128.90
1249.078,1125.60
1249.989,1121.57
1250.899,1176.17
1251.808,1136.77
1252.719,1142.10
1253.628,1165.60
1254.537,1155.60
1255.448,1150.87
1256.357,1134.23
1257.266,1137.87
1258.176,1164.07
1259.085,1188.60
1259.993,1128.47
1260.904,1163.93
1261.812,1142.07
1262.720,1157.50
1263.630,1104.30
1264.538,1142.17
1265.446,1138.87
1266.356,1144.80
1267.263,1123.53
1268.171,1157.07
1269.080,1099.17
1269.988,1141.27
1270.895,1118.83
1271.804,1132.43
1272.711,1110.77
1273.619,1159.73
1274.527,1138.20
1275.434,1125.47
1276.341,1084.60
1277.248,1157.93
1278.156,1161.00
1279.063,1129.43
1279.969,1120.73
1280.877,1112.87
1281.783,1125.83
1282.690,1135.80
1283.598,1111.60
1284.503,1087.43
1285.409,1118.10
1286.317,1121.03
1287.223,1166.67
1288.128,1132.70
1289.036,1102.83
1289.941,1103.40
1290.846,1117.50
1291.751,1087.33
1292.658,1083.07
1293.563,1137.73
1294.468,1162.57
1295.375,1104.23
1296.280,1124.00
1297.184,1103.30
1298.091,1122.90
1298.995,1110.67
1299.900,1106.63
1300.806,1127.70
1301.710,1098.77
1302.614,1089.23
1303.518,1106.23
1304.424,1111.80
1305.327,1096.70
1306.231,1132.17
1307.137,1102.97
1308.040,1133.80
1308.943,1107.60
1309.847,1112.97
1310.752,1069.70
1311.655,1105.63
1312.558,1048.43
1313.463,1095.87
1314.366,1083.90
1315.269,1084.43
1316.171,1077.60
1317.076,1052.53
1317.978,1042.07
1318.881,1056.60
1319.785,1065.23
1320.687,1093.43
1321.589,1075.07
1322.491,1059.67
1323.395,1055.07
1324.297,1096.50
1325.198,1039.63
1326.102,1075.97
1327.004,1095.23
1327.905,1088.93
1328.806,1049.87
1329.709,1078.47
1330.611,1052.20
1331.512,1100.73
1332.413,1039.50
1333.316,1020.70
1334.216,1090.57
1335.117,1081.47
1336.020,1095.90
1336.920,1045.33
1337.821,1018.57
1338.721,1006.50
1339.623,1045.33
1340.523,1014.50
1341.423,1047.70
1342.323,1039.83
1343.225,1045.07
1344.125,1038.23
1345.025,1036.57
1345.924,1048.40
1346.826,1015.47
1347.725,998.07
1348.624,1051.90
1349.524,1057.63
1350.425,1048.07
1351.324,1002.50
1352.223,1027.17
1353.121,1082.00
1354.022,1019.57
1354.921,1025.87
1355.819,1056.83
1356.718,1021.53
1357.618,1046.20
1358.516,1018.60
1359.415,1077.80
1360.313,1041.50
1361.213,1006.90
1362.111,1021.53
1363.008,1024.87
1363.906,1020.93
1364.806,975.17
1365.703,1037.67
1366.601,974.50
1367.498,1021.93
1368.397,993.07
1369.295,1033.37
1370.192,978.93
1371.089,1013.77
1371.987,1020.07
1372.884,975.47
1373.781,980.87
1374.678,978.90
1375.574,1010.13
1376.473,979.83
1377.369,997.30
1378.265,1000.90
1379.161,964.37
1380.059,985.90
1380.955,953.17
1381.851,1006.10
1382.747,996.47
1383.643,979.60
1384.540,954.90
1385.436,995.07
1386.331,951.93
1387.227,978.33
1388.124,971.47
1389.019,944.50
1389.914,945.00
1390.809,986.13
1391.704,971.87
1392.601,998.73
1393.495,983.23
1394.390,973.27
1395.285,954.60
1396.179,960.70
1397.075,955.23
1397.969,938.33
1398.864,965.53
1399.758,975.53
1400.652,966.23
1401.547,974.50
1402.441,951.97
1403.335,984.67
1404.229,938.53
1405.122,1014.70
1406.017,961.00
1406.911,952.90
1407.804,937.83
1408.697,986.53
1409.590,950.77
1410.485,982.83
1411.378,954.30
1412.271,934.83
1413.163,933.63
1414.056,969.97
1414.949,962.63
1415.843,911.07
1416.735,918.37
1417.627,973.90
1418.520,959.23
1419.412,954.87
1420.306,923.03
1421.197,928.50
1422.089,910.93
1422.981,964.07
1423.873,930.20
1424.764,916.90
1425.657,933.73
1426.549,915.87
1427.440,967.47
1428.331,925.33
1429.222,933.43
1430.113,903.97
1431.006,965.67
1431.897,919.47
1432.787,955.07
1433.678,940.10
1434.568,916.23
1435.459,907.63
1436.351,916.87
1437.241,937.67
1438.131,943.90
1439.021,952.30
1439.911,941.57
1440.801,942.47
1441.693,930.50
1442.583,908.27
1443.472,921.43
1444.362,955.37
1445.251,909.33
1446.140,967.43
1447.030,955.80
1447.921,907.13
1448.810,908.03
1449.699,923.33
1450.588,953.93
1451.476,904.47
1452.365,982.03
1453.254,930.87
1454.144,899.80
1455.032,927.03
1455.921,891.30
1456.809,931.63
1457.697,899.13
1458.585,897.90
1459.473,925.03
1460.361,913.43
1461.251,910.33
1462.138,914.73
1463.026,938.17
1463.913,910.90
1464.801,938.93
1465.688,886.40
1466.575,923.53
1467.463,919.27
1468.351,925.50
1469.238,881.73
1470.125,889.93
1471.012,908.27
1471.899,849.80
1472.785,895.87
1473.672,882.27
1474.558,918.23
1475.446,928.13
1476.333,891.60
1477.219,905.93
1478.105,889.17
1478.991,899.70
1479.877,909.87
1480.762,915.07
1481.648,887.87
1482.534,901.17
1483.419,878.27
1484.307,906.00
1485.192,869.27
1486.077,890.70
1486.962,913.53
1487.847,869.47
1488.732,903.90
1489.617,900.73
1490.502,901.97
1491.387,871.03
1492.271,908.73
1493.156,855.50
1494.042,927.57
1494.927,889.87
1495.811,886.63
1496.695,897.33
1497.579,907.67
1498.463,898.77
1499.347,911.20
1500.231,831.50
1501.114,873.00
1501.998,897.93
1502.881,906.17
1503.765,871.47
1504.648,900.23
1505.533,926.23
1506.417,894.93
1507.300,898.43
1508.183,874.07
1509.066,906.27
1509.948,880.10
1510.831,881.77
1511.714,857.20
1512.596,915.00
1513.479,873.07
1514.361,875.13
1515.243,895.70
1516.125,911.50
1517.008,882.60
1517.890,879.47
1518.771,871.17
1519.655,903.13
1520.537,855.10
1521.419,888.23
1522.300,873.17
1523.182,875.63
1524.063,822.50
1524.944,886.40
1525.825,889.30
1526.707,883.73
1527.588,870.30
1528.468,910.70
1529.349,883.23
1530.230,881.03
1531.111,890.97
1531.991,876.13
1532.872,907.13
1533.752,878.17
1534.632,855.27
1535.513,883.13
1536.393,867.23
1537.273,884.17
1538.153,806.03
1539.032,890.30
1539.912,846.23
1540.792,894.93
1541.672,837.90
1542.551,866.47
1543.430,871.70
1544.310,886.47
1545.189,893.97
1546.068,875.47
1546.947,834.07
1547.826,875.33
1548.705,914.33
1549.584,873.50
1550.462,911.10
1551.341,864.57
1552.219,863.80
1553.098,842.93
1553.976,869.70
1554.854,892.80
1555.733,849.77
1556.611,892.03
1557.489,874.67
1558.367,888.53
1559.244,889.73
1560.122,861.03
1561.000,911.50
1561.877,869.90
1562.755,882.10
1563.632,911.27
1564.509,897.77
1565.386,848.87
1566.264,871.33
1567.141,854.13
1568.017,876.60
1568.894,869.33
1569.771,806.60
1570.648,865.40
1571.524,829.43
1572.401,837.43
1573.277,864.83
1574.153,884.77
1575.029,859.03
1575.906,865.00
1576.781,876.77
1577.657,876.47
1578.533,883.10
1579.409,854.37
1580.285,852.93
1581.160,884.97
1582.036,835.13
1582.911,821.37
1583.786,836.80
1584.662,855.70
1585.537,832.57
1586.412,873.10
1587.287,850.23
1588.160,819.70
1589.035,842.17
1589.909,883.83
1590.784,840.63
1591.658,847.50
1592.533,833.63
1593.407,874.87
1594.281,862.80
1595.155,872.73
1596.029,833.83
1596.903,856.37
1597.777,862.60
1598.651,839.80
1599.525,880.70
1600.398,864.37
1601.272,828.43
1602.144,881.77
1603.017,844.33
1603.890,885.77
1604.763,874.87
1605.636,853.53
1606.509,820.87
1607.382,847.10
1608.255,850.50
1609.128,874.50
1610.000,837.93
1610.873,882.00
1611.746,843.07
1612.616,843.70
1613.488,823.97
1614.361,858.57
1615.233,854.90
1616.105,846.03
1616.977,847.23
1617.849,870.87
1618.720,843.67
1619.592,860.97
1620.464,863.33
1621.333,871.83
1622.205,870.13
1623.076,862.97
1623.947,856.93
1624.818,861.60
1625.689,852.20
1626.560,881.53
1627.431,901.40
1628.302,856.73
1629.171,836.37
1630.042,880.77
1630.912,814.90
1631.782,813.10
1632.653,875.90
1633.523,831.10
1634.393,893.80
1635.263,828.67
1636.131,832.33
1637.001,850.97
1637.871,856.03
1638.741,846.63
1639.611,860.77
1640.480,886.37
1641.350,840.20
1642.219,845.50
1643.087,878.40
1643.956,880.07
1644.825,841.87
1645.694,872.87
1646.563,839.27
1647.432,858.33
1648.299,890.40
1649.167,871.93
1650.036,849.87
1650.904,874.03
1651.773,890.63
1652.641,833.97
1653.509,835.20
1654.376,829.33
1655.244,856.20
1656.112,880.47
1656.980,873.20
1657.847,836.73
1658.715,841.97
1659.581,813.43
1660.448,846.17
1661.316,874.40
1662.183,876.53
1663.051,894.77
1663.918,855.57
1664.783,803.73
1665.650,840.77
1666.517,842.83
1667.384,868.33
1668.251,854.17
1669.115,871.43
1669.982,834.27
1670.849,893.43
1671.715,836.57
1672.581,829.70
1673.446,852.60
1674.312,813.20
1675.178,858.77
1676.044,829.53
1676.910,833.13
1677.774,827.03
1678.639,834.53
1679.505,871.13
1680.370,844.80
1681.236,850.70
1682.099,821.50
1682.965,823.47
1683.830,826.90
1684.695,815.33
1685.560,840.83
1686.423,833.50
1687.288,855.03
1688.153,820.40
1689.017,857.83
1689.880,835.47
1690.745,854.63
1691.609,838.30
1692.473,845.97
1693.338,859.73
1694.200,862.60
1695.064,851.57
1695.928,850.13
1696.792,807.50
1697.654,855.70
1698.517,842.33
1699.381,851.27
1700.245,834.97
1701.106,832.47
1701.969,848.87
1702.833,806.33
1703.696,869.77
1704.557,875.07
1705.420,809.30
1706.283,826.63
1707.146,849.10
1708.007,834.20
1708.870,846.07
1709.732,809.63
1710.595,839.43
1711.455,841.80
1712.318,868.67
1713.180,823.53
1714.040,841.50
1714.902,868.20
1715.764,831.60
1716.626,860.73
1717.486,861.53
1718.348,845.43
1719.209,373.50
1720.071,836.47
1720.930,824.77
1721.792,818.07
1722.653,847.00
1723.512,851.83
1724.374,809.20
1725.234,842.23
1726.095,886.43
1726.954,841.57
1727.815,872.33
1728.676,890.87
1729.535,838.77
1730.395,838.80
1731.256,844.63
1732.114,835.93
1732.974,819.73
1733.834,840.70
1734.693,813.87
1735.553,796.57
1736.413,849.10
1737.272,864.87
1738.130,865.23
1738.990,845.50
1739.849,859.03
1740.707,798.20
1741.566,855.83
1742.426,825.87
1743.283,849.60
1744.142,825.77
1745.001,824.17
1745.858,837.47
1746.717,819.53
1747.576,886.73
1748.433,821.70
1749.292,827.67
1750.150,843.40
1751.007,871.33
1751.865,863.80
1752.723,848.23
1753.579,858.00
1754.438,825.87
1755.296,846.00
1756.152,852.73
1757.010,862.57
1757.865,807.30
1758.723,835.27
1759.581,871.47
1760.436,878.80
1761.294,848.83
1762.151,823.40
1763.006,845.57
1763.864,863.70
1764.721,879.07
1765.576,888.00
1766.433,874.40
1767.288,824.73
1768.144,830.80
1769.001,830.73
1769.856,819.77
1770.712,854.00
1771.568,871.80
1772.423,843.70
1773.279,836.33
1774.133,828.83
1774.989,819.30
1775.845,884.67
1776.699,834.90
1777.555,793.97
1778.409,823.10
1779.265,836.53
1780.120,851.77
1780.974,879.70
1781.829,831.87
1782.682,847.20
1783.538,838.30
1784.393,808.43
1785.246,847.17
1786.101,866.97
1786.954,839.83
1787.808,876.10
1788.661,834.77
1789.516,849.97
1790.370,819.90
1791.223,847.07
1792.077,810.57
1792.930,827.37
1793.784,844.03
1794.636,839.03
1795.490,832.73
1796.344,818.73
1797.196,873.17
1798.049,875.10
1798.901,845.70
1799.755,847.07
1800.606,856.10
1801.460,878.60
1802.311,900.77
1803.165,819.70
1804.018,862.67
1804.869,849.20
1805.722,858.00
1806.573,846.50
1807.426,858.03
1808.276,825.90
1809.129,848.93
1809.980,850.20
1810.832,863.73
1811.683,854.23
1812.535,850.60
1813.385,843.77
1814.237,836.00
1815.089,857.30
1815.940,793.60
1816.791,830.47
1817.641,866.17
1818.493,838.77
1819.343,816.77
1820.194,847.60
1821.044,818.70
1821.895,849.00
1822.745,832.27
1823.596,850.27
1824.445,843.03
1825.296,842.53
1826.145,830.87
1826.996,809.77
1827.845,801.17
1828.695,866.70
1829.544,838.53
1830.395,858.77
1831.243,844.30
1832.094,880.67
1832.942,849.27
1833.792,846.63
1834.640,828.77
1835.490,828.60
1836.338,867.47
1837.186,833.37
1838.036,786.33
1838.884,802.97
1839.733,807.93
1840.581,866.77
1841.430,826.90
1842.278,836.83
1843.127,813.70
1843.974,855.97
1844.823,866.03
1845.671,833.27
1846.519,857.30
1847.366,836.90
1848.213,841.63
1849.062,854.67
1849.909,822.93
1850.757,884.83
1851.604,835.83
1852.452,852.83
1853.298,805.50
1854.146,832.03
1854.993,843.13
1855.839,816.67
1856.687,809.90
1857.532,875.67
1858.380,848.50
1859.226,809.63
1860.073,870.63
1860.919,840.17
1861.765,832.80
1862.612,824.73
1863.457,860.53
1864.304,839.90
1865.150,840.90
1865.995,862.90
1866.842,855.57
1867.686,850.53
1868.533,807.40
1869.378,830.40
1870.223,824.73
1871.069,829.93
1871.914,873.50
1872.760,849.03
1873.604,851.90
1874.448,824.53
1875.294,838.87
1876.139,832.57
1876.984,835.33
1877.828,816.63
1878.672,832.57
1879.518,785.10
1880.361,830.00
1881.205,867.67
1882.050,848.80
1882.894,845.33
1883.739,852.93
1884.582,846.40
1885.425,840.77
1886.270,858.37
1887.113,798.90
1887.956,863.20
1888.801,866.57
1889.644,812.43
1890.486,848.00
1891.331,842.50
1892.173,857.97
1893.017,850.37
1893.860,826.00
1894.702,846.27
1895.546,834.50
1896.388,859.73
1897.230,825.63
1898.074,782.03
1898.916,857.03
1899.757,806.93
1900.601,868.53
1901.443,872.43
1902.284,831.47
1903.125,810.80
1903.969,806.83
1904.810,789.40
1905.651,822.73
1906.494,885.00
1907.335,833.90
1908.176,788.43
1909.018,818.27
1909.859,820.47
1910.700,843.53
1911.542,835.73
1912.383,804.57
1913.223,852.23
1914.064,825.50
1914.906,851.37
1915.746,840.97
1916.586,833.40
1917.428,862.43
1918.268,860.13
1919.107,831.90
1919.947,824.27
1920.789,849.67
1921.628,809.57
1922.468,872.10
1923.309,797.53
1924.148,863.83
1924.988,850.47
1925.827,858.13
1926.667,822.57
1927.507,844.73
1928.345,857.70
1929.184,841.33
1930.025,845.80
1930.864,839.43
1931.702,851.27
1932.541,834.13
1933.381,856.40
1934.219,848.90
1935.057,854.77
1935.896,811.97
1936.735,860.40
1937.573,827.90
1938.411,824.80
1939.249,827.60
1940.089,823.00
1940.927,846.53
1941.764,848.07
1942.602,857.97
1943.439,858.30
1944.278,838.60
1945.115,832.47
1945.953,827.83
1946.790,864.47
1947.628,874.10
1948.465,854.37
1949.302,863.43
1950.139,860.77
1950.976,877.03
1951.814,852.87
1952.651,840.77
1953.487,867.10
1954.323,848.20
1955.160,841.13
1955.998,842.93
1956.834,856.43
1957.670,852.67
1958.506,874.63
1959.342,859.03
1960.177,850.27
1961.015,865.03
1961.850,831.90
1962.686,845.93
1963.521,858.93
1964.357,833.53
1965.192,861.27
1966.029,855.93
1966.864,854.97
1967.699,819.47
1968.534,842.83
1969.369,826.40
1970.204,849.03
1971.040,863.53
1971.875,836.03
1972.709,832.57
1973.544,855.50
1974.378,853.53
1975.212,839.10
1976.047,821.63
1976.882,814.73
1977.716,828.73
1978.550,852.37
1979.384,858.50
1980.218,847.23
1981.052,831.50
1981.885,857.87
1982.719,876.13
1983.554,877.63
1984.388,839.27
1985.221,845.07
1986.054,833.37
1986.887,864.60
1987.720,849.77
1988.553,862.57
1989.386,831.03
1990.219,872.10
1991.053,890.00
1991.886,815.57
1992.719,864.20
1993.551,859.70
1994.383,833.73
1995.216,827.07
1996.048,829.33
1996.880,849.03
1997.712,836.00
1998.544,852.73
1999.376,818.73
2000.208,860.70
2001.040,867.23
2001.873,891.37
2002.705,841.23
2003.536,856.63
2004.367,870.80
2005.199,880.63
2006.030,884.63
2006.861,854.70
2007.692,832.10
2008.523,838.47
2009.354,866.13
2010.185,869.80
2011.016,867.97
2011.846,852.13
2012.677,837.97
2013.507,908.10
2014.338,906.03
2015.168,856.77
2015.999,884.30
2016.829,848.37
2017.659,888.33
2018.489,862.23
2019.319,880.57
2020.149,898.60
2020.980,882.00
2021.810,882.60
2022.639,872.37
2023.469,887.43
2024.298,869.10
2025.128,869.57
2025.957,860.93
2026.786,850.53
2027.615,845.20
2028.444,840.10
2029.273,889.67
2030.102,870.47
2030.931,859.70
2031.758,855.90
2032.586,897.20
2033.415,899.27
2034.243,888.60
2035.072,885.50
2035.900,893.77
2036.728,869.97
2037.556,910.80
2038.385,904.83
2039.213,884.93
2040.040,876.43
2040.868,894.77
2041.696,874.40
2042.524,897.90
2043.351,875.13
2044.179,888.10
2045.006,875.87
2045.006,875.87

Max Intensity Wave.,305.975
Max Intensity Data,5026.67
Min Intensity Wave.,1719.209
Min Intensity Data,373.50
FWHM Wave.,401.309
FWHM Value,0.27
Pressure Wave.,686.501
Pressure Value [GPa],-20.13397
G/D Ratio,0.80640
G/D Gband Wave.,1548.695
G/D Gband Intensity,914.34
G/D Dband Wave.,1308.077
G/D Dband Intensity,1133.85

<< BACKGROUND SPECTRUM >>
Wave[dcm-1],No606
146.591,2345.00
147.626,2221.00
148.664,2178.00
149.699,2663.00
150.737,2394.00
151.772,2511.00
152.809,2510.00
153.846,2444.00
154.881,2531.00
155.918,2068.00
156.953,2411.00
157.989,2756.00
159.026,2600.00
160.060,2786.00
161.096,3025.00
162.130,2615.00
163.167,2705.00
164.200,2601.00
165.236,2776.00
166.272,2858.00
167.305,2442.00
168.341,2675.00
169.374,2950.00
170.409,2976.00
171.445,2893.00
172.477,2680.00
173.512,2542.00
174.545,2876.00
175.580,3008.00
176.614,3239.00
177.647,2976.00
178.681,3205.00
179.713,3576.00
180.747,2968.00
181.781,2898.00
182.813,3112.00
183.847,3279.00
184.878,2901.00
185.912,3157.00
186.945,3317.00
187.976,3289.00
189.010,2899.00
190.043,3003.00
191.073,3114.00
192.106,2858.00
193.137,3386.00
194.170,2730.00
195.202,3139.00
196.232,2829.00
197.265,3136.00
198.297,3252.00
199.327,2948.00
200.359,3143.00
201.388,3555.00
202.420,3080.00
203.452,3296.00
204.481,2845.00
205.512,3567.00
206.544,3315.00
207.573,3196.00
208.604,3616.00
209.635,3735.00
210.663,3082.00
211.694,3154.00
212.725,3029.00
213.753,2984.00
214.783,3662.00
215.813,3413.00
216.841,3185.00
217.871,3351.00
218.899,3076.00
219.929,3368.00
220.959,3019.00
221.986,3326.00
223.016,2931.00
224.045,3296.00
225.072,3301.00
226.101,3387.00
227.130,3448.00
228.157,3002.00
229.185,2484.00
230.214,3358.00
231.241,3014.00
232.269,2592.00
233.297,2877.00
234.323,3409.00
235.351,2956.00
236.379,3288.00
237.407,2916.00
238.433,3118.00
239.460,3287.00
240.488,3305.00
241.513,3428.00
242.540,3293.00
243.568,3433.00
244.592,3419.00
245.619,3418.00
246.646,3109.00
247.671,3146.00
248.697,2942.00
249.724,3254.00
250.748,3224.00
251.774,3194.00
252.801,3461.00
253.827,3357.00
254.850,3249.00
255.876,2824.00
256.902,3336.00
257.925,3134.00
258.951,2918.00
259.976,2930.00
260.999,3273.00
262.024,2921.00
263.049,3841.00
264.074,3296.00
265.097,3197.00
266.122,3263.00
267.146,3175.00
268.168,3387.00
269.193,3069.00
270.217,3403.00
271.241,2862.00
272.263,3059.00
273.287,3366.00
274.311,2947.00
275.332,3486.00
276.356,3053.00
277.379,3266.00
278.402,3316.00
279.424,3135.00
280.447,3060.00
281.470,2887.00
282.492,3288.00
283.513,3105.00
284.536,3326.00
285.558,3329.00
286.581,3331.00
287.601,3012.00
288.623,2967.00
289.645,3256.00
290.665,3310.00
291.687,3335.00
292.709,3264.00
293.730,3594.00
294.750,3053.00
295.771,2940.00
296.792,3255.00
297.813,3081.00
298.832,3213.00
299.853,2907.00
300.874,3192.00
301.895,3159.00
302.913,3162.00
303.934,3451.00
304.954,3251.00
305.975,3405.00
306.993,2915.00
308.013,3268.00
309.033,3171.00
310.052,3122.00
311.072,3098.00
312.090,3223.00
313.109,3449.00
314.129,3658.00
315.148,3220.00
316.165,3264.00
317.184,3454.00
318.203,2895.00
319.222,2917.00
320.238,3352.00
321.257,2972.00
322.275,2865.00
323.294,3158.00
324.312,3334.00
325.328,3453.00
326.346,3493.00
327.364,3442.00
328.382,3368.00
329.397,3337.00
330.415,3438.00
331.432,3414.00
332.450,3441.00
333.467,3665.00
334.482,2738.00
335.499,3584.00
336.516,3008.00
337.533,2742.00
338.547,3038.00
339.564,2965.00
340.580,3261.00
341.597,3133.00
342.613,3640.00
343.627,3165.00
344.643,3187.00
345.659,3283.00
346.675,3158.00
347.690,3057.00
348.704,3278.00
349.719,3091.00
350.735,2943.00
351.750,3380.00
352.765,3194.00
353.778,3152.00
354.793,3314.00
355.808,3027.00
356.822,3389.00
357.837,2828.00
358.851,3441.00
359.864,3116.00
360.878,2927.00
361.892,3122.00
362.906,3345.00
363.920,2734.00
364.932,3252.00
365.945,3283.00
366.959,3176.00
367.972,3083.00
368.986,2857.00
369.999,3556.00
371.010,2991.00
372.023,3548.00
373.036,3122.00
374.049,3582.00
375.061,3256.00
376.072,3174.00
377.084,3029.00
378.097,2849.00
379.109,3397.00
380.121,3180.00
381.133,2833.00
382.143,3347.00
383.155,2923.00
384.166,3111.00
385.178,3276.00
386.189,3399.00
387.201,2886.00
388.212,3050.00
389.221,3058.00
390.232,3201.00
391.243,3078.00
392.254,3189.00
393.264,3033.00
394.275,3400.00
395.283,3374.00
396.294,3837.00
397.304,3663.00
398.314,3311.00
399.324,3224.00
400.334,2820.00
401.344,3314.00
402.351,2834.00
403.361,3450.00
404.370,3148.00
405.380,3093.00
406.389,3548.00
407.398,3324.00
408.407,3249.00
409.414,3332.00
410.423,3483.00
411.431,2909.00
412.440,2865.00
413.448,3586.00
414.457,3044.00
415.465,2995.00
416.471,3059.00
417.479,3158.00
418.487,2993.00
419.495,3472.00
420.503,3315.00
421.510,2775.00
422.518,3312.00
423.525,3403.00
424.530,3648.00
425.537,3063.00
426.544,3442.00
427.551,3029.00
428.558,3842.00
429.565,3669.00
430.571,3043.00
431.578,3045.00
432.582,3034.00
433.588,3097.00
434.595,2770.00
435.601,3474.00
436.607,3431.00
437.612,2936.00
438.618,3543.00
439.624,3116.00
440.627,3124.00
441.633,3323.00
442.638,3841.00
443.643,3306.00
444.648,3212.00
445.653,3393.00
446.658,3078.00
447.663,3211.00
448.667,3089.00
449.672,3069.00
450.674,3147.00
451.678,2876.00
452.682,2983.00
453.687,3018.00
454.690,3846.00
455.694,3423.00
456.698,2704.00
457.702,2823.00
458.705,2937.00
459.709,2977.00
460.710,3074.00
461.713,3201.00
462.716,3242.00
463.719,3214.00
464.722,3406.00
465.725,3149.00
466.727,3038.00
467.730,3204.00
468.732,2896.00
469.735,3489.00
470.737,3106.00
471.737,3061.00
472.739,3057.00
473.741,2940.00
474.742,3251.00
475.744,3301.00
476.746,3171.00
477.747,3103.00
478.748,3320.00
479.750,3118.00
480.751,3167.00
481.752,3955.00
482.753,3286.00
483.751,3821.00
484.752,2765.00
485.753,3143.00
486.753,3039.00
487.753,3140.00
488.754,3626.00
489.754,2886.00
490.754,3470.00
491.754,3287.00
492.754,2809.00
493.753,3185.00
494.753,3109.00
495.752,3540.00
496.752,3187.00
497.749,3191.00
498.748,3003.00
499.747,3575.00
500.746,3265.00
501.745,2915.00
502.744,2883.00
503.742,3518.00
504.741,3122.00
505.739,2599.00
506.737,3038.00
507.735,3311.00
508.734,3573.00
509.732,3340.00
510.729,3547.00
511.727,3053.00
512.725,3063.00
513.720,2942.00
514.718,3420.00
515.715,2826.00
516.712,2806.00
517.709,3170.00
518.706,3060.00
519.703,3156.00
520.700,3389.00
521.696,3564.00
522.693,3100.00
523.689,3029.00
524.686,3348.00
525.682,2978.00
526.678,3657.00
527.674,3096.00
528.670,2735.00
529.666,3740.00
530.661,3688.00
531.657,3850.00
532.652,3364.00
533.648,3182.00
534.641,3369.00
535.636,3236.00
536.631,3256.00
537.626,3349.00
538.621,2901.00
539.616,2747.00
540.610,2656.00
541.605,3204.00
542.599,3238.00
543.593,3187.00
544.587,4087.00
545.581,2992.00
546.575,3236.00
547.569,3208.00
548.563,2834.00
549.557,2819.00
550.550,2933.00
551.543,2948.00
552.537,3356.00
553.530,2933.00
554.523,2927.00
555.516,3295.00
556.509,3144.00
557.502,2772.00
558.494,3370.00
559.487,3078.00
560.479,3351.00
561.472,3437.00
562.464,3336.00
563.456,3473.00
564.448,3133.00
565.440,3143.00
566.432,3610.00
567.423,3080.00
568.415,3055.00
569.404,3270.00
570.396,2987.00
571.387,3332.00
572.378,3177.00
573.369,4238.00
574.360,3892.00
575.351,3099.00
576.341,3037.00
577.332,3043.00
578.323,2849.00
579.313,3057.00
580.303,3427.00
581.293,3278.00
582.283,3118.00
583.273,3294.00
584.263,3171.00
585.253,3306.00
586.243,3344.00
587.232,2780.00
588.222,3156.00
589.211,3362.00
590.200,3228.00
591.189,3121.00
592.178,3129.00
593.167,3636.00
594.156,3492.00
595.145,3057.00
596.133,3687.00
597.122,3318.00
598.110,3416.00
599.098,3212.00
600.086,3222.00
601.074,3374.00
602.062,3016.00
603.050,2888.00
604.038,3300.00
605.025,2960.00
606.013,3369.00
607.000,3577.00
607.987,3213.00
608.975,3221.00
609.962,2904.00
610.949,3314.00
611.936,3426.00
612.922,3315.00
613.909,2847.00
614.895,3577.00
615.882,2993.00
616.868,3185.00
617.854,2902.00
618.841,3174.00
619.826,3287.00
620.812,3146.00
621.798,2923.00
622.784,3404.00
623.769,3257.00
624.755,2898.00
625.740,3189.00
626.725,2894.00
627.711,2977.00
628.698,3262.00
629.683,2953.00
630.667,3343.00
631.652,2888.00
632.637,3159.00
633.621,3337.00
634.606,3099.00
635.590,3310.00
636.574,3136.00
637.558,3267.00
638.542,3198.00
639.526,3002.00
640.510,2801.00
641.493,3228.00
642.477,3143.00
643.460,2864.00
644.444,3432.00
645.427,3474.00
646.410,2836.00
647.393,3159.00
648.376,3256.00
649.359,3061.00
650.341,3245.00
651.324,3241.00
652.307,3167.00
653.289,3104.00
654.271,3007.00
655.253,3055.00
656.235,3303.00
657.217,3427.00
658.199,2737.00
659.181,2883.00
660.163,3174.00
661.144,3038.00
662.126,3071.00
663.107,2955.00
664.088,4939.00
665.069,3409.00
666.050,2940.00
667.033,2863.00
668.014,3238.00
668.995,2727.00
669.975,3098.00
670.956,3157.00
671.936,3271.00
672.916,3113.00
673.896,3243.00
674.876,3029.00
675.856,3023.00
676.836,2895.00
677.816,2414.00
678.795,2987.00
679.775,2815.00
680.754,3166.00
681.734,3319.00
682.713,3301.00
683.692,2930.00
684.671,2786.00
685.650,2920.00
686.629,2962.00
687.607,2934.00
688.586,2936.00
689.564,3032.00
690.543,3437.00
691.523,2488.00
692.501,2965.00
693.479,3105.00
694.457,2941.00
695.435,3043.00
696.413,2813.00
697.390,2647.00
698.368,2819.00
699.345,3287.00
700.322,3103.00
701.300,3203.00
702.277,3194.00
703.254,3479.00
704.231,2691.00
705.207,3143.00
706.184,2931.00
707.161,2845.00
708.137,3014.00
709.113,2954.00
710.090,2926.00
711.068,2715.00
712.044,2719.00
713.020,3053.00
713.996,2756.00
714.971,2937.00
715.947,2990.00
716.922,2966.00
717.898,2867.00
718.873,3020.00
719.848,2854.00
720.823,2817.00
721.798,3120.00
722.773,2942.00
723.748,2669.00
724.723,3172.00
725.697,3010.00
726.672,2900.00
727.646,2636.00
728.622,3146.00
729.596,2736.00
730.570,2876.00
731.544,3220.00
732.518,3493.00
733.492,2989.00
734.466,3029.00
735.439,3133.00
736.413,3253.00
737.386,2571.00
738.359,2542.00
739.332,2627.00
740.305,2998.00
741.278,3491.00
742.251,3075.00
743.224,2889.00
744.196,2710.00
745.171,3333.00
746.143,3210.00
747.115,2931.00
748.087,2879.00
749.059,3277.00
750.031,3054.00
751.003,3852.00
751.975,3402.00
752.947,2827.00
753.918,3215.00
754.890,2745.00
755.861,2920.00
756.832,3229.00
757.803,2991.00
758.774,2962.00
759.747,2715.00
760.718,3361.00
761.689,2886.00
762.659,2698.00
763.630,3329.00
764.600,2727.00
765.570,3218.00
766.540,3253.00
767.510,3105.00
768.480,3191.00
769.450,2883.00
770.420,2940.00
771.390,2791.00
772.359,2887.00
773.329,2782.00
774.300,2610.00
775.269,2876.00
776.238,3179.00
777.207,3306.00
778.176,2624.00
779.145,2973.00
780.114,2777.00
781.083,2666.00
782.051,2901.00
783.019,2828.00
783.988,3262.00
784.956,3059.00
785.924,3173.00
786.894,3023.00
787.862,2845.00
788.830,3281.00
789.797,2758.00
790.765,2723.00
791.732,2891.00
792.700,2826.00
793.667,2703.00
794.634,2888.00
795.601,2894.00
796.568,2935.00
797.535,2977.00
798.502,3623.00
799.468,3076.00
800.437,2517.00
801.403,2782.00
802.370,3479.00
803.336,3151.00
804.302,2988.00
805.268,2562.00
806.234,2709.00
807.200,2859.00
808.166,2927.00
809.131,2677.00
810.097,3145.00
811.062,3903.00
812.027,3167.00
812.994,2715.00
813.960,2714.00
814.925,3115.00
815.889,2655.00
816.854,3183.00
817.819,2811.00
818.783,2892.00
819.748,3238.00
820.712,2903.00
821.677,2770.00
822.641,2838.00
823.605,2852.00
824.571,3336.00
825.534,2863.00
826.498,2800.00
827.462,2948.00
828.425,2724.00
829.389,3181.00
830.352,3002.00
831.315,3060.00
832.279,2653.00
833.242,2876.00
834.204,2814.00
835.167,2773.00
836.132,3184.00
837.095,2654.00
838.057,2840.00
839.020,2956.00
839.982,2990.00
840.944,2784.00
841.906,2788.00
842.868,3097.00
843.830,2645.00
844.792,3256.00
845.753,2804.00
846.715,2556.00
847.679,2747.00
848.640,2747.00
849.601,2900.00
850.562,3404.00
851.523,2824.00
852.484,2595.00
853.445,3190.00
854.406,2849.00
855.367,2864.00
856.327,3236.00
857.288,2610.00
858.248,2817.00
859.210,2854.00
860.170,2637.00
861.130,3144.00
862.090,2561.00
863.050,2702.00
864.010,2793.00
864.969,3030.00
865.929,2737.00
866.888,2623.00
867.848,2972.00
868.807,2766.00
869.766,2988.00
870.727,2855.00
871.686,3162.00
872.645,3132.00
873.604,3484.00
874.562,2865.00
875.521,2951.00
876.479,3556.00
877.437,2728.00
878.396,2753.00
879.354,3303.00
880.312,2755.00
881.270,2792.00
882.229,3269.00
883.187,2790.00
884.145,2802.00
885.102,3078.00
886.059,2940.00
887.017,3087.00
887.974,3088.00
888.931,3221.00
889.888,2649.00
890.845,2580.00
891.802,2454.00
892.758,2736.00
893.717,2555.00
894.673,2670.00
895.630,2729.00
896.586,3048.00
897.542,2841.00
898.498,2683.00
899.454,2972.00
900.410,2806.00
901.366,2796.00
902.321,2738.00
903.277,2850.00
904.232,2880.00
905.189,2633.00
906.145,2788.00
907.100,2313.00
908.055,2872.00
909.010,3113.00
909.965,2438.00
910.919,2920.00
911.874,2698.00
912.828,2896.00
913.783,2962.00
914.737,2489.00
915.693,2885.00
916.648,3053.00
917.602,3097.00
918.555,2952.00
919.509,2983.00
920.463,2862.00
921.417,2922.00
922.370,2667.00
923.324,2789.00
924.277,2811.00
925.230,2920.00
926.183,2516.00
927.138,2794.00
928.091,3099.00
929.044,2950.00
929.996,2797.00
930.949,2785.00
931.902,2965.00
932.854,2979.00
933.806,2724.00
934.758,3102.00
935.711,3106.00
936.663,2975.00
937.614,2947.00
938.568,2896.00
939.520,2525.00
940.471,2821.00
941.423,2946.00
942.374,3030.00
943.326,2877.00
944.277,2755.00
945.228,2963.00
946.179,2821.00
947.130,3161.00
948.080,2799.00
949.031,2666.00
949.984,2806.00
950.934,2834.00
951.884,2582.00
952.835,2867.00
953.785,2920.00
954.735,2736.00
955.685,2477.00
956.635,2808.00
957.585,2787.00
958.534,2752.00
959.484,2877.00
960.433,2763.00
961.383,2588.00
962.334,3098.00
963.283,2905.00
964.232,3022.00
965.181,2859.00
966.130,2888.00
967.079,2768.00
968.027,2831.00
968.976,2860.00
969.924,2754.00
970.873,2929.00
971.821,2920.00
972.769,3091.00
973.719,3004.00
974.667,2609.00
975.615,2882.00
976.562,2836.00
977.510,2546.00
978.458,2741.00
979.405,2958.00
980.352,2877.00
981.300,3093.00
982.247,2945.00
983.194,2663.00
984.141,2745.00
985.088,2866.00
986.036,2914.00
986.983,3211.00
987.930,3255.00
988.876,2454.00
989.822,3112.00
990.769,2644.00
991.715,2714.00
992.661,2555.00
993.607,2941.00
994.553,3464.00
995.498,2672.00
996.444,2389.00
997.389,2903.00
998.337,2642.00
999.282,3016.00
1000.227,2752.00
1001.173,2835.00
1002.118,2574.00
1003.062,3065.00
1004.007,2785.00
1004.952,3124.00
1005.897,3115.00
1006.841,2825.00
1007.786,2582.00
1008.730,2522.00
1009.674,3324.00
1010.618,2766.00
1011.564,2626.00
1012.508,2517.00
1013.452,3073.00
1014.396,2865.00
1015.339,2736.00
1016.283,2813.00
1017.226,2879.00
1018.170,2835.00
1019.113,3038.00
1020.056,2849.00
1020.999,2879.00
1021.942,2699.00
1022.885,3006.00
1023.828,3140.00
1024.770,2635.00
1025.715,2867.00
1026.657,2810.00
1027.600,2901.00
1028.542,3040.00
1029.484,2882.00
1030.426,3011.00
1031.368,2905.00
1032.310,2719.00
1033.251,2672.00
1034.193,2840.00
1035.135,2590.00
1036.076,2758.00
1037.017,2662.00
1037.959,2972.00
1038.900,2921.00
1039.843,2924.00
1040.784,2848.00
1041.725,2925.00
1042.665,2773.00
1043.606,2882.00
1044.547,2873.00
1045.487,2433.00
1046.427,2799.00
1047.368,2898.00
1048.308,2321.00
1049.248,2663.00
1050.188,2827.00
1051.128,2759.00
1052.067,2832.00
1053.007,2486.00
1053.947,2503.00
1054.886,2678.00
1055.827,2610.00
1056.766,3156.00
1057.706,2581.00
1058.645,2795.00
1059.584,2845.00
1060.522,3076.00
1061.461,2560.00
1062.400,2575.00
1063.338,2783.00
1064.277,2635.00
1065.215,2637.00
1066.154,2481.00
1067.092,2754.00
1068.030,2771.00
1068.968,3031.00
1069.906,3134.00
1070.843,3090.00
1071.781,2873.00
1072.720,2946.00
1073.658,2946.00
1074.595,2725.00
1075.533,2653.00
1076.470,2703.00
1077.407,3097.00
1078.344,2884.00
1079.281,2918.00
1080.217,2394.00
1081.154,2794.00
1082.091,2878.00
1083.027,2560.00
1083.964,3057.00
1084.900,2665.00
1085.836,2728.00
1086.772,3005.00
1087.708,2541.00
1088.644,2982.00
1089.580,2815.00
1090.515,2848.00
1091.451,2706.00
1092.388,2839.00
1093.324,2553.00
1094.259,3427.00
1095.194,2857.00
1096.129,2736.00
1097.064,2674.00
1097.999,2959.00
1098.934,2662.00
1099.869,2634.00
1100.803,2877.00
1101.738,2853.00
1102.672,2499.00
1103.607,2976.00
1104.541,2700.00
1105.475,2654.00
1106.409,2519.00
1107.343,2706.00
1108.277,2556.00
1109.210,2856.00
1110.144,2788.00
1111.078,2722.00
1112.011,2549.00
1112.944,2912.00
1113.878,2849.00
1114.811,2288.00
1115.744,2672.00
1116.678,2415.00
1117.611,2692.00
1118.544,2710.00
1119.477,2868.00
1120.409,2665.00
1121.342,3282.00
1122.274,2897.00
1123.206,3188.00
1124.138,2800.00
1125.070,3119.00
1126.002,2972.00
1126.934,2391.00
1127.866,2704.00
1128.798,2433.00
1129.729,2471.00
1130.661,2773.00
1131.592,2674.00
1132.523,2884.00
1133.454,2862.00
1134.385,2391.00
1135.317,2786.00
1136.247,2737.00
1137.178,3021.00
1138.109,2461.00
1139.039,3142.00
1139.970,2989.00
1140.900,2682.00
1141.831,2459.00
1142.761,2390.00
1143.691,2908.00
1144.621,2762.00
1145.551,2788.00
1146.480,2823.00
1147.410,2993.00
1148.340,2392.00
1149.269,2508.00
1150.199,2729.00
1151.128,3223.00
1152.057,2574.00
1152.979,2733.00
1153.898,2709.00
1154.819,2867.00
1155.739,2758.00
1156.658,2708.00
1157.579,2787.00
1158.498,2723.00
1159.419,2274.00
1160.338,2829.00
1161.256,2817.00
1162.177,2635.00
1163.095,2723.00
1164.016,2860.00
1164.934,3051.00
1165.852,2982.00
1166.772,2747.00
1167.690,2770.00
1168.610,2837.00
1169.528,2723.00
1170.446,2276.00
1171.365,2666.00
1172.283,2620.00
1173.202,2766.00
1174.120,2786.00
1175.037,2609.00
1175.956,2576.00
1176.873,2616.00
1177.792,2657.00
1178.709,3261.00
1179.626,2659.00
1180.544,2973.00
1181.461,2645.00
1182.379,2850.00
1183.296,2739.00
1184.212,2375.00
1185.130,2602.00
1186.046,3079.00
1186.962,2744.00
1187.880,3058.00
1188.796,2802.00
1189.714,2584.00
1190.629,2951.00
1191.545,2812.00
1192.462,2692.00
1193.378,2716.00
1194.295,2465.00
1195.210,2771.00
1196.125,2933.00
1197.042,2860.00
1197.957,2761.00
1198.872,2630.00
1199.788,2639.00
1200.703,3095.00
1201.619,2776.00
1202.534,2599.00
1203.448,2861.00
1204.364,2678.00
1205.278,2390.00
1206.192,2789.00
1207.108,3290.00
1208.022,3151.00
1208.938,2617.00
1209.851,2937.00
1210.765,2942.00
1211.680,2648.00
1212.594,2526.00
1213.507,2674.00
1214.422,3207.00
1215.335,2869.00
1216.248,2689.00
1217.163,2761.00
1218.076,3365.00
1218.990,2871.00
1219.903,2534.00
1220.816,2607.00
1221.730,2726.00
1222.642,2602.00
1223.554,2659.00
1224.469,2869.00
1225.380,2710.00
1226.292,2413.00
1227.206,2888.00
1228.118,3131.00
1229.032,2359.00
1229.943,2621.00
1230.855,2711.00
1231.768,2493.00
1232.679,2863.00
1233.590,2746.00
1234.503,2986.00
1235.414,2646.00
1236.325,2603.00
1237.238,2794.00
1238.149,2860.00
1239.059,2561.00
1239.972,2968.00
1240.882,2574.00
1241.793,2877.00
1242.705,3121.00
1243.615,2702.00
1244.525,2848.00
1245.437,2268.00
1246.347,2802.00
1247.259,2970.00
1248.168,3217.00
1249.078,3020.00
1249.989,3049.00
1250.899,2513.00
1251.808,2616.00
1252.719,2683.00
1253.628,2581.00
1254.537,3138.00
1255.448,2559.00
1256.357,2584.00
1257.266,2755.00
1258.176,2446.00
1259.085,2416.00
1259.993,2562.00
1260.904,2553.00
1261.812,2570.00
1262.720,3325.00
1263.630,2964.00
1264.538,2576.00
1265.446,2871.00
1266.356,2713.00
1267.263,3063.00
1268.171,2532.00
1269.080,2872.00
1269.988,2930.00
1270.895,2666.00
1271.804,2723.00
1272.711,2972.00
1273.619,2892.00
1274.527,2548.00
1275.434,2884.00
1276.341,2594.00
1277.248,2769.00
1278.156,3036.00
1279.063,2621.00
1279.969,2857.00
1280.877,3713.00
1281.783,2966.00
1282.690,2820.00
1283.598,2739.00
1284.503,2647.00
1285.409,2590.00
1286.317,3140.00
1287.223,3136.00
1288.128,2806.00
1289.036,2666.00
1289.941,2712.00
1290.846,2757.00
1291.751,2585.00
1292.658,2697.00
1293.563,3204.00
1294.468,2741.00
1295.375,2934.00
1296.280,2999.00
1297.184,3514.00
1298.091,2845.00
1298.995,2926.00
1299.900,3152.00
1300.806,2634.00
1301.710,2492.00
1302.614,2326.00
1303.518,3016.00
1304.424,2693.00
1305.327,2969.00
1306.231,2712.00
1307.137,2909.00
1308.040,2784.00
1308.943,2775.00
1309.847,2962.00
1310.752,2973.00
1311.655,2378.00
1312.558,2565.00
1313.463,2671.00
1314.366,2640.00
1315.269,2815.00
1316.171,2752.00
1317.076,2666.00
1317.978,2574.00
1318.881,2364.00
1319.785,2615.00
1320.687,2604.00
1321.589,2345.00
1322.491,2600.00
1323.395,2849.00
1324.297,3306.00
1325.198,2925.00
1326.102,2546.00
1327.004,2532.00
1327.905,3147.00
1328.806,2725.00
1329.709,2814.00
1330.611,2684.00
1331.512,2533.00
1332.413,3235.00
1333.316,2850.00
1334.216,2900.00
1335.117,2461.00
1336.020,2746.00
1336.920,2771.00
1337.821,2637.00
1338.721,3057.00
1339.623,2814.00
1340.523,2748.00
1341.423,2610.00
1342.323,3046.00
1343.225,2835.00
1344.125,2568.00
1345.025,2625.00
1345.924,2389.00
1346.826,3141.00
1347.725,3211.00
1348.624,2984.00
1349.524,2586.00
1350.425,2687.00
1351.324,2874.00
1352.223,2939.00
1353.121,2676.00
1354.022,2964.00
1354.921,3159.00
1355.819,2829.00
1356.718,2803.00
1357.618,2469.00
1358.516,2872.00
1359.415,3115.00
1360.313,2823.00
1361.213,2714.00
1362.111,3054.00
1363.008,3440.00
1363.906,2715.00
1364.806,2799.00
1365.703,2824.00
1366.601,2592.00
1367.498,2565.00
1368.397,2962.00
1369.295,2778.00
1370.192,2601.00
1371.089,2841.00
1371.987,2711.00
1372.884,3045.00
1373.781,2556.00
1374.678,2779.00
1375.574,2566.00
1376.473,2895.00
1377.369,2987.00
1378.265,2580.00
1379.161,2743.00
1380.059,2441.00
1380.955,2907.00
1381.851,2499.00
1382.747,2625.00
1383.643,2690.00
1384.540,2578.00
1385.436,2646.00
1386.331,2846.00
1387.227,2918.00
1388.124,2885.00
1389.019,2581.00
1389.914,2764.00
1390.809,2380.00
1391.704,3192.00
1392.601,2650.00
1393.495,3042.00
1394.390,2944.00
1395.285,3020.00
1396.179,2845.00
1397.075,2740.00
1397.969,2841.00
1398.864,2437.00
1399.758,2700.00
1400.652,2786.00
1401.547,2565.00
1402.441,2530.00
1403.335,3118.00
1404.229,2825.00
1405.122,2784.00
1406.017,2735.00
1406.911,2916.00
1407.804,3209.00
1408.697,2718.00
1409.590,2577.00
1410.485,2915.00
1411.378,2832.00
1412.271,2466.00
1413.163,2840.00
1414.056,2923.00
1414.949,3155.00
1415.843,2841.00
1416.735,2752.00
1417.627,2764.00
1418.520,2723.00
1419.412,2995.00
1420.306,2954.00
1421.197,3077.00
1422.089,3032.00
1422.981,3235.00
1423.873,2975.00
1424.764,2905.00
1425.657,2814.00
1426.549,2937.00
1427.440,2962.00
1428.331,2686.00
1429.222,2442.00
1430.113,2848.00
1431.006,2935.00
1431.897,2696.00
1432.787,2768.00
1433.678,2704.00
1434.568,2601.00
1435.459,3027.00
1436.351,2976.00
1437.241,2909.00
1438.131,2937.00
1439.021,2487.00
1439.911,2726.00
1440.801,2825.00
1441.693,3019.00
1442.583,2819.00
1443.472,2779.00
1444.362,2868.00
1445.251,2727.00
1446.140,2655.00
1447.030,2950.00
1447.921,3002.00
1448.810,2605.00
1449.699,3171.00
1450.588,2783.00
1451.476,2700.00
1452.365,2824.00
1453.254,2675.00
1454.144,2667.00
1455.032,2899.00
1455.921,2520.00
1456.809,3073.00
1457.697,2579.00
1458.585,2727.00
1459.473,2715.00
1460.361,2597.00
1461.251,2855.00
1462.138,2850.00
1463.026,2727.00
1463.913,3031.00
1464.801,2662.00
1465.688,2899.00
1466.575,2792.00
1467.463,3246.00
1468.351,2615.00
1469.238,2781.00
1470.125,2383.00
1471.012,2825.00
1471.899,2917.00
1472.785,2595.00
1473.672,2806.00
1474.558,3006.00
1475.446,2915.00
1476.333,2970.00
1477.219,2574.00
1478.105,2764.00
1478.991,2740.00
1479.877,3086.00
1480.762,2760.00
1481.648,2640.00
1482.534,2924.00
1483.419,2872.00
1484.307,2893.00
1485.192,2784.00
1486.077,2644.00
1486.962,2624.00
1487.847,2532.00
1488.732,2599.00
1489.617,2785.00
1490.502,3052.00
1491.387,2945.00
1492.271,2589.00
1493.156,2654.00
1494.042,2543.00
1494.927,3005.00
1495.811,2675.00
1496.695,2938.00
1497.579,3065.00
1498.463,2778.00
1499.347,2815.00
1500.231,2874.00
1501.114,2877.00
1501.998,3054.00
1502.881,2801.00
1503.765,3110.00
1504.648,3201.00
1505.533,2870.00
1506.417,2800.00
1507.300,2738.00
1508.183,2869.00
1509.066,2227.00
1509.948,3041.00
1510.831,3165.00
1511.714,2601.00
1512.596,2906.00
1513.479,3063.00
1514.361,3011.00
1515.243,2807.00
1516.125,2927.00
1517.008,3077.00
1517.890,2747.00
1518.771,2830.00
1519.655,2987.00
1520.537,2762.00
1521.419,2614.00
1522.300,2846.00
1523.182,2944.00
1524.063,2995.00
1524.944,3092.00
1525.825,2977.00
1526.707,2593.00
1527.588,2577.00
1528.468,2846.00
1529.349,2440.00
1530.230,2711.00
1531.111,2954.00
1531.991,2842.00
1532.872,2465.00
1533.752,2764.00
1534.632,2667.00
1535.513,2641.00
1536.393,2968.00
1537.273,3111.00
1538.153,3533.00
1539.032,2506.00
1539.912,2803.00
1540.792,2780.00
1541.672,2846.00
1542.551,2914.00
1543.430,3425.00
1544.310,2807.00
1545.189,2673.00
1546.068,3237.00
1546.947,2948.00
1547.826,3131.00
1548.705,2755.00
1549.584,3030.00
1550.462,2722.00
1551.341,2964.00
1552.219,2878.00
1553.098,2983.00
1553.976,3029.00
1554.854,3216.00
1555.733,3036.00
1556.611,2701.00
1557.489,2598.00
1558.367,2783.00
1559.244,2941.00
1560.122,2792.00
1561.000,2850.00
1561.877,3105.00
1562.755,2663.00
1563.632,2723.00
1564.509,3060.00
1565.386,3213.00
1566.264,2543.00
1567.141,2414.00
1568.017,2959.00
1568.894,2792.00
1569.771,2906.00
1570.648,2919.00
1571.524,2861.00
1572.401,2555.00
1573.277,2564.00
1574.153,2832.00
1575.029,2671.00
1575.906,3570.00
1576.781,2971.00
1577.657,2736.00
1578.533,3044.00
1579.409,2434.00
1580.285,2772.00
1581.160,3214.00
1582.036,3021.00
1582.911,2649.00
1583.786,3176.00
1584.662,2601.00
1585.537,2793.00
1586.412,2831.00
1587.287,2627.00
1588.160,3033.00
1589.035,2438.00
1589.909,2807.00
1590.784,2782.00
1591.658,2611.00
1592.533,2887.00
1593.407,2812.00
1594.281,2691.00
1595.155,3224.00
1596.029,2751.00
1596.903,2747.00
1597.777,2725.00
1598.651,3087.00
1599.525,2472.00
1600.398,2830.00
1601.272,2798.00
1602.144,3371.00
1603.017,2771.00
1603.890,3040.00
1604.763,2897.00
1605.636,2960.00
1606.509,2534.00
1607.382,2643.00
1608.255,2884.00
1609.128,3018.00
1610.000,2789.00
1610.873,2469.00
1611.746,2722.00
1612.616,2760.00
1613.488,2401.00
1614.361,2818.00
1615.233,2755.00
1616.105,3053.00
1616.977,2729.00
1617.849,2623.00
1618.720,3157.00
1619.592,3115.00
1620.464,2891.00
1621.333,3290.00
1622.205,2786.00
1623.076,2778.00
1623.947,2806.00
1624.818,3062.00
1625.689,2941.00
1626.560,2692.00
1627.431,2817.00
1628.302,3248.00
1629.171,2956.00
1630.042,3114.00
1630.912,3521.00
1631.782,3458.00
1632.653,2576.00
1633.523,3016.00
1634.393,3009.00
1635.263,2710.00
1636.131,2817.00
1637.001,2733.00
1637.871,2416.00
1638.741,2427.00
1639.611,2537.00
1640.480,2902.00
1641.350,2687.00
1642.219,2649.00
1643.087,2247.00
1643.956,3246.00
1644.825,3096.00
1645.694,3022.00
1646.563,3003.00
1647.432,2842.00
1648.299,2801.00
1649.167,2925.00
1650.036,2633.00
1650.904,3002.00
1651.773,3020.00
1652.641,2843.00
1653.509,3019.00
1654.376,2695.00
1655.244,2860.00
1656.112,2837.00
1656.980,2814.00
1657.847,2682.00
1658.715,3007.00
1659.581,2753.00
1660.448,3070.00
1661.316,2289.00
1662.183,2836.00
1663.051,2826.00
1663.918,2847.00
1664.783,2880.00
1665.650,2919.00
1666.517,2996.00
1667.384,2817.00
1668.251,2859.00
1669.115,3053.00
1669.982,2791.00
1670.849,3065.00
1671.715,2811.00
1672.581,2990.00
1673.446,2938.00
1674.312,2879.00
1675.178,3242.00
1676.044,2930.00
1676.910,2920.00
1677.774,2892.00
1678.639,2475.00
1679.505,2797.00
1680.370,2980.00
1681.236,3497.00
1682.099,2808.00
1682.965,2878.00
1683.830,2418.00
1684.695,2653.00
1685.560,2754.00
1686.423,2981.00
1687.288,2953.00
1688.153,2905.00
1689.017,2755.00
1689.880,2913.00
1690.745,2975.00
1691.609,2659.00
1692.473,2991.00
1693.338,3055.00
1694.200,3098.00
1695.064,2826.00
1695.928,2715.00
1696.792,2867.00
1697.654,3335.00
1698.517,2872.00
1699.381,2560.00
1700.245,2463.00
1701.106,3158.00
1701.969,2723.00
1702.833,3021.00
1703.696,2713.00
1704.557,2774.00
1705.420,2732.00
1706.283,2871.00
1707.146,2971.00
1708.007,2622.00
1708.870,2613.00
1709.732,2517.00
1710.595,2730.00
1711.455,2563.00
1712.318,2717.00
1713.180,3122.00
1714.040,2879.00
1714.902,2989.00
1715.764,2851.00
1716.626,2582.00
1717.486,2801.00
1718.348,3107.00
1719.209,5262.00
1720.071,2478.00
1720.930,2576.00
1721.792,2686.00
1722.653,2659.00
1723.512,2716.00
1724.374,2812.00
1725.234,2885.00
1726.095,2809.00
1726.954,2823.00
1727.815,2937.00
1728.676,2785.00
1729.535,3070.00
1730.395,2811.00
1731.256,2735.00
1732.114,2903.00
1732.974,2279.00
1733.834,3217.00
1734.693,3042.00
1735.553,2899.00
1736.413,3267.00
1737.272,2694.00
1738.130,2742.00
1738.990,2921.00
1739.849,2706.00
1740.707,3931.00
1741.566,2856.00
1742.426,2893.00
1743.283,3258.00
1744.142,2736.00
1745.001,2506.00
1745.858,3049.00
1746.717,2946.00
1747.576,2904.00
1748.433,3017.00
1749.292,3476.00
1750.150,3502.00
1751.007,3012.00
1751.865,3036.00
1752.723,2850.00
1753.579,2736.00
1754.438,3088.00
1755.296,3060.00
1756.152,2369.00
1757.010,2480.00
1757.865,3088.00
1758.723,2484.00
1759.581,3145.00
1760.436,2782.00
1761.294,3205.00
1762.151,2853.00
1763.006,2757.00
1763.864,2443.00
1764.721,3032.00
1765.576,2846.00
1766.433,2970.00
1767.288,2762.00
1768.144,2899.00
1769.001,2801.00
1769.856,2960.00
1770.712,3060.00
1771.568,2584.00
1772.423,2743.00
1773.279,2747.00
1774.133,2757.00
1774.989,3288.00
1775.845,3212.00
1776.699,3114.00
1777.555,2874.00
1778.409,3419.00
1779.265,2793.00
1780.120,2789.00
1780.974,2789.00
1781.829,2436.00
1782.682,2903.00
1783.538,2651.00
1784.393,2930.00
1785.246,2715.00
1786.101,2916.00
1786.954,2979.00
1787.808,3030.00
1788.661,2545.00
1789.516,2743.00
1790.370,2780.00
1791.223,3046.00
1792.077,2868.00
1792.930,2947.00
1793.784,2702.00
1794.636,2868.00
1795.490,2817.00
1796.344,2893.00
1797.196,2799.00
1798.049,2976.00
1798.901,2716.00
1799.755,3083.00
1800.606,2614.00
1801.460,3374.00
1802.311,3105.00
1803.165,3301.00
1804.018,3198.00
1804.869,2925.00
1805.722,3316.00
1806.573,2882.00
1807.426,2650.00
1808.276,2852.00
1809.129,2735.00
1809.980,3056.00
1810.832,3120.00
1811.683,2764.00
1812.535,3189.00
1813.385,2771.00
1814.237,3144.00
1815.089,2876.00
1815.940,3188.00
1816.791,2794.00
1817.641,2690.00
1818.493,3008.00
1819.343,2941.00
1820.194,2709.00
1821.044,2984.00
1821.895,3080.00
1822.745,2568.00
1823.596,2730.00
1824.445,3278.00
1825.296,2961.00
1826.145,2820.00
1826.996,3089.00
1827.845,2948.00
1828.695,2897.00
1829.544,2846.00
1830.395,2880.00
1831.243,2762.00
1832.094,2549.00
1832.942,3483.00
1833.792,2984.00
1834.640,2937.00
1835.490,2872.00
1836.338,2899.00
1837.186,2738.00
1838.036,2757.00
1838.884,2874.00
1839.733,3225.00
1840.581,3039.00
1841.430,2988.00
1842.278,3210.00
1843.127,2768.00
1843.974,2511.00
1844.823,3279.00
1845.671,3025.00
1846.519,2865.00
1847.366,2924.00
1848.213,2471.00
1849.062,2658.00
1849.909,2586.00
1850.757,3482.00
1851.604,2977.00
1852.452,2763.00
1853.298,3080.00
1854.146,2921.00
1854.993,2892.00
1855.839,3430.00
1856.687,3010.00
1857.532,2960.00
1858.380,2855.00
1859.226,2956.00
1860.073,2957.00
1860.919,2685.00
1861.765,2748.00
1862.612,3130.00
1863.457,3080.00
1864.304,2811.00
1865.150,2994.00
1865.995,2808.00
1866.842,2973.00
1867.686,3096.00
1868.533,2971.00
1869.378,2937.00
1870.223,2897.00
1871.069,2766.00
1871.914,2860.00
1872.760,2839.00
1873.604,2630.00
1874.448,3031.00
1875.294,3069.00
1876.139,2737.00
1876.984,2986.00
1877.828,2532.00
1878.672,2358.00
1879.518,2782.00
1880.361,3071.00
1881.205,3000.00
1882.050,2664.00
1882.894,3400.00
1883.739,2717.00
1884.582,2599.00
1885.425,2680.00
1886.270,3108.00
1887.113,2632.00
1887.956,2946.00
1888.801,2899.00
1889.644,2696.00
1890.486,2428.00
1891.331,2781.00
1892.173,2885.00
1893.017,2951.00
1893.860,3193.00
1894.702,3192.00
1895.546,2891.00
1896.388,3583.00
1897.230,3274.00
1898.074,2822.00
1898.916,2616.00
1899.757,2723.00
1900.601,3555.00
1901.443,3144.00
1902.284,3196.00
1903.125,3404.00
1903.969,3103.00
1904.810,3170.00
1905.651,2988.00
1906.494,3160.00
1907.335,3353.00
1908.176,3055.00
1909.018,2993.00
1909.859,2853.00
1910.700,2732.00
1911.542,3450.00
1912.383,2983.00
1913.223,2470.00
1914.064,3038.00
1914.906,3153.00
1915.746,3245.00
1916.586,3386.00
1917.428,2857.00
1918.268,2896.00
1919.107,2775.00
1919.947,2650.00
1920.789,2796.00
1921.628,3175.00
1922.468,2865.00
1923.309,2763.00
1924.148,3192.00
1924.988,2957.00
1925.827,2850.00
1926.667,2767.00
1927.507,2930.00
1928.345,2684.00
1929.184,3051.00
1930.025,2700.00
1930.864,3158.00
1931.702,3192.00
1932.541,2801.00
1933.381,3018.00
1934.219,3049.00
1935.057,3188.00
1935.896,2596.00
1936.735,2835.00
1937.573,2793.00
1938.411,2706.00
1939.249,3072.00
1940.089,2777.00
1940.927,3159.00
1941.764,3191.00
1942.602,2793.00
1943.439,2757.00
1944.278,2859.00
1945.115,2810.00
1945.953,2623.00
1946.790,2950.00
1947.628,3238.00
1948.465,2998.00
1949.302,3025.00
1950.139,3014.00
1950.976,2729.00
1951.814,3060.00
1952.651,2953.00
1953.487,2651.00
1954.323,3153.00
1955.160,2883.00
1955.998,3268.00
1956.834,2866.00
1957.670,2955.00
1958.506,3098.00
1959.342,2987.00
1960.177,2936.00
1961.015,3032.00
1961.850,2959.00
1962.686,2932.00
1963.521,2926.00
1964.357,3205.00
1965.192,2644.00
1966.029,3043.00
1966.864,2801.00
1967.699,3153.00
1968.534,2938.00
1969.369,3204.00
1970.204,2847.00
1971.040,2935.00
1971.875,2834.00
1972.709,2956.00
1973.544,2717.00
1974.378,2774.00
1975.212,3030.00
1976.047,2801.00
1976.882,2781.00
1977.716,3339.00
1978.550,2573.00
1979.384,2828.00
1980.218,2851.00
1981.052,2838.00
1981.885,2927.00
1982.719,2871.00
1983.554,3045.00
1984.388,3242.00
1985.221,2985.00
1986.054,3194.00
1986.887,2930.00
1987.720,2727.00
1988.553,3212.00
1989.386,3011.00
1990.219,3028.00
1991.053,3204.00
1991.886,2783.00
1992.719,3113.00
1993.551,2383.00
1994.383,3069.00
1995.216,2840.00
1996.048,2622.00
1996.880,3087.00
1997.712,2794.00
1998.544,2890.00
1999.376,3017.00
2000.208,3193.00
2001.040,3370.00
2001.873,2668.00
2002.705,2733.00
2003.536,2958.00
2004.367,2934.00
2005.199,2916.00
2006.030,2764.00
2006.861,2687.00
2007.692,2945.00
2008.523,2776.00
2009.354,2936.00
2010.185,2693.00
2011.016,3051.00
2011.846,3131.00
2012.677,2861.00
2013.507,3217.00
2014.338,3107.00
2015.168,2839.00
2015.999,3438.00
2016.829,2858.00
2017.659,3111.00
2018.489,3463.00
2019.319,2691.00
2020.149,3065.00
2020.980,2921.00
2021.810,2690.00
2022.639,2774.00
2023.469,2763.00
2024.298,2579.00
2025.128,2503.00
2025.957,2508.00
2026.786,2344.00
2027.615,2559.00
2028.444,2786.00
2029.273,2903.00
2030.102,2520.00
2030.931,2776.00
2031.758,3067.00
2032.586,2672.00
2033.415,2746.00
2034.243,2341.00
2035.072,2128.00
2035.900,2630.00
2036.728,2460.00
2037.556,2473.00
2038.385,2490.00
2039.213,2316.00
2040.040,2309.00
2040.868,2256.00
2041.696,2342.00
2042.524,2324.00
2043.351,2557.00
2044.179,2346.00
2045.006,2116.00
