RamanScope Measure Spectrum Data V3.72

<< MEASURE CONDITION >>
Exposure Type,Aver
Exposure Time [sec],15
Exposure Count,30
Measure Time,2023/07/11 21:01:22
Data Name,""
Data Comment,""
Rayleigh Wave[nm],532.0

<< SAMPLE SPECTRUM >>
Wave[dcm-1],No608
146.591,865.83
147.626,1001.07
148.664,1155.53
149.699,1280.33
150.737,1438.03
151.772,1558.53
152.809,1711.23
153.846,1810.10
154.881,1929.30
155.918,2006.30
156.953,2072.23
157.989,2160.67
159.026,2157.23
160.060,2213.77
161.096,2282.57
162.130,2321.90
163.167,2328.13
164.200,2354.67
165.236,2413.20
166.272,2426.73
167.305,2494.83
168.341,2556.10
169.374,2613.80
170.409,2603.63
171.445,2642.47
172.477,2689.63
173.512,2721.63
174.545,2738.27
175.580,2776.03
176.614,2717.27
177.647,2790.80
178.681,2797.47
179.713,2801.70
180.747,2758.63
181.781,2769.57
182.813,2696.93
183.847,2719.37
184.878,2715.13
185.912,2721.90
186.945,2738.93
187.976,2753.43
189.010,2734.77
190.043,2676.60
191.073,2768.23
192.106,2811.17
193.137,2796.83
194.170,2816.73
195.202,2867.43
196.232,2849.87
197.265,2888.00
198.297,2882.20
199.327,2946.30
200.359,2947.13
201.388,3020.03
202.420,3022.43
203.452,3072.07
204.481,3116.57
205.512,3160.40
206.544,3208.63
207.573,3311.67
208.604,3350.80
209.635,3412.80
210.663,3564.53
211.694,3619.97
212.725,3723.13
213.753,3786.10
214.783,3892.73
215.813,3901.27
216.841,3973.13
217.871,4023.63
218.899,4040.43
219.929,4022.40
220.959,3969.93
221.986,3963.23
223.016,3827.33
224.045,3768.33
225.072,3682.40
226.101,3578.67
227.130,3495.43
228.157,3500.30
229.185,3398.20
230.214,3378.67
231.241,3333.63
232.269,3247.43
233.297,3224.47
234.323,3192.50
235.351,3168.03
236.379,3125.00
237.407,3144.27
238.433,3133.17
239.460,3132.63
240.488,3145.47
241.513,3149.30
242.540,3171.37
243.568,3208.83
244.592,3213.00
245.619,3190.03
246.646,3165.03
247.671,3158.50
248.697,3195.03
249.724,3177.50
250.748,3117.97
251.774,3141.43
252.801,3146.33
253.827,3139.87
254.850,3171.83
255.876,3146.13
256.902,3197.03
257.925,3148.87
258.951,3221.73
259.976,3258.40
260.999,3241.17
262.024,3290.40
263.049,3267.00
264.074,3327.20
265.097,3383.63
266.122,3408.60
267.146,3436.10
268.168,3436.60
269.193,3489.50
270.217,3570.03
271.241,3579.10
272.263,3598.07
273.287,3608.80
274.311,3680.47
275.332,3693.97
276.356,3729.43
277.379,3714.10
278.402,3734.57
279.424,3726.17
280.447,3741.87
281.470,3654.70
282.492,3628.80
283.513,3593.73
284.536,3596.03
285.558,3539.87
286.581,3496.37
287.601,3440.50
288.623,3445.67
289.645,3325.63
290.665,3363.53
291.687,3278.73
292.709,3188.60
293.730,3138.73
294.750,3137.97
295.771,3097.90
296.792,3053.23
297.813,2974.30
298.832,2984.43
299.853,2956.70
300.874,2860.53
301.895,2849.13
302.913,2850.40
303.934,2785.83
304.954,2791.57
305.975,2787.53
306.993,2721.60
308.013,2747.90
309.033,2682.60
310.052,2642.10
311.072,2653.10
312.090,2606.23
313.109,2620.80
314.129,2578.63
315.148,2536.07
316.165,2588.13
317.184,2622.83
318.203,2537.87
319.222,2554.87
320.238,2515.60
321.257,2518.37
322.275,2567.43
323.294,2502.23
324.312,2495.67
325.328,2506.40
326.346,2510.03
327.364,2467.80
328.382,2513.40
329.397,2492.13
330.415,2484.30
331.432,2507.20
332.450,2451.13
333.467,2448.07
334.482,2413.73
335.499,2422.30
336.516,2452.17
337.533,2468.57
338.547,2439.83
339.564,2434.47
340.580,2437.97
341.597,2410.43
342.613,2407.70
343.627,2410.37
344.643,2410.10
345.659,2384.83
346.675,2405.93
347.690,2388.53
348.704,2398.07
349.719,2377.00
350.735,2422.27
351.750,2463.23
352.765,2408.93
353.778,2454.00
354.793,2371.63
355.808,2420.17
356.822,2428.53
357.837,2389.83
358.851,2422.57
359.864,2448.00
360.878,2451.53
361.892,2442.40
362.906,2431.83
363.920,2432.77
364.932,2432.27
365.945,2482.93
366.959,2487.40
367.972,2471.37
368.986,2493.57
369.999,2498.30
371.010,2476.47
372.023,2485.50
373.036,2486.10
374.049,2518.07
375.061,2513.77
376.072,2512.57
377.084,2593.70
378.097,2548.03
379.109,2570.77
380.121,2553.87
381.133,2558.80
382.143,2534.23
383.155,2637.23
384.166,2586.63
385.178,2598.83
386.189,2611.57
387.201,2617.43
388.212,2621.73
389.221,2623.47
390.232,2564.90
391.243,2615.87
392.254,2609.67
393.264,2597.73
394.275,2554.10
395.283,2568.77
396.294,2560.53
397.304,2585.53
398.314,2580.07
399.324,2516.13
400.334,2507.90
401.344,2501.30
402.351,2464.03
403.361,2469.80
404.370,2468.13
405.380,2421.30
406.389,2456.80
407.398,2448.43
408.407,2431.20
409.414,2489.10
410.423,2380.73
411.431,2395.97
412.440,2373.13
413.448,2359.20
414.457,2399.57
415.465,2342.37
416.471,2332.67
417.479,2291.83
418.487,2331.37
419.495,2294.77
420.503,2292.20
421.510,2310.57
422.518,2281.10
423.525,2282.33
424.530,2299.50
425.537,2295.40
426.544,2286.97
427.551,2293.87
428.558,2268.73
429.565,2254.17
430.571,2325.30
431.578,2275.60
432.582,2287.87
433.588,2239.57
434.595,2287.90
435.601,2250.00
436.607,2269.60
437.612,2235.77
438.618,2240.67
439.624,2245.17
440.627,2222.93
441.633,2254.53
442.638,2234.40
443.643,2226.90
444.648,2254.90
445.653,2264.67
446.658,2252.33
447.663,2294.47
448.667,2176.20
449.672,2264.43
450.674,2222.87
451.678,2272.77
452.682,2254.23
453.687,2236.87
454.690,2216.53
455.694,2245.07
456.698,2243.40
457.702,2270.20
458.705,2229.23
459.709,2281.50
460.710,2226.60
461.713,2269.03
462.716,2290.67
463.719,2296.40
464.722,2275.27
465.725,2229.47
466.727,2212.13
467.730,2258.13
468.732,2245.10
469.735,2290.83
470.737,2275.00
471.737,2295.57
472.739,2286.30
473.741,2294.73
474.742,2265.47
475.744,2287.10
476.746,2272.17
477.747,2282.70
478.748,2300.03
479.750,2283.57
480.751,2292.77
481.752,2283.37
482.753,2281.43
483.751,2270.33
484.752,2304.40
485.753,2257.63
486.753,2280.57
487.753,2217.87
488.754,2246.23
489.754,2255.70
490.754,2248.27
491.754,2303.83
492.754,2245.83
493.753,2255.97
494.753,2252.93
495.752,2230.17
496.752,2242.67
497.749,2210.17
498.748,2236.23
499.747,2184.73
500.746,2175.47
501.745,2191.67
502.744,2220.97
503.742,2198.37
504.741,2179.70
505.739,2170.67
506.737,2233.40
507.735,2204.20
508.734,2210.33
509.732,2168.60
510.729,2185.57
511.727,2214.10
512.725,2138.73
513.720,2162.93
514.718,2190.93
515.715,2128.27
516.712,2160.77
517.709,2163.83
518.706,2167.83
519.703,2143.30
520.700,2117.00
521.696,2124.57
522.693,2154.27
523.689,2135.77
524.686,2103.77
525.682,2109.93
526.678,2161.37
527.674,2160.33
528.670,2162.10
529.666,2107.80
530.661,2140.00
531.657,2158.50
532.652,2086.20
533.648,2163.07
534.641,2118.10
535.636,2086.17
536.631,2139.17
537.626,2183.50
538.621,2159.17
539.616,2103.30
540.610,2130.90
541.605,2119.87
542.599,2140.67
543.593,2144.53
544.587,2121.30
545.581,2138.80
546.575,2124.90
547.569,2177.37
548.563,2139.90
549.557,2139.67
550.550,2095.50
551.543,2151.33
552.537,2105.13
553.530,2126.40
554.523,2139.53
555.516,2103.93
556.509,2101.57
557.502,2118.53
558.494,2082.73
559.487,2069.33
560.479,2063.50
561.472,2040.10
562.464,2071.63
563.456,2134.20
564.448,2129.00
565.440,2048.73
566.432,2091.53
567.423,2094.93
568.415,2103.20
569.404,2120.03
570.396,2126.13
571.387,2099.90
572.378,2109.27
573.369,2115.90
574.360,2111.77
575.351,2156.17
576.341,2087.97
577.332,2071.17
578.323,2133.10
579.313,2144.30
580.303,2128.03
581.293,2089.27
582.283,2094.90
583.273,2149.50
584.263,2074.33
585.253,2147.00
586.243,2062.33
587.232,2106.90
588.222,2110.07
589.211,2071.87
590.200,2048.70
591.189,2066.73
592.178,2055.73
593.167,2046.77
594.156,2036.97
595.145,2060.87
596.133,2065.53
597.122,2016.30
598.110,2009.97
599.098,2025.57
600.086,2038.20
601.074,1996.13
602.062,1968.47
603.050,2017.10
604.038,2023.50
605.025,1989.03
606.013,1998.30
607.000,2009.33
607.987,1953.33
608.975,1931.03
609.962,2006.53
610.949,1922.20
611.936,1933.67
612.922,1949.47
613.909,1906.53
614.895,1756.63
615.882,1922.00
616.868,1925.40
617.854,1882.80
618.841,1897.70
619.826,1862.47
620.812,1828.00
621.798,1843.40
622.784,1860.97
623.769,1835.37
624.755,1852.53
625.740,1782.50
626.725,1817.23
627.711,1820.70
628.698,1807.07
629.683,1794.47
630.667,1772.53
631.652,1781.80
632.637,1747.73
633.621,1766.50
634.606,1687.53
635.590,1766.00
636.574,1738.57
637.558,1746.93
638.542,1700.87
639.526,1744.60
640.510,1709.00
641.493,1722.67
642.477,1745.73
643.460,1678.43
644.444,1655.47
645.427,1678.53
646.410,1625.70
647.393,1635.63
648.376,1623.90
649.359,1601.90
650.341,1652.20
651.324,1650.40
652.307,1635.47
653.289,1611.67
654.271,1599.20
655.253,1590.60
656.235,1582.93
657.217,1616.53
658.199,1607.77
659.181,1594.67
660.163,1549.47
661.144,1540.20
662.126,1558.73
663.107,1527.33
664.088,1628.93
665.069,1531.00
666.050,1576.93
667.033,1548.53
668.014,1485.10
668.995,1550.80
669.975,1546.87
670.956,1523.47
671.936,1517.37
672.916,1524.77
673.896,1529.17
674.876,1515.43
675.856,1490.23
676.836,1460.30
677.816,1467.37
678.795,1492.90
679.775,1484.43
680.754,1437.63
681.734,1438.17
682.713,1424.60
683.692,1436.77
684.671,1436.97
685.650,1415.53
686.629,1447.97
687.607,1367.63
688.586,1425.20
689.564,1413.43
690.543,1386.17
691.523,1384.07
692.501,1398.27
693.479,1398.50
694.457,1367.47
695.435,1355.67
696.413,1345.47
697.390,1340.30
698.368,1309.57
699.345,1316.43
700.322,1346.60
701.300,1340.07
702.277,1322.93
703.254,1331.03
704.231,1313.77
705.207,1366.23
706.184,1335.80
707.161,1299.97
708.137,1328.47
709.113,1311.77
710.090,1293.37
711.068,1302.23
712.044,1284.80
713.020,1263.37
713.996,1297.80
714.971,1258.83
715.947,1281.77
716.922,1283.80
717.898,1245.40
718.873,1239.70
719.848,1258.80
720.823,1267.87
721.798,1271.33
722.773,1192.90
723.748,1226.30
724.723,1216.80
725.697,1211.17
726.672,1211.50
727.646,1219.23
728.622,1232.47
729.596,1197.20
730.570,1225.17
731.544,1219.70
732.518,1243.07
733.492,1185.53
734.466,1171.87
735.439,1181.90
736.413,1241.00
737.386,1142.50
738.359,1155.43
739.332,1200.43
740.305,1167.73
741.278,1174.83
742.251,1184.77
743.224,1184.17
744.196,1187.90
745.171,1187.70
746.143,1157.10
747.115,1131.87
748.087,1158.80
749.059,1128.37
750.031,1131.50
751.003,1111.43
751.975,1134.60
752.947,1142.50
753.918,1118.43
754.890,1126.77
755.861,1161.07
756.832,1140.77
757.803,1150.03
758.774,1066.00
759.747,1106.67
760.718,1060.30
761.689,1091.90
762.659,1121.10
763.630,1115.67
764.600,1062.37
765.570,1111.40
766.540,1075.43
767.510,1066.07
768.480,1071.90
769.450,1125.67
770.420,1060.10
771.390,1093.30
772.359,1086.13
773.329,1074.20
774.300,1052.27
775.269,1060.10
776.238,1074.00
777.207,1119.90
778.176,1095.87
779.145,1044.23
780.114,1043.23
781.083,1069.23
782.051,1028.07
783.019,1027.03
783.988,1072.50
784.956,1027.50
785.924,993.53
786.894,1013.00
787.862,1009.50
788.830,1063.97
789.797,1007.73
790.765,993.67
791.732,1031.77
792.700,1042.57
793.667,1047.00
794.634,1043.13
795.601,996.40
796.568,987.40
797.535,980.87
798.502,1026.47
799.468,1036.97
800.437,986.00
801.403,989.77
802.370,984.97
803.336,1016.97
804.302,994.00
805.268,995.20
806.234,953.57
807.200,989.30
808.166,1023.63
809.131,992.27
810.097,993.30
811.062,979.50
812.027,989.50
812.994,990.20
813.960,959.43
814.925,953.23
815.889,1009.23
816.854,975.07
817.819,949.43
818.783,957.70
819.748,989.87
820.712,957.43
821.677,926.43
822.641,1003.07
823.605,1011.13
824.571,993.63
825.534,995.70
826.498,974.17
827.462,1022.27
828.425,974.57
829.389,1000.30
830.352,1017.30
831.315,1023.67
832.279,1008.13
833.242,989.63
834.204,996.90
835.167,1016.43
836.132,1028.80
837.095,1023.50
838.057,1008.80
839.020,1052.10
839.982,1028.87
840.944,1014.67
841.906,1047.40
842.868,1040.17
843.830,1010.00
844.792,1028.57
845.753,999.60
846.715,1001.20
847.679,1017.43
848.640,1029.77
849.601,1043.30
850.562,1059.73
851.523,1052.97
852.484,1055.73
853.445,1019.30
854.406,1055.13
855.367,1066.80
856.327,1078.77
857.288,1031.83
858.248,1051.10
859.210,1021.27
860.170,1075.70
861.130,1059.20
862.090,1060.47
863.050,1085.60
864.010,1087.40
864.969,1091.73
865.929,1061.67
866.888,1077.10
867.848,1085.67
868.807,1127.30
869.766,1103.43
870.727,1087.80
871.686,1103.07
872.645,1100.53
873.604,1113.97
874.562,1105.73
875.521,1093.50
876.479,1101.97
877.437,1101.77
878.396,1060.10
879.354,1111.83
880.312,1095.47
881.270,1108.93
882.229,1103.93
883.187,1134.20
884.145,1136.57
885.102,1120.53
886.059,1101.00
887.017,1106.97
887.974,1102.13
888.931,1116.67
889.888,1098.03
890.845,1096.77
891.802,1156.73
892.758,1140.93
893.717,1136.13
894.673,1146.20
895.630,1124.67
896.586,1117.07
897.542,1135.90
898.498,1116.07
899.454,1110.37
900.410,1131.73
901.366,1149.37
902.321,1170.33
903.277,1149.17
904.232,1144.17
905.189,1151.40
906.145,1151.10
907.100,1114.83
908.055,1148.70
909.010,1154.90
909.965,1160.90
910.919,1161.13
911.874,1106.37
912.828,1130.03
913.783,1153.30
914.737,1148.60
915.693,1158.37
916.648,1159.70
917.602,1110.80
918.555,1090.10
919.509,1221.30
920.463,1105.07
921.417,1113.13
922.370,1103.23
923.324,1131.03
924.277,1098.20
925.230,1137.33
926.183,1094.97
927.138,1120.77
928.091,1086.97
929.044,1136.23
929.996,1133.93
930.949,1128.00
931.902,1098.60
932.854,1097.30
933.806,1091.30
934.758,1113.13
935.711,1138.73
936.663,1062.13
937.614,1104.77
938.568,1119.00
939.520,1094.43
940.471,1112.20
941.423,1078.33
942.374,1097.93
943.326,1084.97
944.277,1077.73
945.228,1069.33
946.179,1139.40
947.130,1076.57
948.080,1078.93
949.031,1074.67
949.984,1080.67
950.934,1070.43
951.884,1094.57
952.835,1048.10
953.785,1077.30
954.735,1075.90
955.685,1060.43
956.635,1046.80
957.585,1080.20
958.534,1032.17
959.484,1035.67
960.433,1095.33
961.383,1044.53
962.334,1051.00
963.283,1038.03
964.232,1078.07
965.181,1073.60
966.130,1024.90
967.079,1046.83
968.027,1063.73
968.976,1028.97
969.924,1011.30
970.873,1016.17
971.821,1051.90
972.769,1005.30
973.719,1041.83
974.667,1038.73
975.615,1039.40
976.562,994.73
977.510,1020.63
978.458,1008.97
979.405,1024.37
980.352,1022.37
981.300,1013.30
982.247,1031.60
983.194,1041.03
984.141,1011.17
985.088,1003.47
986.036,1000.90
986.983,964.93
987.930,1010.53
988.876,1025.70
989.822,1007.70
990.769,978.63
991.715,995.23
992.661,1000.67
993.607,1004.00
994.553,969.73
995.498,998.70
996.444,971.83
997.389,1019.90
998.337,988.50
999.282,983.90
1000.227,1022.83
1001.173,986.67
1002.118,962.80
1003.062,957.47
1004.007,944.63
1004.952,996.97
1005.897,944.60
1006.841,989.47
1007.786,989.80
1008.730,994.27
1009.674,994.03
1010.618,1019.80
1011.564,945.53
1012.508,967.53
1013.452,993.23
1014.396,988.50
1015.339,966.50
1016.283,975.97
1017.226,963.83
1018.170,945.03
1019.113,956.60
1020.056,955.40
1020.999,960.27
1021.942,975.77
1022.885,957.90
1023.828,948.57
1024.770,996.30
1025.715,964.03
1026.657,959.43
1027.600,949.00
1028.542,968.60
1029.484,961.57
1030.426,965.93
1031.368,983.33
1032.310,931.03
1033.251,980.10
1034.193,943.60
1035.135,969.43
1036.076,963.97
1037.017,951.30
1037.959,917.93
1038.900,935.07
1039.843,949.73
1040.784,1000.10
1041.725,984.77
1042.665,955.53
1043.606,940.70
1044.547,935.37
1045.487,941.17
1046.427,929.27
1047.368,980.73
1048.308,967.87
1049.248,920.23
1050.188,934.23
1051.128,937.67
1052.067,957.77
1053.007,994.07
1053.947,968.47
1054.886,988.03
1055.827,959.03
1056.766,947.43
1057.706,944.30
1058.645,952.27
1059.584,944.73
1060.522,957.47
1061.461,959.60
1062.400,957.80
1063.338,949.33
1064.277,954.83
1065.215,935.10
1066.154,978.73
1067.092,954.40
1068.030,923.80
1068.968,949.77
1069.906,944.60
1070.843,964.53
1071.781,947.50
1072.720,974.17
1073.658,965.37
1074.595,951.77
1075.533,952.67
1076.470,942.70
1077.407,944.10
1078.344,953.03
1079.281,974.40
1080.217,954.00
1081.154,927.53
1082.091,935.93
1083.027,972.60
1083.964,989.67
1084.900,935.53
1085.836,938.67
1086.772,931.53
1087.708,936.17
1088.644,937.70
1089.580,871.27
1090.515,939.70
1091.451,908.90
1092.388,943.63
1093.324,911.57
1094.259,926.50
1095.194,934.33
1096.129,915.33
1097.064,907.53
1097.999,900.63
1098.934,879.60
1099.869,895.97
1100.803,905.40
1101.738,890.50
1102.672,865.97
1103.607,900.87
1104.541,878.70
1105.475,839.90
1106.409,914.87
1107.343,835.90
1108.277,889.50
1109.210,882.33
1110.144,860.83
1111.078,864.73
1112.011,872.37
1112.944,849.23
1113.878,827.03
1114.811,851.80
1115.744,904.13
1116.678,825.07
1117.611,816.63
1118.544,842.87
1119.477,805.73
1120.409,822.23
1121.342,846.90
1122.274,820.53
1123.206,850.40
1124.138,819.70
1125.070,825.30
1126.002,773.03
1126.934,818.57
1127.866,794.00
1128.798,769.07
1129.729,800.37
1130.661,787.17
1131.592,760.70
1132.523,768.43
1133.454,822.80
1134.385,756.23
1135.317,748.00
1136.247,754.30
1137.178,769.93
1138.109,774.87
1139.039,776.63
1139.970,732.20
1140.900,754.90
1141.831,747.23
1142.761,755.20
1143.691,702.00
1144.621,772.87
1145.551,723.40
1146.480,746.07
1147.410,787.50
1148.340,750.43
1149.269,743.97
1150.199,741.60
1151.128,720.30
1152.057,703.97
1152.979,734.37
1153.898,750.47
1154.819,729.07
1155.739,792.67
1156.658,759.33
1157.579,733.23
1158.498,723.07
1159.419,727.17
1160.338,717.97
1161.256,713.00
1162.177,696.27
1163.095,712.10
1164.016,723.03
1164.934,688.90
1165.852,736.90
1166.772,716.97
1167.690,649.70
1168.610,706.23
1169.528,742.57
1170.446,740.40
1171.365,712.20
1172.283,695.07
1173.202,697.40
1174.120,711.77
1175.037,688.63
1175.956,683.77
1176.873,724.97
1177.792,694.03
1178.709,702.57
1179.626,692.70
1180.544,717.67
1181.461,725.63
1182.379,712.80
1183.296,710.50
1184.212,672.97
1185.130,688.47
1186.046,699.53
1186.962,698.53
1187.880,690.90
1188.796,733.57
1189.714,758.37
1190.629,713.40
1191.545,735.67
1192.462,692.40
1193.378,741.20
1194.295,738.40
1195.210,719.20
1196.125,741.60
1197.042,728.37
1197.957,720.97
1198.872,699.57
1199.788,692.67
1200.703,716.27
1201.619,714.13
1202.534,690.10
1203.448,674.27
1204.364,731.10
1205.278,700.63
1206.192,699.57
1207.108,705.73
1208.022,683.50
1208.938,704.43
1209.851,699.60
1210.765,655.33
1211.680,733.00
1212.594,701.37
1213.507,711.73
1214.422,697.80
1215.335,678.83
1216.248,720.40
1217.163,718.00
1218.076,712.30
1218.990,713.00
1219.903,709.57
1220.816,708.13
1221.730,754.77
1222.642,720.57
1223.554,711.13
1224.469,714.17
1225.380,742.87
1226.292,728.40
1227.206,712.93
1228.118,731.70
1229.032,738.97
1229.943,728.87
1230.855,715.60
1231.768,733.40
1232.679,691.93
1233.590,717.33
1234.503,762.13
1235.414,728.17
1236.325,759.93
1237.238,764.53
1238.149,718.27
1239.059,718.53
1239.972,771.40
1240.882,765.17
1241.793,740.40
1242.705,742.90
1243.615,718.50
1244.525,789.90
1245.437,734.73
1246.347,737.83
1247.259,723.40
1248.168,805.40
1249.078,713.83
1249.989,740.00
1250.899,724.70
1251.808,745.40
1252.719,781.33
1253.628,770.63
1254.537,740.07
1255.448,751.33
1256.357,776.70
1257.266,799.60
1258.176,736.97
1259.085,758.90
1259.993,777.67
1260.904,776.43
1261.812,745.17
1262.720,690.67
1263.630,733.87
1264.538,756.77
1265.446,760.10
1266.356,808.10
1267.263,760.07
1268.171,777.43
1269.080,768.00
1269.988,782.40
1270.895,749.17
1271.804,741.77
1272.711,774.80
1273.619,755.80
1274.527,779.03
1275.434,714.53
1276.341,758.30
1277.248,730.37
1278.156,756.20
1279.063,736.13
1279.969,775.77
1280.877,725.43
1281.783,773.43
1282.690,737.77
1283.598,726.53
1284.503,752.47
1285.409,773.83
1286.317,774.40
1287.223,741.17
1288.128,762.73
1289.036,758.97
1289.941,729.57
1290.846,773.23
1291.751,730.23
1292.658,749.50
1293.563,760.93
1294.468,717.60
1295.375,777.83
1296.280,739.60
1297.184,747.30
1298.091,722.83
1298.995,756.50
1299.900,748.80
1300.806,728.23
1301.710,722.23
1302.614,735.70
1303.518,751.67
1304.424,743.33
1305.327,714.87
1306.231,748.27
1307.137,727.60
1308.040,717.23
1308.943,721.07
1309.847,743.97
1310.752,698.43
1311.655,722.57
1312.558,690.00
1313.463,692.27
1314.366,714.67
1315.269,701.57
1316.171,715.27
1317.076,684.07
1317.978,725.33
1318.881,712.67
1319.785,685.17
1320.687,711.97
1321.589,691.23
1322.491,683.30
1323.395,673.93
1324.297,656.20
1325.198,667.07
1326.102,648.93
1327.004,659.20
1327.905,719.20
1328.806,659.13
1329.709,661.53
1330.611,633.17
1331.512,697.73
1332.413,637.37
1333.316,658.47
1334.216,650.90
1335.117,682.70
1336.020,625.73
1336.920,669.03
1337.821,647.93
1338.721,636.07
1339.623,606.70
1340.523,656.40
1341.423,602.00
1342.323,610.80
1343.225,668.63
1344.125,639.23
1345.025,634.70
1345.924,644.30
1346.826,623.83
1347.725,627.83
1348.624,611.57
1349.524,596.77
1350.425,638.43
1351.324,611.30
1352.223,580.17
1353.121,607.73
1354.022,618.37
1354.921,572.13
1355.819,605.93
1356.718,588.87
1357.618,576.17
1358.516,614.80
1359.415,606.77
1360.313,634.77
1361.213,549.33
1362.111,604.40
1363.008,593.23
1363.906,575.20
1364.806,573.80
1365.703,575.47
1366.601,530.03
1367.498,579.97
1368.397,561.17
1369.295,582.00
1370.192,569.00
1371.089,609.27
1371.987,556.03
1372.884,557.03
1373.781,576.77
1374.678,590.07
1375.574,570.03
1376.473,604.73
1377.369,534.73
1378.265,583.97
1379.161,569.00
1380.059,569.70
1380.955,548.23
1381.851,523.57
1382.747,572.07
1383.643,550.23
1384.540,552.10
1385.436,552.90
1386.331,533.17
1387.227,504.83
1388.124,516.63
1389.019,557.93
1389.914,542.87
1390.809,511.40
1391.704,541.33
1392.601,536.40
1393.495,548.80
1394.390,512.37
1395.285,544.77
1396.179,522.30
1397.075,526.30
1397.969,520.00
1398.864,523.57
1399.758,502.57
1400.652,535.77
1401.547,512.57
1402.441,519.47
1403.335,522.00
1404.229,476.80
1405.122,531.67
1406.017,492.50
1406.911,513.10
1407.804,570.30
1408.697,484.47
1409.590,501.13
1410.485,519.60
1411.378,526.33
1412.271,499.07
1413.163,547.73
1414.056,518.07
1414.949,528.67
1415.843,462.47
1416.735,478.57
1417.627,489.17
1418.520,433.37
1419.412,550.47
1420.306,489.77
1421.197,498.67
1422.089,510.43
1422.981,495.33
1423.873,473.37
1424.764,485.77
1425.657,506.13
1426.549,463.63
1427.440,485.17
1428.331,487.23
1429.222,494.07
1430.113,464.47
1431.006,441.50
1431.897,477.87
1432.787,469.67
1433.678,463.30
1434.568,495.53
1435.459,497.67
1436.351,480.23
1437.241,483.67
1438.131,471.47
1439.021,461.33
1439.911,459.30
1440.801,444.23
1441.693,452.80
1442.583,498.33
1443.472,491.03
1444.362,418.70
1445.251,462.07
1446.140,449.80
1447.030,446.53
1447.921,492.53
1448.810,450.30
1449.699,460.97
1450.588,487.03
1451.476,463.90
1452.365,432.50
1453.254,471.33
1454.144,450.03
1455.032,455.63
1455.921,447.63
1456.809,441.50
1457.697,487.63
1458.585,447.07
1459.473,436.57
1460.361,422.63
1461.251,433.20
1462.138,441.60
1463.026,442.33
1463.913,448.53
1464.801,415.87
1465.688,455.83
1466.575,459.37
1467.463,446.27
1468.351,464.43
1469.238,413.50
1470.125,381.80
1471.012,464.60
1471.899,435.33
1472.785,439.17
1473.672,419.37
1474.558,464.03
1475.446,417.10
1476.333,443.93
1477.219,438.67
1478.105,458.93
1478.991,424.90
1479.877,407.97
1480.762,449.67
1481.648,450.93
1482.534,404.73
1483.419,478.67
1484.307,398.00
1485.192,431.13
1486.077,470.53
1486.962,393.20
1487.847,415.50
1488.732,443.03
1489.617,431.60
1490.502,449.80
1491.387,407.33
1492.271,434.20
1493.156,429.67
1494.042,405.07
1494.927,412.37
1495.811,429.30
1496.695,432.37
1497.579,411.80
1498.463,435.03
1499.347,427.17
1500.231,402.87
1501.114,400.80
1501.998,418.87
1502.881,425.07
1503.765,408.40
1504.648,425.27
1505.533,418.07
1506.417,389.67
1507.300,399.40
1508.183,377.53
1509.066,391.87
1509.948,388.23
1510.831,419.70
1511.714,396.47
1512.596,409.77
1513.479,383.63
1514.361,400.80
1515.243,410.30
1516.125,395.70
1517.008,408.77
1517.890,372.13
1518.771,403.53
1519.655,397.90
1520.537,384.90
1521.419,411.23
1522.300,394.03
1523.182,419.57
1524.063,391.37
1524.944,398.03
1525.825,390.63
1526.707,400.10
1527.588,388.43
1528.468,407.70
1529.349,431.37
1530.230,370.03
1531.111,398.23
1531.991,346.73
1532.872,403.07
1533.752,395.57
1534.632,422.77
1535.513,389.30
1536.393,386.37
1537.273,410.27
1538.153,359.67
1539.032,389.47
1539.912,409.53
1540.792,393.07
1541.672,394.83
1542.551,380.90
1543.430,370.17
1544.310,401.07
1545.189,365.87
1546.068,360.93
1546.947,396.83
1547.826,379.77
1548.705,389.63
1549.584,358.73
1550.462,375.07
1551.341,362.47
1552.219,377.30
1553.098,391.57
1553.976,386.20
1554.854,388.50
1555.733,403.47
1556.611,378.17
1557.489,386.73
1558.367,365.37
1559.244,369.90
1560.122,362.93
1561.000,371.23
1561.877,378.90
1562.755,404.73
1563.632,366.53
1564.509,403.40
1565.386,362.10
1566.264,387.00
1567.141,375.13
1568.017,348.30
1568.894,347.97
1569.771,369.77
1570.648,368.67
1571.524,340.97
1572.401,373.63
1573.277,350.93
1574.153,385.07
1575.029,390.87
1575.906,313.80
1576.781,352.17
1577.657,378.13
1578.533,396.03
1579.409,360.10
1580.285,338.57
1581.160,337.27
1582.036,402.10
1582.911,390.80
1583.786,345.57
1584.662,365.70
1585.537,357.93
1586.412,347.57
1587.287,386.40
1588.160,352.73
1589.035,374.83
1589.909,393.77
1590.784,334.90
1591.658,372.60
1592.533,345.17
1593.407,327.33
1594.281,375.43
1595.155,393.90
1596.029,335.87
1596.903,373.43
1597.777,347.70
1598.651,347.97
1599.525,333.37
1600.398,351.87
1601.272,367.33
1602.144,345.40
1603.017,359.13
1603.890,338.77
1604.763,376.13
1605.636,375.57
1606.509,349.67
1607.382,360.93
1608.255,343.60
1609.128,326.27
1610.000,351.60
1610.873,395.57
1611.746,357.17
1612.616,347.70
1613.488,341.97
1614.361,348.27
1615.233,342.97
1616.105,382.93
1616.977,335.03
1617.849,336.57
1618.720,336.63
1619.592,360.07
1620.464,390.73
1621.333,336.27
1622.205,347.60
1623.076,355.60
1623.947,353.87
1624.818,340.00
1625.689,356.30
1626.560,367.20
1627.431,352.10
1628.302,357.50
1629.171,371.93
1630.042,305.83
1630.912,371.90
1631.782,345.40
1632.653,391.07
1633.523,338.80
1634.393,361.23
1635.263,419.63
1636.131,392.13
1637.001,352.20
1637.871,338.23
1638.741,353.70
1639.611,375.03
1640.480,355.27
1641.350,328.57
1642.219,361.97
1643.087,369.20
1643.956,352.57
1644.825,336.10
1645.694,353.80
1646.563,304.77
1647.432,353.07
1648.299,300.13
1649.167,325.00
1650.036,335.37
1650.904,357.27
1651.773,345.03
1652.641,359.27
1653.509,353.73
1654.376,358.10
1655.244,362.27
1656.112,338.43
1656.980,361.00
1657.847,303.40
1658.715,372.70
1659.581,328.70
1660.448,350.50
1661.316,343.20
1662.183,370.90
1663.051,310.47
1663.918,309.37
1664.783,368.10
1665.650,350.97
1666.517,337.80
1667.384,332.23
1668.251,332.53
1669.115,322.53
1669.982,310.10
1670.849,327.87
1671.715,337.50
1672.581,362.30
1673.446,320.23
1674.312,320.23
1675.178,337.83
1676.044,324.20
1676.910,331.23
1677.774,347.87
1678.639,363.87
1679.505,319.70
1680.370,311.37
1681.236,360.37
1682.099,358.33
1682.965,349.77
1683.830,334.33
1684.695,357.33
1685.560,328.87
1686.423,367.30
1687.288,331.97
1688.153,324.07
1689.017,334.20
1689.880,348.30
1690.745,318.13
1691.609,317.43
1692.473,290.83
1693.338,339.63
1694.200,364.53
1695.064,339.80
1695.928,338.87
1696.792,314.17
1697.654,311.27
1698.517,300.30
1699.381,311.37
1700.245,346.13
1701.106,288.93
1701.969,323.60
1702.833,301.70
1703.696,351.47
1704.557,329.97
1705.420,309.37
1706.283,322.60
1707.146,324.10
1708.007,304.80
1708.870,341.97
1709.732,339.50
1710.595,333.60
1711.455,346.33
1712.318,356.17
1713.180,315.83
1714.040,306.63
1714.902,302.80
1715.764,387.77
1716.626,338.17
1717.486,280.87
1718.348,275.40
1719.209,267.43
1720.071,301.63
1720.930,348.50
1721.792,314.17
1722.653,322.57
1723.512,346.77
1724.374,324.60
1725.234,286.37
1726.095,284.07
1726.954,323.90
1727.815,380.10
1728.676,296.97
1729.535,349.43
1730.395,318.93
1731.256,345.13
1732.114,313.70
1732.974,315.40
1733.834,311.37
1734.693,315.00
1735.553,313.70
1736.413,313.90
1737.272,315.77
1738.130,327.27
1738.990,324.43
1739.849,327.37
1740.707,326.63
1741.566,294.60
1742.426,311.07
1743.283,307.80
1744.142,354.23
1745.001,293.97
1745.858,313.73
1746.717,336.73
1747.576,342.17
1748.433,302.50
1749.292,286.23
1750.150,341.60
1751.007,335.07
1751.865,335.50
1752.723,288.60
1753.579,311.70
1754.438,345.57
1755.296,333.50
1756.152,292.97
1757.010,307.40
1757.865,305.40
1758.723,314.60
1759.581,335.87
1760.436,319.97
1761.294,324.90
1762.151,304.63
1763.006,299.10
1763.864,304.83
1764.721,314.17
1765.576,303.73
1766.433,304.40
1767.288,299.83
1768.144,339.47
1769.001,282.10
1769.856,310.00
1770.712,328.23
1771.568,339.57
1772.423,285.67
1773.279,302.20
1774.133,283.70
1774.989,305.43
1775.845,326.63
1776.699,283.33
1777.555,292.47
1778.409,310.30
1779.265,297.07
1780.120,277.00
1780.974,300.43
1781.829,326.77
1782.682,320.17
1783.538,307.20
1784.393,339.80
1785.246,280.00
1786.101,336.97
1786.954,316.53
1787.808,320.47
1788.661,313.13
1789.516,285.47
1790.370,318.17
1791.223,342.47
1792.077,307.10
1792.930,303.20
1793.784,343.53
1794.636,294.17
1795.490,295.77
1796.344,259.23
1797.196,279.13
1798.049,302.37
1798.901,271.30
1799.755,301.57
1800.606,271.30
1801.460,261.90
1802.311,281.27
1803.165,303.27
1804.018,298.20
1804.869,296.47
1805.722,295.40
1806.573,322.73
1807.426,289.63
1808.276,282.93
1809.129,265.73
1809.980,317.43
1810.832,267.07
1811.683,231.90
1812.535,275.37
1813.385,269.17
1814.237,273.57
1815.089,330.97
1815.940,282.07
1816.791,330.73
1817.641,305.07
1818.493,256.87
1819.343,276.03
1820.194,263.83
1821.044,342.90
1821.895,268.33
1822.745,297.87
1823.596,300.70
1824.445,281.73
1825.296,298.40
1826.145,274.97
1826.996,285.53
1827.845,283.53
1828.695,294.33
1829.544,287.47
1830.395,302.87
1831.243,256.90
1832.094,274.60
1832.942,314.63
1833.792,256.67
1834.640,257.57
1835.490,274.67
1836.338,329.30
1837.186,309.37
1838.036,265.27
1838.884,278.83
1839.733,309.30
1840.581,284.50
1841.430,297.40
1842.278,281.93
1843.127,261.10
1843.974,281.87
1844.823,282.03
1845.671,326.97
1846.519,255.07
1847.366,319.73
1848.213,266.63
1849.062,291.53
1849.909,280.93
1850.757,289.43
1851.604,287.33
1852.452,288.43
1853.298,337.43
1854.146,304.50
1854.993,296.30
1855.839,259.47
1856.687,310.63
1857.532,258.27
1858.380,297.37
1859.226,297.90
1860.073,302.43
1860.919,268.40
1861.765,290.40
1862.612,296.03
1863.457,297.27
1864.304,256.83
1865.150,265.10
1865.995,319.03
1866.842,267.00
1867.686,293.50
1868.533,274.17
1869.378,253.83
1870.223,274.77
1871.069,285.43
1871.914,296.07
1872.760,245.50
1873.604,320.60
1874.448,269.97
1875.294,311.40
1876.139,259.23
1876.984,280.97
1877.828,295.63
1878.672,265.10
1879.518,259.87
1880.361,267.60
1881.205,300.00
1882.050,289.40
1882.894,267.33
1883.739,293.50
1884.582,269.40
1885.425,285.90
1886.270,294.53
1887.113,293.03
1887.956,299.10
1888.801,318.63
1889.644,235.80
1890.486,263.67
1891.331,289.00
1892.173,253.90
1893.017,290.27
1893.860,259.97
1894.702,277.83
1895.546,290.23
1896.388,251.30
1897.230,267.07
1898.074,276.60
1898.916,292.27
1899.757,277.50
1900.601,227.60
1901.443,270.00
1902.284,282.97
1903.125,229.67
1903.969,277.60
1904.810,281.33
1905.651,246.40
1906.494,272.43
1907.335,271.87
1908.176,274.50
1909.018,301.27
1909.859,254.03
1910.700,284.63
1911.542,303.80
1912.383,244.83
1913.223,256.73
1914.064,273.27
1914.906,268.53
1915.746,309.97
1916.586,272.23
1917.428,253.90
1918.268,273.10
1919.107,284.57
1919.947,260.63
1920.789,285.80
1921.628,281.17
1922.468,291.63
1923.309,247.03
1924.148,269.37
1924.988,262.23
1925.827,271.43
1926.667,290.10
1927.507,268.47
1928.345,271.43
1929.184,259.27
1930.025,281.40
1930.864,281.33
1931.702,288.03
1932.541,253.73
1933.381,263.17
1934.219,284.37
1935.057,289.00
1935.896,273.83
1936.735,317.00
1937.573,247.90
1938.411,253.73
1939.249,266.17
1940.089,280.60
1940.927,271.97
1941.764,244.03
1942.602,245.50
1943.439,247.07
1944.278,258.47
1945.115,235.13
1945.953,270.37
1946.790,261.77
1947.628,278.97
1948.465,278.97
1949.302,245.33
1950.139,274.03
1950.976,228.97
1951.814,286.07
1952.651,284.73
1953.487,260.50
1954.323,303.83
1955.160,286.83
1955.998,228.23
1956.834,252.00
1957.670,237.83
1958.506,269.33
1959.342,275.73
1960.177,270.20
1961.015,273.93
1961.850,232.70
1962.686,307.37
1963.521,302.30
1964.357,260.30
1965.192,268.70
1966.029,243.83
1966.864,282.67
1967.699,298.33
1968.534,279.87
1969.369,255.97
1970.204,255.67
1971.040,268.77
1971.875,263.93
1972.709,268.33
1973.544,272.83
1974.378,241.77
1975.212,273.43
1976.047,227.07
1976.882,246.33
1977.716,253.10
1978.550,238.03
1979.384,252.20
1980.218,283.03
1981.052,255.70
1981.885,223.47
1982.719,272.40
1983.554,241.00
1984.388,261.30
1985.221,234.70
1986.054,241.70
1986.887,248.13
1987.720,278.90
1988.553,294.03
1989.386,247.53
1990.219,247.47
1991.053,234.63
1991.886,211.30
1992.719,276.93
1993.551,263.70
1994.383,258.07
1995.216,258.50
1996.048,246.60
1996.880,252.20
1997.712,230.57
1998.544,277.57
1999.376,299.10
2000.208,276.30
2001.040,268.67
2001.873,249.47
2002.705,265.37
2003.536,218.80
2004.367,284.40
2005.199,276.33
2006.030,245.63
2006.861,221.63
2007.692,257.27
2008.523,266.93
2009.354,263.33
2010.185,235.87
2011.016,268.93
2011.846,236.43
2012.677,268.63
2013.507,255.87
2014.338,238.33
2015.168,277.17
2015.999,252.03
2016.829,270.13
2017.659,259.63
2018.489,227.53
2019.319,257.57
2020.149,171.93
2020.980,241.90
2021.810,265.23
2022.639,278.27
2023.469,287.53
2024.298,259.10
2025.128,250.80
2025.957,221.00
2026.786,280.87
2027.615,221.57
2028.444,271.73
2029.273,273.80
2030.102,238.43
2030.931,244.20
2031.758,248.47
2032.586,275.07
2033.415,276.50
2034.243,252.80
2035.072,255.53
2035.900,263.47
2036.728,301.43
2037.556,283.40
2038.385,284.30
2039.213,236.90
2040.040,272.97
2040.868,239.90
2041.696,239.07
2042.524,260.33
2043.351,233.63
2044.179,279.80
2045.006,282.37
2045.006,282.37

Max Intensity Wave.,218.899
Max Intensity Data,4040.43
Min Intensity Wave.,2020.149
Min Intensity Data,171.93
FWHM Wave.,399.020
FWHM Value,0.29
Pressure Wave.,686.421
Pressure Value [GPa],-20.34455
G/D Ratio,0.55987
G/D Gband Wave.,1635.419
G/D Gband Intensity,421.01
G/D Dband Wave.,1303.661
G/D Dband Intensity,751.97

<< BACKGROUND SPECTRUM >>
Wave[dcm-1],No608
146.591,2362.00
147.626,2204.00
148.664,2145.00
149.699,2687.00
150.737,2405.00
151.772,2569.00
152.809,2525.00
153.846,2450.00
154.881,2526.00
155.918,2075.00
156.953,2423.00
157.989,2754.00
159.026,2641.00
160.060,2809.00
161.096,3030.00
162.130,2642.00
163.167,2729.00
164.200,2603.00
165.236,2803.00
166.272,2864.00
167.305,2401.00
168.341,2658.00
169.374,2907.00
170.409,2987.00
171.445,2905.00
172.477,2686.00
173.512,2536.00
174.545,2851.00
175.580,3014.00
176.614,3294.00
177.647,2989.00
178.681,3228.00
179.713,3535.00
180.747,3000.00
181.781,2868.00
182.813,3231.00
183.847,3301.00
184.878,2898.00
185.912,3153.00
186.945,3332.00
187.976,3231.00
189.010,2883.00
190.043,3076.00
191.073,3095.00
192.106,2856.00
193.137,3394.00
194.170,2710.00
195.202,3044.00
196.232,2850.00
197.265,3176.00
198.297,3301.00
199.327,2941.00
200.359,3160.00
201.388,3520.00
202.420,3092.00
203.452,3306.00
204.481,2863.00
205.512,3540.00
206.544,3305.00
207.573,3236.00
208.604,3632.00
209.635,3763.00
210.663,3101.00
211.694,3158.00
212.725,3000.00
213.753,2985.00
214.783,3582.00
215.813,3483.00
216.841,3213.00
217.871,3397.00
218.899,3106.00
219.929,3356.00
220.959,3062.00
221.986,3311.00
223.016,2983.00
224.045,3352.00
225.072,3317.00
226.101,3424.00
227.130,3475.00
228.157,2950.00
229.185,2485.00
230.214,3355.00
231.241,2973.00
232.269,2631.00
233.297,2860.00
234.323,3450.00
235.351,2999.00
236.379,3318.00
237.407,2935.00
238.433,3120.00
239.460,3308.00
240.488,3306.00
241.513,3408.00
242.540,3306.00
243.568,3372.00
244.592,3401.00
245.619,3397.00
246.646,3113.00
247.671,3145.00
248.697,2949.00
249.724,3182.00
250.748,3219.00
251.774,3182.00
252.801,3494.00
253.827,3330.00
254.850,3256.00
255.876,2866.00
256.902,3308.00
257.925,3208.00
258.951,2913.00
259.976,2925.00
260.999,3304.00
262.024,2960.00
263.049,3901.00
264.074,3315.00
265.097,3199.00
266.122,3272.00
267.146,3208.00
268.168,3438.00
269.193,3051.00
270.217,3394.00
271.241,2864.00
272.263,3077.00
273.287,3416.00
274.311,2966.00
275.332,3528.00
276.356,3020.00
277.379,3307.00
278.402,3341.00
279.424,3133.00
280.447,3044.00
281.470,2904.00
282.492,3302.00
283.513,3095.00
284.536,3358.00
285.558,3360.00
286.581,3312.00
287.601,3021.00
288.623,2938.00
289.645,3304.00
290.665,3269.00
291.687,3313.00
292.709,3327.00
293.730,3648.00
294.750,3061.00
295.771,2922.00
296.792,3259.00
297.813,3139.00
298.832,3225.00
299.853,2894.00
300.874,3224.00
301.895,3162.00
302.913,3150.00
303.934,3490.00
304.954,3220.00
305.975,3397.00
306.993,2933.00
308.013,3277.00
309.033,3205.00
310.052,3144.00
311.072,3094.00
312.090,3270.00
313.109,3494.00
314.129,3667.00
315.148,3261.00
316.165,3272.00
317.184,3417.00
318.203,2933.00
319.222,2923.00
320.238,3363.00
321.257,3024.00
322.275,2835.00
323.294,3175.00
324.312,3346.00
325.328,3462.00
326.346,3512.00
327.364,3463.00
328.382,3335.00
329.397,3293.00
330.415,3432.00
331.432,3397.00
332.450,3479.00
333.467,3694.00
334.482,2771.00
335.499,3600.00
336.516,3047.00
337.533,2706.00
338.547,3017.00
339.564,3015.00
340.580,3292.00
341.597,3166.00
342.613,3697.00
343.627,3190.00
344.643,3210.00
345.659,3341.00
346.675,3193.00
347.690,3102.00
348.704,3285.00
349.719,3092.00
350.735,2915.00
351.750,3358.00
352.765,3200.00
353.778,3127.00
354.793,3380.00
355.808,2999.00
356.822,3385.00
357.837,2836.00
358.851,3466.00
359.864,3117.00
360.878,2895.00
361.892,3142.00
362.906,3380.00
363.920,2757.00
364.932,3306.00
365.945,3255.00
366.959,3172.00
367.972,3120.00
368.986,2842.00
369.999,3569.00
371.010,3018.00
372.023,3580.00
373.036,3164.00
374.049,3596.00
375.061,3283.00
376.072,3200.00
377.084,3009.00
378.097,2876.00
379.109,3400.00
380.121,3202.00
381.133,2840.00
382.143,3394.00
383.155,2849.00
384.166,3085.00
385.178,3296.00
386.189,3389.00
387.201,2868.00
388.212,3083.00
389.221,3087.00
390.232,3229.00
391.243,3083.00
392.254,3196.00
393.264,3002.00
394.275,3450.00
395.283,3382.00
396.294,3851.00
397.304,3665.00
398.314,3281.00
399.324,3244.00
400.334,2809.00
401.344,3346.00
402.351,2830.00
403.361,3434.00
404.370,3157.00
405.380,3115.00
406.389,3529.00
407.398,3304.00
408.407,3277.00
409.414,3311.00
410.423,3535.00
411.431,2915.00
412.440,2840.00
413.448,3579.00
414.457,3011.00
415.465,2974.00
416.471,3063.00
417.479,3232.00
418.487,2983.00
419.495,3530.00
420.503,3341.00
421.510,2767.00
422.518,3364.00
423.525,3403.00
424.530,3616.00
425.537,3066.00
426.544,3426.00
427.551,3009.00
428.558,3835.00
429.565,3680.00
430.571,3005.00
431.578,3057.00
432.582,3015.00
433.588,3159.00
434.595,2749.00
435.601,3515.00
436.607,3423.00
437.612,2918.00
438.618,3563.00
439.624,3131.00
440.627,3147.00
441.633,3299.00
442.638,3836.00
443.643,3303.00
444.648,3194.00
445.653,3382.00
446.658,3059.00
447.663,3157.00
448.667,3130.00
449.672,3072.00
450.674,3188.00
451.678,2855.00
452.682,3050.00
453.687,3028.00
454.690,3876.00
455.694,3492.00
456.698,2714.00
457.702,2808.00
458.705,2972.00
459.709,2952.00
460.710,3080.00
461.713,3212.00
462.716,3217.00
463.719,3164.00
464.722,3388.00
465.725,3177.00
466.727,3064.00
467.730,3247.00
468.732,2953.00
469.735,3481.00
470.737,3114.00
471.737,3053.00
472.739,3047.00
473.741,2955.00
474.742,3262.00
475.744,3288.00
476.746,3219.00
477.747,3135.00
478.748,3327.00
479.750,3100.00
480.751,3200.00
481.752,3994.00
482.753,3263.00
483.751,3759.00
484.752,2741.00
485.753,3164.00
486.753,3032.00
487.753,3223.00
488.754,3643.00
489.754,2855.00
490.754,3525.00
491.754,3272.00
492.754,2855.00
493.753,3179.00
494.753,3074.00
495.752,3554.00
496.752,3225.00
497.749,3194.00
498.748,3026.00
499.747,3612.00
500.746,3329.00
501.745,2958.00
502.744,2928.00
503.742,3533.00
504.741,3129.00
505.739,2655.00
506.737,3032.00
507.735,3333.00
508.734,3547.00
509.732,3346.00
510.729,3530.00
511.727,3028.00
512.725,3130.00
513.720,2942.00
514.718,3412.00
515.715,2848.00
516.712,2773.00
517.709,3160.00
518.706,3032.00
519.703,3220.00
520.700,3413.00
521.696,3574.00
522.693,3093.00
523.689,3020.00
524.686,3385.00
525.682,2979.00
526.678,3665.00
527.674,3078.00
528.670,2733.00
529.666,3767.00
530.661,3682.00
531.657,3334.00
532.652,3413.00
533.648,3178.00
534.641,3435.00
535.636,3280.00
536.631,3293.00
537.626,3330.00
538.621,2905.00
539.616,2782.00
540.610,2665.00
541.605,3207.00
542.599,3257.00
543.593,3174.00
544.587,4168.00
545.581,2999.00
546.575,3239.00
547.569,3174.00
548.563,2852.00
549.557,2817.00
550.550,2950.00
551.543,2886.00
552.537,3360.00
553.530,2940.00
554.523,2914.00
555.516,3317.00
556.509,3129.00
557.502,2768.00
558.494,3400.00
559.487,3121.00
560.479,3423.00
561.472,3494.00
562.464,3352.00
563.456,3453.00
564.448,3091.00
565.440,3226.00
566.432,3593.00
567.423,3061.00
568.415,3047.00
569.404,3278.00
570.396,2961.00
571.387,3319.00
572.378,3183.00
573.369,4202.00
574.360,3909.00
575.351,3094.00
576.341,3015.00
577.332,3058.00
578.323,2813.00
579.313,3018.00
580.303,3428.00
581.293,3315.00
582.283,3153.00
583.273,3247.00
584.263,3213.00
585.253,3249.00
586.243,3386.00
587.232,2782.00
588.222,3103.00
589.211,3382.00
590.200,3251.00
591.189,3133.00
592.178,3148.00
593.167,3619.00
594.156,3484.00
595.145,3062.00
596.133,3655.00
597.122,3340.00
598.110,3423.00
599.098,3253.00
600.086,3165.00
601.074,3399.00
602.062,3032.00
603.050,2875.00
604.038,3258.00
605.025,2967.00
606.013,3399.00
607.000,3568.00
607.987,3223.00
608.975,3273.00
609.962,2886.00
610.949,3366.00
611.936,3468.00
612.922,3346.00
613.909,2875.00
614.895,3736.00
615.882,3004.00
616.868,3168.00
617.854,2920.00
618.841,3183.00
619.826,3313.00
620.812,3204.00
621.798,2960.00
622.784,3361.00
623.769,3282.00
624.755,2838.00
625.740,3265.00
626.725,2873.00
627.711,3010.00
628.698,3228.00
629.683,2957.00
630.667,3370.00
631.652,2899.00
632.637,3141.00
633.621,3336.00
634.606,3142.00
635.590,3272.00
636.574,3111.00
637.558,3235.00
638.542,3224.00
639.526,2952.00
640.510,2776.00
641.493,3199.00
642.477,3107.00
643.460,2836.00
644.444,3449.00
645.427,3436.00
646.410,2843.00
647.393,3151.00
648.376,3265.00
649.359,3098.00
650.341,3241.00
651.324,3251.00
652.307,3215.00
653.289,3114.00
654.271,3053.00
655.253,3082.00
656.235,3318.00
657.217,3407.00
658.199,2761.00
659.181,2891.00
660.163,3196.00
661.144,3041.00
662.126,3067.00
663.107,2983.00
664.088,4942.00
665.069,3444.00
666.050,2947.00
667.033,2866.00
668.014,3283.00
668.995,2717.00
669.975,3149.00
670.956,3159.00
671.936,3325.00
672.916,3115.00
673.896,3258.00
674.876,3051.00
675.856,3015.00
676.836,2918.00
677.816,2454.00
678.795,2957.00
679.775,2815.00
680.754,3207.00
681.734,3345.00
682.713,3345.00
683.692,2931.00
684.671,2786.00
685.650,2919.00
686.629,2979.00
687.607,2942.00
688.586,2914.00
689.564,2988.00
690.543,3446.00
691.523,2495.00
692.501,2972.00
693.479,3088.00
694.457,2949.00
695.435,3032.00
696.413,2810.00
697.390,2653.00
698.368,2869.00
699.345,3302.00
700.322,3101.00
701.300,3236.00
702.277,3223.00
703.254,3443.00
704.231,2708.00
705.207,3083.00
706.184,2901.00
707.161,2806.00
708.137,2967.00
709.113,2940.00
710.090,2954.00
711.068,2719.00
712.044,2745.00
713.020,3051.00
713.996,2732.00
714.971,2972.00
715.947,2975.00
716.922,2947.00
717.898,2895.00
718.873,3061.00
719.848,2872.00
720.823,2822.00
721.798,3127.00
722.773,2938.00
723.748,2667.00
724.723,3189.00
725.697,3013.00
726.672,2927.00
727.646,2633.00
728.622,3138.00
729.596,2771.00
730.570,2879.00
731.544,3227.00
732.518,3407.00
733.492,2996.00
734.466,3054.00
735.439,3179.00
736.413,3242.00
737.386,2618.00
738.359,2580.00
739.332,2645.00
740.305,3006.00
741.278,3492.00
742.251,3081.00
743.224,2876.00
744.196,2679.00
745.171,3292.00
746.143,3204.00
747.115,2942.00
748.087,2868.00
749.059,3290.00
750.031,3068.00
751.003,3932.00
751.975,3456.00
752.947,2845.00
753.918,3276.00
754.890,2716.00
755.861,2897.00
756.832,3204.00
757.803,2971.00
758.774,3056.00
759.747,2752.00
760.718,3438.00
761.689,2905.00
762.659,2731.00
763.630,3320.00
764.600,2732.00
765.570,3212.00
766.540,3326.00
767.510,3123.00
768.480,3224.00
769.450,2841.00
770.420,2996.00
771.390,2781.00
772.359,2910.00
773.329,2813.00
774.300,2654.00
775.269,2917.00
776.238,3170.00
777.207,3284.00
778.176,2606.00
779.145,2961.00
780.114,2826.00
781.083,2681.00
782.051,2921.00
783.019,2833.00
783.988,3238.00
784.956,3004.00
785.924,3175.00
786.894,3050.00
787.862,2883.00
788.830,3292.00
789.797,2773.00
790.765,2754.00
791.732,2896.00
792.700,2778.00
793.667,2708.00
794.634,2875.00
795.601,2904.00
796.568,2949.00
797.535,3013.00
798.502,3609.00
799.468,3043.00
800.437,2544.00
801.403,2794.00
802.370,3494.00
803.336,3142.00
804.302,3015.00
805.268,2572.00
806.234,2720.00
807.200,2881.00
808.166,2905.00
809.131,2695.00
810.097,3153.00
811.062,3860.00
812.027,3175.00
812.994,2726.00
813.960,2762.00
814.925,3138.00
815.889,2617.00
816.854,3175.00
817.819,2825.00
818.783,2901.00
819.748,3248.00
820.712,2903.00
821.677,2811.00
822.641,2818.00
823.605,2831.00
824.571,3312.00
825.534,2883.00
826.498,2826.00
827.462,2917.00
828.425,2775.00
829.389,3221.00
830.352,2942.00
831.315,3041.00
832.279,2627.00
833.242,2918.00
834.204,2791.00
835.167,2776.00
836.132,3198.00
837.095,2630.00
838.057,2829.00
839.020,2939.00
839.982,2992.00
840.944,2817.00
841.906,2745.00
842.868,3094.00
843.830,2690.00
844.792,3205.00
845.753,2854.00
846.715,2583.00
847.679,2745.00
848.640,2753.00
849.601,2891.00
850.562,3408.00
851.523,2835.00
852.484,2591.00
853.445,3170.00
854.406,2842.00
855.367,2857.00
856.327,3186.00
857.288,2647.00
858.248,2817.00
859.210,2865.00
860.170,2638.00
861.130,3180.00
862.090,2547.00
863.050,2734.00
864.010,2807.00
864.969,3033.00
865.929,2740.00
866.888,2658.00
867.848,2972.00
868.807,2750.00
869.766,2999.00
870.727,2860.00
871.686,3156.00
872.645,3153.00
873.604,3464.00
874.562,2891.00
875.521,2957.00
876.479,3540.00
877.437,2742.00
878.396,2772.00
879.354,3334.00
880.312,2763.00
881.270,2808.00
882.229,3288.00
883.187,2749.00
884.145,2813.00
885.102,3079.00
886.059,2985.00
887.017,3072.00
887.974,3143.00
888.931,3239.00
889.888,2667.00
890.845,2586.00
891.802,2436.00
892.758,2778.00
893.717,2550.00
894.673,2695.00
895.630,2765.00
896.586,3072.00
897.542,2824.00
898.498,2677.00
899.454,3026.00
900.410,2823.00
901.366,2792.00
902.321,2717.00
903.277,2822.00
904.232,2884.00
905.189,2598.00
906.145,2761.00
907.100,2338.00
908.055,2836.00
909.010,3065.00
909.965,2432.00
910.919,2923.00
911.874,2721.00
912.828,2920.00
913.783,2911.00
914.737,2456.00
915.693,2875.00
916.648,3022.00
917.602,3129.00
918.555,2971.00
919.509,2908.00
920.463,2922.00
921.417,2924.00
922.370,2698.00
923.324,2815.00
924.277,2832.00
925.230,2897.00
926.183,2545.00
927.138,2837.00
928.091,3118.00
929.044,2948.00
929.996,2763.00
930.949,2783.00
931.902,2991.00
932.854,3005.00
933.806,2740.00
934.758,3127.00
935.711,3127.00
936.663,3019.00
937.614,2939.00
938.568,2868.00
939.520,2527.00
940.471,2834.00
941.423,2942.00
942.374,3043.00
943.326,2897.00
944.277,2739.00
945.228,3020.00
946.179,2796.00
947.130,3223.00
948.080,2795.00
949.031,2690.00
949.984,2813.00
950.934,2857.00
951.884,2583.00
952.835,2866.00
953.785,2885.00
954.735,2723.00
955.685,2478.00
956.635,2779.00
957.585,2752.00
958.534,2782.00
959.484,2903.00
960.433,2700.00
961.383,2606.00
962.334,3116.00
963.283,2924.00
964.232,2975.00
965.181,2833.00
966.130,2948.00
967.079,2753.00
968.027,2841.00
968.976,2875.00
969.924,2758.00
970.873,2977.00
971.821,2867.00
972.769,3111.00
973.719,2983.00
974.667,2601.00
975.615,2843.00
976.562,2898.00
977.510,2551.00
978.458,2759.00
979.405,2971.00
980.352,2903.00
981.300,3132.00
982.247,2918.00
983.194,2639.00
984.141,2755.00
985.088,2871.00
986.036,2920.00
986.983,3208.00
987.930,3275.00
988.876,2450.00
989.822,3115.00
990.769,2701.00
991.715,2740.00
992.661,2547.00
993.607,2924.00
994.553,3486.00
995.498,2711.00
996.444,2416.00
997.389,2894.00
998.337,2665.00
999.282,3024.00
1000.227,2755.00
1001.173,2829.00
1002.118,2592.00
1003.062,3071.00
1004.007,2857.00
1004.952,3135.00
1005.897,3150.00
1006.841,2833.00
1007.786,2571.00
1008.730,2526.00
1009.674,3322.00
1010.618,2740.00
1011.564,2654.00
1012.508,2515.00
1013.452,3064.00
1014.396,2856.00
1015.339,2748.00
1016.283,2824.00
1017.226,2891.00
1018.170,2869.00
1019.113,3044.00
1020.056,2876.00
1020.999,2856.00
1021.942,2714.00
1022.885,3007.00
1023.828,3168.00
1024.770,2592.00
1025.715,2900.00
1026.657,2832.00
1027.600,2902.00
1028.542,3072.00
1029.484,2885.00
1030.426,2992.00
1031.368,2896.00
1032.310,2728.00
1033.251,2637.00
1034.193,2839.00
1035.135,2605.00
1036.076,2749.00
1037.017,2664.00
1037.959,3010.00
1038.900,2930.00
1039.843,2947.00
1040.784,2846.00
1041.725,2912.00
1042.665,2744.00
1043.606,2925.00
1044.547,2907.00
1045.487,2493.00
1046.427,2829.00
1047.368,2892.00
1048.308,2326.00
1049.248,2678.00
1050.188,2855.00
1051.128,2763.00
1052.067,2789.00
1053.007,2473.00
1053.947,2488.00
1054.886,2654.00
1055.827,2610.00
1056.766,3130.00
1057.706,2574.00
1058.645,2784.00
1059.584,2892.00
1060.522,3125.00
1061.461,2565.00
1062.400,2601.00
1063.338,2777.00
1064.277,2624.00
1065.215,2650.00
1066.154,2490.00
1067.092,2718.00
1068.030,2790.00
1068.968,3004.00
1069.906,3160.00
1070.843,3089.00
1071.781,2885.00
1072.720,2933.00
1073.658,2949.00
1074.595,2737.00
1075.533,2683.00
1076.470,2711.00
1077.407,3138.00
1078.344,2898.00
1079.281,2914.00
1080.217,2411.00
1081.154,2811.00
1082.091,2869.00
1083.027,2536.00
1083.964,3029.00
1084.900,2691.00
1085.836,2730.00
1086.772,3023.00
1087.708,2580.00
1088.644,2963.00
1089.580,2866.00
1090.515,2873.00
1091.451,2754.00
1092.388,2817.00
1093.324,2570.00
1094.259,3400.00
1095.194,2855.00
1096.129,2736.00
1097.064,2694.00
1097.999,2953.00
1098.934,2684.00
1099.869,2666.00
1100.803,2840.00
1101.738,2837.00
1102.672,2531.00
1103.607,2952.00
1104.541,2669.00
1105.475,2701.00
1106.409,2499.00
1107.343,2767.00
1108.277,2537.00
1109.210,2814.00
1110.144,2799.00
1111.078,2790.00
1112.011,2546.00
1112.944,2902.00
1113.878,2868.00
1114.811,2267.00
1115.744,2632.00
1116.678,2429.00
1117.611,2728.00
1118.544,2700.00
1119.477,2902.00
1120.409,2673.00
1121.342,3266.00
1122.274,2865.00
1123.206,3156.00
1124.138,2797.00
1125.070,3111.00
1126.002,3012.00
1126.934,2366.00
1127.866,2693.00
1128.798,2450.00
1129.729,2482.00
1130.661,2773.00
1131.592,2712.00
1132.523,2891.00
1133.454,2853.00
1134.385,2413.00
1135.317,2814.00
1136.247,2740.00
1137.178,3006.00
1138.109,2474.00
1139.039,3151.00
1139.970,3000.00
1140.900,2717.00
1141.831,2468.00
1142.761,2337.00
1143.691,3467.00
1144.621,2753.00
1145.551,2851.00
1146.480,2836.00
1147.410,2939.00
1148.340,2399.00
1149.269,2475.00
1150.199,2718.00
1151.128,3221.00
1152.057,2590.00
1152.979,2711.00
1153.898,2727.00
1154.819,2865.00
1155.739,2707.00
1156.658,2649.00
1157.579,2803.00
1158.498,2766.00
1159.419,2278.00
1160.338,2818.00
1161.256,2839.00
1162.177,2642.00
1163.095,2749.00
1164.016,2837.00
1164.934,3069.00
1165.852,2947.00
1166.772,2741.00
1167.690,2855.00
1168.610,2859.00
1169.528,2746.00
1170.446,2259.00
1171.365,2679.00
1172.283,2646.00
1173.202,2766.00
1174.120,2809.00
1175.037,2619.00
1175.956,2602.00
1176.873,2605.00
1177.792,2661.00
1178.709,3262.00
1179.626,2663.00
1180.544,2977.00
1181.461,2603.00
1182.379,2866.00
1183.296,2752.00
1184.212,2407.00
1185.130,2607.00
1186.046,3118.00
1186.962,2757.00
1187.880,3065.00
1188.796,2782.00
1189.714,2491.00
1190.629,2885.00
1191.545,2802.00
1192.462,2702.00
1193.378,2701.00
1194.295,2418.00
1195.210,2763.00
1196.125,2876.00
1197.042,2828.00
1197.957,2751.00
1198.872,2621.00
1199.788,2666.00
1200.703,3085.00
1201.619,2764.00
1202.534,2618.00
1203.448,2875.00
1204.364,2668.00
1205.278,2411.00
1206.192,2816.00
1207.108,3292.00
1208.022,3171.00
1208.938,2597.00
1209.851,2926.00
1210.765,3053.00
1211.680,2636.00
1212.594,2526.00
1213.507,2691.00
1214.422,3197.00
1215.335,2923.00
1216.248,2685.00
1217.163,2776.00
1218.076,3391.00
1218.990,2886.00
1219.903,2539.00
1220.816,2587.00
1221.730,2688.00
1222.642,2630.00
1223.554,2681.00
1224.469,2851.00
1225.380,2683.00
1226.292,2381.00
1227.206,2912.00
1228.118,3087.00
1229.032,2358.00
1229.943,2639.00
1230.855,2723.00
1231.768,2476.00
1232.679,2882.00
1233.590,2737.00
1234.503,2967.00
1235.414,2607.00
1236.325,2605.00
1237.238,2801.00
1238.149,2879.00
1239.059,2587.00
1239.972,2930.00
1240.882,2535.00
1241.793,2878.00
1242.705,3130.00
1243.615,2743.00
1244.525,2813.00
1245.437,2319.00
1246.347,2817.00
1247.259,2965.00
1248.168,3163.00
1249.078,3051.00
1249.989,3054.00
1250.899,2571.00
1251.808,2630.00
1252.719,2666.00
1253.628,2587.00
1254.537,3161.00
1255.448,2575.00
1256.357,2557.00
1257.266,2725.00
1258.176,2495.00
1259.085,2459.00
1259.993,2539.00
1260.904,2563.00
1261.812,2591.00
1262.720,3402.00
1263.630,2951.00
1264.538,2590.00
1265.446,2875.00
1266.356,2687.00
1267.263,3052.00
1268.171,2535.00
1269.080,2833.00
1269.988,2918.00
1270.895,2671.00
1271.804,2741.00
1272.711,2935.00
1273.619,2935.00
1274.527,2540.00
1275.434,2926.00
1276.341,2559.00
1277.248,2830.00
1278.156,3070.00
1279.063,2645.00
1279.969,2840.00
1280.877,3722.00
1281.783,2957.00
1282.690,2852.00
1283.598,2766.00
1284.503,2605.00
1285.409,2561.00
1286.317,3130.00
1287.223,3200.00
1288.128,2805.00
1289.036,2642.00
1289.941,2719.00
1290.846,2741.00
1291.751,2580.00
1292.658,2662.00
1293.563,3217.00
1294.468,2810.00
1295.375,2890.00
1296.280,3013.00
1297.184,3517.00
1298.091,2887.00
1298.995,2913.00
1299.900,3148.00
1300.806,2666.00
1301.710,2499.00
1302.614,2307.00
1303.518,2999.00
1304.424,2697.00
1305.327,2964.00
1306.231,2718.00
1307.137,2911.00
1308.040,2818.00
1308.943,2787.00
1309.847,2960.00
1310.752,2984.00
1311.655,2386.00
1312.558,2548.00
1313.463,2710.00
1314.366,2633.00
1315.269,2813.00
1316.171,2728.00
1317.076,2648.00
1317.978,2524.00
1318.881,2326.00
1319.785,2614.00
1320.687,2600.00
1321.589,2336.00
1322.491,2585.00
1323.395,2853.00
1324.297,3368.00
1325.198,2909.00
1326.102,2581.00
1327.004,2578.00
1327.905,3130.00
1328.806,2732.00
1329.709,2838.00
1330.611,2715.00
1331.512,2532.00
1332.413,3245.00
1333.316,2812.00
1334.216,2945.00
1335.117,2458.00
1336.020,2821.00
1336.920,2751.00
1337.821,2612.00
1338.721,3038.00
1339.623,2856.00
1340.523,2707.00
1341.423,2647.00
1342.323,3069.00
1343.225,2808.00
1344.125,2560.00
1345.025,2623.00
1345.924,2382.00
1346.826,3127.00
1347.725,3185.00
1348.624,3008.00
1349.524,2638.00
1350.425,2676.00
1351.324,2851.00
1352.223,2983.00
1353.121,2728.00
1354.022,2960.00
1354.921,3213.00
1355.819,2867.00
1356.718,2830.00
1357.618,2512.00
1358.516,2865.00
1359.415,3158.00
1360.313,2811.00
1361.213,2748.00
1362.111,3049.00
1363.008,3447.00
1363.906,2740.00
1364.806,2775.00
1365.703,2860.00
1366.601,2611.00
1367.498,2579.00
1368.397,2969.00
1369.295,2815.00
1370.192,2589.00
1371.089,2814.00
1371.987,2750.00
1372.884,3034.00
1373.781,2526.00
1374.678,2742.00
1375.574,2561.00
1376.473,2849.00
1377.369,3020.00
1378.265,2573.00
1379.161,2708.00
1380.059,2423.00
1380.955,2879.00
1381.851,2553.00
1382.747,2611.00
1383.643,2680.00
1384.540,2539.00
1385.436,2643.00
1386.331,2831.00
1387.227,2951.00
1388.124,2904.00
1389.019,2535.00
1389.914,2731.00
1390.809,2410.00
1391.704,3187.00
1392.601,2665.00
1393.495,3031.00
1394.390,2962.00
1395.285,2992.00
1396.179,2854.00
1397.075,2735.00
1397.969,2822.00
1398.864,2432.00
1399.758,2724.00
1400.652,2768.00
1401.547,2579.00
1402.441,2524.00
1403.335,3120.00
1404.229,2845.00
1405.122,2820.00
1406.017,2763.00
1406.911,2901.00
1407.804,3132.00
1408.697,2771.00
1409.590,2589.00
1410.485,2931.00
1411.378,2815.00
1412.271,2445.00
1413.163,2786.00
1414.056,2919.00
1414.949,3143.00
1415.843,2834.00
1416.735,2738.00
1417.627,2788.00
1418.520,2795.00
1419.412,2954.00
1420.306,2949.00
1421.197,3060.00
1422.089,2985.00
1422.981,3246.00
1423.873,2980.00
1424.764,2878.00
1425.657,2789.00
1426.549,2938.00
1427.440,2985.00
1428.331,2673.00
1429.222,2428.00
1430.113,2834.00
1431.006,2993.00
1431.897,2682.00
1432.787,2794.00
1433.678,2717.00
1434.568,2560.00
1435.459,2987.00
1436.351,2965.00
1437.241,2912.00
1438.131,2950.00
1439.021,2528.00
1439.911,2751.00
1440.801,2870.00
1441.693,3045.00
1442.583,2765.00
1443.472,2753.00
1444.362,2943.00
1445.251,2724.00
1446.140,2706.00
1447.030,3002.00
1447.921,2958.00
1448.810,2599.00
1449.699,3172.00
1450.588,2796.00
1451.476,2676.00
1452.365,2905.00
1453.254,2670.00
1454.144,2653.00
1455.032,2916.00
1455.921,2500.00
1456.809,3110.00
1457.697,2532.00
1458.585,2722.00
1459.473,2733.00
1460.361,2625.00
1461.251,2873.00
1462.138,2869.00
1463.026,2756.00
1463.913,3027.00
1464.801,2711.00
1465.688,2870.00
1466.575,2787.00
1467.463,3256.00
1468.351,2607.00
1469.238,2774.00
1470.125,2425.00
1471.012,2811.00
1471.899,2877.00
1472.785,2590.00
1473.672,2808.00
1474.558,2991.00
1475.446,2959.00
1476.333,2954.00
1477.219,2580.00
1478.105,2732.00
1478.991,2739.00
1479.877,3123.00
1480.762,2757.00
1481.648,2609.00
1482.534,2953.00
1483.419,2807.00
1484.307,2927.00
1485.192,2754.00
1486.077,2583.00
1486.962,2671.00
1487.847,2519.00
1488.732,2591.00
1489.617,2784.00
1490.502,3043.00
1491.387,2946.00
1492.271,2590.00
1493.156,2607.00
1494.042,2592.00
1494.927,3019.00
1495.811,2660.00
1496.695,2936.00
1497.579,3095.00
1498.463,2773.00
1499.347,2827.00
1500.231,2832.00
1501.114,2861.00
1501.998,3067.00
1502.881,2814.00
1503.765,3107.00
1504.648,3201.00
1505.533,2906.00
1506.417,2811.00
1507.300,2764.00
1508.183,2890.00
1509.066,2259.00
1509.948,3064.00
1510.831,3154.00
1511.714,2588.00
1512.596,2944.00
1513.479,3083.00
1514.361,3009.00
1515.243,2820.00
1516.125,2964.00
1517.008,3077.00
1517.890,2771.00
1518.771,2823.00
1519.655,3021.00
1520.537,2757.00
1521.419,2607.00
1522.300,2838.00
1523.182,2923.00
1524.063,2955.00
1524.944,3111.00
1525.825,2999.00
1526.707,2601.00
1527.588,2570.00
1528.468,2871.00
1529.349,2422.00
1530.230,2743.00
1531.111,2975.00
1531.991,2893.00
1532.872,2478.00
1533.752,2764.00
1534.632,2622.00
1535.513,2650.00
1536.393,2958.00
1537.273,3109.00
1538.153,3501.00
1539.032,2528.00
1539.912,2757.00
1540.792,2813.00
1541.672,2822.00
1542.551,2935.00
1543.430,3441.00
1544.310,2823.00
1545.189,2715.00
1546.068,3269.00
1546.947,2911.00
1547.826,3139.00
1548.705,2783.00
1549.584,3066.00
1550.462,2771.00
1551.341,3002.00
1552.219,2886.00
1553.098,2951.00
1553.976,3024.00
1554.854,3223.00
1555.733,3000.00
1556.611,2729.00
1557.489,2594.00
1558.367,2821.00
1559.244,2979.00
1560.122,2808.00
1561.000,2886.00
1561.877,3117.00
1562.755,2646.00
1563.632,2775.00
1564.509,3061.00
1565.386,3208.00
1566.264,2539.00
1567.141,2405.00
1568.017,2990.00
1568.894,2823.00
1569.771,2857.00
1570.648,2930.00
1571.524,2850.00
1572.401,2541.00
1573.277,2591.00
1574.153,2843.00
1575.029,2645.00
1575.906,3640.00
1576.781,2995.00
1577.657,2742.00
1578.533,3038.00
1579.409,2434.00
1580.285,2792.00
1581.160,3278.00
1582.036,2961.00
1582.911,2593.00
1583.786,3188.00
1584.662,2592.00
1585.537,2785.00
1586.412,2866.00
1587.287,2619.00
1588.160,3009.00
1589.035,2428.00
1589.909,2806.00
1590.784,2805.00
1591.658,2590.00
1592.533,2887.00
1593.407,2864.00
1594.281,2680.00
1595.155,3211.00
1596.029,2752.00
1596.903,2742.00
1597.777,2744.00
1598.651,3096.00
1599.525,2527.00
1600.398,2857.00
1601.272,2761.00
1602.144,3412.00
1603.017,2764.00
1603.890,3091.00
1604.763,2902.00
1605.636,2939.00
1606.509,2504.00
1607.382,2636.00
1608.255,2894.00
1609.128,3060.00
1610.000,2786.00
1610.873,2461.00
1611.746,2705.00
1612.616,2752.00
1613.488,2380.00
1614.361,2813.00
1615.233,2767.00
1616.105,3015.00
1616.977,2741.00
1617.849,2656.00
1618.720,3166.00
1619.592,3122.00
1620.464,2867.00
1621.333,3334.00
1622.205,2812.00
1623.076,2789.00
1623.947,2805.00
1624.818,3099.00
1625.689,2945.00
1626.560,2708.00
1627.431,2867.00
1628.302,3246.00
1629.171,2931.00
1630.042,3186.00
1630.912,3473.00
1631.782,3430.00
1632.653,2568.00
1633.523,3007.00
1634.393,3053.00
1635.263,2615.00
1636.131,2761.00
1637.001,2733.00
1637.871,2435.00
1638.741,2431.00
1639.611,2518.00
1640.480,2930.00
1641.350,2694.00
1642.219,2630.00
1643.087,2259.00
1643.956,3273.00
1644.825,3096.00
1645.694,3033.00
1646.563,3033.00
1647.432,2854.00
1648.299,2882.00
1649.167,2973.00
1650.036,2635.00
1650.904,3014.00
1651.773,3064.00
1652.641,2809.00
1653.509,2999.00
1654.376,2663.00
1655.244,2849.00
1656.112,2869.00
1656.980,2819.00
1657.847,2711.00
1658.715,2967.00
1659.581,2739.00
1660.448,3059.00
1661.316,2318.00
1662.183,2834.00
1663.051,2902.00
1663.918,2887.00
1664.783,2822.00
1665.650,2904.00
1666.517,2996.00
1667.384,2856.00
1668.251,2874.00
1669.115,3089.00
1669.982,2813.00
1670.849,3124.00
1671.715,2805.00
1672.581,2944.00
1673.446,2967.00
1674.312,2871.00
1675.178,3252.00
1676.044,2931.00
1676.910,2913.00
1677.774,2862.00
1678.639,2443.00
1679.505,2829.00
1680.370,3002.00
1681.236,3499.00
1682.099,2757.00
1682.965,2843.00
1683.830,2402.00
1684.695,2620.00
1685.560,2755.00
1686.423,2947.00
1687.288,2971.00
1688.153,2892.00
1689.017,2764.00
1689.880,2882.00
1690.745,3002.00
1691.609,2658.00
1692.473,3029.00
1693.338,3060.00
1694.200,3085.00
1695.064,2833.00
1695.928,2704.00
1696.792,2846.00
1697.654,3381.00
1698.517,2898.00
1699.381,2583.00
1700.245,2441.00
1701.106,3192.00
1701.969,2734.00
1702.833,3017.00
1703.696,2710.00
1704.557,2802.00
1705.420,2712.00
1706.283,2869.00
1707.146,2990.00
1708.007,2636.00
1708.870,2601.00
1709.732,2473.00
1710.595,2723.00
1711.455,2548.00
1712.318,2720.00
1713.180,3126.00
1714.040,2898.00
1714.902,3043.00
1715.764,2784.00
1716.626,2592.00
1717.486,2860.00
1718.348,3161.00
1719.209,5150.00
1720.071,2497.00
1720.930,2541.00
1721.792,2684.00
1722.653,2670.00
1723.512,2700.00
1724.374,2778.00
1725.234,2927.00
1726.095,2897.00
1726.954,2833.00
1727.815,2909.00
1728.676,2856.00
1729.535,3046.00
1730.395,2807.00
1731.256,2718.00
1732.114,2902.00
1732.974,2276.00
1733.834,3237.00
1734.693,3023.00
1735.553,2877.00
1736.413,3285.00
1737.272,2724.00
1738.130,2754.00
1738.990,2918.00
1739.849,2714.00
1740.707,3879.00
1741.566,2896.00
1742.426,2888.00
1743.283,3284.00
1744.142,2685.00
1745.001,2515.00
1745.858,3025.00
1746.717,2905.00
1747.576,2925.00
1748.433,3011.00
1749.292,3503.00
1750.150,3482.00
1751.007,3034.00
1751.865,3043.00
1752.723,2895.00
1753.579,2763.00
1754.438,3052.00
1755.296,3057.00
1756.152,2403.00
1757.010,2502.00
1757.865,3055.00
1758.723,2476.00
1759.581,3151.00
1760.436,2802.00
1761.294,3217.00
1762.151,2839.00
1763.006,2777.00
1763.864,2470.00
1764.721,3060.00
1765.576,2899.00
1766.433,3018.00
1767.288,2758.00
1768.144,2865.00
1769.001,2820.00
1769.856,2938.00
1770.712,3049.00
1771.568,2585.00
1772.423,2763.00
1773.279,2753.00
1774.133,2765.00
1774.989,3271.00
1775.845,3226.00
1776.699,3123.00
1777.555,2839.00
1778.409,3407.00
1779.265,2803.00
1780.120,2836.00
1780.974,2827.00
1781.829,2406.00
1782.682,2894.00
1783.538,2643.00
1784.393,2856.00
1785.246,2751.00
1786.101,2916.00
1786.954,2964.00
1787.808,3054.00
1788.661,2525.00
1789.516,2766.00
1790.370,2749.00
1791.223,3016.00
1792.077,2844.00
1792.930,2939.00
1793.784,2672.00
1794.636,2870.00
1795.490,2817.00
1796.344,2912.00
1797.196,2843.00
1798.049,3025.00
1798.901,2756.00
1799.755,3091.00
1800.606,2661.00
1801.460,3451.00
1802.311,3191.00
1803.165,3276.00
1804.018,3218.00
1804.869,2947.00
1805.722,3343.00
1806.573,2870.00
1807.426,2668.00
1808.276,2856.00
1809.129,2775.00
1809.980,3058.00
1810.832,3177.00
1811.683,2833.00
1812.535,3233.00
1813.385,2802.00
1814.237,3165.00
1815.089,2854.00
1815.940,3159.00
1816.791,2767.00
1817.641,2701.00
1818.493,3043.00
1819.343,2945.00
1820.194,2742.00
1821.044,2915.00
1821.895,3107.00
1822.745,2558.00
1823.596,2739.00
1824.445,3312.00
1825.296,2967.00
1826.145,2831.00
1826.996,3076.00
1827.845,2918.00
1828.695,2920.00
1829.544,2851.00
1830.395,2890.00
1831.243,2809.00
1832.094,2601.00
1832.942,3476.00
1833.792,3023.00
1834.640,2956.00
1835.490,2882.00
1836.338,2890.00
1837.186,2712.00
1838.036,2738.00
1838.884,2856.00
1839.733,3188.00
1840.581,3076.00
1841.430,2977.00
1842.278,3228.00
1843.127,2776.00
1843.974,2524.00
1844.823,3304.00
1845.671,2995.00
1846.519,2908.00
1847.366,2892.00
1848.213,2496.00
1849.062,2669.00
1849.909,2591.00
1850.757,3540.00
1851.604,2980.00
1852.452,2777.00
1853.298,2998.00
1854.146,2895.00
1854.993,2897.00
1855.839,3441.00
1856.687,2958.00
1857.532,3028.00
1858.380,2850.00
1859.226,2919.00
1860.073,2979.00
1860.919,2693.00
1861.765,2740.00
1862.612,3097.00
1863.457,3086.00
1864.304,2847.00
1865.150,3014.00
1865.995,2797.00
1866.842,3007.00
1867.686,3109.00
1868.533,2950.00
1869.378,2952.00
1870.223,2899.00
1871.069,2762.00
1871.914,2887.00
1872.760,2888.00
1873.604,2612.00
1874.448,3030.00
1875.294,3048.00
1876.139,2746.00
1876.984,2988.00
1877.828,2497.00
1878.672,2365.00
1879.518,2753.00
1880.361,3081.00
1881.205,3005.00
1882.050,2671.00
1882.894,3426.00
1883.739,2727.00
1884.582,2626.00
1885.425,2674.00
1886.270,3122.00
1887.113,2580.00
1887.956,2954.00
1888.801,2884.00
1889.644,2713.00
1890.486,2461.00
1891.331,2780.00
1892.173,2924.00
1893.017,2957.00
1893.860,3191.00
1894.702,3199.00
1895.546,2876.00
1896.388,3640.00
1897.230,3266.00
1898.074,2763.00
1898.916,2626.00
1899.757,2692.00
1900.601,3641.00
1901.443,3188.00
1902.284,3190.00
1903.125,3433.00
1903.969,3081.00
1904.810,3122.00
1905.651,3000.00
1906.494,3216.00
1907.335,3359.00
1908.176,3003.00
1909.018,2953.00
1909.859,2868.00
1910.700,2729.00
1911.542,3427.00
1912.383,2987.00
1913.223,2494.00
1914.064,3029.00
1914.906,3175.00
1915.746,3206.00
1916.586,3378.00
1917.428,2888.00
1918.268,2923.00
1919.107,2758.00
1919.947,2637.00
1920.789,2800.00
1921.628,3128.00
1922.468,2878.00
1923.309,2745.00
1924.148,3230.00
1924.988,2984.00
1925.827,2864.00
1926.667,2733.00
1927.507,2935.00
1928.345,2708.00
1929.184,3065.00
1930.025,2685.00
1930.864,3151.00
1931.702,3195.00
1932.541,2805.00
1933.381,3035.00
1934.219,3038.00
1935.057,3195.00
1935.896,2571.00
1936.735,2803.00
1937.573,2802.00
1938.411,2696.00
1939.249,3063.00
1940.089,2751.00
1940.927,3158.00
1941.764,3228.00
1942.602,2828.00
1943.439,2795.00
1944.278,2866.00
1945.115,2837.00
1945.953,2600.00
1946.790,2977.00
1947.628,3251.00
1948.465,2988.00
1949.302,3066.00
1950.139,3021.00
1950.976,2798.00
1951.814,3046.00
1952.651,2933.00
1953.487,2676.00
1954.323,3142.00
1955.160,2860.00
1955.998,3316.00
1956.834,2890.00
1957.670,2988.00
1958.506,3137.00
1959.342,2997.00
1960.177,2940.00
1961.015,3037.00
1961.850,2968.00
1962.686,2907.00
1963.521,2910.00
1964.357,3208.00
1965.192,2662.00
1966.029,3076.00
1966.864,2799.00
1967.699,3104.00
1968.534,2924.00
1969.369,3208.00
1970.204,2865.00
1971.040,2946.00
1971.875,2833.00
1972.709,2936.00
1973.544,2716.00
1974.378,2810.00
1975.212,3013.00
1976.047,2819.00
1976.882,2773.00
1977.716,3340.00
1978.550,2608.00
1979.384,2843.00
1980.218,2838.00
1981.052,2831.00
1981.885,2977.00
1982.719,2893.00
1983.554,3099.00
1984.388,3236.00
1985.221,3010.00
1986.054,3202.00
1986.887,2963.00
1987.720,2714.00
1988.553,3197.00
1989.386,3012.00
1990.219,3057.00
1991.053,3267.00
1991.886,2809.00
1992.719,3107.00
1993.551,2400.00
1994.383,3050.00
1995.216,2818.00
1996.048,2610.00
1996.880,3094.00
1997.712,2804.00
1998.544,2885.00
1999.376,2941.00
2000.208,3188.00
2001.040,3376.00
2001.873,2729.00
2002.705,2718.00
2003.536,2998.00
2004.367,2933.00
2005.199,2929.00
2006.030,2815.00
2006.861,2736.00
2007.692,2925.00
2008.523,2750.00
2009.354,2946.00
2010.185,2734.00
2011.016,3052.00
2011.846,3158.00
2012.677,2836.00
2013.507,3280.00
2014.338,3181.00
2015.168,2829.00
2015.999,3469.00
2016.829,2836.00
2017.659,3148.00
2018.489,3502.00
2019.319,2714.00
2020.149,3182.00
2020.980,2957.00
2021.810,2697.00
2022.639,2780.00
2023.469,2764.00
2024.298,2580.00
2025.128,2506.00
2025.957,2542.00
2026.786,2300.00
2027.615,2565.00
2028.444,2732.00
2029.273,2913.00
2030.102,2532.00
2030.931,2773.00
2031.758,3058.00
2032.586,2677.00
2033.415,2742.00
2034.243,2349.00
2035.072,2135.00
2035.900,2640.00
2036.728,2415.00
2037.556,2476.00
2038.385,2495.00
2039.213,2342.00
2040.040,2293.00
2040.868,2286.00
2041.696,2348.00
2042.524,2335.00
2043.351,2577.00
2044.179,2327.00
2045.006,2084.00
