RamanScope Measure Spectrum Data V3.72

<< MEASURE CONDITION >>
Exposure Type,Aver
Exposure Time [sec],15
Exposure Count,30
Measure Time,2023/07/07 12:29:35
Data Name,""
Data Comment,""
Rayleigh Wave[nm],532.0

<< SAMPLE SPECTRUM >>
Wave[dcm-1],No532
146.591,1124.07
147.626,1372.57
148.664,1582.57
149.699,1847.40
150.737,2072.17
151.772,2314.03
152.809,2613.53
153.846,2784.63
154.881,2999.23
155.918,3188.53
156.953,3313.53
157.989,3504.57
159.026,3613.37
160.060,3663.10
161.096,3769.77
162.130,3844.10
163.167,3927.07
164.200,4017.23
165.236,4083.60
166.272,4172.00
167.305,4260.03
168.341,4304.67
169.374,4356.63
170.409,4480.67
171.445,4537.50
172.477,4630.70
173.512,4662.03
174.545,4742.20
175.580,4731.17
176.614,4797.87
177.647,4778.03
178.681,4822.83
179.713,4751.97
180.747,4807.47
181.781,4773.77
182.813,4753.43
183.847,4760.90
184.878,4743.73
185.912,4718.67
186.945,4792.13
187.976,4795.70
189.010,4828.73
190.043,4850.83
191.073,4824.70
192.106,4917.13
193.137,4933.13
194.170,4941.17
195.202,5080.57
196.232,5018.40
197.265,5107.13
198.297,5104.33
199.327,5155.90
200.359,5209.67
201.388,5219.77
202.420,5268.90
203.452,5316.23
204.481,5370.73
205.512,5414.13
206.544,5458.50
207.573,5453.10
208.604,5514.70
209.635,5616.60
210.663,5629.50
211.694,5656.43
212.725,5707.33
213.753,5778.73
214.783,5784.97
215.813,5800.10
216.841,5767.03
217.871,5727.30
218.899,5728.23
219.929,5748.47
220.959,5688.13
221.986,5684.83
223.016,5600.53
224.045,5610.47
225.072,5613.00
226.101,5568.80
227.130,5538.57
228.157,5515.50
229.185,5517.63
230.214,5480.10
231.241,5450.77
232.269,5431.87
233.297,5432.20
234.323,5402.73
235.351,5381.60
236.379,5394.50
237.407,5369.90
238.433,5242.87
239.460,5312.57
240.488,5363.60
241.513,5301.63
242.540,5369.80
243.568,5383.23
244.592,5354.93
245.619,5388.33
246.646,5393.97
247.671,5380.03
248.697,5426.80
249.724,5427.17
250.748,5451.43
251.774,5476.60
252.801,5452.60
253.827,5521.67
254.850,5556.43
255.876,5564.90
256.902,5608.90
257.925,5603.43
258.951,5643.37
259.976,5688.37
260.999,5706.90
262.024,5732.13
263.049,5745.33
264.074,5770.10
265.097,5849.77
266.122,5881.80
267.146,5857.60
268.168,5925.17
269.193,5911.77
270.217,5883.60
271.241,5928.10
272.263,5930.73
273.287,5946.03
274.311,5897.30
275.332,5963.90
276.356,5944.53
277.379,5899.43
278.402,5893.43
279.424,5871.53
280.447,5876.27
281.470,5795.00
282.492,5780.63
283.513,5740.63
284.536,5726.83
285.558,5686.80
286.581,5654.07
287.601,5624.77
288.623,5581.87
289.645,5603.43
290.665,5534.67
291.687,5499.00
292.709,5459.70
293.730,5452.23
294.750,5408.97
295.771,5385.70
296.792,5377.47
297.813,5363.57
298.832,5297.27
299.853,5276.03
300.874,5323.27
301.895,5318.80
302.913,5257.93
303.934,5212.57
304.954,5188.80
305.975,5428.40
306.993,5209.10
308.013,5153.03
309.033,5176.57
310.052,5132.00
311.072,5098.50
312.090,5156.43
313.109,5161.70
314.129,5132.50
315.148,5133.80
316.165,5152.63
317.184,5112.57
318.203,5101.77
319.222,5094.00
320.238,5099.93
321.257,5070.47
322.275,5106.87
323.294,5045.77
324.312,5031.47
325.328,5048.57
326.346,5080.57
327.364,5095.07
328.382,5056.43
329.397,5044.27
330.415,4983.53
331.432,4989.03
332.450,5003.30
333.467,5048.63
334.482,5001.40
335.499,4985.43
336.516,5024.93
337.533,5020.77
338.547,4987.80
339.564,5004.50
340.580,4982.17
341.597,4970.23
342.613,4967.40
343.627,4981.27
344.643,4903.77
345.659,4949.47
346.675,4906.80
347.690,4936.70
348.704,4911.97
349.719,4900.93
350.735,4920.40
351.750,4889.40
352.765,4936.80
353.778,4902.77
354.793,4938.07
355.808,4902.20
356.822,4899.00
357.837,4893.50
358.851,4915.63
359.864,4918.80
360.878,4885.53
361.892,4910.43
362.906,4905.50
363.920,4960.53
364.932,4935.87
365.945,4899.87
366.959,4889.97
367.972,4944.20
368.986,4929.67
369.999,4906.60
371.010,4916.07
372.023,4924.00
373.036,4948.30
374.049,4933.43
375.061,4953.80
376.072,4928.90
377.084,4890.77
378.097,4919.27
379.109,4886.67
380.121,4874.77
381.133,4853.00
382.143,4882.67
383.155,4848.60
384.166,4860.77
385.178,4833.60
386.189,4849.33
387.201,4800.00
388.212,4776.77
389.221,4781.07
390.232,4781.80
391.243,4717.43
392.254,4709.43
393.264,4669.00
394.275,4708.77
395.283,4690.70
396.294,4629.07
397.304,4641.90
398.314,4617.87
399.324,4602.03
400.334,4635.57
401.344,4566.37
402.351,4544.40
403.361,4536.10
404.370,4509.57
405.380,4501.43
406.389,4463.90
407.398,4479.30
408.407,4475.37
409.414,4451.80
410.423,4471.23
411.431,4422.50
412.440,4330.87
413.448,4317.40
414.457,4321.90
415.465,4352.80
416.471,4321.50
417.479,4280.20
418.487,4251.20
419.495,4282.47
420.503,4264.83
421.510,4290.00
422.518,4231.43
423.525,4200.50
424.530,4225.57
425.537,4234.27
426.544,4207.07
427.551,4176.17
428.558,4161.10
429.565,4203.17
430.571,4197.87
431.578,4141.40
432.582,4168.27
433.588,4152.30
434.595,4093.07
435.601,4101.57
436.607,4100.87
437.612,4088.80
438.618,4079.10
439.624,4049.37
440.627,4093.67
441.633,4056.40
442.638,4064.43
443.643,4038.87
444.648,4002.20
445.653,4009.00
446.658,4021.47
447.663,4036.77
448.667,3987.70
449.672,3985.70
450.674,4042.50
451.678,4010.70
452.682,3979.47
453.687,3975.27
454.690,3967.67
455.694,3986.20
456.698,4012.80
457.702,3948.13
458.705,3955.57
459.709,3927.27
460.710,3941.17
461.713,4008.97
462.716,3958.93
463.719,3876.87
464.722,3952.07
465.725,3936.13
466.727,3974.27
467.730,3903.23
468.732,3904.00
469.735,3933.20
470.737,3928.03
471.737,3912.20
472.739,3903.83
473.741,3924.13
474.742,3889.10
475.744,3898.00
476.746,3929.83
477.747,3936.03
478.748,3856.27
479.750,3855.97
480.751,3862.50
481.752,3898.00
482.753,3873.57
483.751,3850.33
484.752,3840.33
485.753,3821.40
486.753,3819.70
487.753,3887.53
488.754,3793.13
489.754,3834.50
490.754,3788.80
491.754,3812.00
492.754,3809.27
493.753,3744.13
494.753,3807.27
495.752,3769.43
496.752,3786.80
497.749,3798.17
498.748,3743.63
499.747,3727.70
500.746,3730.37
501.745,3759.20
502.744,3755.87
503.742,3764.23
504.741,3722.23
505.739,3723.83
506.737,3691.37
507.735,3720.73
508.734,3691.03
509.732,3720.97
510.729,3695.67
511.727,3709.53
512.725,3726.10
513.720,3718.00
514.718,3689.70
515.715,3675.77
516.712,3668.47
517.709,3693.57
518.706,3725.03
519.703,3659.27
520.700,3661.67
521.696,3722.83
522.693,3683.83
523.689,3730.83
524.686,3697.80
525.682,3703.20
526.678,3701.10
527.674,3718.80
528.670,3672.57
529.666,3713.93
530.661,3710.83
531.657,3661.13
532.652,3703.27
533.648,3700.93
534.641,3707.90
535.636,3716.87
536.631,3704.67
537.626,3696.67
538.621,3705.20
539.616,3693.57
540.610,3675.37
541.605,3686.47
542.599,3649.27
543.593,3679.20
544.587,3669.73
545.581,3640.67
546.575,3646.70
547.569,3657.03
548.563,3623.97
549.557,3606.37
550.550,3648.50
551.543,3588.60
552.537,3661.77
553.530,3569.27
554.523,3608.93
555.516,3577.27
556.509,3592.67
557.502,3534.20
558.494,3527.47
559.487,3575.10
560.479,3545.67
561.472,3548.73
562.464,3529.77
563.456,3522.60
564.448,3505.23
565.440,3544.53
566.432,3472.73
567.423,3444.57
568.415,3489.40
569.404,3455.80
570.396,3471.50
571.387,3463.50
572.378,3391.37
573.369,3345.93
574.360,3409.47
575.351,3414.87
576.341,3449.20
577.332,3370.23
578.323,3369.47
579.313,3314.87
580.303,3356.30
581.293,3343.87
582.283,3324.13
583.273,3282.37
584.263,3309.63
585.253,3270.93
586.243,3298.77
587.232,3288.33
588.222,3240.40
589.211,3240.47
590.200,3225.60
591.189,3243.33
592.178,3227.30
593.167,3200.20
594.156,3198.60
595.145,3169.07
596.133,3174.77
597.122,3144.50
598.110,3142.20
599.098,3145.17
600.086,3052.03
601.074,3086.53
602.062,3094.53
603.050,3068.97
604.038,3070.40
605.025,3060.50
606.013,3049.57
607.000,3052.60
607.987,2979.27
608.975,2992.27
609.962,2986.27
610.949,3004.83
611.936,3022.47
612.922,2988.73
613.909,2964.57
614.895,2950.47
615.882,2919.47
616.868,2966.53
617.854,2968.93
618.841,2966.07
619.826,2925.00
620.812,2862.43
621.798,2892.57
622.784,2927.33
623.769,2917.40
624.755,2875.73
625.740,2877.27
626.725,2885.53
627.711,2860.03
628.698,2869.67
629.683,2850.97
630.667,2815.07
631.652,2863.20
632.637,2809.17
633.621,2839.27
634.606,2838.80
635.590,2793.73
636.574,2787.13
637.558,2800.60
638.542,2805.37
639.526,2791.93
640.510,2759.47
641.493,2762.90
642.477,2785.53
643.460,2773.93
644.444,2747.17
645.427,2749.17
646.410,2770.57
647.393,2748.23
648.376,2755.57
649.359,2723.23
650.341,2706.97
651.324,2683.43
652.307,2688.27
653.289,2706.30
654.271,2729.93
655.253,2666.27
656.235,2690.83
657.217,2696.90
658.199,2646.27
659.181,2673.03
660.163,2666.77
661.144,2619.00
662.126,2623.37
663.107,2607.73
664.088,2624.27
665.069,2591.17
666.050,2569.37
667.033,2545.53
668.014,2555.43
668.995,2558.87
669.975,2508.43
670.956,2561.73
671.936,2532.50
672.916,2515.87
673.896,2528.90
674.876,2579.00
675.856,2494.90
676.836,2507.37
677.816,2511.37
678.795,2495.03
679.775,2462.30
680.754,2488.20
681.734,2495.93
682.713,2438.77
683.692,2467.63
684.671,2470.77
685.650,2424.43
686.629,2437.60
687.607,2401.97
688.586,2382.70
689.564,2443.77
690.543,2438.80
691.523,2428.50
692.501,2387.93
693.479,2390.27
694.457,2376.20
695.435,2361.93
696.413,2386.90
697.390,2380.67
698.368,2326.57
699.345,2333.43
700.322,2334.23
701.300,2324.87
702.277,2349.27
703.254,2353.53
704.231,2296.43
705.207,2335.00
706.184,2341.40
707.161,2322.20
708.137,2330.17
709.113,2230.77
710.090,2302.30
711.068,2325.17
712.044,2298.73
713.020,2319.80
713.996,2297.73
714.971,2284.47
715.947,2267.03
716.922,2283.80
717.898,2283.13
718.873,2229.77
719.848,2256.53
720.823,2265.03
721.798,2230.77
722.773,2221.70
723.748,2229.67
724.723,2232.33
725.697,2223.17
726.672,2235.60
727.646,2242.73
728.622,2234.73
729.596,2187.93
730.570,2229.53
731.544,2229.93
732.518,2200.63
733.492,2237.97
734.466,2206.10
735.439,2189.67
736.413,2181.83
737.386,2195.37
738.359,2164.93
739.332,2205.57
740.305,2178.73
741.278,2199.87
742.251,2150.70
743.224,2178.97
744.196,2170.53
745.171,2169.13
746.143,2179.33
747.115,2155.17
748.087,2197.53
749.059,2153.00
750.031,2161.13
751.003,2078.80
751.975,2126.07
752.947,2169.40
753.918,2147.60
754.890,2149.80
755.861,2118.47
756.832,2097.57
757.803,2174.37
758.774,2159.57
759.747,2122.63
760.718,2150.00
761.689,2154.27
762.659,2126.17
763.630,2087.17
764.600,2091.67
765.570,2110.23
766.540,2081.53
767.510,2059.63
768.480,2070.77
769.450,2118.93
770.420,2069.70
771.390,2048.40
772.359,2062.33
773.329,2077.03
774.300,2056.33
775.269,2022.67
776.238,1988.77
777.207,2023.47
778.176,1982.07
779.145,1990.97
780.114,1974.53
781.083,1985.83
782.051,1968.07
783.019,1958.37
783.988,1916.20
784.956,1970.47
785.924,1942.90
786.894,1954.03
787.862,1905.77
788.830,1968.43
789.797,1940.53
790.765,1922.90
791.732,1919.53
792.700,1935.63
793.667,1884.50
794.634,1920.30
795.601,1914.03
796.568,1876.30
797.535,1889.73
798.502,1887.97
799.468,1880.23
800.437,1909.03
801.403,1872.30
802.370,1887.23
803.336,1836.07
804.302,1850.23
805.268,1854.07
806.234,1876.67
807.200,1829.73
808.166,1836.33
809.131,1857.13
810.097,1811.17
811.062,1815.30
812.027,1829.30
812.994,1812.73
813.960,1835.43
814.925,1817.87
815.889,1797.93
816.854,1849.33
817.819,1802.23
818.783,1792.57
819.748,1804.23
820.712,1837.27
821.677,1833.30
822.641,1787.93
823.605,1859.77
824.571,1802.67
825.534,1826.30
826.498,1840.87
827.462,1831.87
828.425,1826.13
829.389,1793.53
830.352,1818.93
831.315,1795.60
832.279,1829.87
833.242,1805.47
834.204,1808.77
835.167,1839.50
836.132,1812.70
837.095,1816.50
838.057,1785.93
839.020,1831.77
839.982,1812.90
840.944,1833.47
841.906,1860.93
842.868,1828.00
843.830,1812.10
844.792,1828.87
845.753,1835.70
846.715,1829.50
847.679,1844.30
848.640,1853.57
849.601,1841.47
850.562,1847.03
851.523,1847.17
852.484,1869.53
853.445,1845.57
854.406,1830.43
855.367,1878.33
856.327,1817.57
857.288,1864.83
858.248,1897.77
859.210,1834.80
860.170,1845.27
861.130,1875.67
862.090,1825.00
863.050,1884.10
864.010,1863.77
864.969,1899.73
865.929,1897.43
866.888,1863.57
867.848,1889.90
868.807,1892.17
869.766,1881.00
870.727,1893.73
871.686,1859.93
872.645,1915.23
873.604,1914.00
874.562,1910.97
875.521,1919.47
876.479,1879.73
877.437,1940.67
878.396,1922.83
879.354,1917.40
880.312,1923.17
881.270,1908.87
882.229,1915.23
883.187,1924.83
884.145,1935.53
885.102,1909.23
886.059,1906.10
887.017,1941.77
887.974,1911.33
888.931,1980.70
889.888,1968.80
890.845,1953.43
891.802,1989.07
892.758,1997.23
893.717,1968.43
894.673,1965.73
895.630,2008.17
896.586,1989.40
897.542,1984.00
898.498,1993.27
899.454,1982.40
900.410,2006.20
901.366,1997.33
902.321,1963.83
903.277,1993.07
904.232,2020.63
905.189,2039.30
906.145,1972.10
907.100,2050.00
908.055,2017.83
909.010,2033.20
909.965,2066.63
910.919,2031.13
911.874,2020.67
912.828,2038.27
913.783,2054.93
914.737,2040.63
915.693,2097.27
916.648,2072.83
917.602,2067.13
918.555,2081.73
919.509,2072.07
920.463,2079.40
921.417,2108.87
922.370,2044.00
923.324,2070.40
924.277,2085.40
925.230,2088.20
926.183,2111.23
927.138,2079.80
928.091,2072.97
929.044,2085.33
929.996,2104.23
930.949,2121.57
931.902,2091.77
932.854,2119.63
933.806,2145.13
934.758,2109.77
935.711,2181.10
936.663,2107.67
937.614,2144.50
938.568,2101.00
939.520,2106.73
940.471,2128.27
941.423,2169.33
942.374,2105.80
943.326,2118.20
944.277,2123.93
945.228,2127.13
946.179,2141.33
947.130,2116.87
948.080,2164.60
949.031,2107.00
949.984,2086.23
950.934,2117.73
951.884,2126.83
952.835,2163.97
953.785,2086.50
954.735,2093.47
955.685,2097.33
956.635,2112.07
957.585,2113.20
958.534,2074.37
959.484,2096.23
960.433,2054.53
961.383,2064.73
962.334,2086.63
963.283,2017.73
964.232,2089.13
965.181,2038.23
966.130,2076.67
967.079,2029.80
968.027,2052.03
968.976,2016.73
969.924,2029.80
970.873,2020.50
971.821,2032.33
972.769,1986.13
973.719,2031.60
974.667,2004.33
975.615,2010.10
976.562,1993.77
977.510,2000.70
978.458,1998.77
979.405,2006.10
980.352,1997.03
981.300,2004.17
982.247,2005.73
983.194,1972.20
984.141,1983.10
985.088,1970.93
986.036,1906.83
986.983,1931.03
987.930,1909.73
988.876,1982.07
989.822,1938.03
990.769,1964.07
991.715,1926.57
992.661,1908.17
993.607,1895.80
994.553,1922.27
995.498,1938.57
996.444,1877.53
997.389,1895.47
998.337,1901.37
999.282,1906.30
1000.227,1914.37
1001.173,1863.27
1002.118,1860.00
1003.062,1879.87
1004.007,1895.97
1004.952,1880.83
1005.897,1869.20
1006.841,1849.17
1007.786,1845.13
1008.730,1841.53
1009.674,1841.13
1010.618,1830.17
1011.564,1833.87
1012.508,1824.47
1013.452,1841.80
1014.396,1851.80
1015.339,1816.57
1016.283,1824.23
1017.226,1790.93
1018.170,1725.70
1019.113,1803.93
1020.056,1805.33
1020.999,1800.17
1021.942,1756.43
1022.885,1796.10
1023.828,1744.80
1024.770,1765.30
1025.715,1778.57
1026.657,1759.47
1027.600,1778.80
1028.542,1771.93
1029.484,1771.33
1030.426,1748.50
1031.368,1748.60
1032.310,1731.93
1033.251,1745.23
1034.193,1762.43
1035.135,1759.93
1036.076,1776.50
1037.017,1767.23
1037.959,1777.93
1038.900,1737.93
1039.843,1728.87
1040.784,1724.27
1041.725,1755.90
1042.665,1749.13
1043.606,1756.13
1044.547,1721.73
1045.487,1746.83
1046.427,1739.30
1047.368,1713.47
1048.308,1731.93
1049.248,1730.33
1050.188,1741.60
1051.128,1703.53
1052.067,1729.80
1053.007,1737.07
1053.947,1697.37
1054.886,1688.80
1055.827,1708.73
1056.766,1720.53
1057.706,1716.77
1058.645,1734.87
1059.584,1736.50
1060.522,1715.60
1061.461,1722.60
1062.400,1732.37
1063.338,1748.20
1064.277,1687.40
1065.215,1702.07
1066.154,1712.73
1067.092,1722.07
1068.030,1719.40
1068.968,1743.97
1069.906,1739.43
1070.843,1707.00
1071.781,1730.23
1072.720,1709.50
1073.658,1720.73
1074.595,1740.23
1075.533,1723.23
1076.470,1703.53
1077.407,1751.13
1078.344,1715.23
1079.281,1698.73
1080.217,1727.27
1081.154,1716.87
1082.091,1717.20
1083.027,1718.83
1083.964,1742.20
1084.900,1708.33
1085.836,1707.47
1086.772,1672.60
1087.708,1679.53
1088.644,1656.33
1089.580,1688.67
1090.515,1702.00
1091.451,1667.87
1092.388,1693.70
1093.324,1671.23
1094.259,1693.33
1095.194,1688.00
1096.129,1713.93
1097.064,1679.20
1097.999,1658.77
1098.934,1661.17
1099.869,1653.80
1100.803,1644.70
1101.738,1650.27
1102.672,1659.13
1103.607,1623.83
1104.541,1632.40
1105.475,1646.00
1106.409,1640.53
1107.343,1614.40
1108.277,1615.27
1109.210,1560.20
1110.144,1589.13
1111.078,1611.87
1112.011,1596.73
1112.944,1583.87
1113.878,1592.53
1114.811,1569.87
1115.744,1552.23
1116.678,1563.03
1117.611,1567.00
1118.544,1586.50
1119.477,1563.77
1120.409,1554.00
1121.342,1556.00
1122.274,1529.07
1123.206,1536.20
1124.138,1528.37
1125.070,1514.87
1126.002,1489.93
1126.934,1514.73
1127.866,1479.27
1128.798,1523.13
1129.729,1486.40
1130.661,1471.87
1131.592,1450.67
1132.523,1503.07
1133.454,1448.27
1134.385,1448.40
1135.317,1436.53
1136.247,1459.53
1137.178,1476.93
1138.109,1461.00
1139.039,1451.17
1139.970,1447.63
1140.900,1453.33
1141.831,1460.67
1142.761,1455.53
1143.691,1465.13
1144.621,1408.20
1145.551,1442.73
1146.480,1414.67
1147.410,1453.83
1148.340,1384.73
1149.269,1400.87
1150.199,1443.50
1151.128,1384.60
1152.057,1407.87
1152.979,1400.70
1153.898,1379.93
1154.819,1424.80
1155.739,1361.30
1156.658,1422.13
1157.579,1389.47
1158.498,1402.10
1159.419,1392.33
1160.338,1395.13
1161.256,1414.57
1162.177,1378.63
1163.095,1378.70
1164.016,1403.63
1164.934,1354.77
1165.852,1338.97
1166.772,1343.03
1167.690,1338.70
1168.610,1370.03
1169.528,1367.57
1170.446,1362.87
1171.365,1343.70
1172.283,1357.70
1173.202,1318.23
1174.120,1299.50
1175.037,1373.43
1175.956,1326.33
1176.873,1332.37
1177.792,1342.77
1178.709,1299.30
1179.626,1367.77
1180.544,1365.50
1181.461,1301.33
1182.379,1316.57
1183.296,1306.37
1184.212,1297.03
1185.130,1319.20
1186.046,1294.80
1186.962,1338.47
1187.880,1296.43
1188.796,1336.10
1189.714,1314.37
1190.629,1304.33
1191.545,1356.47
1192.462,1310.93
1193.378,1309.87
1194.295,1327.50
1195.210,1311.50
1196.125,1335.50
1197.042,1306.13
1197.957,1286.33
1198.872,1287.57
1199.788,1301.97
1200.703,1308.37
1201.619,1307.67
1202.534,1289.47
1203.448,1275.73
1204.364,1300.93
1205.278,1301.17
1206.192,1320.30
1207.108,1334.03
1208.022,1321.97
1208.938,1303.97
1209.851,1269.23
1210.765,1330.80
1211.680,1290.00
1212.594,1266.00
1213.507,1282.93
1214.422,1276.00
1215.335,1293.93
1216.248,1279.20
1217.163,1319.17
1218.076,1276.63
1218.990,1261.43
1219.903,1281.43
1220.816,1308.77
1221.730,1308.00
1222.642,1317.60
1223.554,1283.80
1224.469,1275.40
1225.380,1313.00
1226.292,1269.00
1227.206,1269.40
1228.118,1274.63
1229.032,1288.63
1229.943,1287.70
1230.855,1279.00
1231.768,1292.13
1232.679,1262.80
1233.590,1325.73
1234.503,1292.53
1235.414,1253.73
1236.325,1311.00
1237.238,1308.47
1238.149,1311.33
1239.059,1282.80
1239.972,1283.57
1240.882,1261.90
1241.793,1286.10
1242.705,1289.00
1243.615,1284.40
1244.525,1275.57
1245.437,1302.20
1246.347,1313.27
1247.259,1302.43
1248.168,1279.67
1249.078,1275.07
1249.989,1262.30
1250.899,1278.50
1251.808,1321.23
1252.719,1297.60
1253.628,1296.30
1254.537,1266.10
1255.448,1256.40
1256.357,1327.50
1257.266,1318.90
1258.176,1271.27
1259.085,1266.63
1259.993,1276.83
1260.904,1298.20
1261.812,1276.10
1262.720,1262.93
1263.630,1308.57
1264.538,1266.07
1265.446,1297.67
1266.356,1290.23
1267.263,1264.03
1268.171,1303.13
1269.080,1306.10
1269.988,1296.00
1270.895,1285.33
1271.804,1312.50
1272.711,1308.50
1273.619,1272.83
1274.527,1316.40
1275.434,1290.57
1276.341,1288.87
1277.248,1269.50
1278.156,1263.97
1279.063,1291.37
1279.969,1283.07
1280.877,1305.23
1281.783,1272.67
1282.690,1280.63
1283.598,1262.83
1284.503,1271.83
1285.409,1278.57
1286.317,1244.33
1287.223,1283.77
1288.128,1274.50
1289.036,1283.30
1289.941,1281.47
1290.846,1253.97
1291.751,1243.13
1292.658,1294.87
1293.563,1248.90
1294.468,1269.23
1295.375,1303.43
1296.280,1218.93
1297.184,1271.83
1298.091,1275.80
1298.995,1245.47
1299.900,1287.13
1300.806,1261.23
1301.710,1238.50
1302.614,1232.80
1303.518,1230.80
1304.424,1261.30
1305.327,1232.43
1306.231,1251.50
1307.137,1245.00
1308.040,1282.07
1308.943,1231.83
1309.847,1237.83
1310.752,1265.37
1311.655,1248.80
1312.558,1212.77
1313.463,1226.00
1314.366,1217.13
1315.269,1238.90
1316.171,1199.83
1317.076,1218.63
1317.978,1188.47
1318.881,1188.10
1319.785,1196.27
1320.687,1180.67
1321.589,1211.30
1322.491,1203.60
1323.395,1198.70
1324.297,1221.13
1325.198,1207.00
1326.102,1204.90
1327.004,1189.43
1327.905,1187.90
1328.806,1196.13
1329.709,1165.37
1330.611,1240.03
1331.512,1209.03
1332.413,1186.47
1333.316,1232.40
1334.216,1179.90
1335.117,1213.43
1336.020,1166.13
1336.920,1170.70
1337.821,1207.00
1338.721,1186.97
1339.623,1210.27
1340.523,1193.40
1341.423,1191.13
1342.323,1178.40
1343.225,1218.93
1344.125,1170.03
1345.025,1174.40
1345.924,1155.03
1346.826,1178.77
1347.725,1160.13
1348.624,1192.53
1349.524,1133.00
1350.425,1180.97
1351.324,1158.27
1352.223,1141.30
1353.121,1177.60
1354.022,1157.50
1354.921,1124.63
1355.819,1176.80
1356.718,1149.80
1357.618,1172.67
1358.516,1166.87
1359.415,1134.10
1360.313,1169.67
1361.213,1176.57
1362.111,1144.57
1363.008,1189.07
1363.906,1139.10
1364.806,1170.83
1365.703,1125.27
1366.601,1126.27
1367.498,1100.30
1368.397,1128.37
1369.295,1114.03
1370.192,1114.77
1371.089,1117.17
1371.987,1114.57
1372.884,1140.80
1373.781,1134.10
1374.678,1133.40
1375.574,1156.93
1376.473,1114.80
1377.369,1121.03
1378.265,1121.93
1379.161,1112.53
1380.059,1117.90
1380.955,1135.00
1381.851,1089.03
1382.747,1096.37
1383.643,1129.30
1384.540,1097.80
1385.436,1093.17
1386.331,1119.20
1387.227,1079.30
1388.124,1118.90
1389.019,1096.40
1389.914,1118.60
1390.809,1101.60
1391.704,1093.03
1392.601,1065.97
1393.495,1063.17
1394.390,1051.73
1395.285,1089.50
1396.179,1142.33
1397.075,1080.53
1397.969,1081.03
1398.864,1058.80
1399.758,1067.03
1400.652,1062.03
1401.547,1077.13
1402.441,1079.93
1403.335,1060.77
1404.229,1042.50
1405.122,1060.97
1406.017,1047.53
1406.911,1059.57
1407.804,1058.40
1408.697,1040.60
1409.590,1047.93
1410.485,1087.10
1411.378,1053.73
1412.271,1109.07
1413.163,1071.97
1414.056,1041.97
1414.949,1066.30
1415.843,1053.87
1416.735,1072.37
1417.627,1063.13
1418.520,1114.00
1419.412,1069.37
1420.306,1081.30
1421.197,1070.33
1422.089,1064.47
1422.981,1043.00
1423.873,1059.80
1424.764,1057.73
1425.657,1068.30
1426.549,1054.50
1427.440,1029.17
1428.331,1044.10
1429.222,1047.60
1430.113,1098.23
1431.006,1049.57
1431.897,1053.33
1432.787,1085.73
1433.678,1043.17
1434.568,1049.33
1435.459,1053.37
1436.351,1065.87
1437.241,1029.57
1438.131,1071.50
1439.021,1041.97
1439.911,1084.50
1440.801,1066.90
1441.693,981.07
1442.583,1058.80
1443.472,1045.30
1444.362,1032.60
1445.251,1051.60
1446.140,1006.30
1447.030,1032.20
1447.921,1055.23
1448.810,1047.27
1449.699,1024.17
1450.588,1019.47
1451.476,1020.13
1452.365,1014.33
1453.254,1026.30
1454.144,1006.67
1455.032,1036.27
1455.921,1005.47
1456.809,1007.00
1457.697,1040.63
1458.585,1050.13
1459.473,1026.83
1460.361,1005.20
1461.251,1049.10
1462.138,1045.13
1463.026,1017.70
1463.913,991.17
1464.801,1022.87
1465.688,991.33
1466.575,1019.03
1467.463,1000.00
1468.351,1026.50
1469.238,1024.37
1470.125,1033.10
1471.012,997.90
1471.899,969.27
1472.785,1018.63
1473.672,1036.03
1474.558,1018.53
1475.446,980.20
1476.333,1016.77
1477.219,1000.40
1478.105,1010.20
1478.991,990.37
1479.877,990.10
1480.762,988.80
1481.648,1004.07
1482.534,989.57
1483.419,973.23
1484.307,1016.60
1485.192,993.53
1486.077,1020.73
1486.962,1006.07
1487.847,981.53
1488.732,981.03
1489.617,999.07
1490.502,985.50
1491.387,1027.80
1492.271,976.77
1493.156,990.67
1494.042,990.47
1494.927,971.07
1495.811,1016.70
1496.695,1024.73
1497.579,996.47
1498.463,976.27
1499.347,1023.93
1500.231,996.67
1501.114,995.03
1501.998,1013.77
1502.881,993.93
1503.765,984.90
1504.648,1011.60
1505.533,1011.63
1506.417,974.83
1507.300,980.27
1508.183,990.10
1509.066,951.90
1509.948,1012.60
1510.831,989.87
1511.714,978.03
1512.596,965.17
1513.479,1006.47
1514.361,976.47
1515.243,961.37
1516.125,945.80
1517.008,942.00
1517.890,999.67
1518.771,954.13
1519.655,990.67
1520.537,969.53
1521.419,966.80
1522.300,984.20
1523.182,955.23
1524.063,985.63
1524.944,936.53
1525.825,944.60
1526.707,969.70
1527.588,979.77
1528.468,944.30
1529.349,992.57
1530.230,892.93
1531.111,990.00
1531.991,941.23
1532.872,981.73
1533.752,966.03
1534.632,930.33
1535.513,943.73
1536.393,987.70
1537.273,977.23
1538.153,955.07
1539.032,979.77
1539.912,928.03
1540.792,962.87
1541.672,977.70
1542.551,955.77
1543.430,962.60
1544.310,986.90
1545.189,937.27
1546.068,971.63
1546.947,976.83
1547.826,936.33
1548.705,990.53
1549.584,960.60
1550.462,978.17
1551.341,996.70
1552.219,947.60
1553.098,986.37
1553.976,947.73
1554.854,1004.73
1555.733,959.47
1556.611,966.87
1557.489,956.27
1558.367,982.37
1559.244,916.70
1560.122,972.60
1561.000,977.53
1561.877,940.40
1562.755,944.27
1563.632,948.70
1564.509,960.03
1565.386,944.80
1566.264,959.27
1567.141,911.77
1568.017,921.43
1568.894,936.70
1569.771,955.30
1570.648,982.17
1571.524,955.77
1572.401,938.00
1573.277,954.80
1574.153,932.57
1575.029,946.77
1575.906,926.33
1576.781,924.17
1577.657,946.57
1578.533,926.47
1579.409,947.50
1580.285,927.53
1581.160,929.37
1582.036,982.77
1582.911,900.53
1583.786,901.37
1584.662,912.57
1585.537,909.37
1586.412,938.87
1587.287,920.83
1588.160,949.17
1589.035,913.43
1589.909,965.40
1590.784,956.40
1591.658,922.87
1592.533,938.63
1593.407,932.63
1594.281,949.33
1595.155,965.97
1596.029,914.13
1596.903,897.57
1597.777,937.97
1598.651,952.10
1599.525,930.20
1600.398,956.30
1601.272,915.80
1602.144,942.53
1603.017,929.60
1603.890,958.83
1604.763,935.33
1605.636,947.63
1606.509,943.73
1607.382,931.03
1608.255,944.63
1609.128,921.97
1610.000,920.13
1610.873,947.00
1611.746,949.77
1612.616,938.60
1613.488,938.53
1614.361,932.33
1615.233,931.03
1616.105,940.93
1616.977,930.77
1617.849,928.57
1618.720,944.03
1619.592,950.87
1620.464,928.67
1621.333,982.37
1622.205,982.77
1623.076,937.80
1623.947,904.70
1624.818,955.50
1625.689,939.30
1626.560,952.10
1627.431,924.60
1628.302,959.30
1629.171,961.67
1630.042,994.83
1630.912,921.80
1631.782,920.33
1632.653,952.70
1633.523,896.50
1634.393,919.87
1635.263,923.50
1636.131,902.97
1637.001,924.17
1637.871,944.83
1638.741,896.13
1639.611,909.00
1640.480,931.87
1641.350,991.53
1642.219,943.00
1643.087,905.57
1643.956,882.90
1644.825,905.40
1645.694,958.07
1646.563,922.07
1647.432,877.43
1648.299,928.57
1649.167,919.20
1650.036,940.47
1650.904,891.03
1651.773,947.30
1652.641,916.00
1653.509,940.03
1654.376,914.53
1655.244,939.50
1656.112,919.97
1656.980,904.30
1657.847,926.53
1658.715,951.00
1659.581,932.87
1660.448,915.73
1661.316,908.87
1662.183,932.73
1663.051,910.87
1663.918,895.20
1664.783,908.30
1665.650,901.57
1666.517,934.47
1667.384,917.17
1668.251,921.50
1669.115,941.23
1669.982,899.33
1670.849,934.57
1671.715,945.63
1672.581,933.23
1673.446,925.73
1674.312,945.03
1675.178,950.93
1676.044,939.67
1676.910,929.00
1677.774,925.37
1678.639,896.03
1679.505,929.20
1680.370,921.37
1681.236,894.03
1682.099,894.20
1682.965,901.77
1683.830,940.70
1684.695,919.33
1685.560,947.63
1686.423,930.93
1687.288,895.90
1688.153,917.43
1689.017,915.37
1689.880,881.87
1690.745,908.80
1691.609,909.03
1692.473,902.37
1693.338,937.57
1694.200,935.47
1695.064,898.30
1695.928,907.00
1696.792,871.67
1697.654,915.43
1698.517,920.27
1699.381,968.77
1700.245,943.33
1701.106,961.67
1701.969,911.67
1702.833,921.30
1703.696,942.40
1704.557,889.90
1705.420,938.20
1706.283,907.60
1707.146,919.67
1708.007,901.80
1708.870,929.83
1709.732,902.90
1710.595,930.90
1711.455,889.23
1712.318,941.10
1713.180,952.67
1714.040,920.13
1714.902,914.13
1715.764,938.27
1716.626,917.03
1717.486,919.93
1718.348,942.47
1719.209,904.13
1720.071,894.87
1720.930,937.63
1721.792,903.60
1722.653,863.00
1723.512,902.63
1724.374,926.37
1725.234,904.93
1726.095,899.67
1726.954,892.37
1727.815,907.47
1728.676,926.67
1729.535,900.17
1730.395,944.30
1731.256,937.37
1732.114,904.33
1732.974,895.33
1733.834,935.20
1734.693,917.27
1735.553,924.47
1736.413,904.00
1737.272,929.60
1738.130,909.37
1738.990,928.40
1739.849,963.47
1740.707,949.03
1741.566,898.00
1742.426,916.17
1743.283,917.57
1744.142,930.00
1745.001,904.13
1745.858,867.13
1746.717,892.60
1747.576,921.00
1748.433,900.17
1749.292,892.73
1750.150,941.87
1751.007,899.93
1751.865,893.57
1752.723,908.10
1753.579,907.13
1754.438,916.50
1755.296,911.17
1756.152,888.00
1757.010,888.83
1757.865,921.10
1758.723,899.53
1759.581,901.80
1760.436,890.30
1761.294,880.80
1762.151,904.63
1763.006,908.77
1763.864,902.57
1764.721,910.60
1765.576,876.57
1766.433,924.50
1767.288,896.67
1768.144,915.37
1769.001,879.17
1769.856,903.37
1770.712,909.70
1771.568,886.03
1772.423,909.97
1773.279,901.07
1774.133,914.53
1774.989,909.37
1775.845,863.90
1776.699,901.97
1777.555,918.83
1778.409,911.60
1779.265,915.13
1780.120,930.97
1780.974,916.60
1781.829,922.83
1782.682,895.97
1783.538,882.97
1784.393,911.60
1785.246,919.80
1786.101,922.57
1786.954,906.37
1787.808,899.70
1788.661,901.97
1789.516,884.40
1790.370,936.47
1791.223,908.13
1792.077,878.37
1792.930,916.57
1793.784,889.63
1794.636,874.50
1795.490,908.90
1796.344,903.13
1797.196,919.87
1798.049,911.40
1798.901,899.97
1799.755,894.07
1800.606,874.80
1801.460,886.27
1802.311,924.33
1803.165,918.90
1804.018,859.10
1804.869,902.97
1805.722,877.90
1806.573,915.83
1807.426,902.33
1808.276,888.13
1809.129,905.47
1809.980,884.97
1810.832,896.60
1811.683,877.93
1812.535,895.50
1813.385,892.97
1814.237,857.83
1815.089,898.67
1815.940,889.67
1816.791,893.33
1817.641,884.33
1818.493,879.07
1819.343,870.47
1820.194,905.70
1821.044,902.07
1821.895,867.53
1822.745,870.43
1823.596,882.60
1824.445,876.37
1825.296,916.20
1826.145,862.43
1826.996,932.07
1827.845,915.83
1828.695,881.57
1829.544,873.27
1830.395,903.30
1831.243,915.07
1832.094,899.53
1832.942,919.57
1833.792,853.97
1834.640,891.83
1835.490,886.67
1836.338,887.50
1837.186,908.97
1838.036,903.93
1838.884,915.30
1839.733,895.70
1840.581,861.07
1841.430,904.80
1842.278,877.37
1843.127,895.67
1843.974,918.10
1844.823,889.10
1845.671,917.43
1846.519,899.50
1847.366,914.53
1848.213,879.30
1849.062,892.60
1849.909,886.03
1850.757,848.23
1851.604,879.23
1852.452,908.43
1853.298,933.77
1854.146,887.93
1854.993,882.07
1855.839,902.33
1856.687,899.13
1857.532,892.97
1858.380,922.50
1859.226,906.67
1860.073,911.93
1860.919,907.13
1861.765,841.73
1862.612,875.87
1863.457,890.37
1864.304,911.93
1865.150,876.10
1865.995,902.27
1866.842,904.97
1867.686,904.07
1868.533,889.87
1869.378,873.80
1870.223,892.80
1871.069,859.97
1871.914,882.70
1872.760,880.23
1873.604,885.93
1874.448,893.80
1875.294,888.97
1876.139,898.33
1876.984,883.67
1877.828,889.97
1878.672,897.90
1879.518,863.97
1880.361,883.17
1881.205,883.30
1882.050,878.57
1882.894,895.43
1883.739,905.70
1884.582,934.67
1885.425,893.37
1886.270,927.33
1887.113,895.87
1887.956,895.47
1888.801,856.07
1889.644,908.67
1890.486,891.87
1891.331,884.60
1892.173,923.03
1893.017,917.50
1893.860,901.17
1894.702,874.97
1895.546,900.97
1896.388,900.13
1897.230,924.10
1898.074,868.03
1898.916,865.30
1899.757,914.20
1900.601,880.67
1901.443,892.53
1902.284,865.17
1903.125,924.77
1903.969,905.70
1904.810,866.13
1905.651,896.10
1906.494,890.27
1907.335,907.07
1908.176,863.30
1909.018,907.00
1909.859,883.53
1910.700,873.77
1911.542,867.87
1912.383,902.00
1913.223,910.73
1914.064,880.03
1914.906,917.90
1915.746,921.50
1916.586,913.13
1917.428,903.70
1918.268,898.07
1919.107,910.57
1919.947,881.80
1920.789,874.07
1921.628,888.37
1922.468,861.40
1923.309,908.50
1924.148,923.20
1924.988,913.90
1925.827,874.50
1926.667,873.17
1927.507,886.23
1928.345,910.57
1929.184,902.00
1930.025,901.30
1930.864,851.30
1931.702,868.70
1932.541,896.83
1933.381,878.03
1934.219,915.50
1935.057,877.80
1935.896,887.93
1936.735,881.73
1937.573,886.47
1938.411,879.17
1939.249,909.93
1940.089,889.37
1940.927,897.50
1941.764,890.60
1942.602,871.53
1943.439,883.17
1944.278,875.37
1945.115,867.27
1945.953,898.00
1946.790,871.53
1947.628,901.57
1948.465,895.10
1949.302,886.23
1950.139,917.23
1950.976,879.20
1951.814,898.33
1952.651,915.27
1953.487,893.30
1954.323,884.10
1955.160,876.77
1955.998,914.17
1956.834,869.10
1957.670,868.03
1958.506,876.17
1959.342,880.40
1960.177,911.23
1961.015,921.20
1961.850,889.83
1962.686,890.63
1963.521,890.80
1964.357,903.60
1965.192,883.93
1966.029,870.80
1966.864,892.93
1967.699,867.80
1968.534,885.70
1969.369,841.83
1970.204,875.57
1971.040,904.60
1971.875,871.63
1972.709,899.10
1973.544,865.73
1974.378,879.67
1975.212,906.93
1976.047,874.70
1976.882,854.50
1977.716,879.70
1978.550,876.80
1979.384,908.73
1980.218,882.90
1981.052,871.10
1981.885,875.07
1982.719,854.80
1983.554,916.67
1984.388,859.67
1985.221,913.87
1986.054,897.40
1986.887,896.73
1987.720,904.60
1988.553,861.07
1989.386,934.77
1990.219,864.77
1991.053,924.90
1991.886,892.37
1992.719,818.33
1993.551,864.60
1994.383,894.37
1995.216,904.07
1996.048,917.87
1996.880,865.60
1997.712,887.83
1998.544,879.30
1999.376,876.80
2000.208,873.23
2001.040,871.73
2001.873,900.97
2002.705,871.57
2003.536,908.93
2004.367,900.23
2005.199,878.70
2006.030,899.20
2006.861,882.50
2007.692,913.43
2008.523,855.47
2009.354,880.90
2010.185,932.13
2011.016,898.63
2011.846,855.60
2012.677,900.17
2013.507,918.63
2014.338,884.20
2015.168,918.13
2015.999,880.03
2016.829,920.73
2017.659,878.40
2018.489,897.73
2019.319,923.30
2020.149,902.67
2020.980,874.57
2021.810,904.57
2022.639,884.83
2023.469,910.33
2024.298,933.37
2025.128,890.40
2025.957,892.37
2026.786,890.77
2027.615,907.10
2028.444,900.27
2029.273,944.57
2030.102,929.87
2030.931,904.07
2031.758,893.20
2032.586,909.87
2033.415,939.17
2034.243,935.37
2035.072,929.47
2035.900,931.23
2036.728,905.60
2037.556,938.53
2038.385,903.57
2039.213,932.87
2040.040,930.23
2040.868,927.83
2041.696,937.77
2042.524,929.33
2043.351,951.80
2044.179,924.77
2045.006,896.10
2045.006,896.10

Max Intensity Wave.,275.332
Max Intensity Data,5963.90
Min Intensity Wave.,1992.719
Min Intensity Data,818.33
FWHM Wave.,400.152
FWHM Value,1.05
Pressure Wave.,684.671
Pressure Value [GPa],-24.91530
G/D Ratio,0.78366
G/D Gband Wave.,1554.905
G/D Gband Intensity,1004.90
G/D Dband Wave.,1307.972
G/D Dband Intensity,1282.31

<< BACKGROUND SPECTRUM >>
Wave[dcm-1],No532
146.591,2277.00
147.626,2082.00
148.664,2070.00
149.699,2528.00
150.737,2272.00
151.772,2430.00
152.809,2353.00
153.846,2329.00
154.881,2412.00
155.918,1969.00
156.953,2328.00
157.989,2555.00
159.026,2455.00
160.060,2664.00
161.096,2862.00
162.130,2520.00
163.167,2575.00
164.200,2442.00
165.236,2641.00
166.272,2660.00
167.305,2245.00
168.341,2547.00
169.374,2812.00
170.409,2802.00
171.445,2732.00
172.477,2522.00
173.512,2403.00
174.545,2665.00
175.580,2845.00
176.614,2996.00
177.647,2808.00
178.681,3031.00
179.713,3390.00
180.747,2807.00
181.781,2725.00
182.813,3005.00
183.847,3099.00
184.878,2745.00
185.912,3010.00
186.945,3118.00
187.976,3046.00
189.010,2714.00
190.043,2831.00
191.073,2944.00
192.106,2713.00
193.137,3185.00
194.170,2572.00
195.202,2858.00
196.232,2704.00
197.265,2959.00
198.297,3095.00
199.327,2800.00
200.359,2945.00
201.388,3345.00
202.420,2923.00
203.452,3090.00
204.481,2693.00
205.512,3302.00
206.544,3062.00
207.573,3079.00
208.604,3392.00
209.635,3498.00
210.663,2941.00
211.694,2961.00
212.725,2823.00
213.753,2736.00
214.783,3348.00
215.813,3227.00
216.841,2991.00
217.871,3194.00
218.899,2933.00
219.929,3132.00
220.959,2879.00
221.986,3118.00
223.016,2800.00
224.045,3151.00
225.072,3089.00
226.101,3194.00
227.130,3221.00
228.157,2809.00
229.185,2339.00
230.214,3183.00
231.241,2816.00
232.269,2454.00
233.297,2679.00
234.323,3239.00
235.351,2803.00
236.379,3081.00
237.407,2753.00
238.433,3011.00
239.460,3134.00
240.488,3102.00
241.513,3235.00
242.540,3106.00
243.568,3171.00
244.592,3253.00
245.619,3217.00
246.646,2927.00
247.671,2968.00
248.697,2782.00
249.724,3011.00
250.748,3014.00
251.774,3003.00
252.801,3317.00
253.827,3124.00
254.850,3079.00
255.876,2701.00
256.902,3123.00
257.925,2982.00
258.951,2741.00
259.976,2779.00
260.999,3094.00
262.024,2783.00
263.049,3637.00
264.074,3118.00
265.097,3002.00
266.122,3072.00
267.146,3042.00
268.168,3175.00
269.193,2848.00
270.217,3240.00
271.241,2709.00
272.263,2888.00
273.287,3159.00
274.311,2820.00
275.332,3272.00
276.356,2870.00
277.379,3124.00
278.402,3126.00
279.424,2945.00
280.447,2872.00
281.470,2752.00
282.492,3089.00
283.513,2925.00
284.536,3166.00
285.558,3161.00
286.581,3140.00
287.601,2846.00
288.623,2827.00
289.645,3041.00
290.665,3135.00
291.687,3140.00
292.709,3124.00
293.730,3383.00
294.750,2875.00
295.771,2755.00
296.792,3045.00
297.813,2900.00
298.832,3055.00
299.853,2762.00
300.874,2947.00
301.895,2918.00
302.913,2973.00
303.934,3270.00
304.954,3052.00
305.975,3182.00
306.993,2733.00
308.013,3126.00
309.033,3008.00
310.052,2932.00
311.072,2932.00
312.090,3039.00
313.109,3245.00
314.129,3388.00
315.148,3005.00
316.165,3037.00
317.184,3259.00
318.203,2766.00
319.222,2753.00
320.238,3107.00
321.257,2830.00
322.275,2675.00
323.294,3024.00
324.312,3162.00
325.328,3286.00
326.346,3292.00
327.364,3199.00
328.382,3160.00
329.397,3129.00
330.415,3268.00
331.432,3249.00
332.450,3271.00
333.467,3449.00
334.482,2598.00
335.499,3356.00
336.516,2854.00
337.533,2558.00
338.547,2850.00
339.564,2841.00
340.580,3092.00
341.597,2980.00
342.613,3409.00
343.627,2969.00
344.643,3054.00
345.659,3085.00
346.675,3012.00
347.690,2882.00
348.704,3114.00
349.719,2909.00
350.735,2759.00
351.750,3221.00
352.765,2985.00
353.778,3020.00
354.793,3119.00
355.808,2830.00
356.822,3194.00
357.837,2663.00
358.851,3272.00
359.864,2955.00
360.878,2748.00
361.892,2973.00
362.906,3182.00
363.920,2561.00
364.932,3087.00
365.945,3081.00
366.959,3002.00
367.972,2905.00
368.986,2695.00
369.999,3363.00
371.010,2827.00
372.023,3340.00
373.036,2918.00
374.049,3378.00
375.061,3070.00
376.072,2982.00
377.084,2876.00
378.097,2712.00
379.109,3217.00
380.121,3028.00
381.133,2693.00
382.143,3116.00
383.155,2724.00
384.166,2890.00
385.178,3100.00
386.189,3175.00
387.201,2736.00
388.212,2957.00
389.221,2913.00
390.232,3012.00
391.243,2951.00
392.254,3044.00
393.264,2874.00
394.275,3219.00
395.283,3180.00
396.294,3650.00
397.304,3460.00
398.314,3125.00
399.324,3039.00
400.334,2621.00
401.344,3156.00
402.351,2664.00
403.361,3210.00
404.370,2982.00
405.380,2923.00
406.389,3372.00
407.398,3109.00
408.407,3080.00
409.414,3153.00
410.423,3282.00
411.431,2764.00
412.440,2730.00
413.448,3372.00
414.457,2914.00
415.465,2805.00
416.471,2908.00
417.479,3041.00
418.487,2852.00
419.495,3336.00
420.503,3138.00
421.510,2613.00
422.518,3171.00
423.525,3212.00
424.530,3405.00
425.537,2897.00
426.544,3239.00
427.551,2878.00
428.558,3596.00
429.565,3406.00
430.571,2870.00
431.578,2919.00
432.582,2852.00
433.588,2937.00
434.595,2633.00
435.601,3309.00
436.607,3258.00
437.612,2772.00
438.618,3338.00
439.624,2987.00
440.627,2926.00
441.633,3133.00
442.638,3601.00
443.643,3109.00
444.648,3042.00
445.653,3204.00
446.658,2911.00
447.663,3014.00
448.667,2915.00
449.672,2925.00
450.674,2948.00
451.678,2719.00
452.682,2900.00
453.687,2863.00
454.690,3606.00
455.694,3253.00
456.698,2543.00
457.702,2693.00
458.705,2791.00
459.709,2849.00
460.710,2907.00
461.713,2990.00
462.716,3062.00
463.719,3062.00
464.722,3174.00
465.725,2963.00
466.727,2820.00
467.730,3084.00
468.732,2781.00
469.735,3265.00
470.737,2915.00
471.737,2897.00
472.739,2892.00
473.741,2787.00
474.742,3075.00
475.744,3083.00
476.746,2999.00
477.747,2928.00
478.748,3171.00
479.750,2942.00
480.751,3006.00
481.752,3707.00
482.753,3068.00
483.751,3530.00
484.752,2625.00
485.753,2968.00
486.753,2879.00
487.753,2948.00
488.754,3449.00
489.754,2670.00
490.754,3316.00
491.754,3110.00
492.754,2689.00
493.753,3054.00
494.753,2864.00
495.752,3313.00
496.752,3008.00
497.749,2947.00
498.748,2877.00
499.747,3412.00
500.746,3103.00
501.745,2753.00
502.744,2743.00
503.742,3291.00
504.741,2940.00
505.739,2462.00
506.737,2919.00
507.735,3135.00
508.734,3411.00
509.732,3137.00
510.729,3336.00
511.727,2883.00
512.725,2890.00
513.720,2778.00
514.718,3270.00
515.715,2689.00
516.712,2647.00
517.709,3000.00
518.706,2888.00
519.703,3092.00
520.700,3218.00
521.696,3303.00
522.693,2920.00
523.689,2840.00
524.686,3168.00
525.682,2812.00
526.678,3458.00
527.674,2900.00
528.670,2632.00
529.666,3485.00
530.661,3465.00
531.657,3168.00
532.652,3137.00
533.648,3001.00
534.641,3214.00
535.636,3002.00
536.631,3097.00
537.626,3159.00
538.621,2739.00
539.616,2592.00
540.610,2521.00
541.605,2991.00
542.599,3067.00
543.593,2974.00
544.587,3900.00
545.581,2882.00
546.575,3046.00
547.569,3023.00
548.563,2709.00
549.557,2701.00
550.550,2752.00
551.543,2792.00
552.537,3098.00
553.530,2795.00
554.523,2774.00
555.516,3128.00
556.509,2944.00
557.502,2652.00
558.494,3198.00
559.487,2909.00
560.479,3173.00
561.472,3212.00
562.464,3113.00
563.456,3261.00
564.448,2943.00
565.440,2943.00
566.432,3389.00
567.423,2927.00
568.415,2850.00
569.404,3102.00
570.396,2794.00
571.387,3111.00
572.378,3058.00
573.369,3996.00
574.360,3685.00
575.351,2953.00
576.341,2799.00
577.332,2884.00
578.323,2689.00
579.313,2910.00
580.303,3251.00
581.293,3122.00
582.283,2985.00
583.273,3138.00
584.263,2988.00
585.253,3115.00
586.243,3149.00
587.232,2650.00
588.222,2977.00
589.211,3165.00
590.200,3050.00
591.189,2931.00
592.178,2957.00
593.167,3399.00
594.156,3246.00
595.145,2892.00
596.133,3447.00
597.122,3131.00
598.110,3195.00
599.098,3029.00
600.086,3053.00
601.074,3183.00
602.062,2838.00
603.050,2755.00
604.038,3098.00
605.025,2786.00
606.013,3202.00
607.000,3368.00
607.987,3075.00
608.975,3065.00
609.962,2780.00
610.949,3113.00
611.936,3220.00
612.922,3166.00
613.909,2691.00
614.895,3365.00
615.882,2874.00
616.868,2997.00
617.854,2717.00
618.841,2991.00
619.826,3098.00
620.812,3033.00
621.798,2815.00
622.784,3166.00
623.769,3087.00
624.755,2721.00
625.740,3046.00
626.725,2718.00
627.711,2873.00
628.698,3087.00
629.683,2811.00
630.667,3192.00
631.652,2732.00
632.637,2987.00
633.621,3174.00
634.606,2911.00
635.590,3137.00
636.574,2965.00
637.558,3086.00
638.542,3037.00
639.526,2827.00
640.510,2663.00
641.493,3051.00
642.477,2973.00
643.460,2687.00
644.444,3242.00
645.427,3263.00
646.410,2639.00
647.393,2959.00
648.376,3047.00
649.359,2905.00
650.341,3098.00
651.324,3110.00
652.307,3055.00
653.289,2942.00
654.271,2838.00
655.253,2920.00
656.235,3105.00
657.217,3218.00
658.199,2649.00
659.181,2741.00
660.163,2988.00
661.144,2883.00
662.126,2892.00
663.107,2790.00
664.088,6195.00
665.069,3260.00
666.050,2830.00
667.033,2753.00
668.014,3068.00
668.995,2615.00
669.975,3045.00
670.956,2968.00
671.936,3151.00
672.916,2973.00
673.896,3098.00
674.876,2874.00
675.856,2876.00
676.836,2738.00
677.816,2299.00
678.795,2809.00
679.775,2709.00
680.754,3017.00
681.734,3124.00
682.713,3175.00
683.692,2763.00
684.671,2635.00
685.650,2779.00
686.629,2848.00
687.607,2766.00
688.586,2803.00
689.564,2835.00
690.543,3227.00
691.523,2361.00
692.501,2840.00
693.479,2923.00
694.457,2787.00
695.435,2883.00
696.413,2659.00
697.390,2497.00
698.368,2706.00
699.345,3118.00
700.322,2962.00
701.300,3099.00
702.277,3034.00
703.254,3224.00
704.231,2593.00
705.207,2952.00
706.184,2747.00
707.161,2665.00
708.137,2804.00
709.113,2871.00
710.090,2793.00
711.068,2563.00
712.044,2606.00
713.020,2869.00
713.996,2611.00
714.971,2790.00
715.947,2875.00
716.922,2804.00
717.898,2742.00
718.873,2931.00
719.848,2724.00
720.823,2686.00
721.798,3001.00
722.773,2801.00
723.748,2559.00
724.723,3032.00
725.697,2853.00
726.672,2762.00
727.646,2503.00
728.622,2999.00
729.596,2629.00
730.570,2731.00
731.544,3053.00
732.518,3290.00
733.492,2799.00
734.466,2883.00
735.439,3010.00
736.413,3146.00
737.386,2473.00
738.359,2454.00
739.332,2523.00
740.305,2853.00
741.278,3301.00
742.251,2950.00
743.224,2737.00
744.196,2558.00
745.171,3131.00
746.143,3015.00
747.115,2792.00
748.087,2695.00
749.059,3092.00
750.031,2898.00
751.003,3766.00
751.975,3280.00
752.947,2694.00
753.918,3096.00
754.890,2584.00
755.861,2780.00
756.832,3061.00
757.803,2812.00
758.774,2812.00
759.747,2624.00
760.718,3165.00
761.689,2698.00
762.659,2597.00
763.630,3165.00
764.600,2568.00
765.570,3039.00
766.540,3136.00
767.510,2946.00
768.480,3042.00
769.450,2688.00
770.420,2806.00
771.390,2657.00
772.359,2752.00
773.329,2641.00
774.300,2500.00
775.269,2765.00
776.238,3018.00
777.207,3149.00
778.176,2534.00
779.145,2805.00
780.114,2710.00
781.083,2572.00
782.051,2750.00
783.019,2685.00
783.988,3139.00
784.956,2840.00
785.924,3000.00
786.894,2861.00
787.862,2750.00
788.830,3107.00
789.797,2621.00
790.765,2597.00
791.732,2758.00
792.700,2624.00
793.667,2626.00
794.634,2747.00
795.601,2730.00
796.568,2805.00
797.535,2833.00
798.502,3441.00
799.468,2907.00
800.437,2380.00
801.403,2659.00
802.370,3242.00
803.336,3006.00
804.302,2870.00
805.268,2441.00
806.234,2531.00
807.200,2744.00
808.166,2777.00
809.131,2552.00
810.097,3003.00
811.062,3671.00
812.027,3017.00
812.994,2615.00
813.960,2609.00
814.925,2935.00
815.889,2546.00
816.854,2998.00
817.819,2666.00
818.783,2742.00
819.748,3103.00
820.712,2716.00
821.677,2664.00
822.641,2729.00
823.605,2664.00
824.571,3131.00
825.534,2737.00
826.498,2661.00
827.462,2786.00
828.425,2612.00
829.389,3067.00
830.352,2814.00
831.315,2927.00
832.279,2497.00
833.242,2765.00
834.204,2655.00
835.167,2633.00
836.132,3063.00
837.095,2531.00
838.057,2735.00
839.020,2807.00
839.982,2858.00
840.944,2682.00
841.906,2610.00
842.868,2971.00
843.830,2554.00
844.792,3045.00
845.753,2688.00
846.715,2452.00
847.679,2602.00
848.640,2600.00
849.601,2738.00
850.562,3236.00
851.523,2709.00
852.484,2465.00
853.445,2992.00
854.406,2732.00
855.367,2693.00
856.327,3074.00
857.288,2494.00
858.248,2653.00
859.210,2728.00
860.170,2550.00
861.130,3001.00
862.090,2468.00
863.050,2602.00
864.010,2692.00
864.969,2881.00
865.929,2575.00
866.888,2548.00
867.848,2832.00
868.807,2661.00
869.766,2851.00
870.727,2715.00
871.686,3012.00
872.645,2972.00
873.604,3294.00
874.562,2763.00
875.521,2782.00
876.479,3388.00
877.437,2564.00
878.396,2589.00
879.354,3178.00
880.312,2613.00
881.270,2676.00
882.229,3096.00
883.187,2630.00
884.145,2689.00
885.102,2958.00
886.059,2877.00
887.017,2892.00
887.974,2973.00
888.931,3043.00
889.888,2520.00
890.845,2442.00
891.802,2332.00
892.758,2614.00
893.717,2434.00
894.673,2580.00
895.630,2609.00
896.586,2893.00
897.542,2677.00
898.498,2513.00
899.454,2868.00
900.410,2666.00
901.366,2682.00
902.321,2654.00
903.277,2699.00
904.232,2748.00
905.189,2461.00
906.145,2708.00
907.100,2205.00
908.055,2723.00
909.010,2917.00
909.965,2323.00
910.919,2816.00
911.874,2591.00
912.828,2771.00
913.783,2783.00
914.737,2386.00
915.693,2728.00
916.648,2902.00
917.602,2959.00
918.555,2779.00
919.509,2844.00
920.463,2765.00
921.417,2761.00
922.370,2602.00
923.324,2698.00
924.277,2660.00
925.230,2771.00
926.183,2419.00
927.138,2720.00
928.091,2964.00
929.044,2833.00
929.996,2659.00
930.949,2658.00
931.902,2869.00
932.854,2845.00
933.806,2562.00
934.758,2986.00
935.711,2933.00
936.663,2846.00
937.614,2782.00
938.568,2768.00
939.520,2413.00
940.471,2707.00
941.423,2756.00
942.374,2917.00
943.326,2748.00
944.277,2590.00
945.228,2823.00
946.179,2685.00
947.130,3039.00
948.080,2628.00
949.031,2577.00
949.984,2687.00
950.934,2695.00
951.884,2466.00
952.835,2665.00
953.785,2775.00
954.735,2611.00
955.685,2351.00
956.635,2617.00
957.585,2622.00
958.534,2650.00
959.484,2731.00
960.433,2623.00
961.383,2471.00
962.334,2952.00
963.283,2845.00
964.232,2831.00
965.181,2735.00
966.130,2775.00
967.079,2636.00
968.027,2718.00
968.976,2771.00
969.924,2622.00
970.873,2818.00
971.821,2744.00
972.769,2972.00
973.719,2842.00
974.667,2500.00
975.615,2725.00
976.562,2736.00
977.510,2432.00
978.458,2617.00
979.405,2816.00
980.352,2770.00
981.300,2940.00
982.247,2781.00
983.194,2550.00
984.141,2632.00
985.088,2745.00
986.036,2817.00
986.983,3038.00
987.930,3169.00
988.876,2345.00
989.822,2970.00
990.769,2546.00
991.715,2620.00
992.661,2454.00
993.607,2823.00
994.553,3273.00
995.498,2577.00
996.444,2324.00
997.389,2788.00
998.337,2526.00
999.282,2854.00
1000.227,2631.00
1001.173,2737.00
1002.118,2464.00
1003.062,2892.00
1004.007,2664.00
1004.952,2963.00
1005.897,2914.00
1006.841,2701.00
1007.786,2460.00
1008.730,2428.00
1009.674,3163.00
1010.618,2657.00
1011.564,2510.00
1012.508,2401.00
1013.452,2908.00
1014.396,2699.00
1015.339,2618.00
1016.283,2677.00
1017.226,2759.00
1018.170,2788.00
1019.113,2883.00
1020.056,2728.00
1020.999,2715.00
1021.942,2630.00
1022.885,2841.00
1023.828,3039.00
1024.770,2524.00
1025.715,2742.00
1026.657,2688.00
1027.600,2739.00
1028.542,2902.00
1029.484,2741.00
1030.426,2873.00
1031.368,2797.00
1032.310,2606.00
1033.251,2537.00
1034.193,2687.00
1035.135,2487.00
1036.076,2615.00
1037.017,2524.00
1037.959,2807.00
1038.900,2794.00
1039.843,2818.00
1040.784,2767.00
1041.725,2797.00
1042.665,2610.00
1043.606,2740.00
1044.547,2761.00
1045.487,2363.00
1046.427,2678.00
1047.368,2789.00
1048.308,2248.00
1049.248,2523.00
1050.188,2694.00
1051.128,2636.00
1052.067,2678.00
1053.007,2408.00
1053.947,2430.00
1054.886,2612.00
1055.827,2501.00
1056.766,2888.00
1057.706,2472.00
1058.645,2653.00
1059.584,2732.00
1060.522,2971.00
1061.461,2465.00
1062.400,2473.00
1063.338,2626.00
1064.277,2537.00
1065.215,2539.00
1066.154,2411.00
1067.092,2586.00
1068.030,2649.00
1068.968,2847.00
1069.906,2995.00
1070.843,2975.00
1071.781,2740.00
1072.720,2831.00
1073.658,2826.00
1074.595,2591.00
1075.533,2562.00
1076.470,2593.00
1077.407,2938.00
1078.344,2777.00
1079.281,2823.00
1080.217,2309.00
1081.154,2678.00
1082.091,2717.00
1083.027,2446.00
1083.964,2886.00
1084.900,2555.00
1085.836,2604.00
1086.772,2907.00
1087.708,2485.00
1088.644,2864.00
1089.580,2695.00
1090.515,2744.00
1091.451,2622.00
1092.388,2695.00
1093.324,2460.00
1094.259,3230.00
1095.194,2740.00
1096.129,2588.00
1097.064,2567.00
1097.999,2824.00
1098.934,2541.00
1099.869,2553.00
1100.803,2725.00
1101.738,2707.00
1102.672,2381.00
1103.607,2827.00
1104.541,2550.00
1105.475,2531.00
1106.409,2414.00
1107.343,2607.00
1108.277,2423.00
1109.210,2745.00
1110.144,2683.00
1111.078,2657.00
1112.011,2450.00
1112.944,2763.00
1113.878,2714.00
1114.811,2191.00
1115.744,2599.00
1116.678,2321.00
1117.611,2566.00
1118.544,2572.00
1119.477,2722.00
1120.409,2538.00
1121.342,3115.00
1122.274,2744.00
1123.206,4256.00
1124.138,2673.00
1125.070,2980.00
1126.002,2866.00
1126.934,2301.00
1127.866,2573.00
1128.798,2322.00
1129.729,2380.00
1130.661,2665.00
1131.592,2602.00
1132.523,2714.00
1133.454,2781.00
1134.385,2320.00
1135.317,2675.00
1136.247,2585.00
1137.178,2853.00
1138.109,2383.00
1139.039,3013.00
1139.970,2831.00
1140.900,2570.00
1141.831,2330.00
1142.761,2214.00
1143.691,2731.00
1144.621,2666.00
1145.551,2681.00
1146.480,2704.00
1147.410,2828.00
1148.340,2346.00
1149.269,2385.00
1150.199,2554.00
1151.128,3068.00
1152.057,2448.00
1152.979,2585.00
1153.898,2638.00
1154.819,2693.00
1155.739,2660.00
1156.658,2528.00
1157.579,2682.00
1158.498,2620.00
1159.419,2178.00
1160.338,2668.00
1161.256,2656.00
1162.177,2484.00
1163.095,2612.00
1164.016,2673.00
1164.934,2897.00
1165.852,2853.00
1166.772,2637.00
1167.690,2664.00
1168.610,2707.00
1169.528,2638.00
1170.446,2191.00
1171.365,2574.00
1172.283,2508.00
1173.202,2670.00
1174.120,2717.00
1175.037,2467.00
1175.956,2472.00
1176.873,2512.00
1177.792,2517.00
1178.709,3119.00
1179.626,2511.00
1180.544,2816.00
1181.461,2536.00
1182.379,2738.00
1183.296,2655.00
1184.212,2311.00
1185.130,2473.00
1186.046,2996.00
1186.962,2621.00
1187.880,2931.00
1188.796,2654.00
1189.714,2443.00
1190.629,2780.00
1191.545,2654.00
1192.462,2566.00
1193.378,2604.00
1194.295,2331.00
1195.210,2653.00
1196.125,2749.00
1197.042,2713.00
1197.957,2653.00
1198.872,2526.00
1199.788,2542.00
1200.703,2951.00
1201.619,2642.00
1202.534,2514.00
1203.448,2728.00
1204.364,2561.00
1205.278,2303.00
1206.192,2660.00
1207.108,3089.00
1208.022,2977.00
1208.938,2467.00
1209.851,2807.00
1210.765,2825.00
1211.680,2538.00
1212.594,2427.00
1213.507,2574.00
1214.422,3035.00
1215.335,2754.00
1216.248,2577.00
1217.163,2627.00
1218.076,3232.00
1218.990,2771.00
1219.903,2421.00
1220.816,2442.00
1221.730,2590.00
1222.642,2472.00
1223.554,2558.00
1224.469,2727.00
1225.380,2545.00
1226.292,2317.00
1227.206,2785.00
1228.118,2965.00
1229.032,2270.00
1229.943,2519.00
1230.855,2591.00
1231.768,2374.00
1232.679,2743.00
1233.590,2569.00
1234.503,2847.00
1235.414,2511.00
1236.325,2500.00
1237.238,2687.00
1238.149,2714.00
1239.059,2454.00
1239.972,2815.00
1240.882,2473.00
1241.793,2758.00
1242.705,2989.00
1243.615,2596.00
1244.525,2723.00
1245.437,2182.00
1246.347,2653.00
1247.259,2779.00
1248.168,3080.00
1249.078,2887.00
1249.989,2917.00
1250.899,2450.00
1251.808,2482.00
1252.719,2565.00
1253.628,2494.00
1254.537,3027.00
1255.448,2477.00
1256.357,2424.00
1257.266,2611.00
1258.176,2385.00
1259.085,2371.00
1259.993,2459.00
1260.904,2460.00
1261.812,2462.00
1262.720,3191.00
1263.630,2782.00
1264.538,2495.00
1265.446,2729.00
1266.356,2613.00
1267.263,2919.00
1268.171,2412.00
1269.080,2675.00
1269.988,2795.00
1270.895,2547.00
1271.804,2571.00
1272.711,2789.00
1273.619,2770.00
1274.527,2406.00
1275.434,2747.00
1276.341,2423.00
1277.248,2674.00
1278.156,2925.00
1279.063,2480.00
1279.969,2722.00
1280.877,3491.00
1281.783,2832.00
1282.690,2690.00
1283.598,2616.00
1284.503,2493.00
1285.409,2466.00
1286.317,3025.00
1287.223,3009.00
1288.128,2684.00
1289.036,2511.00
1289.941,2565.00
1290.846,2655.00
1291.751,2491.00
1292.658,2505.00
1293.563,3079.00
1294.468,2643.00
1295.375,2751.00
1296.280,2914.00
1297.184,3326.00
1298.091,2699.00
1298.995,2802.00
1299.900,2971.00
1300.806,2529.00
1301.710,2393.00
1302.614,2230.00
1303.518,2897.00
1304.424,2574.00
1305.327,2835.00
1306.231,2618.00
1307.137,2776.00
1308.040,2646.00
1308.943,2668.00
1309.847,2842.00
1310.752,2793.00
1311.655,2300.00
1312.558,2432.00
1313.463,2569.00
1314.366,2524.00
1315.269,2658.00
1316.171,2637.00
1317.076,2520.00
1317.978,2462.00
1318.881,2268.00
1319.785,2509.00
1320.687,2538.00
1321.589,2245.00
1322.491,2473.00
1323.395,2716.00
1324.297,3167.00
1325.198,2756.00
1326.102,2446.00
1327.004,2474.00
1327.905,3036.00
1328.806,2615.00
1329.709,2717.00
1330.611,2525.00
1331.512,2444.00
1332.413,3096.00
1333.316,2647.00
1334.216,2807.00
1335.117,2355.00
1336.020,2689.00
1336.920,2640.00
1337.821,2478.00
1338.721,2895.00
1339.623,2663.00
1340.523,2579.00
1341.423,2488.00
1342.323,2901.00
1343.225,2666.00
1344.125,2466.00
1345.025,2503.00
1345.924,2321.00
1346.826,2954.00
1347.725,3044.00
1348.624,2840.00
1349.524,2523.00
1350.425,2567.00
1351.324,2724.00
1352.223,2817.00
1353.121,2585.00
1354.022,2815.00
1354.921,3046.00
1355.819,2709.00
1356.718,2675.00
1357.618,2366.00
1358.516,2735.00
1359.415,3028.00
1360.313,2699.00
1361.213,2551.00
1362.111,2900.00
1363.008,3219.00
1363.906,2608.00
1364.806,2606.00
1365.703,2730.00
1366.601,2457.00
1367.498,2490.00
1368.397,2812.00
1369.295,2708.00
1370.192,2481.00
1371.089,2723.00
1371.987,2620.00
1372.884,2865.00
1373.781,2424.00
1374.678,2610.00
1375.574,2439.00
1376.473,2756.00
1377.369,2847.00
1378.265,2461.00
1379.161,2592.00
1380.059,2338.00
1380.955,2729.00
1381.851,2419.00
1382.747,2522.00
1383.643,2537.00
1384.540,2440.00
1385.436,2538.00
1386.331,2678.00
1387.227,2813.00
1388.124,2719.00
1389.019,2452.00
1389.914,2592.00
1390.809,2276.00
1391.704,3039.00
1392.601,2590.00
1393.495,2932.00
1394.390,2836.00
1395.285,2884.00
1396.179,2667.00
1397.075,2601.00
1397.969,2688.00
1398.864,2348.00
1399.758,2597.00
1400.652,2682.00
1401.547,2467.00
1402.441,2408.00
1403.335,3012.00
1404.229,2707.00
1405.122,2725.00
1406.017,2642.00
1406.911,2788.00
1407.804,3048.00
1408.697,2647.00
1409.590,2486.00
1410.485,2784.00
1411.378,2720.00
1412.271,2305.00
1413.163,2683.00
1414.056,2816.00
1414.949,3008.00
1415.843,2684.00
1416.735,2587.00
1417.627,2647.00
1418.520,2568.00
1419.412,2841.00
1420.306,2776.00
1421.197,2907.00
1422.089,2835.00
1422.981,3101.00
1423.873,2803.00
1424.764,2740.00
1425.657,2650.00
1426.549,2775.00
1427.440,2858.00
1428.331,2571.00
1429.222,2352.00
1430.113,2641.00
1431.006,2819.00
1431.897,2541.00
1432.787,2622.00
1433.678,2580.00
1434.568,2463.00
1435.459,2858.00
1436.351,2795.00
1437.241,2792.00
1438.131,2773.00
1439.021,2403.00
1439.911,2596.00
1440.801,2674.00
1441.693,2933.00
1442.583,2627.00
1443.472,2622.00
1444.362,2745.00
1445.251,2581.00
1446.140,2590.00
1447.030,2830.00
1447.921,2824.00
1448.810,2462.00
1449.699,3019.00
1450.588,2688.00
1451.476,2561.00
1452.365,2765.00
1453.254,2552.00
1454.144,2551.00
1455.032,2768.00
1455.921,2395.00
1456.809,2947.00
1457.697,2421.00
1458.585,2571.00
1459.473,2596.00
1460.361,2507.00
1461.251,2679.00
1462.138,2687.00
1463.026,2610.00
1463.913,2901.00
1464.801,2547.00
1465.688,2751.00
1466.575,2655.00
1467.463,3113.00
1468.351,2502.00
1469.238,2606.00
1470.125,2238.00
1471.012,2707.00
1471.899,2770.00
1472.785,2461.00
1473.672,2621.00
1474.558,2860.00
1475.446,2806.00
1476.333,2789.00
1477.219,2467.00
1478.105,2614.00
1478.991,2617.00
1479.877,2957.00
1480.762,2654.00
1481.648,2510.00
1482.534,2789.00
1483.419,2738.00
1484.307,2746.00
1485.192,2632.00
1486.077,2484.00
1486.962,2510.00
1487.847,2420.00
1488.732,2508.00
1489.617,2648.00
1490.502,2925.00
1491.387,2753.00
1492.271,2501.00
1493.156,2489.00
1494.042,2456.00
1494.927,2875.00
1495.811,2531.00
1496.695,2763.00
1497.579,2922.00
1498.463,2649.00
1499.347,2655.00
1500.231,2675.00
1501.114,2699.00
1501.998,2901.00
1502.881,2682.00
1503.765,2934.00
1504.648,3015.00
1505.533,2735.00
1506.417,2671.00
1507.300,2612.00
1508.183,2716.00
1509.066,2178.00
1509.948,2851.00
1510.831,2983.00
1511.714,2445.00
1512.596,2797.00
1513.479,2865.00
1514.361,2863.00
1515.243,2699.00
1516.125,2842.00
1517.008,2943.00
1517.890,2587.00
1518.771,2706.00
1519.655,2842.00
1520.537,2609.00
1521.419,2494.00
1522.300,2690.00
1523.182,2805.00
1524.063,2768.00
1524.944,2975.00
1525.825,2868.00
1526.707,2480.00
1527.588,2443.00
1528.468,2760.00
1529.349,2307.00
1530.230,2644.00
1531.111,2809.00
1531.991,2727.00
1532.872,2360.00
1533.752,2623.00
1534.632,2557.00
1535.513,2562.00
1536.393,2787.00
1537.273,2949.00
1538.153,3299.00
1539.032,2399.00
1539.912,2665.00
1540.792,2662.00
1541.672,2654.00
1542.551,2775.00
1543.430,3243.00
1544.310,2663.00
1545.189,2581.00
1546.068,3064.00
1546.947,2763.00
1547.826,2986.00
1548.705,2631.00
1549.584,2879.00
1550.462,2605.00
1551.341,2779.00
1552.219,2740.00
1553.098,2783.00
1553.976,2883.00
1554.854,3019.00
1555.733,2863.00
1556.611,2585.00
1557.489,2454.00
1558.367,2643.00
1559.244,2863.00
1560.122,2626.00
1561.000,2711.00
1561.877,2969.00
1562.755,2555.00
1563.632,2634.00
1564.509,2901.00
1565.386,3035.00
1566.264,2422.00
1567.141,2331.00
1568.017,2832.00
1568.894,2678.00
1569.771,2698.00
1570.648,2744.00
1571.524,2674.00
1572.401,2432.00
1573.277,2440.00
1574.153,2725.00
1575.029,2528.00
1575.906,3384.00
1576.781,2849.00
1577.657,2608.00
1578.533,2922.00
1579.409,2304.00
1580.285,2652.00
1581.160,3086.00
1582.036,2789.00
1582.911,2532.00
1583.786,3036.00
1584.662,2497.00
1585.537,2661.00
1586.412,2702.00
1587.287,2533.00
1588.160,2828.00
1589.035,2338.00
1589.909,2662.00
1590.784,2613.00
1591.658,2495.00
1592.533,2729.00
1593.407,2684.00
1594.281,2560.00
1595.155,3042.00
1596.029,2606.00
1596.903,2659.00
1597.777,2593.00
1598.651,2908.00
1599.525,2384.00
1600.398,2684.00
1601.272,2647.00
1602.144,3191.00
1603.017,2625.00
1603.890,2893.00
1604.763,2760.00
1605.636,2798.00
1606.509,2359.00
1607.382,2514.00
1608.255,2735.00
1609.128,2905.00
1610.000,2637.00
1610.873,2366.00
1611.746,2552.00
1612.616,2607.00
1613.488,2254.00
1614.361,2674.00
1615.233,2628.00
1616.105,2861.00
1616.977,2591.00
1617.849,2517.00
1618.720,2969.00
1619.592,2961.00
1620.464,2762.00
1621.333,3090.00
1622.205,2618.00
1623.076,2642.00
1623.947,2682.00
1624.818,2880.00
1625.689,2788.00
1626.560,2573.00
1627.431,2737.00
1628.302,3016.00
1629.171,2780.00
1630.042,2925.00
1630.912,3634.00
1631.782,3250.00
1632.653,2468.00
1633.523,2857.00
1634.393,2902.00
1635.263,2553.00
1636.131,2692.00
1637.001,2597.00
1637.871,2287.00
1638.741,2340.00
1639.611,2439.00
1640.480,2781.00
1641.350,2482.00
1642.219,2486.00
1643.087,2204.00
1643.956,3143.00
1644.825,2935.00
1645.694,2845.00
1646.563,2836.00
1647.432,2764.00
1648.299,2695.00
1649.167,2810.00
1650.036,2475.00
1650.904,2904.00
1651.773,2868.00
1652.641,2690.00
1653.509,2849.00
1654.376,2551.00
1655.244,2696.00
1656.112,2732.00
1656.980,2705.00
1657.847,2543.00
1658.715,2822.00
1659.581,2577.00
1660.448,2908.00
1661.316,2206.00
1662.183,2703.00
1663.051,2733.00
1663.918,2731.00
1664.783,2704.00
1665.650,2793.00
1666.517,2827.00
1667.384,2694.00
1668.251,2718.00
1669.115,2868.00
1669.982,2670.00
1670.849,2943.00
1671.715,2628.00
1672.581,2805.00
1673.446,2788.00
1674.312,2673.00
1675.178,3035.00
1676.044,2744.00
1676.910,2754.00
1677.774,2720.00
1678.639,2366.00
1679.505,2666.00
1680.370,2809.00
1681.236,3340.00
1682.099,2645.00
1682.965,2724.00
1683.830,2268.00
1684.695,2503.00
1685.560,2572.00
1686.423,2811.00
1687.288,2837.00
1688.153,2724.00
1689.017,2614.00
1689.880,2792.00
1690.745,2827.00
1691.609,2531.00
1692.473,2848.00
1693.338,2884.00
1694.200,2929.00
1695.064,2707.00
1695.928,2610.00
1696.792,2737.00
1697.654,3176.00
1698.517,2715.00
1699.381,2390.00
1700.245,2325.00
1701.106,2938.00
1701.969,2588.00
1702.833,2814.00
1703.696,2568.00
1704.557,2671.00
1705.420,2529.00
1706.283,2716.00
1707.146,2812.00
1708.007,2505.00
1708.870,2466.00
1709.732,2387.00
1710.595,2552.00
1711.455,2461.00
1712.318,2575.00
1713.180,2904.00
1714.040,2726.00
1714.902,2852.00
1715.764,2678.00
1716.626,2462.00
1717.486,2641.00
1718.348,2916.00
1719.209,4173.00
1720.071,2365.00
1720.930,2409.00
1721.792,2547.00
1722.653,2596.00
1723.512,2594.00
1724.374,2618.00
1725.234,2731.00
1726.095,2714.00
1726.954,2712.00
1727.815,2812.00
1728.676,2649.00
1729.535,2918.00
1730.395,2617.00
1731.256,2573.00
1732.114,2745.00
1732.974,2179.00
1733.834,3025.00
1734.693,2838.00
1735.553,2702.00
1736.413,3102.00
1737.272,2551.00
1738.130,2611.00
1738.990,2752.00
1739.849,2536.00
1740.707,3625.00
1741.566,2730.00
1742.426,2726.00
1743.283,3065.00
1744.142,2557.00
1745.001,2363.00
1745.858,2884.00
1746.717,2785.00
1747.576,2770.00
1748.433,2847.00
1749.292,3270.00
1750.150,3268.00
1751.007,2874.00
1751.865,2904.00
1752.723,2706.00
1753.579,2608.00
1754.438,2896.00
1755.296,2900.00
1756.152,2281.00
1757.010,2393.00
1757.865,2881.00
1758.723,2357.00
1759.581,3005.00
1760.436,2670.00
1761.294,3074.00
1762.151,2671.00
1763.006,2611.00
1763.864,2347.00
1764.721,2873.00
1765.576,2741.00
1766.433,2827.00
1767.288,2610.00
1768.144,2723.00
1769.001,2670.00
1769.856,2778.00
1770.712,2902.00
1771.568,2509.00
1772.423,2599.00
1773.279,2601.00
1774.133,2596.00
1774.989,3076.00
1775.845,3114.00
1776.699,2939.00
1777.555,2674.00
1778.409,3212.00
1779.265,2629.00
1780.120,2612.00
1780.974,2658.00
1781.829,2280.00
1782.682,2749.00
1783.538,2534.00
1784.393,2724.00
1785.246,2569.00
1786.101,2776.00
1786.954,2818.00
1787.808,2897.00
1788.661,2405.00
1789.516,2638.00
1790.370,2600.00
1791.223,2880.00
1792.077,2707.00
1792.930,2766.00
1793.784,2592.00
1794.636,2729.00
1795.490,2645.00
1796.344,2703.00
1797.196,2664.00
1798.049,2853.00
1798.901,2582.00
1799.755,2927.00
1800.606,2523.00
1801.460,3213.00
1802.311,2962.00
1803.165,3076.00
1804.018,3067.00
1804.869,2787.00
1805.722,3163.00
1806.573,2713.00
1807.426,2528.00
1808.276,2706.00
1809.129,2595.00
1809.980,2902.00
1810.832,2967.00
1811.683,2632.00
1812.535,3025.00
1813.385,2627.00
1814.237,3009.00
1815.089,2738.00
1815.940,2969.00
1816.791,2643.00
1817.641,2582.00
1818.493,2858.00
1819.343,2809.00
1820.194,2563.00
1821.044,2794.00
1821.895,2933.00
1822.745,2453.00
1823.596,2599.00
1824.445,3114.00
1825.296,2773.00
1826.145,2691.00
1826.996,2862.00
1827.845,2723.00
1828.695,2784.00
1829.544,2719.00
1830.395,2735.00
1831.243,2605.00
1832.094,2439.00
1832.942,3268.00
1833.792,2859.00
1834.640,2763.00
1835.490,2714.00
1836.338,2774.00
1837.186,2577.00
1838.036,2550.00
1838.884,2679.00
1839.733,3008.00
1840.581,2904.00
1841.430,2815.00
1842.278,3057.00
1843.127,2590.00
1843.974,2369.00
1844.823,3129.00
1845.671,2831.00
1846.519,2711.00
1847.366,2745.00
1848.213,2366.00
1849.062,2515.00
1849.909,2454.00
1850.757,3386.00
1851.604,2823.00
1852.452,2616.00
1853.298,2854.00
1854.146,2764.00
1854.993,2756.00
1855.839,3202.00
1856.687,2825.00
1857.532,2813.00
1858.380,2680.00
1859.226,2756.00
1860.073,2801.00
1860.919,2547.00
1861.765,2639.00
1862.612,2961.00
1863.457,2937.00
1864.304,2642.00
1865.150,2839.00
1865.995,2683.00
1866.842,2810.00
1867.686,2931.00
1868.533,2777.00
1869.378,2779.00
1870.223,2731.00
1871.069,2652.00
1871.914,2730.00
1872.760,2703.00
1873.604,2511.00
1874.448,2839.00
1875.294,2904.00
1876.139,2580.00
1876.984,2830.00
1877.828,2374.00
1878.672,2218.00
1879.518,2609.00
1880.361,2897.00
1881.205,2864.00
1882.050,2529.00
1882.894,3201.00
1883.739,2570.00
1884.582,2451.00
1885.425,2524.00
1886.270,2910.00
1887.113,2459.00
1887.956,2805.00
1888.801,2798.00
1889.644,2509.00
1890.486,2301.00
1891.331,2646.00
1892.173,2710.00
1893.017,2752.00
1893.860,2990.00
1894.702,3018.00
1895.546,2712.00
1896.388,3385.00
1897.230,3033.00
1898.074,2629.00
1898.916,2532.00
1899.757,2524.00
1900.601,3387.00
1901.443,2990.00
1902.284,3035.00
1903.125,3141.00
1903.969,2892.00
1904.810,2954.00
1905.651,2801.00
1906.494,3027.00
1907.335,3131.00
1908.176,2845.00
1909.018,2781.00
1909.859,2690.00
1910.700,2595.00
1911.542,3251.00
1912.383,2775.00
1913.223,2338.00
1914.064,2864.00
1914.906,2946.00
1915.746,3015.00
1916.586,3159.00
1917.428,2700.00
1918.268,2749.00
1919.107,2597.00
1919.947,2487.00
1920.789,2662.00
1921.628,2969.00
1922.468,2726.00
1923.309,2546.00
1924.148,2991.00
1924.988,2765.00
1925.827,2715.00
1926.667,2625.00
1927.507,2777.00
1928.345,2527.00
1929.184,2871.00
1930.025,2531.00
1930.864,3002.00
1931.702,3043.00
1932.541,2619.00
1933.381,2862.00
1934.219,2850.00
1935.057,3024.00
1935.896,2435.00
1936.735,2698.00
1937.573,2640.00
1938.411,2548.00
1939.249,2872.00
1940.089,2614.00
1940.927,2968.00
1941.764,2997.00
1942.602,2656.00
1943.439,2629.00
1944.278,2712.00
1945.115,2680.00
1945.953,2463.00
1946.790,2820.00
1947.628,3066.00
1948.465,2825.00
1949.302,2876.00
1950.139,2826.00
1950.976,2617.00
1951.814,2873.00
1952.651,2766.00
1953.487,2533.00
1954.323,2980.00
1955.160,2723.00
1955.998,3046.00
1956.834,2752.00
1957.670,2818.00
1958.506,2965.00
1959.342,2835.00
1960.177,2757.00
1961.015,2824.00
1961.850,2764.00
1962.686,2771.00
1963.521,2783.00
1964.357,2986.00
1965.192,2524.00
1966.029,2896.00
1966.864,2646.00
1967.699,2967.00
1968.534,2765.00
1969.369,3056.00
1970.204,2712.00
1971.040,2760.00
1971.875,2686.00
1972.709,2754.00
1973.544,2593.00
1974.378,2628.00
1975.212,2817.00
1976.047,2637.00
1976.882,2637.00
1977.716,3126.00
1978.550,2460.00
1979.384,2667.00
1980.218,2702.00
1981.052,2690.00
1981.885,2776.00
1982.719,2765.00
1983.554,2866.00
1984.388,3052.00
1985.221,2788.00
1986.054,2977.00
1986.887,2775.00
1987.720,2585.00
1988.553,3077.00
1989.386,2777.00
1990.219,2898.00
1991.053,3002.00
1991.886,2606.00
1992.719,3003.00
1993.551,2303.00
1994.383,2880.00
1995.216,2640.00
1996.048,2433.00
1996.880,2922.00
1997.712,2630.00
1998.544,2764.00
1999.376,2837.00
2000.208,3034.00
2001.040,3193.00
2001.873,2556.00
2002.705,2589.00
2003.536,2775.00
2004.367,2785.00
2005.199,2794.00
2006.030,2608.00
2006.861,2559.00
2007.692,2746.00
2008.523,2642.00
2009.354,2789.00
2010.185,2508.00
2011.016,2887.00
2011.846,2980.00
2012.677,2677.00
2013.507,3059.00
2014.338,2976.00
2015.168,2650.00
2015.999,3272.00
2016.829,2670.00
2017.659,2975.00
2018.489,3265.00
2019.319,2545.00
2020.149,2929.00
2020.980,2800.00
2021.810,2555.00
2022.639,2638.00
2023.469,2622.00
2024.298,2411.00
2025.128,2384.00
2025.957,2383.00
2026.786,2216.00
2027.615,2408.00
2028.444,2606.00
2029.273,2733.00
2030.102,2342.00
2030.931,2605.00
2031.758,2893.00
2032.586,2541.00
2033.415,2587.00
2034.243,2209.00
2035.072,2022.00
2035.900,2494.00
2036.728,2334.00
2037.556,2343.00
2038.385,2406.00
2039.213,2184.00
2040.040,2173.00
2040.868,2148.00
2041.696,2199.00
2042.524,2213.00
2043.351,2381.00
2044.179,2210.00
2045.006,2029.00
