RamanScope Measure Spectrum Data V3.72

<< MEASURE CONDITION >>
Exposure Type,Aver
Exposure Time [sec],15
Exposure Count,4
Measure Time,2023/07/15 15:12:06
Data Name,""
Data Comment,""
Rayleigh Wave[nm],532.0

<< SAMPLE SPECTRUM >>
Wave[dcm-1],No130
146.591,235.00
147.626,288.25
148.664,340.25
149.699,326.75
150.737,404.00
151.772,452.25
152.809,483.00
153.846,509.00
154.881,565.00
155.918,585.50
156.953,583.50
157.989,609.25
159.026,708.25
160.060,734.25
161.096,688.75
162.130,722.50
163.167,737.00
164.200,720.75
165.236,800.75
166.272,778.00
167.305,766.75
168.341,802.75
169.374,796.00
170.409,844.00
171.445,871.00
172.477,864.00
173.512,872.25
174.545,875.75
175.580,935.75
176.614,906.25
177.647,935.50
178.681,958.25
179.713,946.75
180.747,939.00
181.781,940.25
182.813,909.75
183.847,904.25
184.878,929.50
185.912,931.00
186.945,940.00
187.976,902.00
189.010,880.00
190.043,901.75
191.073,924.25
192.106,949.50
193.137,976.50
194.170,1009.00
195.202,1002.00
196.232,988.00
197.265,1012.00
198.297,1072.50
199.327,1071.75
200.359,1094.75
201.388,1169.75
202.420,1186.00
203.452,1227.25
204.481,1239.00
205.512,1300.25
206.544,1391.75
207.573,1489.25
208.604,1563.50
209.635,1589.50
210.663,1729.25
211.694,1854.50
212.725,1939.00
213.753,2099.75
214.783,2277.50
215.813,2363.25
216.841,2527.00
217.871,2587.50
218.899,2672.25
219.929,2793.00
220.959,2757.00
221.986,2737.75
223.016,2661.00
224.045,2604.50
225.072,2481.00
226.101,2352.75
227.130,2220.25
228.157,2097.00
229.185,1940.50
230.214,1862.75
231.241,1703.75
232.269,1664.75
233.297,1589.50
234.323,1539.25
235.351,1489.25
236.379,1478.75
237.407,1399.25
238.433,1405.25
239.460,1365.50
240.488,1361.25
241.513,1375.00
242.540,1362.50
243.568,1355.25
244.592,1312.75
245.619,1321.50
246.646,1302.25
247.671,1383.00
248.697,1367.50
249.724,1335.75
250.748,1316.00
251.774,1368.25
252.801,1355.50
253.827,1369.00
254.850,1405.75
255.876,1370.75
256.902,1412.25
257.925,1421.50
258.951,1454.25
259.976,1461.50
260.999,1462.75
262.024,1502.50
263.049,1558.25
264.074,1612.50
265.097,1617.00
266.122,1624.00
267.146,1712.50
268.168,1703.50
269.193,1799.75
270.217,1845.75
271.241,1870.00
272.263,1927.50
273.287,1927.75
274.311,1954.50
275.332,2024.25
276.356,2028.75
277.379,2034.25
278.402,2101.25
279.424,2042.25
280.447,2079.00
281.470,2072.00
282.492,2070.50
283.513,2058.00
284.536,2086.75
285.558,2033.00
286.581,1963.25
287.601,1944.25
288.623,1906.25
289.645,1860.75
290.665,1818.75
291.687,1791.25
292.709,1747.25
293.730,1666.75
294.750,1627.00
295.771,1618.00
296.792,1534.25
297.813,1528.00
298.832,1459.25
299.853,1360.25
300.874,1373.75
301.895,1337.00
302.913,1260.50
303.934,1235.50
304.954,1233.75
305.975,1151.00
306.993,1102.50
308.013,1130.75
309.033,1108.00
310.052,1081.75
311.072,1099.75
312.090,1051.75
313.109,1025.00
314.129,1020.50
315.148,1022.50
316.165,1008.25
317.184,1003.25
318.203,936.25
319.222,950.50
320.238,969.75
321.257,931.75
322.275,884.75
323.294,932.75
324.312,915.50
325.328,887.00
326.346,898.00
327.364,836.50
328.382,874.50
329.397,853.50
330.415,915.75
331.432,856.50
332.450,864.50
333.467,876.00
334.482,862.50
335.499,846.75
336.516,831.75
337.533,878.75
338.547,844.75
339.564,848.25
340.580,862.75
341.597,827.00
342.613,837.00
343.627,824.50
344.643,829.00
345.659,867.25
346.675,848.25
347.690,834.25
348.704,816.50
349.719,837.75
350.735,839.25
351.750,858.50
352.765,841.75
353.778,813.75
354.793,813.00
355.808,856.50
356.822,873.75
357.837,822.00
358.851,838.50
359.864,864.25
360.878,884.75
361.892,814.75
362.906,888.50
363.920,863.00
364.932,917.00
365.945,927.25
366.959,916.00
367.972,897.50
368.986,930.75
369.999,906.50
371.010,883.75
372.023,908.00
373.036,895.25
374.049,914.75
375.061,916.25
376.072,942.50
377.084,973.25
378.097,971.50
379.109,976.75
380.121,969.75
381.133,981.00
382.143,979.00
383.155,980.25
384.166,1018.50
385.178,1016.25
386.189,1021.50
387.201,1034.25
388.212,1008.25
389.221,1058.50
390.232,1007.75
391.243,980.50
392.254,1009.50
393.264,1064.75
394.275,1038.75
395.283,977.00
396.294,1074.50
397.304,1038.25
398.314,1095.25
399.324,1037.75
400.334,990.50
401.344,1001.25
402.351,985.00
403.361,1002.00
404.370,980.00
405.380,965.25
406.389,904.00
407.398,921.50
408.407,971.50
409.414,945.50
410.423,922.75
411.431,859.50
412.440,889.75
413.448,865.00
414.457,823.50
415.465,805.00
416.471,772.50
417.479,820.00
418.487,795.75
419.495,823.25
420.503,826.50
421.510,799.25
422.518,764.50
423.525,776.75
424.530,809.00
425.537,800.50
426.544,802.00
427.551,708.50
428.558,768.00
429.565,736.50
430.571,738.25
431.578,757.50
432.582,748.50
433.588,722.25
434.595,761.50
435.601,726.25
436.607,723.75
437.612,766.75
438.618,744.75
439.624,706.25
440.627,684.75
441.633,712.25
442.638,746.75
443.643,743.00
444.648,741.00
445.653,690.75
446.658,696.75
447.663,714.50
448.667,694.50
449.672,765.25
450.674,716.00
451.678,724.00
452.682,700.25
453.687,683.50
454.690,746.50
455.694,738.50
456.698,738.50
457.702,713.00
458.705,693.25
459.709,765.00
460.710,703.75
461.713,769.50
462.716,761.75
463.719,766.00
464.722,744.25
465.725,754.00
466.727,759.25
467.730,728.00
468.732,792.00
469.735,789.25
470.737,758.75
471.737,779.75
472.739,738.25
473.741,774.75
474.742,761.00
475.744,774.75
476.746,777.25
477.747,792.25
478.748,740.75
479.750,754.25
480.751,767.75
481.752,764.75
482.753,828.75
483.751,738.00
484.752,745.75
485.753,766.00
486.753,797.00
487.753,801.00
488.754,773.00
489.754,743.75
490.754,797.00
491.754,811.25
492.754,765.75
493.753,782.00
494.753,778.00
495.752,756.00
496.752,763.75
497.749,773.25
498.748,789.75
499.747,799.25
500.746,710.50
501.745,757.00
502.744,740.00
503.742,800.25
504.741,736.75
505.739,742.25
506.737,790.50
507.735,754.50
508.734,729.25
509.732,713.25
510.729,726.00
511.727,750.25
512.725,737.75
513.720,747.00
514.718,744.00
515.715,712.75
516.712,768.75
517.709,698.25
518.706,701.75
519.703,719.25
520.700,715.25
521.696,752.00
522.693,737.00
523.689,706.50
524.686,725.25
525.682,724.00
526.678,689.50
527.674,708.75
528.670,778.75
529.666,708.75
530.661,740.00
531.657,1263.75
532.652,725.25
533.648,700.75
534.641,708.00
535.636,766.75
536.631,700.00
537.626,716.75
538.621,697.25
539.616,702.50
540.610,702.00
541.605,713.00
542.599,706.25
543.593,724.75
544.587,644.75
545.581,752.50
546.575,724.25
547.569,720.75
548.563,738.00
549.557,700.00
550.550,684.75
551.543,701.00
552.537,750.25
553.530,732.50
554.523,722.25
555.516,701.75
556.509,710.25
557.502,785.00
558.494,753.50
559.487,750.75
560.479,767.75
561.472,761.00
562.464,768.50
563.456,754.00
564.448,815.00
565.440,780.00
566.432,788.00
567.423,788.75
568.415,745.25
569.404,779.75
570.396,767.25
571.387,804.50
572.378,804.00
573.369,829.25
574.360,840.50
575.351,839.25
576.341,813.25
577.332,813.25
578.323,787.75
579.313,858.50
580.303,837.50
581.293,810.00
582.283,852.00
583.273,821.00
584.263,825.25
585.253,880.75
586.243,846.50
587.232,817.75
588.222,854.25
589.211,839.50
590.200,867.75
591.189,802.25
592.178,829.25
593.167,877.00
594.156,898.00
595.145,804.00
596.133,885.50
597.122,833.00
598.110,852.25
599.098,870.00
600.086,790.25
601.074,854.50
602.062,814.75
603.050,805.00
604.038,768.50
605.025,779.25
606.013,813.50
607.000,802.50
607.987,760.75
608.975,790.25
609.962,772.25
610.949,767.75
611.936,743.50
612.922,765.50
613.909,728.25
614.895,760.75
615.882,744.25
616.868,747.00
617.854,716.25
618.841,693.75
619.826,763.00
620.812,685.75
621.798,669.25
622.784,706.25
623.769,706.25
624.755,680.50
625.740,659.75
626.725,684.00
627.711,707.50
628.698,653.75
629.683,711.75
630.667,650.00
631.652,675.25
632.637,660.00
633.621,660.75
634.606,669.00
635.590,688.75
636.574,656.75
637.558,718.50
638.542,659.50
639.526,686.50
640.510,634.25
641.493,658.50
642.477,686.25
643.460,663.50
644.444,664.50
645.427,650.00
646.410,663.25
647.393,594.75
648.376,647.75
649.359,629.75
650.341,642.50
651.324,633.75
652.307,597.25
653.289,607.75
654.271,625.00
655.253,634.25
656.235,606.00
657.217,661.00
658.199,624.00
659.181,591.50
660.163,604.25
661.144,638.25
662.126,595.50
663.107,589.75
664.088,649.25
665.069,600.75
666.050,605.25
667.033,605.50
668.014,561.75
668.995,576.25
669.975,576.50
670.956,599.50
671.936,580.50
672.916,572.25
673.896,600.25
674.876,606.00
675.856,553.50
676.836,595.00
677.816,565.25
678.795,568.00
679.775,555.25
680.754,590.75
681.734,585.50
682.713,551.75
683.692,573.75
684.671,569.25
685.650,569.50
686.629,563.75
687.607,565.00
688.586,549.75
689.564,532.00
690.543,543.75
691.523,539.75
692.501,531.25
693.479,561.50
694.457,541.25
695.435,561.75
696.413,526.00
697.390,559.50
698.368,511.50
699.345,509.00
700.322,549.00
701.300,525.50
702.277,507.75
703.254,535.50
704.231,526.25
705.207,531.00
706.184,501.50
707.161,545.50
708.137,533.75
709.113,558.75
710.090,519.00
711.068,487.50
712.044,482.75
713.020,511.75
713.996,525.00
714.971,553.50
715.947,543.50
716.922,559.75
717.898,521.00
718.873,511.25
719.848,517.50
720.823,559.00
721.798,525.25
722.773,498.00
723.748,503.00
724.723,531.25
725.697,511.50
726.672,500.75
727.646,516.75
728.622,501.75
729.596,494.75
730.570,519.25
731.544,518.25
732.518,492.00
733.492,494.00
734.466,555.25
735.439,486.00
736.413,512.75
737.386,507.00
738.359,484.50
739.332,525.25
740.305,484.50
741.278,509.75
742.251,563.25
743.224,475.75
744.196,502.25
745.171,468.75
746.143,550.00
747.115,521.75
748.087,478.25
749.059,439.25
750.031,490.25
751.003,568.50
751.975,534.00
752.947,527.00
753.918,477.25
754.890,466.25
755.861,512.75
756.832,470.25
757.803,510.25
758.774,473.00
759.747,494.25
760.718,534.00
761.689,477.00
762.659,463.25
763.630,506.25
764.600,499.50
765.570,508.00
766.540,514.50
767.510,522.25
768.480,503.75
769.450,496.75
770.420,490.75
771.390,460.00
772.359,498.00
773.329,472.00
774.300,493.25
775.269,496.50
776.238,505.50
777.207,496.75
778.176,465.25
779.145,476.75
780.114,488.50
781.083,439.50
782.051,491.50
783.019,508.50
783.988,482.75
784.956,493.50
785.924,461.50
786.894,501.50
787.862,465.75
788.830,479.00
789.797,467.50
790.765,457.25
791.732,475.25
792.700,506.25
793.667,447.50
794.634,495.00
795.601,425.25
796.568,510.00
797.535,473.00
798.502,478.50
799.468,474.50
800.437,438.00
801.403,454.25
802.370,499.25
803.336,459.75
804.302,476.75
805.268,463.75
806.234,441.25
807.200,454.25
808.166,496.00
809.131,487.75
810.097,465.25
811.062,446.00
812.027,476.00
812.994,461.75
813.960,421.00
814.925,475.75
815.889,457.50
816.854,504.75
817.819,451.75
818.783,445.50
819.748,466.00
820.712,413.75
821.677,461.00
822.641,434.00
823.605,464.75
824.571,452.50
825.534,439.75
826.498,453.50
827.462,480.75
828.425,429.00
829.389,472.75
830.352,461.00
831.315,472.25
832.279,452.25
833.242,448.75
834.204,471.00
835.167,448.75
836.132,420.25
837.095,466.25
838.057,452.25
839.020,443.00
839.982,445.75
840.944,434.50
841.906,478.25
842.868,445.75
843.830,427.50
844.792,471.00
845.753,481.25
846.715,433.00
847.679,440.25
848.640,419.25
849.601,468.25
850.562,424.75
851.523,422.00
852.484,395.25
853.445,457.00
854.406,434.00
855.367,415.50
856.327,446.25
857.288,453.25
858.248,430.50
859.210,471.50
860.170,423.50
861.130,423.75
862.090,395.25
863.050,464.50
864.010,439.00
864.969,473.75
865.929,400.25
866.888,443.75
867.848,438.25
868.807,412.75
869.766,432.00
870.727,467.25
871.686,469.00
872.645,511.25
873.604,480.00
874.562,485.25
875.521,437.75
876.479,445.75
877.437,432.75
878.396,435.25
879.354,472.75
880.312,440.00
881.270,433.50
882.229,481.25
883.187,429.50
884.145,442.00
885.102,414.00
886.059,442.25
887.017,382.50
887.974,443.00
888.931,472.00
889.888,394.75
890.845,428.25
891.802,430.75
892.758,405.50
893.717,398.75
894.673,451.00
895.630,454.50
896.586,432.00
897.542,409.50
898.498,402.75
899.454,472.25
900.410,445.25
901.366,423.50
902.321,455.50
903.277,447.00
904.232,394.00
905.189,413.00
906.145,447.75
907.100,377.50
908.055,399.50
909.010,431.25
909.965,410.25
910.919,442.00
911.874,441.75
912.828,428.75
913.783,466.75
914.737,434.50
915.693,415.50
916.648,464.25
917.602,421.25
918.555,417.00
919.509,426.75
920.463,439.75
921.417,437.00
922.370,457.00
923.324,405.50
924.277,427.75
925.230,429.50
926.183,427.50
927.138,428.75
928.091,446.50
929.044,449.00
929.996,401.50
930.949,427.00
931.902,407.00
932.854,428.25
933.806,432.25
934.758,437.50
935.711,446.50
936.663,437.00
937.614,359.25
938.568,391.00
939.520,415.50
940.471,438.00
941.423,405.75
942.374,428.00
943.326,385.75
944.277,437.50
945.228,429.00
946.179,409.75
947.130,447.50
948.080,412.75
949.031,383.75
949.984,439.00
950.934,419.00
951.884,406.25
952.835,432.00
953.785,415.00
954.735,473.25
955.685,407.50
956.635,413.75
957.585,402.50
958.534,410.50
959.484,376.75
960.433,419.50
961.383,403.75
962.334,405.25
963.283,410.00
964.232,414.75
965.181,414.00
966.130,422.00
967.079,419.00
968.027,420.50
968.976,426.00
969.924,398.75
970.873,416.50
971.821,417.25
972.769,461.50
973.719,401.50
974.667,384.75
975.615,419.75
976.562,407.50
977.510,433.75
978.458,402.50
979.405,412.00
980.352,434.00
981.300,445.50
982.247,392.00
983.194,418.75
984.141,439.50
985.088,441.25
986.036,416.00
986.983,392.50
987.930,438.00
988.876,413.00
989.822,437.00
990.769,437.50
991.715,400.50
992.661,434.50
993.607,398.25
994.553,415.50
995.498,437.75
996.444,431.75
997.389,388.50
998.337,406.00
999.282,485.50
1000.227,432.00
1001.173,419.25
1002.118,399.00
1003.062,440.50
1004.007,443.25
1004.952,407.50
1005.897,436.50
1006.841,472.50
1007.786,396.50
1008.730,425.25
1009.674,436.50
1010.618,453.50
1011.564,424.75
1012.508,406.50
1013.452,440.00
1014.396,439.75
1015.339,485.50
1016.283,419.50
1017.226,354.50
1018.170,454.50
1019.113,445.25
1020.056,409.25
1020.999,394.00
1021.942,412.25
1022.885,450.25
1023.828,424.00
1024.770,389.00
1025.715,419.75
1026.657,443.00
1027.600,434.75
1028.542,465.25
1029.484,465.50
1030.426,467.75
1031.368,424.75
1032.310,441.25
1033.251,445.25
1034.193,416.75
1035.135,428.00
1036.076,459.75
1037.017,465.75
1037.959,419.75
1038.900,432.75
1039.843,451.25
1040.784,474.25
1041.725,429.75
1042.665,466.50
1043.606,434.00
1044.547,431.75
1045.487,418.25
1046.427,433.25
1047.368,437.25
1048.308,433.25
1049.248,441.00
1050.188,409.25
1051.128,434.00
1052.067,445.25
1053.007,456.25
1053.947,442.75
1054.886,413.00
1055.827,414.00
1056.766,429.00
1057.706,419.25
1058.645,358.00
1059.584,431.75
1060.522,449.50
1061.461,410.75
1062.400,415.50
1063.338,417.75
1064.277,452.50
1065.215,435.75
1066.154,404.75
1067.092,447.50
1068.030,450.50
1068.968,450.50
1069.906,446.75
1070.843,454.25
1071.781,413.25
1072.720,454.25
1073.658,458.50
1074.595,483.75
1075.533,429.00
1076.470,454.25
1077.407,489.00
1078.344,431.00
1079.281,441.25
1080.217,458.50
1081.154,418.75
1082.091,439.25
1083.027,425.25
1083.964,421.25
1084.900,455.00
1085.836,422.25
1086.772,413.00
1087.708,426.50
1088.644,437.50
1089.580,456.25
1090.515,440.00
1091.451,414.00
1092.388,414.25
1093.324,424.25
1094.259,430.75
1095.194,476.50
1096.129,440.00
1097.064,429.75
1097.999,457.75
1098.934,441.00
1099.869,447.00
1100.803,447.25
1101.738,451.00
1102.672,465.75
1103.607,424.25
1104.541,414.25
1105.475,451.00
1106.409,450.50
1107.343,424.00
1108.277,403.00
1109.210,442.25
1110.144,432.50
1111.078,420.50
1112.011,435.75
1112.944,443.25
1113.878,418.50
1114.811,447.25
1115.744,446.50
1116.678,431.75
1117.611,453.00
1118.544,455.50
1119.477,424.75
1120.409,420.25
1121.342,443.75
1122.274,481.75
1123.206,1669.75
1124.138,497.50
1125.070,442.25
1126.002,441.00
1126.934,428.75
1127.866,430.00
1128.798,490.50
1129.729,480.75
1130.661,467.50
1131.592,442.00
1132.523,445.50
1133.454,443.50
1134.385,463.00
1135.317,425.25
1136.247,444.25
1137.178,408.50
1138.109,417.50
1139.039,422.75
1139.970,492.25
1140.900,424.00
1141.831,447.75
1142.761,424.50
1143.691,476.75
1144.621,440.50
1145.551,420.75
1146.480,447.00
1147.410,445.00
1148.340,448.00
1149.269,422.50
1150.199,464.25
1151.128,448.50
1152.057,446.00
1152.979,429.50
1153.898,468.00
1154.819,419.00
1155.739,459.00
1156.658,454.50
1157.579,459.50
1158.498,460.25
1159.419,427.25
1160.338,440.50
1161.256,472.25
1162.177,423.50
1163.095,502.75
1164.016,458.25
1164.934,472.25
1165.852,438.75
1166.772,450.50
1167.690,442.25
1168.610,499.00
1169.528,459.00
1170.446,454.75
1171.365,481.50
1172.283,453.50
1173.202,464.50
1174.120,463.50
1175.037,471.50
1175.956,476.00
1176.873,428.50
1177.792,454.50
1178.709,487.00
1179.626,481.00
1180.544,440.50
1181.461,467.25
1182.379,464.25
1183.296,466.50
1184.212,440.50
1185.130,455.75
1186.046,484.25
1186.962,487.75
1187.880,504.00
1188.796,434.50
1189.714,458.75
1190.629,518.75
1191.545,456.00
1192.462,465.75
1193.378,508.00
1194.295,518.00
1195.210,481.75
1196.125,477.50
1197.042,486.00
1197.957,497.75
1198.872,449.50
1199.788,459.00
1200.703,512.75
1201.619,465.50
1202.534,498.00
1203.448,445.25
1204.364,496.75
1205.278,476.25
1206.192,486.25
1207.108,512.75
1208.022,537.00
1208.938,513.00
1209.851,459.00
1210.765,486.00
1211.680,540.00
1212.594,523.25
1213.507,477.75
1214.422,505.00
1215.335,525.50
1216.248,489.75
1217.163,520.00
1218.076,516.25
1218.990,514.75
1219.903,486.50
1220.816,493.00
1221.730,523.75
1222.642,497.00
1223.554,546.25
1224.469,512.75
1225.380,518.50
1226.292,499.00
1227.206,550.50
1228.118,510.25
1229.032,514.25
1229.943,526.25
1230.855,510.75
1231.768,554.75
1232.679,534.25
1233.590,536.75
1234.503,555.75
1235.414,503.00
1236.325,503.00
1237.238,529.25
1238.149,572.50
1239.059,539.75
1239.972,547.25
1240.882,520.75
1241.793,578.00
1242.705,608.25
1243.615,556.25
1244.525,558.25
1245.437,529.75
1246.347,593.00
1247.259,563.00
1248.168,583.25
1249.078,620.00
1249.989,591.50
1250.899,568.50
1251.808,547.25
1252.719,551.75
1253.628,614.25
1254.537,572.50
1255.448,559.50
1256.357,553.00
1257.266,594.75
1258.176,578.00
1259.085,578.50
1259.993,598.50
1260.904,601.50
1261.812,577.75
1262.720,632.25
1263.630,578.75
1264.538,621.75
1265.446,631.50
1266.356,568.00
1267.263,559.00
1268.171,609.25
1269.080,617.00
1269.988,591.50
1270.895,574.50
1271.804,607.00
1272.711,593.00
1273.619,618.00
1274.527,599.75
1275.434,596.75
1276.341,552.25
1277.248,560.25
1278.156,622.75
1279.063,571.75
1279.969,611.00
1280.877,635.25
1281.783,593.75
1282.690,620.00
1283.598,588.25
1284.503,611.00
1285.409,625.25
1286.317,601.00
1287.223,577.75
1288.128,634.75
1289.036,612.50
1289.941,604.25
1290.846,578.00
1291.751,583.00
1292.658,611.75
1293.563,601.50
1294.468,660.00
1295.375,602.75
1296.280,581.50
1297.184,611.25
1298.091,564.00
1298.995,561.25
1299.900,565.00
1300.806,589.75
1301.710,564.00
1302.614,582.50
1303.518,549.00
1304.424,580.75
1305.327,583.00
1306.231,560.75
1307.137,572.75
1308.040,558.25
1308.943,576.25
1309.847,587.50
1310.752,544.50
1311.655,549.25
1312.558,537.25
1313.463,529.50
1314.366,567.25
1315.269,551.50
1316.171,555.00
1317.076,507.75
1317.978,500.75
1318.881,474.50
1319.785,495.50
1320.687,521.75
1321.589,513.25
1322.491,525.00
1323.395,523.00
1324.297,527.75
1325.198,515.50
1326.102,500.00
1327.004,523.50
1327.905,510.50
1328.806,498.25
1329.709,506.75
1330.611,470.75
1331.512,521.00
1332.413,546.75
1333.316,511.25
1334.216,482.25
1335.117,464.00
1336.020,521.25
1336.920,476.00
1337.821,486.00
1338.721,478.25
1339.623,502.75
1340.523,443.25
1341.423,452.25
1342.323,468.25
1343.225,463.00
1344.125,456.50
1345.025,440.75
1345.924,464.00
1346.826,470.75
1347.725,460.25
1348.624,477.50
1349.524,437.75
1350.425,451.25
1351.324,402.75
1352.223,441.00
1353.121,454.50
1354.022,455.75
1354.921,458.75
1355.819,428.75
1356.718,461.50
1357.618,421.25
1358.516,408.00
1359.415,398.50
1360.313,408.25
1361.213,405.75
1362.111,431.25
1363.008,455.50
1363.906,456.50
1364.806,388.00
1365.703,419.00
1366.601,414.00
1367.498,372.25
1368.397,438.50
1369.295,407.75
1370.192,410.50
1371.089,427.00
1371.987,396.00
1372.884,421.25
1373.781,436.75
1374.678,356.50
1375.574,424.25
1376.473,382.00
1377.369,385.75
1378.265,406.00
1379.161,390.50
1380.059,439.00
1380.955,412.50
1381.851,355.00
1382.747,361.25
1383.643,388.75
1384.540,385.25
1385.436,379.25
1386.331,352.75
1387.227,361.25
1388.124,399.75
1389.019,374.75
1389.914,359.00
1390.809,370.25
1391.704,406.00
1392.601,375.00
1393.495,367.25
1394.390,360.50
1395.285,372.25
1396.179,397.00
1397.075,388.50
1397.969,323.00
1398.864,359.00
1399.758,371.75
1400.652,331.50
1401.547,370.50
1402.441,335.25
1403.335,344.50
1404.229,351.50
1405.122,334.50
1406.017,343.25
1406.911,368.25
1407.804,383.75
1408.697,299.50
1409.590,360.50
1410.485,346.00
1411.378,364.75
1412.271,312.00
1413.163,342.25
1414.056,374.25
1414.949,356.00
1415.843,352.00
1416.735,356.75
1417.627,361.75
1418.520,342.00
1419.412,363.75
1420.306,345.75
1421.197,342.00
1422.089,339.50
1422.981,366.75
1423.873,299.00
1424.764,375.25
1425.657,354.75
1426.549,385.50
1427.440,338.25
1428.331,334.50
1429.222,325.25
1430.113,354.00
1431.006,335.50
1431.897,343.75
1432.787,354.50
1433.678,324.75
1434.568,309.75
1435.459,343.75
1436.351,331.00
1437.241,327.25
1438.131,366.25
1439.021,1011.25
1439.911,327.00
1440.801,308.25
1441.693,352.00
1442.583,356.25
1443.472,304.75
1444.362,301.50
1445.251,290.00
1446.140,44.25
1447.030,325.25
1447.921,356.25
1448.810,314.75
1449.699,362.00
1450.588,327.25
1451.476,307.00
1452.365,309.00
1453.254,298.75
1454.144,340.25
1455.032,339.00
1455.921,304.50
1456.809,313.50
1457.697,331.25
1458.585,294.50
1459.473,304.75
1460.361,314.00
1461.251,332.75
1462.138,315.75
1463.026,314.25
1463.913,322.25
1464.801,292.50
1465.688,315.00
1466.575,349.75
1467.463,344.00
1468.351,316.25
1469.238,303.50
1470.125,304.25
1471.012,314.00
1471.899,335.50
1472.785,314.00
1473.672,320.00
1474.558,319.00
1475.446,282.75
1476.333,304.25
1477.219,266.50
1478.105,286.25
1478.991,299.75
1479.877,333.25
1480.762,308.75
1481.648,286.50
1482.534,359.25
1483.419,302.00
1484.307,284.25
1485.192,338.00
1486.077,286.25
1486.962,322.75
1487.847,269.50
1488.732,274.50
1489.617,306.75
1490.502,278.75
1491.387,283.00
1492.271,291.50
1493.156,298.25
1494.042,270.50
1494.927,329.00
1495.811,309.25
1496.695,324.50
1497.579,301.25
1498.463,266.00
1499.347,323.50
1500.231,276.00
1501.114,323.75
1501.998,306.75
1502.881,262.75
1503.765,301.75
1504.648,330.50
1505.533,280.25
1506.417,293.00
1507.300,276.00
1508.183,253.00
1509.066,242.75
1509.948,288.50
1510.831,340.50
1511.714,294.50
1512.596,282.25
1513.479,294.50
1514.361,285.50
1515.243,287.50
1516.125,260.00
1517.008,303.00
1517.890,277.25
1518.771,330.50
1519.655,291.25
1520.537,276.25
1521.419,274.50
1522.300,254.75
1523.182,292.50
1524.063,319.25
1524.944,295.00
1525.825,266.75
1526.707,303.25
1527.588,290.25
1528.468,270.25
1529.349,279.25
1530.230,325.75
1531.111,304.00
1531.991,279.75
1532.872,280.75
1533.752,250.50
1534.632,295.00
1535.513,266.25
1536.393,279.00
1537.273,290.50
1538.153,260.25
1539.032,264.50
1539.912,280.75
1540.792,269.25
1541.672,320.75
1542.551,287.50
1543.430,349.75
1544.310,292.00
1545.189,273.00
1546.068,325.00
1546.947,311.50
1547.826,280.25
1548.705,318.25
1549.584,335.25
1550.462,261.00
1551.341,243.00
1552.219,316.50
1553.098,251.00
1553.976,278.75
1554.854,305.25
1555.733,287.50
1556.611,284.25
1557.489,265.00
1558.367,268.00
1559.244,256.75
1560.122,258.25
1561.000,283.00
1561.877,301.00
1562.755,265.50
1563.632,268.25
1564.509,303.50
1565.386,291.25
1566.264,296.75
1567.141,278.50
1568.017,277.25
1568.894,267.25
1569.771,284.25
1570.648,257.50
1571.524,269.50
1572.401,246.25
1573.277,287.50
1574.153,288.00
1575.029,259.25
1575.906,343.75
1576.781,259.25
1577.657,270.75
1578.533,298.50
1579.409,276.25
1580.285,254.25
1581.160,280.25
1582.036,247.00
1582.911,277.25
1583.786,268.25
1584.662,240.00
1585.537,266.00
1586.412,312.75
1587.287,243.25
1588.160,285.75
1589.035,271.75
1589.909,274.50
1590.784,257.00
1591.658,257.50
1592.533,284.00
1593.407,241.00
1594.281,286.75
1595.155,250.50
1596.029,273.50
1596.903,236.50
1597.777,302.75
1598.651,273.75
1599.525,241.25
1600.398,256.75
1601.272,281.50
1602.144,269.00
1603.017,217.00
1603.890,312.00
1604.763,270.25
1605.636,308.75
1606.509,262.00
1607.382,243.75
1608.255,274.50
1609.128,258.25
1610.000,294.00
1610.873,263.75
1611.746,306.25
1612.616,264.50
1613.488,278.25
1614.361,259.25
1615.233,278.00
1616.105,272.00
1616.977,261.25
1617.849,249.50
1618.720,293.00
1619.592,256.50
1620.464,259.75
1621.333,274.25
1622.205,293.75
1623.076,265.25
1623.947,319.75
1624.818,299.75
1625.689,261.25
1626.560,287.00
1627.431,245.00
1628.302,275.25
1629.171,319.25
1630.042,272.00
1630.912,-71.00
1631.782,264.75
1632.653,246.75
1633.523,285.25
1634.393,285.75
1635.263,273.50
1636.131,248.00
1637.001,298.75
1637.871,230.00
1638.741,232.25
1639.611,261.75
1640.480,260.00
1641.350,255.75
1642.219,268.50
1643.087,255.75
1643.956,301.00
1644.825,281.75
1645.694,241.00
1646.563,247.25
1647.432,262.00
1648.299,283.50
1649.167,278.25
1650.036,269.75
1650.904,273.75
1651.773,254.25
1652.641,245.75
1653.509,293.00
1654.376,248.00
1655.244,284.50
1656.112,283.75
1656.980,255.50
1657.847,246.50
1658.715,281.50
1659.581,263.50
1660.448,188.75
1661.316,268.75
1662.183,274.50
1663.051,246.00
1663.918,271.25
1664.783,265.75
1665.650,252.00
1666.517,296.00
1667.384,266.25
1668.251,260.75
1669.115,279.00
1669.982,293.75
1670.849,250.00
1671.715,232.75
1672.581,254.50
1673.446,325.75
1674.312,274.00
1675.178,281.50
1676.044,233.25
1676.910,240.50
1677.774,267.75
1678.639,223.25
1679.505,248.00
1680.370,278.25
1681.236,238.25
1682.099,261.75
1682.965,258.00
1683.830,270.75
1684.695,241.75
1685.560,276.25
1686.423,248.00
1687.288,269.75
1688.153,264.75
1689.017,235.25
1689.880,289.00
1690.745,263.75
1691.609,225.00
1692.473,296.00
1693.338,260.00
1694.200,273.50
1695.064,267.75
1695.928,254.00
1696.792,242.00
1697.654,285.50
1698.517,261.50
1699.381,226.25
1700.245,274.75
1701.106,237.50
1701.969,243.50
1702.833,266.00
1703.696,278.25
1704.557,228.00
1705.420,258.25
1706.283,259.50
1707.146,259.25
1708.007,276.25
1708.870,253.75
1709.732,261.00
1710.595,246.00
1711.455,246.25
1712.318,242.75
1713.180,285.00
1714.040,286.25
1714.902,297.25
1715.764,237.50
1716.626,242.50
1717.486,280.25
1718.348,277.50
1719.209,311.00
1720.071,264.25
1720.930,223.75
1721.792,250.75
1722.653,273.25
1723.512,277.75
1724.374,237.25
1725.234,235.00
1726.095,243.75
1726.954,244.50
1727.815,235.00
1728.676,267.00
1729.535,229.25
1730.395,271.25
1731.256,260.00
1732.114,211.25
1732.974,215.00
1733.834,315.75
1734.693,279.75
1735.553,287.25
1736.413,249.00
1737.272,228.75
1738.130,262.75
1738.990,292.75
1739.849,246.25
1740.707,283.75
1741.566,259.50
1742.426,260.50
1743.283,268.50
1744.142,268.75
1745.001,232.25
1745.858,228.25
1746.717,281.75
1747.576,272.50
1748.433,244.25
1749.292,263.75
1750.150,295.50
1751.007,286.00
1751.865,232.50
1752.723,231.50
1753.579,266.25
1754.438,254.50
1755.296,268.75
1756.152,246.50
1757.010,231.25
1757.865,285.25
1758.723,235.25
1759.581,267.00
1760.436,263.50
1761.294,294.00
1762.151,221.25
1763.006,246.00
1763.864,282.50
1764.721,315.25
1765.576,239.75
1766.433,266.25
1767.288,244.50
1768.144,245.50
1769.001,254.25
1769.856,207.25
1770.712,287.75
1771.568,253.25
1772.423,286.75
1773.279,271.75
1774.133,235.25
1774.989,283.00
1775.845,240.75
1776.699,228.00
1777.555,279.50
1778.409,269.50
1779.265,261.25
1780.120,243.25
1780.974,303.50
1781.829,252.25
1782.682,252.25
1783.538,243.25
1784.393,253.75
1785.246,249.75
1786.101,290.00
1786.954,232.00
1787.808,240.00
1788.661,244.50
1789.516,254.50
1790.370,275.25
1791.223,279.25
1792.077,254.75
1792.930,307.50
1793.784,256.50
1794.636,234.00
1795.490,268.25
1796.344,273.00
1797.196,236.75
1798.049,290.25
1798.901,282.50
1799.755,287.25
1800.606,251.00
1801.460,279.25
1802.311,249.25
1803.165,297.25
1804.018,223.00
1804.869,270.00
1805.722,265.00
1806.573,245.25
1807.426,283.00
1808.276,277.50
1809.129,249.75
1809.980,238.50
1810.832,326.00
1811.683,269.50
1812.535,307.25
1813.385,253.75
1814.237,241.50
1815.089,265.25
1815.940,265.75
1816.791,248.25
1817.641,242.75
1818.493,243.50
1819.343,281.00
1820.194,240.25
1821.044,267.25
1821.895,261.00
1822.745,224.50
1823.596,250.00
1824.445,218.75
1825.296,288.00
1826.145,265.00
1826.996,308.75
1827.845,299.25
1828.695,245.00
1829.544,268.25
1830.395,243.50
1831.243,251.50
1832.094,236.75
1832.942,293.50
1833.792,231.25
1834.640,234.50
1835.490,281.50
1836.338,273.00
1837.186,244.25
1838.036,285.25
1838.884,258.25
1839.733,265.75
1840.581,241.75
1841.430,269.00
1842.278,248.00
1843.127,250.25
1843.974,273.50
1844.823,292.00
1845.671,270.50
1846.519,237.50
1847.366,325.00
1848.213,241.75
1849.062,254.25
1849.909,258.50
1850.757,273.50
1851.604,280.25
1852.452,274.00
1853.298,262.75
1854.146,248.25
1854.993,237.25
1855.839,284.75
1856.687,226.25
1857.532,214.75
1858.380,240.00
1859.226,252.00
1860.073,259.50
1860.919,211.25
1861.765,268.25
1862.612,285.50
1863.457,238.25
1864.304,232.50
1865.150,194.00
1865.995,286.25
1866.842,254.50
1867.686,244.00
1868.533,237.25
1869.378,264.25
1870.223,257.25
1871.069,266.75
1871.914,261.25
1872.760,279.00
1873.604,249.25
1874.448,247.00
1875.294,226.75
1876.139,249.00
1876.984,247.25
1877.828,233.50
1878.672,239.75
1879.518,271.25
1880.361,267.50
1881.205,287.25
1882.050,266.50
1882.894,251.25
1883.739,265.25
1884.582,259.75
1885.425,280.75
1886.270,211.25
1887.113,231.00
1887.956,251.75
1888.801,282.75
1889.644,226.25
1890.486,239.00
1891.331,231.50
1892.173,251.00
1893.017,245.25
1893.860,264.50
1894.702,282.25
1895.546,228.25
1896.388,228.25
1897.230,228.25
1898.074,221.50
1898.916,235.75
1899.757,225.00
1900.601,263.75
1901.443,246.25
1902.284,236.75
1903.125,307.25
1903.969,262.50
1904.810,234.00
1905.651,239.00
1906.494,239.25
1907.335,258.25
1908.176,266.50
1909.018,255.50
1909.859,273.50
1910.700,262.75
1911.542,266.00
1912.383,319.50
1913.223,227.25
1914.064,203.25
1914.906,270.00
1915.746,270.50
1916.586,279.50
1917.428,249.75
1918.268,252.75
1919.107,319.00
1919.947,267.50
1920.789,249.75
1921.628,241.75
1922.468,212.75
1923.309,243.50
1924.148,222.50
1924.988,232.75
1925.827,288.50
1926.667,263.50
1927.507,273.50
1928.345,232.75
1929.184,267.00
1930.025,255.00
1930.864,291.25
1931.702,282.25
1932.541,255.00
1933.381,228.75
1934.219,289.00
1935.057,271.25
1935.896,213.75
1936.735,260.50
1937.573,273.75
1938.411,238.50
1939.249,221.25
1940.089,183.75
1940.927,240.50
1941.764,261.00
1942.602,245.00
1943.439,255.75
1944.278,241.50
1945.115,233.50
1945.953,245.50
1946.790,263.00
1947.628,305.00
1948.465,239.50
1949.302,324.75
1950.139,253.50
1950.976,228.50
1951.814,263.50
1952.651,211.25
1953.487,236.00
1954.323,255.75
1955.160,234.25
1955.998,264.25
1956.834,301.00
1957.670,245.75
1958.506,245.00
1959.342,273.50
1960.177,231.00
1961.015,316.25
1961.850,276.00
1962.686,277.50
1963.521,226.25
1964.357,228.75
1965.192,235.00
1966.029,248.25
1966.864,224.25
1967.699,214.00
1968.534,286.25
1969.369,246.75
1970.204,262.25
1971.040,232.75
1971.875,244.25
1972.709,266.25
1973.544,237.00
1974.378,248.25
1975.212,273.00
1976.047,238.75
1976.882,275.50
1977.716,279.50
1978.550,182.50
1979.384,209.50
1980.218,240.00
1981.052,233.50
1981.885,241.75
1982.719,244.50
1983.554,242.50
1984.388,258.50
1985.221,263.75
1986.054,289.00
1986.887,269.25
1987.720,270.00
1988.553,280.50
1989.386,250.00
1990.219,302.25
1991.053,256.75
1991.886,247.25
1992.719,273.50
1993.551,256.50
1994.383,242.25
1995.216,264.75
1996.048,242.00
1996.880,284.50
1997.712,255.75
1998.544,208.00
1999.376,240.00
2000.208,242.75
2001.040,283.50
2001.873,288.00
2002.705,275.50
2003.536,279.00
2004.367,286.00
2005.199,245.50
2006.030,260.75
2006.861,289.00
2007.692,229.25
2008.523,251.25
2009.354,246.50
2010.185,239.75
2011.016,233.50
2011.846,232.25
2012.677,293.50
2013.507,261.00
2014.338,242.25
2015.168,270.75
2015.999,270.75
2016.829,240.75
2017.659,282.25
2018.489,303.50
2019.319,251.25
2020.149,295.75
2020.980,278.75
2021.810,258.25
2022.639,260.75
2023.469,240.75
2024.298,241.25
2025.128,223.75
2025.957,253.75
2026.786,260.00
2027.615,268.75
2028.444,264.00
2029.273,276.75
2030.102,270.75
2030.931,266.75
2031.758,232.25
2032.586,249.50
2033.415,245.25
2034.243,260.25
2035.072,224.25
2035.900,255.50
2036.728,276.50
2037.556,276.00
2038.385,247.75
2039.213,273.00
2040.040,230.25
2040.868,290.50
2041.696,290.75
2042.524,271.00
2043.351,238.25
2044.179,251.50
2045.006,263.25
2045.006,263.25

Max Intensity Wave.,219.929
Max Intensity Data,2793.00
Min Intensity Wave.,1630.912
Min Intensity Data,-71.00
FWHM Wave.,531.650
FWHM Value,1.02
Pressure Wave.,1123.209
Pressure Value [GPa],3847.86357
G/D Ratio,0.59308
G/D Gband Wave.,1543.447
G/D Gband Intensity,349.77
G/D Dband Wave.,1300.806
G/D Dband Intensity,589.75

<< BACKGROUND SPECTRUM >>
Wave[dcm-1],No130
146.591,2304.00
147.626,2131.00
148.664,2067.00
149.699,2608.00
150.737,2302.00
151.772,2441.00
152.809,2419.00
153.846,2351.00
154.881,2432.00
155.918,2008.00
156.953,2347.00
157.989,2695.00
159.026,2467.00
160.060,2657.00
161.096,2968.00
162.130,2538.00
163.167,2614.00
164.200,2515.00
165.236,2671.00
166.272,2736.00
167.305,2304.00
168.341,2581.00
169.374,2854.00
170.409,2851.00
171.445,2753.00
172.477,2561.00
173.512,2435.00
174.545,2729.00
175.580,2914.00
176.614,3122.00
177.647,2887.00
178.681,3130.00
179.713,3402.00
180.747,2880.00
181.781,2757.00
182.813,3094.00
183.847,3152.00
184.878,2773.00
185.912,3016.00
186.945,3195.00
187.976,3144.00
189.010,2805.00
190.043,2923.00
191.073,2988.00
192.106,2782.00
193.137,3256.00
194.170,2602.00
195.202,2975.00
196.232,2788.00
197.265,3072.00
198.297,3133.00
199.327,2832.00
200.359,3022.00
201.388,3384.00
202.420,2973.00
203.452,3182.00
204.481,2781.00
205.512,3416.00
206.544,3153.00
207.573,3103.00
208.604,3453.00
209.635,3634.00
210.663,2989.00
211.694,3014.00
212.725,2926.00
213.753,2862.00
214.783,3444.00
215.813,3334.00
216.841,3045.00
217.871,3225.00
218.899,2985.00
219.929,3180.00
220.959,2965.00
221.986,3202.00
223.016,2807.00
224.045,3203.00
225.072,3209.00
226.101,3286.00
227.130,3324.00
228.157,2879.00
229.185,2383.00
230.214,3238.00
231.241,2912.00
232.269,2497.00
233.297,2734.00
234.323,3306.00
235.351,2876.00
236.379,3132.00
237.407,2815.00
238.433,2989.00
239.460,3185.00
240.488,3188.00
241.513,3256.00
242.540,3159.00
243.568,3258.00
244.592,3298.00
245.619,3292.00
246.646,2996.00
247.671,2963.00
248.697,2816.00
249.724,3076.00
250.748,3077.00
251.774,3041.00
252.801,3347.00
253.827,3165.00
254.850,3137.00
255.876,2762.00
256.902,3186.00
257.925,3051.00
258.951,2763.00
259.976,2843.00
260.999,3176.00
262.024,2864.00
263.049,3739.00
264.074,3162.00
265.097,3086.00
266.122,3180.00
267.146,3073.00
268.168,3314.00
269.193,2905.00
270.217,3288.00
271.241,2761.00
272.263,2914.00
273.287,3252.00
274.311,2846.00
275.332,3361.00
276.356,2934.00
277.379,3200.00
278.402,3169.00
279.424,3044.00
280.447,2966.00
281.470,2800.00
282.492,3141.00
283.513,2954.00
284.536,3212.00
285.558,3201.00
286.581,3225.00
287.601,2939.00
288.623,2877.00
289.645,3160.00
290.665,3226.00
291.687,3214.00
292.709,3166.00
293.730,3483.00
294.750,2972.00
295.771,2781.00
296.792,3141.00
297.813,2969.00
298.832,3090.00
299.853,2828.00
300.874,3059.00
301.895,3019.00
302.913,3063.00
303.934,3357.00
304.954,3080.00
305.975,3270.00
306.993,2818.00
308.013,3178.00
309.033,3063.00
310.052,2985.00
311.072,2908.00
312.090,3101.00
313.109,3341.00
314.129,3470.00
315.148,3030.00
316.165,3100.00
317.184,3295.00
318.203,2799.00
319.222,2792.00
320.238,3180.00
321.257,2861.00
322.275,2762.00
323.294,3018.00
324.312,3176.00
325.328,3345.00
326.346,3350.00
327.364,3336.00
328.382,3221.00
329.397,3224.00
330.415,3259.00
331.432,3300.00
332.450,3325.00
333.467,3530.00
334.482,2620.00
335.499,3439.00
336.516,2957.00
337.533,2586.00
338.547,2881.00
339.564,2888.00
340.580,3155.00
341.597,3054.00
342.613,3552.00
343.627,3047.00
344.643,3089.00
345.659,3147.00
346.675,3037.00
347.690,2948.00
348.704,3154.00
349.719,2918.00
350.735,2802.00
351.750,3271.00
352.765,3061.00
353.778,3052.00
354.793,3228.00
355.808,2889.00
356.822,3219.00
357.837,2722.00
358.851,3348.00
359.864,2984.00
360.878,2770.00
361.892,3058.00
362.906,3237.00
363.920,2644.00
364.932,3117.00
365.945,3125.00
366.959,3033.00
367.972,3002.00
368.986,2729.00
369.999,3443.00
371.010,2918.00
372.023,3423.00
373.036,3048.00
374.049,3467.00
375.061,3154.00
376.072,3061.00
377.084,2907.00
378.097,2720.00
379.109,3250.00
380.121,3056.00
381.133,2734.00
382.143,3214.00
383.155,2769.00
384.166,2953.00
385.178,3165.00
386.189,3272.00
387.201,2756.00
388.212,2975.00
389.221,2951.00
390.232,3078.00
391.243,3017.00
392.254,3109.00
393.264,2863.00
394.275,3299.00
395.283,3281.00
396.294,3666.00
397.304,3547.00
398.314,3122.00
399.324,3074.00
400.334,2718.00
401.344,3240.00
402.351,2722.00
403.361,3253.00
404.370,3005.00
405.380,2981.00
406.389,3460.00
407.398,3184.00
408.407,3131.00
409.414,3186.00
410.423,3362.00
411.431,2836.00
412.440,2709.00
413.448,3386.00
414.457,2932.00
415.465,2872.00
416.471,2976.00
417.479,3074.00
418.487,2892.00
419.495,3364.00
420.503,3184.00
421.510,2669.00
422.518,3236.00
423.525,3245.00
424.530,3440.00
425.537,2945.00
426.544,3282.00
427.551,2949.00
428.558,3651.00
429.565,3516.00
430.571,2907.00
431.578,2932.00
432.582,2943.00
433.588,3023.00
434.595,2629.00
435.601,3386.00
436.607,3312.00
437.612,2759.00
438.618,3399.00
439.624,3023.00
440.627,3028.00
441.633,3200.00
442.638,3654.00
443.643,3167.00
444.648,3075.00
445.653,3277.00
446.658,2965.00
447.663,3072.00
448.667,2955.00
449.672,2946.00
450.674,3050.00
451.678,2762.00
452.682,2948.00
453.687,2922.00
454.690,3665.00
455.694,3320.00
456.698,2585.00
457.702,2713.00
458.705,2880.00
459.709,2835.00
460.710,2944.00
461.713,3075.00
462.716,3079.00
463.719,3036.00
464.722,3263.00
465.725,3020.00
466.727,2879.00
467.730,3106.00
468.732,2788.00
469.735,3331.00
470.737,2980.00
471.737,2938.00
472.739,2984.00
473.741,2876.00
474.742,3139.00
475.744,3165.00
476.746,3073.00
477.747,3016.00
478.748,3248.00
479.750,2999.00
480.751,3051.00
481.752,3830.00
482.753,3105.00
483.751,3660.00
484.752,2686.00
485.753,3050.00
486.753,2896.00
487.753,3026.00
488.754,3501.00
489.754,2776.00
490.754,3389.00
491.754,3133.00
492.754,2745.00
493.753,3066.00
494.753,2977.00
495.752,3398.00
496.752,3103.00
497.749,3042.00
498.748,2897.00
499.747,3435.00
500.746,3164.00
501.745,2811.00
502.744,2812.00
503.742,3351.00
504.741,2987.00
505.739,2524.00
506.737,2894.00
507.735,3189.00
508.734,3439.00
509.732,3223.00
510.729,3412.00
511.727,2924.00
512.725,2970.00
513.720,2826.00
514.718,3315.00
515.715,2716.00
516.712,2644.00
517.709,3073.00
518.706,2969.00
519.703,3106.00
520.700,3268.00
521.696,3413.00
522.693,2967.00
523.689,2898.00
524.686,3237.00
525.682,2828.00
526.678,3542.00
527.674,2982.00
528.670,2600.00
529.666,3570.00
530.661,3517.00
531.657,3217.00
532.652,3204.00
533.648,3077.00
534.641,3265.00
535.636,3087.00
536.631,3170.00
537.626,3216.00
538.621,2822.00
539.616,2658.00
540.610,2579.00
541.605,3069.00
542.599,3108.00
543.593,3073.00
544.587,4064.00
545.581,2883.00
546.575,3107.00
547.569,3100.00
548.563,2726.00
549.557,2713.00
550.550,2851.00
551.543,2819.00
552.537,3220.00
553.530,2840.00
554.523,2838.00
555.516,3194.00
556.509,3046.00
557.502,2629.00
558.494,3252.00
559.487,2980.00
560.479,3249.00
561.472,3329.00
562.464,3183.00
563.456,3380.00
564.448,2968.00
565.440,3059.00
566.432,3438.00
567.423,2923.00
568.415,2965.00
569.404,3185.00
570.396,2875.00
571.387,3169.00
572.378,3082.00
573.369,4038.00
574.360,3715.00
575.351,2986.00
576.341,2882.00
577.332,2924.00
578.323,2757.00
579.313,2903.00
580.303,3293.00
581.293,3220.00
582.283,3017.00
583.273,3178.00
584.263,3063.00
585.253,3127.00
586.243,3208.00
587.232,2715.00
588.222,2996.00
589.211,3251.00
590.200,3087.00
591.189,3037.00
592.178,3031.00
593.167,3453.00
594.156,3287.00
595.145,2939.00
596.133,3463.00
597.122,3162.00
598.110,3238.00
599.098,3075.00
600.086,3071.00
601.074,3191.00
602.062,2852.00
603.050,2785.00
604.038,3195.00
605.025,2850.00
606.013,3246.00
607.000,3409.00
607.987,3099.00
608.975,3094.00
609.962,2797.00
610.949,3200.00
611.936,3330.00
612.922,3210.00
613.909,2776.00
614.895,3438.00
615.882,2880.00
616.868,3056.00
617.854,2804.00
618.841,3096.00
619.826,3136.00
620.812,3048.00
621.798,2877.00
622.784,3209.00
623.769,3148.00
624.755,2777.00
625.740,3141.00
626.725,2743.00
627.711,2887.00
628.698,3153.00
629.683,2842.00
630.667,3250.00
631.652,2831.00
632.637,3014.00
633.621,3227.00
634.606,2977.00
635.590,3185.00
636.574,2990.00
637.558,3084.00
638.542,3098.00
639.526,2851.00
640.510,2671.00
641.493,3101.00
642.477,3044.00
643.460,2712.00
644.444,3266.00
645.427,3323.00
646.410,2690.00
647.393,3052.00
648.376,3108.00
649.359,2956.00
650.341,3130.00
651.324,3148.00
652.307,3124.00
653.289,3004.00
654.271,2901.00
655.253,2961.00
656.235,3196.00
657.217,3264.00
658.199,2657.00
659.181,2790.00
660.163,3054.00
661.144,2888.00
662.126,2933.00
663.107,2851.00
664.088,4800.00
665.069,3293.00
666.050,2869.00
667.033,2751.00
668.014,3130.00
668.995,2612.00
669.975,3043.00
670.956,3039.00
671.936,3215.00
672.916,3024.00
673.896,3160.00
674.876,2934.00
675.856,2927.00
676.836,2791.00
677.816,2349.00
678.795,2889.00
679.775,2733.00
680.754,3046.00
681.734,3198.00
682.713,3231.00
683.692,2803.00
684.671,2651.00
685.650,2796.00
686.629,2885.00
687.607,2787.00
688.586,2815.00
689.564,2927.00
690.543,3317.00
691.523,2419.00
692.501,2906.00
693.479,2966.00
694.457,2847.00
695.435,2898.00
696.413,2706.00
697.390,2528.00
698.368,2761.00
699.345,3171.00
700.322,2964.00
701.300,3149.00
702.277,3137.00
703.254,3330.00
704.231,2615.00
705.207,3012.00
706.184,2847.00
707.161,2679.00
708.137,2876.00
709.113,2799.00
710.090,2856.00
711.068,2666.00
712.044,2691.00
713.020,2944.00
713.996,2642.00
714.971,2813.00
715.947,2868.00
716.922,2839.00
717.898,2772.00
718.873,2936.00
719.848,2754.00
720.823,2709.00
721.798,3019.00
722.773,2800.00
723.748,2561.00
724.723,3040.00
725.697,2878.00
726.672,2795.00
727.646,2545.00
728.622,3062.00
729.596,2696.00
730.570,2793.00
731.544,3098.00
732.518,3343.00
733.492,2881.00
734.466,2885.00
735.439,3058.00
736.413,3141.00
737.386,2490.00
738.359,2475.00
739.332,2539.00
740.305,2921.00
741.278,3363.00
742.251,2916.00
743.224,2794.00
744.196,2582.00
745.171,3206.00
746.143,3054.00
747.115,2777.00
748.087,2744.00
749.059,3201.00
750.031,2940.00
751.003,3704.00
751.975,3299.00
752.947,2713.00
753.918,3155.00
754.890,2633.00
755.861,2800.00
756.832,3107.00
757.803,2859.00
758.774,2886.00
759.747,2638.00
760.718,3241.00
761.689,2783.00
762.659,2646.00
763.630,3205.00
764.600,2577.00
765.570,3090.00
766.540,3142.00
767.510,2976.00
768.480,3067.00
769.450,2755.00
770.420,2869.00
771.390,2693.00
772.359,2792.00
773.329,2711.00
774.300,2530.00
775.269,2771.00
776.238,3023.00
777.207,3224.00
778.176,2559.00
779.145,2845.00
780.114,2711.00
781.083,2635.00
782.051,2769.00
783.019,2686.00
783.988,3134.00
784.956,2863.00
785.924,3046.00
786.894,2903.00
787.862,2749.00
788.830,3172.00
789.797,2670.00
790.765,2640.00
791.732,2803.00
792.700,2658.00
793.667,2640.00
794.634,2781.00
795.601,2812.00
796.568,2819.00
797.535,2865.00
798.502,3509.00
799.468,2951.00
800.437,2453.00
801.403,2714.00
802.370,3323.00
803.336,3055.00
804.302,2882.00
805.268,2471.00
806.234,2601.00
807.200,2771.00
808.166,2802.00
809.131,2601.00
810.097,3042.00
811.062,3742.00
812.027,3055.00
812.994,2625.00
813.960,2679.00
814.925,2972.00
815.889,2561.00
816.854,3046.00
817.819,2707.00
818.783,2771.00
819.748,3141.00
820.712,2815.00
821.677,2637.00
822.641,2759.00
823.605,2759.00
824.571,3191.00
825.534,2786.00
826.498,2695.00
827.462,2811.00
828.425,2671.00
829.389,3087.00
830.352,2837.00
831.315,2931.00
832.279,2514.00
833.242,2815.00
834.204,2674.00
835.167,2671.00
836.132,3095.00
837.095,2544.00
838.057,2723.00
839.020,2848.00
839.982,2882.00
840.944,2718.00
841.906,2636.00
842.868,3022.00
843.830,2592.00
844.792,3076.00
845.753,2684.00
846.715,2480.00
847.679,2644.00
848.640,2672.00
849.601,2757.00
850.562,3320.00
851.523,2756.00
852.484,2537.00
853.445,3040.00
854.406,2726.00
855.367,2769.00
856.327,3089.00
857.288,2522.00
858.248,2732.00
859.210,2709.00
860.170,2566.00
861.130,3107.00
862.090,2481.00
863.050,2621.00
864.010,2710.00
864.969,2912.00
865.929,2658.00
866.888,2551.00
867.848,2847.00
868.807,2709.00
869.766,2900.00
870.727,2732.00
871.686,3018.00
872.645,2995.00
873.604,3314.00
874.562,2749.00
875.521,2820.00
876.479,3400.00
877.437,2622.00
878.396,2613.00
879.354,3186.00
880.312,2628.00
881.270,2684.00
882.229,3113.00
883.187,2650.00
884.145,2693.00
885.102,2985.00
886.059,2872.00
887.017,2939.00
887.974,2968.00
888.931,3099.00
889.888,2574.00
890.845,2452.00
891.802,2363.00
892.758,2696.00
893.717,2491.00
894.673,2584.00
895.630,2641.00
896.586,2923.00
897.542,2741.00
898.498,2571.00
899.454,2864.00
900.410,2706.00
901.366,2702.00
902.321,3778.00
903.277,2695.00
904.232,2805.00
905.189,2533.00
906.145,2669.00
907.100,2252.00
908.055,2767.00
909.010,2963.00
909.965,2391.00
910.919,2831.00
911.874,2580.00
912.828,2799.00
913.783,2778.00
914.737,2371.00
915.693,2799.00
916.648,2905.00
917.602,2999.00
918.555,2836.00
919.509,2883.00
920.463,2779.00
921.417,2810.00
922.370,2555.00
923.324,2720.00
924.277,2719.00
925.230,2798.00
926.183,2425.00
927.138,2727.00
928.091,2972.00
929.044,2839.00
929.996,2713.00
930.949,2675.00
931.902,2879.00
932.854,2881.00
933.806,2627.00
934.758,2979.00
935.711,3010.00
936.663,2827.00
937.614,2878.00
938.568,2806.00
939.520,2419.00
940.471,2728.00
941.423,2826.00
942.374,2920.00
943.326,2832.00
944.277,2618.00
945.228,2849.00
946.179,2724.00
947.130,3073.00
948.080,2701.00
949.031,2617.00
949.984,2699.00
950.934,2749.00
951.884,2502.00
952.835,2747.00
953.785,2791.00
954.735,2602.00
955.685,2379.00
956.635,2669.00
957.585,2686.00
958.534,2683.00
959.484,2788.00
960.433,2654.00
961.383,2490.00
962.334,2993.00
963.283,2842.00
964.232,2893.00
965.181,2748.00
966.130,2813.00
967.079,2662.00
968.027,2745.00
968.976,2743.00
969.924,2669.00
970.873,2839.00
971.821,2773.00
972.769,2931.00
973.719,2891.00
974.667,2523.00
975.615,2750.00
976.562,2767.00
977.510,2455.00
978.458,2663.00
979.405,2871.00
980.352,2773.00
981.300,2998.00
982.247,2855.00
983.194,2554.00
984.141,2647.00
985.088,2754.00
986.036,2816.00
986.983,3074.00
987.930,3156.00
988.876,2395.00
989.822,2996.00
990.769,2585.00
991.715,2645.00
992.661,2452.00
993.607,2851.00
994.553,3333.00
995.498,2614.00
996.444,2303.00
997.389,2841.00
998.337,2570.00
999.282,2878.00
1000.227,2689.00
1001.173,2754.00
1002.118,2506.00
1003.062,2937.00
1004.007,2688.00
1004.952,3047.00
1005.897,2969.00
1006.841,2705.00
1007.786,2507.00
1008.730,2456.00
1009.674,3202.00
1010.618,2646.00
1011.564,2551.00
1012.508,2446.00
1013.452,2957.00
1014.396,2749.00
1015.339,2604.00
1016.283,2726.00
1017.226,2845.00
1018.170,2738.00
1019.113,2919.00
1020.056,2765.00
1020.999,2768.00
1021.942,2646.00
1022.885,2876.00
1023.828,3030.00
1024.770,2579.00
1025.715,2789.00
1026.657,2736.00
1027.600,2772.00
1028.542,2941.00
1029.484,2746.00
1030.426,2862.00
1031.368,2829.00
1032.310,2625.00
1033.251,2539.00
1034.193,2728.00
1035.135,2537.00
1036.076,2646.00
1037.017,2534.00
1037.959,2871.00
1038.900,2825.00
1039.843,2831.00
1040.784,2741.00
1041.725,2840.00
1042.665,2611.00
1043.606,2791.00
1044.547,2779.00
1045.487,2398.00
1046.427,2696.00
1047.368,2802.00
1048.308,2254.00
1049.248,2550.00
1050.188,2765.00
1051.128,2641.00
1052.067,2692.00
1053.007,2420.00
1053.947,2392.00
1054.886,2610.00
1055.827,2534.00
1056.766,3016.00
1057.706,2497.00
1058.645,2740.00
1059.584,2769.00
1060.522,3008.00
1061.461,2492.00
1062.400,2515.00
1063.338,2680.00
1064.277,2522.00
1065.215,2540.00
1066.154,2440.00
1067.092,2606.00
1068.030,2660.00
1068.968,2889.00
1069.906,3021.00
1070.843,2993.00
1071.781,2788.00
1072.720,2840.00
1073.658,2835.00
1074.595,2606.00
1075.533,2595.00
1076.470,2608.00
1077.407,2993.00
1078.344,2798.00
1079.281,2837.00
1080.217,2318.00
1081.154,2692.00
1082.091,2762.00
1083.027,2472.00
1083.964,2967.00
1084.900,2577.00
1085.836,2640.00
1086.772,2948.00
1087.708,2496.00
1088.644,2847.00
1089.580,2703.00
1090.515,2777.00
1091.451,2660.00
1092.388,2761.00
1093.324,2499.00
1094.259,3306.00
1095.194,2754.00
1096.129,2632.00
1097.064,2610.00
1097.999,2855.00
1098.934,2552.00
1099.869,2565.00
1100.803,2753.00
1101.738,2749.00
1102.672,2395.00
1103.607,2856.00
1104.541,2602.00
1105.475,2550.00
1106.409,2431.00
1107.343,2662.00
1108.277,2460.00
1109.210,2752.00
1110.144,2713.00
1111.078,2707.00
1112.011,2472.00
1112.944,2805.00
1113.878,2749.00
1114.811,2191.00
1115.744,2619.00
1116.678,2337.00
1117.611,2610.00
1118.544,2606.00
1119.477,2806.00
1120.409,2579.00
1121.342,3170.00
1122.274,2745.00
1123.206,3037.00
1124.138,2648.00
1125.070,3035.00
1126.002,2869.00
1126.934,2323.00
1127.866,2602.00
1128.798,2324.00
1129.729,2359.00
1130.661,2663.00
1131.592,2571.00
1132.523,2784.00
1133.454,2797.00
1134.385,2287.00
1135.317,2683.00
1136.247,2615.00
1137.178,2925.00
1138.109,2431.00
1139.039,3051.00
1139.970,2823.00
1140.900,2634.00
1141.831,2354.00
1142.761,2262.00
1143.691,3290.00
1144.621,2679.00
1145.551,2744.00
1146.480,2744.00
1147.410,2904.00
1148.340,2328.00
1149.269,2402.00
1150.199,2588.00
1151.128,3073.00
1152.057,2465.00
1152.979,2616.00
1153.898,2637.00
1154.819,2777.00
1155.739,2667.00
1156.658,2575.00
1157.579,2693.00
1158.498,2643.00
1159.419,2243.00
1160.338,2703.00
1161.256,2715.00
1162.177,2535.00
1163.095,2611.00
1164.016,2742.00
1164.934,2930.00
1165.852,2862.00
1166.772,2643.00
1167.690,2702.00
1168.610,2689.00
1169.528,2676.00
1170.446,2193.00
1171.365,2562.00
1172.283,2549.00
1173.202,2650.00
1174.120,2688.00
1175.037,2499.00
1175.956,2465.00
1176.873,2558.00
1177.792,2561.00
1178.709,3137.00
1179.626,2542.00
1180.544,2903.00
1181.461,2525.00
1182.379,2754.00
1183.296,2651.00
1184.212,2329.00
1185.130,2510.00
1186.046,2995.00
1186.962,2644.00
1187.880,2931.00
1188.796,2738.00
1189.714,2468.00
1190.629,2750.00
1191.545,2760.00
1192.462,2595.00
1193.378,2596.00
1194.295,2337.00
1195.210,2673.00
1196.125,2813.00
1197.042,2730.00
1197.957,2649.00
1198.872,2563.00
1199.788,2575.00
1200.703,2979.00
1201.619,2697.00
1202.534,2518.00
1203.448,2795.00
1204.364,2591.00
1205.278,2327.00
1206.192,2715.00
1207.108,3153.00
1208.022,3014.00
1208.938,2503.00
1209.851,2826.00
1210.765,2918.00
1211.680,2562.00
1212.594,2429.00
1213.507,2607.00
1214.422,3057.00
1215.335,2781.00
1216.248,2604.00
1217.163,2683.00
1218.076,3267.00
1218.990,2766.00
1219.903,2470.00
1220.816,2497.00
1221.730,2614.00
1222.642,2550.00
1223.554,2561.00
1224.469,2736.00
1225.380,2595.00
1226.292,2333.00
1227.206,2788.00
1228.118,3015.00
1229.032,2297.00
1229.943,2538.00
1230.855,2622.00
1231.768,2401.00
1232.679,2723.00
1233.590,2623.00
1234.503,2876.00
1235.414,2549.00
1236.325,2559.00
1237.238,2742.00
1238.149,2723.00
1239.059,2484.00
1239.972,2842.00
1240.882,2479.00
1241.793,2757.00
1242.705,2983.00
1243.615,2617.00
1244.525,2764.00
1245.437,2246.00
1246.347,2675.00
1247.259,2827.00
1248.168,3082.00
1249.078,2877.00
1249.989,2920.00
1250.899,2474.00
1251.808,2535.00
1252.719,2605.00
1253.628,2483.00
1254.537,3049.00
1255.448,2493.00
1256.357,2503.00
1257.266,2634.00
1258.176,2391.00
1259.085,2379.00
1259.993,2459.00
1260.904,2463.00
1261.812,2472.00
1262.720,3150.00
1263.630,2831.00
1264.538,2462.00
1265.446,2734.00
1266.356,2649.00
1267.263,2973.00
1268.171,2431.00
1269.080,2717.00
1269.988,2845.00
1270.895,2574.00
1271.804,2583.00
1272.711,2866.00
1273.619,2779.00
1274.527,2459.00
1275.434,2780.00
1276.341,2499.00
1277.248,2729.00
1278.156,2926.00
1279.063,2547.00
1279.969,2716.00
1280.877,3546.00
1281.783,2867.00
1282.690,2720.00
1283.598,2626.00
1284.503,2508.00
1285.409,2473.00
1286.317,3042.00
1287.223,3077.00
1288.128,2692.00
1289.036,2532.00
1289.941,2575.00
1290.846,2684.00
1291.751,2470.00
1292.658,2573.00
1293.563,3105.00
1294.468,2610.00
1295.375,2808.00
1296.280,2909.00
1297.184,3394.00
1298.091,2763.00
1298.995,2845.00
1299.900,3064.00
1300.806,2542.00
1301.710,2405.00
1302.614,2227.00
1303.518,2931.00
1304.424,2589.00
1305.327,2844.00
1306.231,2642.00
1307.137,2802.00
1308.040,2726.00
1308.943,2659.00
1309.847,2836.00
1310.752,2853.00
1311.655,2328.00
1312.558,2468.00
1313.463,2598.00
1314.366,2529.00
1315.269,2690.00
1316.171,2656.00
1317.076,2576.00
1317.978,2473.00
1318.881,2314.00
1319.785,2529.00
1320.687,2529.00
1321.589,2272.00
1322.491,2506.00
1323.395,2744.00
1324.297,3206.00
1325.198,2794.00
1326.102,2464.00
1327.004,2456.00
1327.905,3053.00
1328.806,2637.00
1329.709,2733.00
1330.611,2612.00
1331.512,2453.00
1332.413,3074.00
1333.316,2698.00
1334.216,2842.00
1335.117,2413.00
1336.020,2679.00
1336.920,2664.00
1337.821,2500.00
1338.721,2924.00
1339.623,2687.00
1340.523,2622.00
1341.423,2529.00
1342.323,2937.00
1343.225,2760.00
1344.125,2482.00
1345.025,2548.00
1345.924,2311.00
1346.826,2999.00
1347.725,3093.00
1348.624,2872.00
1349.524,2532.00
1350.425,2615.00
1351.324,2782.00
1352.223,2858.00
1353.121,2632.00
1354.022,2840.00
1354.921,3047.00
1355.819,2785.00
1356.718,2701.00
1357.618,2409.00
1358.516,2801.00
1359.415,3078.00
1360.313,2770.00
1361.213,2626.00
1362.111,2934.00
1363.008,3295.00
1363.906,2600.00
1364.806,2696.00
1365.703,2740.00
1366.601,2493.00
1367.498,2519.00
1368.397,2840.00
1369.295,2709.00
1370.192,2497.00
1371.089,2743.00
1371.987,2646.00
1372.884,2893.00
1373.781,2422.00
1374.678,2707.00
1375.574,2462.00
1376.473,2805.00
1377.369,2907.00
1378.265,2488.00
1379.161,2643.00
1380.059,2309.00
1380.955,2758.00
1381.851,2458.00
1382.747,2556.00
1383.643,2591.00
1384.540,2439.00
1385.436,2560.00
1386.331,2736.00
1387.227,2820.00
1388.124,2775.00
1389.019,2470.00
1389.914,2664.00
1390.809,2300.00
1391.704,3080.00
1392.601,2590.00
1393.495,2944.00
1394.390,2821.00
1395.285,2900.00
1396.179,2733.00
1397.075,2617.00
1397.969,2741.00
1398.864,2347.00
1399.758,2601.00
1400.652,2718.00
1401.547,2479.00
1402.441,2439.00
1403.335,3023.00
1404.229,2826.00
1405.122,2768.00
1406.017,2671.00
1406.911,2798.00
1407.804,3055.00
1408.697,2688.00
1409.590,2477.00
1410.485,2831.00
1411.378,2705.00
1412.271,2378.00
1413.163,2736.00
1414.056,2794.00
1414.949,3067.00
1415.843,2703.00
1416.735,2616.00
1417.627,2672.00
1418.520,2641.00
1419.412,2878.00
1420.306,2822.00
1421.197,2957.00
1422.089,2892.00
1422.981,3139.00
1423.873,2881.00
1424.764,2736.00
1425.657,2715.00
1426.549,2764.00
1427.440,2875.00
1428.331,2595.00
1429.222,2365.00
1430.113,2707.00
1431.006,2848.00
1431.897,2563.00
1432.787,2667.00
1433.678,2610.00
1434.568,2506.00
1435.459,2888.00
1436.351,2859.00
1437.241,2826.00
1438.131,2812.00
1439.021,2412.00
1439.911,2645.00
1440.801,2758.00
1441.693,2897.00
1442.583,2668.00
1443.472,2692.00
1444.362,2794.00
1445.251,2652.00
1446.140,2898.00
1447.030,2881.00
1447.921,2860.00
1448.810,2509.00
1449.699,3033.00
1450.588,2700.00
1451.476,2603.00
1452.365,2781.00
1453.254,2595.00
1454.144,2523.00
1455.032,2801.00
1455.921,2414.00
1456.809,2974.00
1457.697,2478.00
1458.585,2654.00
1459.473,2619.00
1460.361,2525.00
1461.251,2729.00
1462.138,2753.00
1463.026,2652.00
1463.913,2903.00
1464.801,2610.00
1465.688,2771.00
1466.575,2670.00
1467.463,3105.00
1468.351,2526.00
1469.238,2668.00
1470.125,2290.00
1471.012,2724.00
1471.899,2742.00
1472.785,2497.00
1473.672,2672.00
1474.558,2884.00
1475.446,2841.00
1476.333,2840.00
1477.219,2522.00
1478.105,2656.00
1478.991,2641.00
1479.877,2967.00
1480.762,2661.00
1481.648,2553.00
1482.534,2793.00
1483.419,2747.00
1484.307,2819.00
1485.192,2642.00
1486.077,2535.00
1486.962,2530.00
1487.847,2450.00
1488.732,2554.00
1489.617,2712.00
1490.502,2983.00
1491.387,2825.00
1492.271,2501.00
1493.156,2540.00
1494.042,2524.00
1494.927,2863.00
1495.811,2579.00
1496.695,2835.00
1497.579,2969.00
1498.463,2712.00
1499.347,2726.00
1500.231,2726.00
1501.114,2726.00
1501.998,2970.00
1502.881,2752.00
1503.765,2976.00
1504.648,3092.00
1505.533,2816.00
1506.417,2700.00
1507.300,2669.00
1508.183,2788.00
1509.066,2205.00
1509.948,2944.00
1510.831,3009.00
1511.714,2474.00
1512.596,2836.00
1513.479,2951.00
1514.361,2892.00
1515.243,2707.00
1516.125,2880.00
1517.008,2956.00
1517.890,2663.00
1518.771,2684.00
1519.655,2914.00
1520.537,2644.00
1521.419,2525.00
1522.300,2751.00
1523.182,2829.00
1524.063,2812.00
1524.944,2988.00
1525.825,2898.00
1526.707,2503.00
1527.588,2495.00
1528.468,2793.00
1529.349,2377.00
1530.230,2584.00
1531.111,2867.00
1531.991,2746.00
1532.872,2402.00
1533.752,2706.00
1534.632,2545.00
1535.513,2566.00
1536.393,2853.00
1537.273,3009.00
1538.153,3369.00
1539.032,2442.00
1539.912,2689.00
1540.792,2718.00
1541.672,2691.00
1542.551,2810.00
1543.430,3252.00
1544.310,2735.00
1545.189,2608.00
1546.068,3099.00
1546.947,2772.00
1547.826,3029.00
1548.705,2655.00
1549.584,2896.00
1550.462,2667.00
1551.341,2893.00
1552.219,2735.00
1553.098,2859.00
1553.976,2916.00
1554.854,3090.00
1555.733,2902.00
1556.611,2626.00
1557.489,2519.00
1558.367,2712.00
1559.244,2892.00
1560.122,2705.00
1561.000,2777.00
1561.877,2974.00
1562.755,2580.00
1563.632,2681.00
1564.509,2943.00
1565.386,3059.00
1566.264,2449.00
1567.141,2320.00
1568.017,2851.00
1568.894,2694.00
1569.771,2742.00
1570.648,2823.00
1571.524,2733.00
1572.401,2482.00
1573.277,2453.00
1574.153,2745.00
1575.029,2586.00
1575.906,3374.00
1576.781,2888.00
1577.657,2647.00
1578.533,2943.00
1579.409,2332.00
1580.285,2696.00
1581.160,3116.00
1582.036,2906.00
1582.911,2534.00
1583.786,3069.00
1584.662,2529.00
1585.537,2688.00
1586.412,2733.00
1587.287,2565.00
1588.160,2886.00
1589.035,2362.00
1589.909,2737.00
1590.784,2687.00
1591.658,2519.00
1592.533,2765.00
1593.407,2729.00
1594.281,2590.00
1595.155,3159.00
1596.029,2631.00
1596.903,2699.00
1597.777,2598.00
1598.651,2960.00
1599.525,2443.00
1600.398,2738.00
1601.272,2647.00
1602.144,3264.00
1603.017,2705.00
1603.890,2934.00
1604.763,2797.00
1605.636,2811.00
1606.509,2416.00
1607.382,2574.00
1608.255,2801.00
1609.128,2914.00
1610.000,2631.00
1610.873,2392.00
1611.746,2584.00
1612.616,2647.00
1613.488,2280.00
1614.361,2706.00
1615.233,2649.00
1616.105,2921.00
1616.977,2626.00
1617.849,2549.00
1618.720,3021.00
1619.592,3067.00
1620.464,2810.00
1621.333,3173.00
1622.205,2674.00
1623.076,2702.00
1623.947,2642.00
1624.818,2952.00
1625.689,2847.00
1626.560,2596.00
1627.431,2788.00
1628.302,3112.00
1629.171,2805.00
1630.042,3042.00
1630.912,3729.00
1631.782,3305.00
1632.653,2561.00
1633.523,2882.00
1634.393,2953.00
1635.263,2578.00
1636.131,2715.00
1637.001,2623.00
1637.871,2360.00
1638.741,2358.00
1639.611,2453.00
1640.480,2842.00
1641.350,2582.00
1642.219,2536.00
1643.087,2200.00
1643.956,3115.00
1644.825,2961.00
1645.694,2937.00
1646.563,2904.00
1647.432,2785.00
1648.299,2718.00
1649.167,2855.00
1650.036,2522.00
1650.904,2848.00
1651.773,2942.00
1652.641,2740.00
1653.509,2894.00
1654.376,2608.00
1655.244,2729.00
1656.112,2736.00
1656.980,2737.00
1657.847,2581.00
1658.715,2872.00
1659.581,2622.00
1660.448,2992.00
1661.316,2226.00
1662.183,2735.00
1663.051,2789.00
1663.918,2725.00
1664.783,2720.00
1665.650,2813.00
1666.517,2863.00
1667.384,2742.00
1668.251,2770.00
1669.115,2945.00
1669.982,2655.00
1670.849,3022.00
1671.715,2728.00
1672.581,2872.00
1673.446,2807.00
1674.312,2743.00
1675.178,3125.00
1676.044,2852.00
1676.910,2817.00
1677.774,2750.00
1678.639,2414.00
1679.505,2739.00
1680.370,2841.00
1681.236,3395.00
1682.099,2680.00
1682.965,2752.00
1683.830,2311.00
1684.695,2558.00
1685.560,2638.00
1686.423,2880.00
1687.288,2844.00
1688.153,2750.00
1689.017,2677.00
1689.880,2789.00
1690.745,2872.00
1691.609,2593.00
1692.473,2864.00
1693.338,2959.00
1694.200,2990.00
1695.064,2760.00
1695.928,2611.00
1696.792,2772.00
1697.654,3239.00
1698.517,2757.00
1699.381,2493.00
1700.245,2370.00
1701.106,3041.00
1701.969,2611.00
1702.833,2862.00
1703.696,2622.00
1704.557,2716.00
1705.420,2590.00
1706.283,2743.00
1707.146,2889.00
1708.007,2513.00
1708.870,2548.00
1709.732,2404.00
1710.595,2631.00
1711.455,2494.00
1712.318,2655.00
1713.180,2965.00
1714.040,2761.00
1714.902,2887.00
1715.764,2760.00
1716.626,2530.00
1717.486,2675.00
1718.348,3003.00
1719.209,4298.00
1720.071,2369.00
1720.930,2505.00
1721.792,2579.00
1722.653,2559.00
1723.512,2593.00
1724.374,2702.00
1725.234,2810.00
1726.095,2786.00
1726.954,2751.00
1727.815,2882.00
1728.676,2700.00
1729.535,2973.00
1730.395,2681.00
1731.256,2647.00
1732.114,2813.00
1732.974,2240.00
1733.834,3063.00
1734.693,2883.00
1735.553,2722.00
1736.413,3151.00
1737.272,2632.00
1738.130,2655.00
1738.990,2779.00
1739.849,2624.00
1740.707,3742.00
1741.566,2765.00
1742.426,2770.00
1743.283,3126.00
1744.142,2625.00
1745.001,2416.00
1745.858,2939.00
1746.717,2792.00
1747.576,2833.00
1748.433,2891.00
1749.292,3317.00
1750.150,3350.00
1751.007,2925.00
1751.865,2971.00
1752.723,2770.00
1753.579,2655.00
1754.438,2956.00
1755.296,2954.00
1756.152,2267.00
1757.010,2453.00
1757.865,2922.00
1758.723,2388.00
1759.581,3061.00
1760.436,2714.00
1761.294,3055.00
1762.151,2752.00
1763.006,2692.00
1763.864,2354.00
1764.721,2893.00
1765.576,2766.00
1766.433,2893.00
1767.288,2649.00
1768.144,2805.00
1769.001,2699.00
1769.856,2853.00
1770.712,2927.00
1771.568,2514.00
1772.423,2623.00
1773.279,2583.00
1774.133,2651.00
1774.989,3127.00
1775.845,3152.00
1776.699,3018.00
1777.555,2695.00
1778.409,3266.00
1779.265,2683.00
1780.120,2696.00
1780.974,2676.00
1781.829,2346.00
1782.682,2788.00
1783.538,2571.00
1784.393,2797.00
1785.246,2633.00
1786.101,2817.00
1786.954,2888.00
1787.808,2951.00
1788.661,2483.00
1789.516,2654.00
1790.370,2655.00
1791.223,2925.00
1792.077,2730.00
1792.930,2798.00
1793.784,2601.00
1794.636,2766.00
1795.490,2678.00
1796.344,2745.00
1797.196,2733.00
1798.049,2855.00
1798.901,2597.00
1799.755,2956.00
1800.606,2535.00
1801.460,3282.00
1802.311,3067.00
1803.165,3138.00
1804.018,3113.00
1804.869,2827.00
1805.722,3216.00
1806.573,2783.00
1807.426,2545.00
1808.276,2719.00
1809.129,2627.00
1809.980,2969.00
1810.832,2958.00
1811.683,2647.00
1812.535,3051.00
1813.385,2675.00
1814.237,3034.00
1815.089,2777.00
1815.940,3010.00
1816.791,2707.00
1817.641,2615.00
1818.493,2904.00
1819.343,2799.00
1820.194,2625.00
1821.044,2847.00
1821.895,2959.00
1822.745,2480.00
1823.596,2643.00
1824.445,3202.00
1825.296,2830.00
1826.145,2695.00
1826.996,2917.00
1827.845,2738.00
1828.695,2817.00
1829.544,2741.00
1830.395,2794.00
1831.243,2679.00
1832.094,2484.00
1832.942,3326.00
1833.792,2887.00
1834.640,2832.00
1835.490,2731.00
1836.338,2809.00
1837.186,2637.00
1838.036,2595.00
1838.884,2725.00
1839.733,3070.00
1840.581,2947.00
1841.430,2883.00
1842.278,3122.00
1843.127,2643.00
1843.974,2416.00
1844.823,3162.00
1845.671,2922.00
1846.519,2785.00
1847.366,2770.00
1848.213,2404.00
1849.062,2576.00
1849.909,2476.00
1850.757,3410.00
1851.604,2865.00
1852.452,2660.00
1853.298,2937.00
1854.146,2808.00
1854.993,2808.00
1855.839,3250.00
1856.687,2900.00
1857.532,2910.00
1858.380,2772.00
1859.226,2840.00
1860.073,2884.00
1860.919,2609.00
1861.765,2632.00
1862.612,2996.00
1863.457,2992.00
1864.304,2724.00
1865.150,2931.00
1865.995,2701.00
1866.842,2901.00
1867.686,3005.00
1868.533,2836.00
1869.378,2802.00
1870.223,2774.00
1871.069,2635.00
1871.914,2779.00
1872.760,2732.00
1873.604,2564.00
1874.448,2913.00
1875.294,2943.00
1876.139,2623.00
1876.984,2884.00
1877.828,2428.00
1878.672,2278.00
1879.518,2611.00
1880.361,2911.00
1881.205,2921.00
1882.050,2557.00
1882.894,3284.00
1883.739,2622.00
1884.582,2498.00
1885.425,2547.00
1886.270,3058.00
1887.113,2532.00
1887.956,2873.00
1888.801,2796.00
1889.644,2599.00
1890.486,2376.00
1891.331,2717.00
1892.173,2831.00
1893.017,2844.00
1893.860,3042.00
1894.702,3032.00
1895.546,2786.00
1896.388,3494.00
1897.230,3164.00
1898.074,2681.00
1898.916,2565.00
1899.757,2613.00
1900.601,3449.00
1901.443,3073.00
1902.284,3087.00
1903.125,3211.00
1903.969,2970.00
1904.810,3030.00
1905.651,2870.00
1906.494,3110.00
1907.335,3227.00
1908.176,2901.00
1909.018,2852.00
1909.859,2728.00
1910.700,2613.00
1911.542,3299.00
1912.383,2802.00
1913.223,2397.00
1914.064,2948.00
1914.906,3035.00
1915.746,3110.00
1916.586,3237.00
1917.428,2758.00
1918.268,2805.00
1919.107,2619.00
1919.947,2536.00
1920.789,2703.00
1921.628,3033.00
1922.468,2810.00
1923.309,2631.00
1924.148,3125.00
1924.988,2875.00
1925.827,2738.00
1926.667,2644.00
1927.507,2798.00
1928.345,2618.00
1929.184,2922.00
1930.025,2601.00
1930.864,2993.00
1931.702,3056.00
1932.541,2677.00
1933.381,2924.00
1934.219,2866.00
1935.057,3074.00
1935.896,2500.00
1936.735,2767.00
1937.573,2664.00
1938.411,2581.00
1939.249,2981.00
1940.089,2720.00
1940.927,3022.00
1941.764,3073.00
1942.602,2702.00
1943.439,2655.00
1944.278,2773.00
1945.115,2720.00
1945.953,2527.00
1946.790,2868.00
1947.628,3111.00
1948.465,2918.00
1949.302,2865.00
1950.139,2898.00
1950.976,2680.00
1951.814,2955.00
1952.651,2873.00
1953.487,2582.00
1954.323,3052.00
1955.160,2772.00
1955.998,3143.00
1956.834,2751.00
1957.670,2864.00
1958.506,3028.00
1959.342,2881.00
1960.177,2838.00
1961.015,2879.00
1961.850,2804.00
1962.686,2808.00
1963.521,2862.00
1964.357,3116.00
1965.192,2582.00
1966.029,2941.00
1966.864,2732.00
1967.699,3045.00
1968.534,2809.00
1969.369,3085.00
1970.204,2751.00
1971.040,2840.00
1971.875,2738.00
1972.709,2815.00
1973.544,2622.00
1974.378,2691.00
1975.212,2896.00
1976.047,2677.00
1976.882,2635.00
1977.716,3192.00
1978.550,2530.00
1979.384,2788.00
1980.218,2770.00
1981.052,2735.00
1981.885,2840.00
1982.719,2805.00
1983.554,2968.00
1984.388,3141.00
1985.221,2862.00
1986.054,3033.00
1986.887,2855.00
1987.720,2609.00
1988.553,3071.00
1989.386,2897.00
1990.219,2887.00
1991.053,3123.00
1991.886,2658.00
1992.719,2982.00
1993.551,2287.00
1994.383,2963.00
1995.216,2718.00
1996.048,2500.00
1996.880,2949.00
1997.712,2646.00
1998.544,2823.00
1999.376,2876.00
2000.208,3089.00
2001.040,3226.00
2001.873,2584.00
2002.705,2582.00
2003.536,2832.00
2004.367,2839.00
2005.199,2844.00
2006.030,2697.00
2006.861,2557.00
2007.692,2836.00
2008.523,2651.00
2009.354,2841.00
2010.185,2622.00
2011.016,2959.00
2011.846,3041.00
2012.677,2727.00
2013.507,3150.00
2014.338,3049.00
2015.168,2695.00
2015.999,3287.00
2016.829,2766.00
2017.659,3017.00
2018.489,3310.00
2019.319,2614.00
2020.149,2990.00
2020.980,2812.00
2021.810,2611.00
2022.639,2689.00
2023.469,2693.00
2024.298,2492.00
2025.128,2453.00
2025.957,2410.00
2026.786,2230.00
2027.615,2415.00
2028.444,2641.00
2029.273,2810.00
2030.102,2405.00
2030.931,2620.00
2031.758,2970.00
2032.586,2587.00
2033.415,2668.00
2034.243,2267.00
2035.072,2085.00
2035.900,2544.00
2036.728,2359.00
2037.556,2384.00
2038.385,2414.00
2039.213,2210.00
2040.040,2241.00
2040.868,2151.00
2041.696,2225.00
2042.524,2237.00
2043.351,2473.00
2044.179,2251.00
2045.006,2034.00
