RamanScope Measure Spectrum Data V3.72

<< MEASURE CONDITION >>
Exposure Type,Aver
Exposure Time [sec],15
Exposure Count,30
Measure Time,2023/07/07 11:27:52
Data Name,""
Data Comment,""
Rayleigh Wave[nm],532.0

<< SAMPLE SPECTRUM >>
Wave[dcm-1],No520
146.591,728.87
147.626,891.13
148.664,1026.30
149.699,1175.67
150.737,1361.20
151.772,1503.00
152.809,1689.70
153.846,1790.17
154.881,1899.17
155.918,2010.73
156.953,2171.93
157.989,2225.47
159.026,2284.43
160.060,2365.40
161.096,2467.47
162.130,2446.73
163.167,2522.07
164.200,2566.33
165.236,2598.97
166.272,2656.43
167.305,2683.30
168.341,2764.57
169.374,2798.63
170.409,2813.07
171.445,2902.13
172.477,2939.10
173.512,2925.93
174.545,2984.77
175.580,3005.63
176.614,2957.27
177.647,3040.57
178.681,3052.93
179.713,3071.57
180.747,3002.00
181.781,2961.80
182.813,3037.77
183.847,3037.93
184.878,3047.83
185.912,3076.63
186.945,3085.87
187.976,3098.23
189.010,3124.03
190.043,3118.67
191.073,3200.07
192.106,3158.67
193.137,3219.57
194.170,3234.17
195.202,3243.23
196.232,3275.10
197.265,3273.10
198.297,3351.47
199.327,3394.10
200.359,3335.93
201.388,3436.70
202.420,3492.37
203.452,3527.23
204.481,3503.57
205.512,3558.13
206.544,3617.03
207.573,3587.70
208.604,3631.97
209.635,3714.17
210.663,3781.73
211.694,3821.60
212.725,3836.23
213.753,3957.17
214.783,3946.50
215.813,3944.50
216.841,3958.30
217.871,3908.57
218.899,3925.60
219.929,3886.33
220.959,3899.73
221.986,3813.90
223.016,3798.77
224.045,3757.07
225.072,3717.40
226.101,3677.90
227.130,3681.37
228.157,3568.77
229.185,3588.53
230.214,3593.93
231.241,3520.97
232.269,3490.10
233.297,3515.37
234.323,3488.80
235.351,3435.40
236.379,3466.63
237.407,3414.93
238.433,3361.57
239.460,3402.60
240.488,3414.63
241.513,3391.13
242.540,3420.57
243.568,3400.20
244.592,3430.60
245.619,3458.23
246.646,3395.80
247.671,3494.70
248.697,3445.13
249.724,3453.13
250.748,3452.97
251.774,3444.43
252.801,3485.97
253.827,3478.53
254.850,3555.43
255.876,3522.83
256.902,3531.70
257.925,3543.07
258.951,3604.20
259.976,3579.50
260.999,3623.33
262.024,3640.17
263.049,3608.83
264.074,3675.37
265.097,3717.97
266.122,3708.07
267.146,3752.03
268.168,3740.00
269.193,3789.40
270.217,3760.63
271.241,3822.57
272.263,3819.73
273.287,3798.33
274.311,3834.90
275.332,3796.87
276.356,3824.63
277.379,3838.47
278.402,3791.03
279.424,3788.97
280.447,3757.90
281.470,3800.73
282.492,3763.67
283.513,3725.17
284.536,3688.00
285.558,3653.77
286.581,3625.90
287.601,3608.50
288.623,3611.80
289.645,3563.07
290.665,3604.73
291.687,3523.13
292.709,3516.63
293.730,3500.33
294.750,3472.33
295.771,3466.20
296.792,3446.23
297.813,3433.20
298.832,3405.87
299.853,3406.80
300.874,3356.93
301.895,3398.30
302.913,3359.40
303.934,3303.90
304.954,3341.40
305.975,3402.10
306.993,3309.17
308.013,3292.87
309.033,3263.13
310.052,3240.43
311.072,3290.10
312.090,3255.90
313.109,3237.67
314.129,3269.17
315.148,3271.97
316.165,3220.47
317.184,3245.97
318.203,3230.73
319.222,3218.73
320.238,3211.23
321.257,3208.07
322.275,3205.63
323.294,3238.30
324.312,3186.07
325.328,3174.77
326.346,3212.77
327.364,3187.97
328.382,3233.30
329.397,3162.07
330.415,3202.77
331.432,3158.53
332.450,3172.50
333.467,3165.90
334.482,3174.67
335.499,3151.00
336.516,3110.73
337.533,3161.83
338.547,3164.53
339.564,3143.30
340.580,3099.00
341.597,3100.07
342.613,3158.87
343.627,3111.27
344.643,3113.33
345.659,3153.57
346.675,3087.67
347.690,3115.17
348.704,3056.07
349.719,3078.40
350.735,3068.73
351.750,3072.30
352.765,3077.30
353.778,3056.23
354.793,3071.50
355.808,3052.00
356.822,3044.77
357.837,3030.80
358.851,3032.77
359.864,3046.17
360.878,3059.07
361.892,3050.30
362.906,3085.00
363.920,3086.87
364.932,3050.00
365.945,3060.07
366.959,3045.67
367.972,3068.20
368.986,3065.20
369.999,3014.60
371.010,3001.50
372.023,3002.20
373.036,3032.30
374.049,3072.10
375.061,3038.47
376.072,3053.77
377.084,3060.67
378.097,3014.57
379.109,3024.53
380.121,3068.43
381.133,3044.17
382.143,3015.57
383.155,3000.23
384.166,3029.07
385.178,3031.93
386.189,3002.23
387.201,2991.90
388.212,2972.00
389.221,2974.10
390.232,3004.97
391.243,3017.00
392.254,3019.70
393.264,2966.77
394.275,2990.53
395.283,2955.37
396.294,2989.53
397.304,2926.47
398.314,2936.93
399.324,2913.23
400.334,2910.13
401.344,2857.50
402.351,2882.37
403.361,2872.83
404.370,2897.30
405.380,2914.60
406.389,2869.00
407.398,2845.20
408.407,2873.17
409.414,2837.00
410.423,2809.00
411.431,2838.60
412.440,2807.83
413.448,2825.33
414.457,2837.17
415.465,2816.00
416.471,2801.27
417.479,2773.53
418.487,2767.57
419.495,2781.53
420.503,2735.30
421.510,2747.10
422.518,2719.07
423.525,2751.50
424.530,2751.27
425.537,2717.20
426.544,2738.93
427.551,2691.43
428.558,2699.50
429.565,2684.10
430.571,2710.50
431.578,2734.57
432.582,2692.37
433.588,2670.60
434.595,2649.77
435.601,2693.37
436.607,2690.80
437.612,2683.13
438.618,2633.77
439.624,2624.23
440.627,2655.67
441.633,2648.37
442.638,2670.03
443.643,2663.63
444.648,2628.10
445.653,2632.13
446.658,2628.73
447.663,2618.10
448.667,2612.37
449.672,2609.27
450.674,2634.50
451.678,2618.50
452.682,2590.90
453.687,2576.80
454.690,2631.53
455.694,2621.80
456.698,2585.17
457.702,2603.63
458.705,2598.67
459.709,2623.93
460.710,2607.13
461.713,2607.13
462.716,2622.33
463.719,2562.83
464.722,2584.50
465.725,2573.13
466.727,2614.13
467.730,2584.47
468.732,2555.90
469.735,2554.77
470.737,2578.20
471.737,2574.37
472.739,2591.40
473.741,2540.70
474.742,2539.03
475.744,2548.97
476.746,2563.00
477.747,2579.73
478.748,2581.10
479.750,2573.73
480.751,2557.73
481.752,2544.80
482.753,2559.37
483.751,2562.60
484.752,2545.07
485.753,2572.30
486.753,2550.47
487.753,2538.07
488.754,2569.27
489.754,2489.77
490.754,2487.27
491.754,2514.27
492.754,2536.57
493.753,2535.83
494.753,2510.43
495.752,2470.10
496.752,2561.67
497.749,2540.30
498.748,2510.53
499.747,2498.97
500.746,2536.13
501.745,2495.80
502.744,2502.50
503.742,2528.37
504.741,2553.00
505.739,2483.77
506.737,2488.03
507.735,2508.77
508.734,2532.50
509.732,2456.70
510.729,2506.27
511.727,2494.17
512.725,2515.30
513.720,2481.93
514.718,2500.00
515.715,2449.23
516.712,2496.33
517.709,2497.37
518.706,2492.53
519.703,2513.97
520.700,2495.27
521.696,2478.80
522.693,2492.00
523.689,2493.40
524.686,2540.83
525.682,2510.20
526.678,2474.40
527.674,2501.00
528.670,2534.97
529.666,2463.33
530.661,2519.37
531.657,2519.93
532.652,2562.63
533.648,2524.40
534.641,2545.70
535.636,2509.83
536.631,2572.23
537.626,2527.60
538.621,2535.57
539.616,2532.57
540.610,2549.43
541.605,2532.63
542.599,2529.33
543.593,2547.97
544.587,2545.60
545.581,2543.80
546.575,2545.70
547.569,2559.20
548.563,2510.33
549.557,2533.47
550.550,2516.80
551.543,2501.47
552.537,2488.20
553.530,2534.63
554.523,2479.87
555.516,2519.37
556.509,2497.77
557.502,2488.97
558.494,2427.97
559.487,2469.20
560.479,2432.07
561.472,2434.67
562.464,2396.40
563.456,2387.83
564.448,2407.63
565.440,2392.10
566.432,2367.60
567.423,2389.23
568.415,2346.47
569.404,2395.80
570.396,2376.97
571.387,2387.97
572.378,2370.80
573.369,2342.30
574.360,2324.03
575.351,2343.93
576.341,2344.83
577.332,2345.50
578.323,2312.17
579.313,2301.90
580.303,2303.00
581.293,2297.67
582.283,2258.20
583.273,2297.77
584.263,2211.07
585.253,2295.93
586.243,2273.37
587.232,2252.33
588.222,2250.70
589.211,2228.73
590.200,2249.50
591.189,2248.83
592.178,2225.57
593.167,2252.57
594.156,2182.70
595.145,2217.87
596.133,2202.60
597.122,2179.57
598.110,2169.57
599.098,2146.37
600.086,2137.77
601.074,2134.33
602.062,2148.20
603.050,2131.13
604.038,2131.30
605.025,2109.40
606.013,2140.27
607.000,2127.30
607.987,2133.57
608.975,2058.07
609.962,2066.23
610.949,2058.80
611.936,2079.07
612.922,2083.13
613.909,2018.80
614.895,2033.83
615.882,2060.83
616.868,2053.57
617.854,2053.13
618.841,2013.67
619.826,2034.77
620.812,1944.00
621.798,2039.23
622.784,1969.47
623.769,2015.70
624.755,1984.80
625.740,1981.13
626.725,1961.57
627.711,1985.07
628.698,1971.57
629.683,1927.83
630.667,1970.87
631.652,1905.07
632.637,1897.40
633.621,1916.53
634.606,1890.43
635.590,1865.67
636.574,1894.60
637.558,1864.23
638.542,1886.20
639.526,1836.83
640.510,1850.27
641.493,1880.10
642.477,1866.03
643.460,1850.00
644.444,1838.00
645.427,1848.70
646.410,1856.30
647.393,1821.13
648.376,1808.67
649.359,1798.63
650.341,1828.60
651.324,1808.10
652.307,1825.90
653.289,1793.37
654.271,1812.73
655.253,1737.03
656.235,1720.97
657.217,1790.20
658.199,1753.37
659.181,1751.40
660.163,1767.60
661.144,1733.23
662.126,1709.50
663.107,1727.93
664.088,1738.73
665.069,1725.90
666.050,1711.30
667.033,1703.37
668.014,1689.03
668.995,1702.83
669.975,1696.73
670.956,1725.53
671.936,1653.57
672.916,1678.27
673.896,1707.90
674.876,1652.57
675.856,1634.97
676.836,1604.93
677.816,1603.27
678.795,1613.43
679.775,1624.03
680.754,1571.03
681.734,1594.37
682.713,1599.20
683.692,1582.83
684.671,1591.70
685.650,1562.83
686.629,1570.67
687.607,1571.83
688.586,1560.23
689.564,1544.43
690.543,1563.27
691.523,1522.73
692.501,1539.40
693.479,1482.23
694.457,1495.47
695.435,1510.40
696.413,1511.20
697.390,1517.13
698.368,1493.03
699.345,1533.97
700.322,1460.30
701.300,1470.97
702.277,1498.30
703.254,1454.67
704.231,1459.07
705.207,1513.60
706.184,1464.30
707.161,1462.73
708.137,1461.43
709.113,1437.87
710.090,1444.57
711.068,1434.63
712.044,1416.57
713.020,1439.33
713.996,1448.27
714.971,1413.03
715.947,1405.67
716.922,1435.53
717.898,1374.07
718.873,1386.40
719.848,1337.93
720.823,1409.73
721.798,1357.33
722.773,1368.43
723.748,1364.43
724.723,1380.03
725.697,1401.80
726.672,1373.53
727.646,1389.63
728.622,1339.47
729.596,1343.00
730.570,1356.87
731.544,1334.20
732.518,1352.63
733.492,1367.07
734.466,1314.77
735.439,1368.73
736.413,1322.77
737.386,1337.63
738.359,1332.53
739.332,1337.07
740.305,1336.17
741.278,1362.33
742.251,1324.07
743.224,1339.50
744.196,1313.13
745.171,1301.33
746.143,1319.63
747.115,1304.23
748.087,1359.70
749.059,1298.47
750.031,1313.57
751.003,1335.63
751.975,1302.37
752.947,1291.30
753.918,1307.77
754.890,1328.77
755.861,1293.97
756.832,1323.73
757.803,1321.83
758.774,1283.80
759.747,1322.27
760.718,1272.33
761.689,1261.30
762.659,1283.07
763.630,1278.27
764.600,1257.93
765.570,1219.73
766.540,1294.27
767.510,1284.17
768.480,1266.80
769.450,1234.00
770.420,1248.27
771.390,1229.23
772.359,1205.90
773.329,1210.67
774.300,1237.33
775.269,1223.33
776.238,1173.10
777.207,1210.23
778.176,1251.17
779.145,1185.73
780.114,1207.60
781.083,1175.77
782.051,1182.30
783.019,1171.27
783.988,1164.90
784.956,1210.77
785.924,1132.37
786.894,1142.50
787.862,1149.10
788.830,1158.03
789.797,1130.77
790.765,1120.50
791.732,1140.27
792.700,1123.37
793.667,1140.43
794.634,1117.00
795.601,1119.87
796.568,1088.47
797.535,1094.20
798.502,1108.27
799.468,1064.33
800.437,1107.10
801.403,1089.37
802.370,1116.90
803.336,1055.43
804.302,1080.97
805.268,1085.47
806.234,1050.27
807.200,1048.10
808.166,1058.83
809.131,1052.30
810.097,1046.87
811.062,1064.20
812.027,1038.93
812.994,1079.83
813.960,1062.57
814.925,1035.97
815.889,1044.03
816.854,1036.20
817.819,1028.87
818.783,1018.50
819.748,1031.13
820.712,1045.73
821.677,993.63
822.641,997.53
823.605,1047.20
824.571,1046.80
825.534,1033.57
826.498,1048.03
827.462,1006.23
828.425,1013.13
829.389,1006.37
830.352,1027.23
831.315,1010.83
832.279,1037.80
833.242,1003.33
834.204,1017.37
835.167,1025.73
836.132,1034.27
837.095,1062.67
838.057,1035.37
839.020,1037.97
839.982,1016.03
840.944,1068.97
841.906,1003.90
842.868,1048.67
843.830,1022.90
844.792,1062.63
845.753,1016.23
846.715,1038.17
847.679,1020.43
848.640,1017.43
849.601,1053.27
850.562,1030.80
851.523,1021.93
852.484,1049.00
853.445,1053.57
854.406,1053.10
855.367,1009.17
856.327,1027.23
857.288,1053.50
858.248,1036.00
859.210,1054.97
860.170,1069.90
861.130,1047.67
862.090,1048.33
863.050,1064.00
864.010,1056.50
864.969,1116.43
865.929,1077.10
866.888,1070.97
867.848,1093.93
868.807,1084.87
869.766,1034.07
870.727,1052.37
871.686,1097.10
872.645,1051.70
873.604,1088.83
874.562,1096.90
875.521,1093.90
876.479,1092.30
877.437,1097.47
878.396,1120.27
879.354,1067.53
880.312,1123.77
881.270,1104.10
882.229,1103.47
883.187,1124.40
884.145,1105.20
885.102,1131.80
886.059,1104.33
887.017,1093.07
887.974,1055.77
888.931,1124.23
889.888,1123.37
890.845,1103.60
891.802,1141.43
892.758,1133.90
893.717,1157.73
894.673,1093.80
895.630,1158.27
896.586,1116.43
897.542,1128.77
898.498,1164.50
899.454,1168.33
900.410,1158.60
901.366,1153.10
902.321,1167.87
903.277,1144.27
904.232,1175.67
905.189,1172.77
906.145,1194.67
907.100,1178.47
908.055,1189.03
909.010,1207.47
909.965,1183.00
910.919,1179.97
911.874,1197.70
912.828,1211.43
913.783,1199.13
914.737,1211.63
915.693,1179.93
916.648,1171.43
917.602,1219.83
918.555,1177.00
919.509,1249.17
920.463,1271.93
921.417,1262.97
922.370,1223.27
923.324,1236.53
924.277,1242.10
925.230,1213.50
926.183,1255.87
927.138,1278.63
928.091,1237.97
929.044,1245.43
929.996,1242.37
930.949,1257.57
931.902,1250.80
932.854,1247.70
933.806,1266.17
934.758,1255.77
935.711,1303.33
936.663,1266.07
937.614,1241.83
938.568,1254.03
939.520,1251.27
940.471,1306.00
941.423,1270.80
942.374,1293.20
943.326,1272.30
944.277,1268.00
945.228,1273.37
946.179,1282.63
947.130,1281.27
948.080,1260.80
949.031,1289.80
949.984,1256.93
950.934,1270.03
951.884,1242.30
952.835,1274.03
953.785,1291.27
954.735,1233.73
955.685,1246.03
956.635,1208.23
957.585,1276.03
958.534,1225.33
959.484,1225.30
960.433,1224.17
961.383,1200.50
962.334,1219.40
963.283,1190.97
964.232,1216.83
965.181,1213.87
966.130,1204.70
967.079,1214.60
968.027,1216.80
968.976,1203.33
969.924,1216.63
970.873,1229.13
971.821,1208.00
972.769,1172.43
973.719,1244.67
974.667,1199.50
975.615,1218.13
976.562,1222.63
977.510,1225.77
978.458,1198.87
979.405,1165.33
980.352,1187.47
981.300,1159.37
982.247,1193.67
983.194,1167.57
984.141,1189.67
985.088,1184.97
986.036,1191.77
986.983,1186.50
987.930,1174.80
988.876,1187.17
989.822,1187.33
990.769,1138.93
991.715,1161.83
992.661,1194.00
993.607,1159.37
994.553,1105.50
995.498,1153.47
996.444,1155.40
997.389,1162.23
998.337,1179.30
999.282,1159.67
1000.227,1155.07
1001.173,1128.47
1002.118,1103.27
1003.062,1127.87
1004.007,1138.40
1004.952,1133.70
1005.897,1087.20
1006.841,1141.10
1007.786,1112.90
1008.730,1102.83
1009.674,1140.53
1010.618,1126.07
1011.564,1102.30
1012.508,1085.17
1013.452,1106.40
1014.396,1092.63
1015.339,1110.33
1016.283,1097.67
1017.226,1121.60
1018.170,1097.23
1019.113,1126.73
1020.056,1081.80
1020.999,1093.73
1021.942,1081.37
1022.885,1096.60
1023.828,1104.73
1024.770,1112.37
1025.715,1101.47
1026.657,1092.53
1027.600,1102.50
1028.542,1103.57
1029.484,1061.13
1030.426,1078.13
1031.368,1100.00
1032.310,1061.77
1033.251,1102.40
1034.193,1091.93
1035.135,1091.80
1036.076,1112.90
1037.017,1088.40
1037.959,1121.83
1038.900,1090.43
1039.843,1110.60
1040.784,1098.37
1041.725,1115.47
1042.665,1107.13
1043.606,1120.23
1044.547,1099.07
1045.487,1105.30
1046.427,1103.37
1047.368,1104.20
1048.308,1116.67
1049.248,1107.70
1050.188,1124.13
1051.128,1093.17
1052.067,1133.93
1053.007,1124.87
1053.947,1118.50
1054.886,1108.80
1055.827,1132.43
1056.766,1116.50
1057.706,1149.40
1058.645,1115.77
1059.584,1120.47
1060.522,1165.33
1061.461,1146.53
1062.400,1134.97
1063.338,1156.33
1064.277,1115.03
1065.215,1119.83
1066.154,1158.20
1067.092,1138.93
1068.030,1158.57
1068.968,1169.17
1069.906,1188.03
1070.843,1178.57
1071.781,1144.83
1072.720,1167.87
1073.658,1185.90
1074.595,1189.20
1075.533,1187.47
1076.470,1165.43
1077.407,1202.30
1078.344,1160.20
1079.281,1185.60
1080.217,1184.53
1081.154,1214.13
1082.091,1188.97
1083.027,1194.27
1083.964,1193.67
1084.900,1172.97
1085.836,1145.83
1086.772,1195.80
1087.708,1157.47
1088.644,1199.67
1089.580,1143.80
1090.515,1191.93
1091.451,1145.70
1092.388,1160.90
1093.324,1145.43
1094.259,1205.20
1095.194,1151.73
1096.129,1161.63
1097.064,1133.43
1097.999,1137.67
1098.934,1175.50
1099.869,1152.80
1100.803,1090.50
1101.738,1109.63
1102.672,1114.53
1103.607,1121.37
1104.541,1081.63
1105.475,1100.17
1106.409,1113.83
1107.343,1101.50
1108.277,1058.07
1109.210,1081.33
1110.144,1053.10
1111.078,1082.20
1112.011,1056.53
1112.944,1059.23
1113.878,1033.20
1114.811,1039.30
1115.744,1045.60
1116.678,987.83
1117.611,1009.17
1118.544,1013.67
1119.477,1004.73
1120.409,1011.20
1121.342,1006.07
1122.274,992.10
1123.206,1577.20
1124.138,963.90
1125.070,930.47
1126.002,953.60
1126.934,949.93
1127.866,926.50
1128.798,932.50
1129.729,912.03
1130.661,921.67
1131.592,905.37
1132.523,939.77
1133.454,909.50
1134.385,876.30
1135.317,890.63
1136.247,897.33
1137.178,844.77
1138.109,887.80
1139.039,896.60
1139.970,860.40
1140.900,879.37
1141.831,884.13
1142.761,857.13
1143.691,883.10
1144.621,792.00
1145.551,840.90
1146.480,850.37
1147.410,869.77
1148.340,879.57
1149.269,823.97
1150.199,789.17
1151.128,826.73
1152.057,827.07
1152.979,827.13
1153.898,791.33
1154.819,834.37
1155.739,813.57
1156.658,826.23
1157.579,812.00
1158.498,781.00
1159.419,800.37
1160.338,785.10
1161.256,783.80
1162.177,799.23
1163.095,786.70
1164.016,787.23
1164.934,759.23
1165.852,791.70
1166.772,730.27
1167.690,723.90
1168.610,762.53
1169.528,743.83
1170.446,766.40
1171.365,733.30
1172.283,708.13
1173.202,761.37
1174.120,724.23
1175.037,731.93
1175.956,736.57
1176.873,690.03
1177.792,726.03
1178.709,713.40
1179.626,725.47
1180.544,698.50
1181.461,698.53
1182.379,708.70
1183.296,721.20
1184.212,695.33
1185.130,695.73
1186.046,654.37
1186.962,725.37
1187.880,645.83
1188.796,665.07
1189.714,678.50
1190.629,680.67
1191.545,678.07
1192.462,686.27
1193.378,704.00
1194.295,683.17
1195.210,707.73
1196.125,679.90
1197.042,668.13
1197.957,700.27
1198.872,682.93
1199.788,689.23
1200.703,711.77
1201.619,671.27
1202.534,667.97
1203.448,639.13
1204.364,719.47
1205.278,665.33
1206.192,669.13
1207.108,643.93
1208.022,686.40
1208.938,659.30
1209.851,626.37
1210.765,711.30
1211.680,705.43
1212.594,667.67
1213.507,678.83
1214.422,670.77
1215.335,678.00
1216.248,636.43
1217.163,655.07
1218.076,638.60
1218.990,647.73
1219.903,647.73
1220.816,644.00
1221.730,657.13
1222.642,668.83
1223.554,654.10
1224.469,651.87
1225.380,652.27
1226.292,652.30
1227.206,637.47
1228.118,691.40
1229.032,636.03
1229.943,637.47
1230.855,658.73
1231.768,656.33
1232.679,679.17
1233.590,668.17
1234.503,655.10
1235.414,649.50
1236.325,654.20
1237.238,685.60
1238.149,658.77
1239.059,665.23
1239.972,665.80
1240.882,649.10
1241.793,663.77
1242.705,652.20
1243.615,636.90
1244.525,668.50
1245.437,622.43
1246.347,683.67
1247.259,658.37
1248.168,650.77
1249.078,675.90
1249.989,684.97
1250.899,621.03
1251.808,645.07
1252.719,640.90
1253.628,650.03
1254.537,635.47
1255.448,667.00
1256.357,654.33
1257.266,648.70
1258.176,671.37
1259.085,646.47
1259.993,654.63
1260.904,647.20
1261.812,708.63
1262.720,647.10
1263.630,676.57
1264.538,660.93
1265.446,641.97
1266.356,658.40
1267.263,649.43
1268.171,666.67
1269.080,659.00
1269.988,619.00
1270.895,660.63
1271.804,627.83
1272.711,663.17
1273.619,666.73
1274.527,640.23
1275.434,654.80
1276.341,617.77
1277.248,620.70
1278.156,675.60
1279.063,620.10
1279.969,638.53
1280.877,643.63
1281.783,632.63
1282.690,667.03
1283.598,633.83
1284.503,631.73
1285.409,673.67
1286.317,664.27
1287.223,639.00
1288.128,624.17
1289.036,621.27
1289.941,655.77
1290.846,627.50
1291.751,658.07
1292.658,649.90
1293.563,647.07
1294.468,610.77
1295.375,636.93
1296.280,639.73
1297.184,644.13
1298.091,641.47
1298.995,610.43
1299.900,615.83
1300.806,611.47
1301.710,657.00
1302.614,598.37
1303.518,636.17
1304.424,634.90
1305.327,595.87
1306.231,639.67
1307.137,594.77
1308.040,631.67
1308.943,605.67
1309.847,645.30
1310.752,620.23
1311.655,584.67
1312.558,604.67
1313.463,590.67
1314.366,575.47
1315.269,603.63
1316.171,626.53
1317.076,623.50
1317.978,612.10
1318.881,600.73
1319.785,587.90
1320.687,592.77
1321.589,565.97
1322.491,589.07
1323.395,543.77
1324.297,600.37
1325.198,601.63
1326.102,601.00
1327.004,620.07
1327.905,566.83
1328.806,584.13
1329.709,578.37
1330.611,605.50
1331.512,578.73
1332.413,588.73
1333.316,543.07
1334.216,571.27
1335.117,601.00
1336.020,591.73
1336.920,568.20
1337.821,583.90
1338.721,550.47
1339.623,538.70
1340.523,546.67
1341.423,587.00
1342.323,590.13
1343.225,579.17
1344.125,594.77
1345.025,613.60
1345.924,557.87
1346.826,557.27
1347.725,573.83
1348.624,589.87
1349.524,548.53
1350.425,561.33
1351.324,526.87
1352.223,545.63
1353.121,571.23
1354.022,574.73
1354.921,540.63
1355.819,564.63
1356.718,574.13
1357.618,571.63
1358.516,528.63
1359.415,574.20
1360.313,572.67
1361.213,542.03
1362.111,534.37
1363.008,573.60
1363.906,538.83
1364.806,524.90
1365.703,568.23
1366.601,548.87
1367.498,541.63
1368.397,544.23
1369.295,543.20
1370.192,519.13
1371.089,569.10
1371.987,512.33
1372.884,490.40
1373.781,529.97
1374.678,541.17
1375.574,522.30
1376.473,538.50
1377.369,570.20
1378.265,557.13
1379.161,523.70
1380.059,488.77
1380.955,498.43
1381.851,503.43
1382.747,500.10
1383.643,510.93
1384.540,556.60
1385.436,522.23
1386.331,516.03
1387.227,533.23
1388.124,514.60
1389.019,481.83
1389.914,473.80
1390.809,515.30
1391.704,521.83
1392.601,497.40
1393.495,520.20
1394.390,528.63
1395.285,506.07
1396.179,490.17
1397.075,511.93
1397.969,500.57
1398.864,522.47
1399.758,499.53
1400.652,515.43
1401.547,525.17
1402.441,527.50
1403.335,497.80
1404.229,477.13
1405.122,494.87
1406.017,487.00
1406.911,452.20
1407.804,496.90
1408.697,522.70
1409.590,515.17
1410.485,489.63
1411.378,487.67
1412.271,473.57
1413.163,507.20
1414.056,502.83
1414.949,490.63
1415.843,473.07
1416.735,476.87
1417.627,458.37
1418.520,476.70
1419.412,463.67
1420.306,494.27
1421.197,479.10
1422.089,515.27
1422.981,448.57
1423.873,488.60
1424.764,455.90
1425.657,469.57
1426.549,475.60
1427.440,468.77
1428.331,454.70
1429.222,452.73
1430.113,456.40
1431.006,473.80
1431.897,464.37
1432.787,491.37
1433.678,460.20
1434.568,481.53
1435.459,484.37
1436.351,501.83
1437.241,500.77
1438.131,457.50
1439.021,452.57
1439.911,482.33
1440.801,446.93
1441.693,453.83
1442.583,437.07
1443.472,427.90
1444.362,467.50
1445.251,453.83
1446.140,484.70
1447.030,447.87
1447.921,446.20
1448.810,481.97
1449.699,462.63
1450.588,446.03
1451.476,446.63
1452.365,443.57
1453.254,432.17
1454.144,478.53
1455.032,449.07
1455.921,483.83
1456.809,456.00
1457.697,452.37
1458.585,449.73
1459.473,459.77
1460.361,428.07
1461.251,451.50
1462.138,451.23
1463.026,477.47
1463.913,483.33
1464.801,444.23
1465.688,464.37
1466.575,420.83
1467.463,445.07
1468.351,477.33
1469.238,428.57
1470.125,457.47
1471.012,452.37
1471.899,418.67
1472.785,481.17
1473.672,440.80
1474.558,450.10
1475.446,419.40
1476.333,458.40
1477.219,443.30
1478.105,444.57
1478.991,427.60
1479.877,437.47
1480.762,413.17
1481.648,458.17
1482.534,438.80
1483.419,407.47
1484.307,430.47
1485.192,460.47
1486.077,402.00
1486.962,401.30
1487.847,431.03
1488.732,411.17
1489.617,413.97
1490.502,459.43
1491.387,442.67
1492.271,415.70
1493.156,418.73
1494.042,405.13
1494.927,420.80
1495.811,447.33
1496.695,420.70
1497.579,435.60
1498.463,429.33
1499.347,453.07
1500.231,408.17
1501.114,397.13
1501.998,358.73
1502.881,448.07
1503.765,421.83
1504.648,424.87
1505.533,457.00
1506.417,394.10
1507.300,408.60
1508.183,429.47
1509.066,478.27
1509.948,397.43
1510.831,449.83
1511.714,407.70
1512.596,452.00
1513.479,409.10
1514.361,401.20
1515.243,372.27
1516.125,457.70
1517.008,389.07
1517.890,409.13
1518.771,446.47
1519.655,409.73
1520.537,371.80
1521.419,430.33
1522.300,375.43
1523.182,413.87
1524.063,414.00
1524.944,421.10
1525.825,397.30
1526.707,454.40
1527.588,396.97
1528.468,402.27
1529.349,387.87
1530.230,397.63
1531.111,408.00
1531.991,408.23
1532.872,394.80
1533.752,401.23
1534.632,419.63
1535.513,362.17
1536.393,385.23
1537.273,399.50
1538.153,407.20
1539.032,403.43
1539.912,371.17
1540.792,385.20
1541.672,399.50
1542.551,414.43
1543.430,410.07
1544.310,392.87
1545.189,400.90
1546.068,367.73
1546.947,392.77
1547.826,405.87
1548.705,402.53
1549.584,385.80
1550.462,416.07
1551.341,390.67
1552.219,381.23
1553.098,403.07
1553.976,383.90
1554.854,415.90
1555.733,397.37
1556.611,400.33
1557.489,383.20
1558.367,374.73
1559.244,394.97
1560.122,371.40
1561.000,422.17
1561.877,410.93
1562.755,383.73
1563.632,364.00
1564.509,384.83
1565.386,389.20
1566.264,374.33
1567.141,420.20
1568.017,349.13
1568.894,373.37
1569.771,371.93
1570.648,415.60
1571.524,363.90
1572.401,361.40
1573.277,393.93
1574.153,411.20
1575.029,367.67
1575.906,364.83
1576.781,364.57
1577.657,376.63
1578.533,393.43
1579.409,392.70
1580.285,383.23
1581.160,375.07
1582.036,344.90
1582.911,409.53
1583.786,376.07
1584.662,333.57
1585.537,402.80
1586.412,366.70
1587.287,349.23
1588.160,377.13
1589.035,380.63
1589.909,329.83
1590.784,413.17
1591.658,399.17
1592.533,384.90
1593.407,371.87
1594.281,401.23
1595.155,381.83
1596.029,357.00
1596.903,364.17
1597.777,352.47
1598.651,367.77
1599.525,356.47
1600.398,376.90
1601.272,369.53
1602.144,384.37
1603.017,361.17
1603.890,380.70
1604.763,376.97
1605.636,374.43
1606.509,394.00
1607.382,393.03
1608.255,401.60
1609.128,405.97
1610.000,386.17
1610.873,362.10
1611.746,394.73
1612.616,357.47
1613.488,334.67
1614.361,348.90
1615.233,383.27
1616.105,371.50
1616.977,349.40
1617.849,355.53
1618.720,354.40
1619.592,354.33
1620.464,374.70
1621.333,367.47
1622.205,366.63
1623.076,377.30
1623.947,325.90
1624.818,405.40
1625.689,407.73
1626.560,373.53
1627.431,359.90
1628.302,368.33
1629.171,390.70
1630.042,400.50
1630.912,399.30
1631.782,321.87
1632.653,352.60
1633.523,360.63
1634.393,363.00
1635.263,370.73
1636.131,384.47
1637.001,372.53
1637.871,352.37
1638.741,401.60
1639.611,338.20
1640.480,357.57
1641.350,370.13
1642.219,340.83
1643.087,368.97
1643.956,388.57
1644.825,355.20
1645.694,376.07
1646.563,366.57
1647.432,377.60
1648.299,377.80
1649.167,343.73
1650.036,374.27
1650.904,361.43
1651.773,325.77
1652.641,391.30
1653.509,334.83
1654.376,372.97
1655.244,362.93
1656.112,332.37
1656.980,326.03
1657.847,322.40
1658.715,379.83
1659.581,323.00
1660.448,302.00
1661.316,359.03
1662.183,383.50
1663.051,323.20
1663.918,351.40
1664.783,337.67
1665.650,387.63
1666.517,356.00
1667.384,345.40
1668.251,365.80
1669.115,340.27
1669.982,344.80
1670.849,368.53
1671.715,350.40
1672.581,334.03
1673.446,350.03
1674.312,362.70
1675.178,358.73
1676.044,347.60
1676.910,308.37
1677.774,337.30
1678.639,359.50
1679.505,324.90
1680.370,338.47
1681.236,374.83
1682.099,342.83
1682.965,349.37
1683.830,359.60
1684.695,355.30
1685.560,329.70
1686.423,316.60
1687.288,347.93
1688.153,336.83
1689.017,371.80
1689.880,331.47
1690.745,381.43
1691.609,363.80
1692.473,356.47
1693.338,364.03
1694.200,354.97
1695.064,328.37
1695.928,313.53
1696.792,365.17
1697.654,385.37
1698.517,351.63
1699.381,348.20
1700.245,354.60
1701.106,340.00
1701.969,347.73
1702.833,344.77
1703.696,339.97
1704.557,349.03
1705.420,344.03
1706.283,356.73
1707.146,308.80
1708.007,381.83
1708.870,365.73
1709.732,330.30
1710.595,322.30
1711.455,351.60
1712.318,320.47
1713.180,321.77
1714.040,373.00
1714.902,353.83
1715.764,342.33
1716.626,311.90
1717.486,324.17
1718.348,318.17
1719.209,292.60
1720.071,314.93
1720.930,334.17
1721.792,368.07
1722.653,329.13
1723.512,336.37
1724.374,330.03
1725.234,307.63
1726.095,328.00
1726.954,325.73
1727.815,347.77
1728.676,331.80
1729.535,382.10
1730.395,343.10
1731.256,339.63
1732.114,344.13
1732.974,341.50
1733.834,322.97
1734.693,335.43
1735.553,334.83
1736.413,348.07
1737.272,328.77
1738.130,340.93
1738.990,373.17
1739.849,324.60
1740.707,322.13
1741.566,331.43
1742.426,336.90
1743.283,323.20
1744.142,332.50
1745.001,361.07
1745.858,326.63
1746.717,310.87
1747.576,333.13
1748.433,353.97
1749.292,362.97
1750.150,351.87
1751.007,329.93
1751.865,332.07
1752.723,323.50
1753.579,328.47
1754.438,337.77
1755.296,314.80
1756.152,349.77
1757.010,343.80
1757.865,344.73
1758.723,331.67
1759.581,340.93
1760.436,299.63
1761.294,337.93
1762.151,346.40
1763.006,322.13
1763.864,339.03
1764.721,341.13
1765.576,308.30
1766.433,329.63
1767.288,344.37
1768.144,303.17
1769.001,308.10
1769.856,359.80
1770.712,327.53
1771.568,335.97
1772.423,297.13
1773.279,346.13
1774.133,331.47
1774.989,397.80
1775.845,339.57
1776.699,341.73
1777.555,334.50
1778.409,319.57
1779.265,311.67
1780.120,312.70
1780.974,319.97
1781.829,309.37
1782.682,318.77
1783.538,345.97
1784.393,337.97
1785.246,318.80
1786.101,309.17
1786.954,334.00
1787.808,296.03
1788.661,334.40
1789.516,346.03
1790.370,335.20
1791.223,357.07
1792.077,314.17
1792.930,311.57
1793.784,325.47
1794.636,310.83
1795.490,313.57
1796.344,308.60
1797.196,325.47
1798.049,323.57
1798.901,289.83
1799.755,352.50
1800.606,316.90
1801.460,360.07
1802.311,326.07
1803.165,328.27
1804.018,329.03
1804.869,333.03
1805.722,316.37
1806.573,349.17
1807.426,283.47
1808.276,303.83
1809.129,356.33
1809.980,325.67
1810.832,323.13
1811.683,323.20
1812.535,297.27
1813.385,276.97
1814.237,288.83
1815.089,283.40
1815.940,292.00
1816.791,285.67
1817.641,310.60
1818.493,271.20
1819.343,314.30
1820.194,315.37
1821.044,343.90
1821.895,349.93
1822.745,331.17
1823.596,343.57
1824.445,326.00
1825.296,331.07
1826.145,314.93
1826.996,316.30
1827.845,285.57
1828.695,290.73
1829.544,335.80
1830.395,342.70
1831.243,333.60
1832.094,308.60
1832.942,318.63
1833.792,306.60
1834.640,306.97
1835.490,279.00
1836.338,283.40
1837.186,299.77
1838.036,326.73
1838.884,312.53
1839.733,276.10
1840.581,306.57
1841.430,353.50
1842.278,317.33
1843.127,324.70
1843.974,296.40
1844.823,306.63
1845.671,298.77
1846.519,302.33
1847.366,297.77
1848.213,310.60
1849.062,286.90
1849.909,306.17
1850.757,294.13
1851.604,293.40
1852.452,281.97
1853.298,335.07
1854.146,317.17
1854.993,279.03
1855.839,312.97
1856.687,281.97
1857.532,290.50
1858.380,255.93
1859.226,265.23
1860.073,312.17
1860.919,307.90
1861.765,313.73
1862.612,319.80
1863.457,275.63
1864.304,317.63
1865.150,310.53
1865.995,301.20
1866.842,290.33
1867.686,275.47
1868.533,343.03
1869.378,321.80
1870.223,283.77
1871.069,281.00
1871.914,309.80
1872.760,304.77
1873.604,333.23
1874.448,293.27
1875.294,316.87
1876.139,324.27
1876.984,330.10
1877.828,324.10
1878.672,306.97
1879.518,291.43
1880.361,300.80
1881.205,308.27
1882.050,294.67
1882.894,273.80
1883.739,298.13
1884.582,299.90
1885.425,314.70
1886.270,270.87
1887.113,275.77
1887.956,281.03
1888.801,297.53
1889.644,335.60
1890.486,301.23
1891.331,321.10
1892.173,283.07
1893.017,287.97
1893.860,319.20
1894.702,294.83
1895.546,294.37
1896.388,327.80
1897.230,310.57
1898.074,297.53
1898.916,301.37
1899.757,292.33
1900.601,351.10
1901.443,236.83
1902.284,279.80
1903.125,321.23
1903.969,270.37
1904.810,292.33
1905.651,306.80
1906.494,270.60
1907.335,280.20
1908.176,324.50
1909.018,270.23
1909.859,293.40
1910.700,275.63
1911.542,281.33
1912.383,267.97
1913.223,295.70
1914.064,309.57
1914.906,284.03
1915.746,313.87
1916.586,291.67
1917.428,302.30
1918.268,300.97
1919.107,307.73
1919.947,293.53
1920.789,292.50
1921.628,319.63
1922.468,254.90
1923.309,330.03
1924.148,296.20
1924.988,265.27
1925.827,319.57
1926.667,280.00
1927.507,261.93
1928.345,260.43
1929.184,266.90
1930.025,293.43
1930.864,316.90
1931.702,317.13
1932.541,300.83
1933.381,285.73
1934.219,328.90
1935.057,305.93
1935.896,288.37
1936.735,301.23
1937.573,279.33
1938.411,311.53
1939.249,272.67
1940.089,270.07
1940.927,278.47
1941.764,294.17
1942.602,314.97
1943.439,266.30
1944.278,299.60
1945.115,303.63
1945.953,294.77
1946.790,293.70
1947.628,284.43
1948.465,277.77
1949.302,297.00
1950.139,296.13
1950.976,320.87
1951.814,333.83
1952.651,297.87
1953.487,297.10
1954.323,317.77
1955.160,296.23
1955.998,298.57
1956.834,295.47
1957.670,287.27
1958.506,296.83
1959.342,313.80
1960.177,291.40
1961.015,302.23
1961.850,263.40
1962.686,292.10
1963.521,266.40
1964.357,297.17
1965.192,281.23
1966.029,256.70
1966.864,291.40
1967.699,264.53
1968.534,290.27
1969.369,298.50
1970.204,283.13
1971.040,321.27
1971.875,268.63
1972.709,251.17
1973.544,297.67
1974.378,305.07
1975.212,269.07
1976.047,257.57
1976.882,234.23
1977.716,291.13
1978.550,297.97
1979.384,280.93
1980.218,291.53
1981.052,280.17
1981.885,316.37
1982.719,306.47
1983.554,276.93
1984.388,291.23
1985.221,293.90
1986.054,298.70
1986.887,279.67
1987.720,282.03
1988.553,260.30
1989.386,272.13
1990.219,292.27
1991.053,276.43
1991.886,260.87
1992.719,310.50
1993.551,254.73
1994.383,279.27
1995.216,275.10
1996.048,276.07
1996.880,231.23
1997.712,312.40
1998.544,279.40
1999.376,250.40
2000.208,286.67
2001.040,284.80
2001.873,284.83
2002.705,271.43
2003.536,291.60
2004.367,237.10
2005.199,258.20
2006.030,259.57
2006.861,273.80
2007.692,292.07
2008.523,279.53
2009.354,287.10
2010.185,269.13
2011.016,306.73
2011.846,291.67
2012.677,288.07
2013.507,286.97
2014.338,261.80
2015.168,246.40
2015.999,328.27
2016.829,267.40
2017.659,258.23
2018.489,316.53
2019.319,292.20
2020.149,271.77
2020.980,278.33
2021.810,304.80
2022.639,297.07
2023.469,254.70
2024.298,268.93
2025.128,275.57
2025.957,295.57
2026.786,301.03
2027.615,285.17
2028.444,256.50
2029.273,274.03
2030.102,274.60
2030.931,276.30
2031.758,264.70
2032.586,299.67
2033.415,309.23
2034.243,242.47
2035.072,272.53
2035.900,281.17
2036.728,277.33
2037.556,279.13
2038.385,282.47
2039.213,283.73
2040.040,290.60
2040.868,280.90
2041.696,289.13
2042.524,283.93
2043.351,318.70
2044.179,258.30
2045.006,289.73
2045.006,289.73

Max Intensity Wave.,216.841
Max Intensity Data,3958.30
Min Intensity Wave.,1996.880
Min Intensity Data,231.23
FWHM Wave.,405.079
FWHM Value,1.34
Pressure Wave.,684.671
Pressure Value [GPa],-24.91530
G/D Ratio,0.64716
G/D Gband Wave.,1561.279
G/D Gband Intensity,425.32
G/D Dband Wave.,1301.653
G/D Dband Intensity,657.21

<< BACKGROUND SPECTRUM >>
Wave[dcm-1],No520
146.591,2270.00
147.626,2095.00
148.664,2066.00
149.699,2536.00
150.737,2242.00
151.772,2413.00
152.809,2358.00
153.846,2309.00
154.881,2421.00
155.918,2001.00
156.953,2267.00
157.989,2581.00
159.026,2474.00
160.060,2626.00
161.096,2806.00
162.130,2522.00
163.167,2567.00
164.200,2456.00
165.236,2661.00
166.272,2676.00
167.305,2296.00
168.341,2531.00
169.374,2764.00
170.409,2831.00
171.445,2717.00
172.477,2509.00
173.512,2407.00
174.545,2660.00
175.580,2834.00
176.614,3062.00
177.647,2774.00
178.681,3015.00
179.713,3296.00
180.747,2828.00
181.781,2773.00
182.813,2984.00
183.847,3086.00
184.878,2708.00
185.912,2957.00
186.945,3123.00
187.976,3053.00
189.010,2685.00
190.043,2844.00
191.073,2875.00
192.106,2754.00
193.137,3171.00
194.170,2559.00
195.202,2921.00
196.232,2687.00
197.265,3025.00
198.297,3055.00
199.327,2755.00
200.359,3010.00
201.388,3318.00
202.420,2874.00
203.452,3071.00
204.481,2714.00
205.512,3313.00
206.544,3052.00
207.573,3100.00
208.604,3430.00
209.635,3541.00
210.663,2943.00
211.694,2968.00
212.725,2857.00
213.753,2737.00
214.783,3354.00
215.813,3254.00
216.841,2989.00
217.871,3199.00
218.899,2922.00
219.929,3157.00
220.959,2865.00
221.986,3182.00
223.016,2775.00
224.045,3165.00
225.072,3134.00
226.101,3206.00
227.130,3200.00
228.157,2851.00
229.185,2346.00
230.214,3161.00
231.241,2849.00
232.269,2505.00
233.297,2674.00
234.323,3220.00
235.351,2823.00
236.379,3078.00
237.407,2783.00
238.433,2981.00
239.460,3128.00
240.488,3122.00
241.513,3220.00
242.540,3110.00
243.568,3214.00
244.592,3217.00
245.619,3160.00
246.646,2964.00
247.671,2888.00
248.697,2788.00
249.724,3006.00
250.748,3025.00
251.774,3013.00
252.801,3273.00
253.827,3137.00
254.850,3040.00
255.876,2675.00
256.902,3143.00
257.925,2982.00
258.951,2706.00
259.976,2800.00
260.999,3078.00
262.024,2791.00
263.049,3676.00
264.074,3096.00
265.097,3000.00
266.122,3097.00
267.146,3015.00
268.168,3221.00
269.193,2848.00
270.217,3241.00
271.241,2698.00
272.263,2875.00
273.287,3194.00
274.311,2785.00
275.332,3322.00
276.356,2876.00
277.379,3095.00
278.402,3152.00
279.424,2958.00
280.447,2908.00
281.470,2688.00
282.492,3058.00
283.513,2917.00
284.536,3197.00
285.558,3185.00
286.581,3164.00
287.601,2877.00
288.623,2790.00
289.645,3107.00
290.665,3090.00
291.687,3164.00
292.709,3111.00
293.730,3384.00
294.750,2899.00
295.771,2761.00
296.792,3049.00
297.813,2927.00
298.832,3052.00
299.853,2739.00
300.874,3010.00
301.895,2939.00
302.913,2971.00
303.934,3297.00
304.954,3022.00
305.975,3260.00
306.993,2746.00
308.013,3119.00
309.033,3042.00
310.052,2944.00
311.072,2885.00
312.090,3057.00
313.109,3282.00
314.129,3376.00
315.148,2997.00
316.165,3091.00
317.184,3239.00
318.203,2777.00
319.222,2768.00
320.238,3135.00
321.257,2835.00
322.275,2718.00
323.294,2963.00
324.312,3160.00
325.328,3278.00
326.346,3282.00
327.364,3232.00
328.382,3130.00
329.397,3148.00
330.415,3213.00
331.432,3229.00
332.450,3253.00
333.467,3469.00
334.482,2568.00
335.499,3342.00
336.516,2915.00
337.533,2586.00
338.547,2827.00
339.564,2836.00
340.580,3124.00
341.597,2991.00
342.613,3376.00
343.627,2986.00
344.643,3012.00
345.659,3048.00
346.675,2994.00
347.690,2853.00
348.704,3112.00
349.719,2893.00
350.735,2756.00
351.750,3197.00
352.765,3006.00
353.778,2993.00
354.793,3134.00
355.808,2840.00
356.822,3199.00
357.837,2668.00
358.851,3298.00
359.864,2964.00
360.878,2725.00
361.892,2958.00
362.906,3133.00
363.920,2573.00
364.932,3093.00
365.945,3058.00
366.959,2993.00
367.972,2910.00
368.986,2699.00
369.999,3390.00
371.010,2873.00
372.023,3382.00
373.036,2964.00
374.049,3350.00
375.061,3088.00
376.072,2975.00
377.084,2872.00
378.097,2753.00
379.109,3209.00
380.121,2977.00
381.133,2662.00
382.143,3165.00
383.155,2742.00
384.166,2891.00
385.178,3102.00
386.189,3216.00
387.201,2742.00
388.212,2968.00
389.221,2958.00
390.232,3008.00
391.243,2897.00
392.254,2996.00
393.264,2837.00
394.275,3205.00
395.283,3189.00
396.294,3583.00
397.304,3476.00
398.314,3094.00
399.324,3042.00
400.334,2667.00
401.344,3202.00
402.351,2665.00
403.361,3221.00
404.370,2952.00
405.380,2883.00
406.389,3336.00
407.398,3114.00
408.407,3074.00
409.414,3156.00
410.423,3331.00
411.431,2753.00
412.440,2685.00
413.448,3312.00
414.457,2836.00
415.465,2794.00
416.471,2866.00
417.479,3019.00
418.487,2812.00
419.495,3320.00
420.503,3153.00
421.510,2632.00
422.518,3187.00
423.525,3164.00
424.530,3381.00
425.537,2919.00
426.544,3237.00
427.551,2891.00
428.558,3597.00
429.565,3446.00
430.571,2891.00
431.578,2862.00
432.582,2875.00
433.588,2974.00
434.595,2637.00
435.601,3279.00
436.607,3232.00
437.612,2731.00
438.618,3360.00
439.624,2983.00
440.627,2942.00
441.633,3121.00
442.638,3571.00
443.643,3069.00
444.648,3014.00
445.653,3193.00
446.658,2894.00
447.663,3034.00
448.667,2890.00
449.672,2932.00
450.674,2962.00
451.678,2728.00
452.682,2900.00
453.687,2868.00
454.690,3577.00
455.694,3256.00
456.698,2601.00
457.702,2661.00
458.705,2793.00
459.709,2783.00
460.710,2861.00
461.713,3018.00
462.716,3047.00
463.719,3034.00
464.722,3190.00
465.725,2974.00
466.727,2820.00
467.730,3058.00
468.732,2792.00
469.735,3301.00
470.737,2928.00
471.737,2885.00
472.739,2880.00
473.741,2845.00
474.742,3122.00
475.744,3117.00
476.746,3050.00
477.747,2961.00
478.748,3154.00
479.750,2924.00
480.751,3010.00
481.752,3752.00
482.753,3086.00
483.751,3552.00
484.752,2632.00
485.753,2944.00
486.753,2869.00
487.753,3016.00
488.754,3401.00
489.754,2744.00
490.754,3353.00
491.754,3138.00
492.754,2701.00
493.753,3018.00
494.753,2916.00
495.752,3374.00
496.752,3004.00
497.749,2971.00
498.748,2872.00
499.747,3397.00
500.746,3077.00
501.745,2793.00
502.744,2767.00
503.742,3296.00
504.741,2886.00
505.739,2474.00
506.737,2907.00
507.735,3115.00
508.734,3349.00
509.732,3176.00
510.729,3312.00
511.727,2883.00
512.725,2879.00
513.720,2798.00
514.718,3244.00
515.715,2705.00
516.712,2611.00
517.709,2982.00
518.706,2904.00
519.703,3016.00
520.700,3191.00
521.696,3355.00
522.693,2924.00
523.689,2864.00
524.686,3125.00
525.682,2790.00
526.678,3482.00
527.674,2921.00
528.670,2585.00
529.666,3563.00
530.661,3480.00
531.657,3153.00
532.652,3123.00
533.648,3018.00
534.641,3214.00
535.636,3064.00
536.631,3062.00
537.626,3186.00
538.621,2765.00
539.616,2605.00
540.610,2500.00
541.605,3013.00
542.599,3060.00
543.593,2995.00
544.587,3906.00
545.581,2852.00
546.575,3039.00
547.569,3021.00
548.563,2711.00
549.557,2653.00
550.550,2776.00
551.543,2758.00
552.537,3171.00
553.530,2734.00
554.523,2802.00
555.516,3092.00
556.509,2956.00
557.502,2626.00
558.494,3229.00
559.487,2913.00
560.479,3209.00
561.472,3248.00
562.464,3172.00
563.456,3307.00
564.448,2950.00
565.440,3019.00
566.432,3417.00
567.423,2909.00
568.415,2923.00
569.404,3084.00
570.396,2810.00
571.387,3107.00
572.378,3010.00
573.369,3950.00
574.360,3705.00
575.351,2957.00
576.341,2843.00
577.332,2853.00
578.323,2696.00
579.313,2882.00
580.303,3246.00
581.293,3139.00
582.283,3023.00
583.273,3100.00
584.263,3065.00
585.253,3065.00
586.243,3147.00
587.232,2666.00
588.222,2961.00
589.211,3178.00
590.200,3038.00
591.189,2927.00
592.178,2956.00
593.167,3374.00
594.156,3288.00
595.145,2885.00
596.133,3454.00
597.122,3109.00
598.110,3204.00
599.098,3072.00
600.086,3023.00
601.074,3204.00
602.062,2850.00
603.050,2756.00
604.038,3109.00
605.025,2811.00
606.013,3200.00
607.000,3373.00
607.987,3012.00
608.975,3090.00
609.962,2799.00
610.949,3148.00
611.936,3251.00
612.922,3153.00
613.909,2741.00
614.895,3374.00
615.882,2829.00
616.868,2986.00
617.854,2739.00
618.841,3022.00
619.826,3080.00
620.812,3046.00
621.798,2760.00
622.784,3199.00
623.769,3057.00
624.755,2704.00
625.740,3032.00
626.725,2724.00
627.711,2835.00
628.698,3054.00
629.683,2828.00
630.667,3136.00
631.652,2760.00
632.637,2971.00
633.621,3161.00
634.606,2940.00
635.590,3140.00
636.574,2937.00
637.558,3090.00
638.542,3034.00
639.526,2872.00
640.510,2660.00
641.493,3015.00
642.477,2984.00
643.460,2689.00
644.444,3232.00
645.427,3241.00
646.410,2654.00
647.393,2980.00
648.376,3083.00
649.359,2929.00
650.341,3059.00
651.324,3080.00
652.307,3001.00
653.289,2950.00
654.271,2855.00
655.253,2934.00
656.235,3165.00
657.217,3227.00
658.199,2648.00
659.181,2758.00
660.163,2984.00
661.144,2882.00
662.126,2919.00
663.107,2789.00
664.088,6189.00
665.069,3236.00
666.050,2821.00
667.033,2726.00
668.014,3066.00
668.995,2606.00
669.975,2984.00
670.956,2955.00
671.936,3149.00
672.916,2964.00
673.896,3053.00
674.876,2925.00
675.856,2867.00
676.836,2779.00
677.816,2344.00
678.795,2839.00
679.775,2690.00
680.754,3074.00
681.734,3163.00
682.713,3157.00
683.692,2795.00
684.671,2640.00
685.650,2772.00
686.629,2863.00
687.607,2746.00
688.586,2770.00
689.564,2864.00
690.543,3236.00
691.523,2407.00
692.501,2825.00
693.479,2969.00
694.457,2820.00
695.435,2865.00
696.413,2671.00
697.390,2503.00
698.368,2687.00
699.345,3053.00
700.322,2963.00
701.300,3095.00
702.277,3022.00
703.254,3259.00
704.231,2586.00
705.207,2923.00
706.184,2775.00
707.161,2664.00
708.137,2831.00
709.113,2812.00
710.090,2791.00
711.068,2587.00
712.044,2629.00
713.020,2882.00
713.996,2600.00
714.971,2822.00
715.947,2874.00
716.922,2794.00
717.898,2784.00
718.873,2897.00
719.848,2780.00
720.823,2688.00
721.798,3025.00
722.773,2792.00
723.748,2562.00
724.723,3017.00
725.697,2820.00
726.672,2767.00
727.646,2501.00
728.622,3021.00
729.596,2611.00
730.570,2737.00
731.544,3094.00
732.518,3279.00
733.492,2810.00
734.466,2918.00
735.439,2983.00
736.413,3152.00
737.386,2471.00
738.359,2436.00
739.332,2541.00
740.305,2842.00
741.278,3273.00
742.251,2942.00
743.224,2728.00
744.196,2562.00
745.171,3165.00
746.143,3026.00
747.115,2785.00
748.087,2688.00
749.059,3108.00
750.031,2910.00
751.003,3668.00
751.975,3254.00
752.947,2716.00
753.918,3088.00
754.890,2560.00
755.861,2773.00
756.832,3008.00
757.803,2833.00
758.774,2852.00
759.747,2588.00
760.718,3202.00
761.689,2756.00
762.659,2603.00
763.630,3148.00
764.600,2573.00
765.570,3089.00
766.540,3097.00
767.510,2910.00
768.480,3036.00
769.450,2735.00
770.420,2819.00
771.390,2658.00
772.359,2796.00
773.329,2688.00
774.300,2503.00
775.269,2755.00
776.238,3025.00
777.207,3164.00
778.176,2464.00
779.145,2818.00
780.114,2666.00
781.083,2587.00
782.051,2756.00
783.019,2693.00
783.988,3100.00
784.956,2813.00
785.924,3018.00
786.894,2888.00
787.862,2714.00
788.830,3140.00
789.797,2642.00
790.765,2620.00
791.732,2761.00
792.700,2661.00
793.667,2584.00
794.634,2761.00
795.601,2748.00
796.568,2819.00
797.535,2854.00
798.502,3440.00
799.468,2943.00
800.437,2400.00
801.403,2659.00
802.370,3244.00
803.336,3021.00
804.302,2874.00
805.268,2432.00
806.234,2586.00
807.200,2752.00
808.166,2787.00
809.131,2584.00
810.097,3001.00
811.062,3648.00
812.027,3021.00
812.994,2582.00
813.960,2605.00
814.925,2950.00
815.889,2524.00
816.854,3027.00
817.819,2661.00
818.783,2746.00
819.748,3104.00
820.712,2729.00
821.677,2719.00
822.641,2723.00
823.605,2701.00
824.571,3124.00
825.534,2743.00
826.498,2666.00
827.462,2834.00
828.425,2650.00
829.389,3069.00
830.352,2823.00
831.315,2925.00
832.279,2497.00
833.242,2784.00
834.204,2663.00
835.167,2666.00
836.132,3046.00
837.095,2494.00
838.057,2704.00
839.020,2807.00
839.982,2861.00
840.944,2648.00
841.906,2669.00
842.868,2948.00
843.830,2551.00
844.792,3019.00
845.753,2704.00
846.715,2447.00
847.679,2617.00
848.640,2643.00
849.601,2739.00
850.562,3256.00
851.523,2730.00
852.484,2478.00
853.445,2978.00
854.406,2702.00
855.367,2768.00
856.327,3068.00
857.288,2505.00
858.248,2700.00
859.210,2701.00
860.170,2512.00
861.130,3025.00
862.090,2446.00
863.050,2616.00
864.010,2691.00
864.969,2849.00
865.929,2590.00
866.888,2528.00
867.848,2809.00
868.807,2658.00
869.766,2903.00
870.727,2741.00
871.686,2972.00
872.645,3031.00
873.604,3289.00
874.562,2751.00
875.521,2786.00
876.479,3360.00
877.437,2590.00
878.396,2571.00
879.354,3215.00
880.312,2573.00
881.270,2669.00
882.229,3092.00
883.187,2607.00
884.145,2686.00
885.102,2918.00
886.059,2846.00
887.017,2917.00
887.974,3018.00
888.931,3076.00
889.888,2528.00
890.845,2461.00
891.802,2350.00
892.758,2641.00
893.717,2413.00
894.673,2616.00
895.630,2630.00
896.586,2929.00
897.542,2706.00
898.498,2510.00
899.454,2848.00
900.410,2689.00
901.366,2683.00
902.321,2616.00
903.277,2721.00
904.232,2741.00
905.189,2482.00
906.145,2654.00
907.100,2229.00
908.055,2699.00
909.010,2903.00
909.965,2356.00
910.919,2825.00
911.874,2574.00
912.828,2771.00
913.783,2786.00
914.737,2360.00
915.693,2790.00
916.648,2944.00
917.602,2946.00
918.555,2833.00
919.509,2821.00
920.463,2728.00
921.417,2740.00
922.370,2572.00
923.324,2683.00
924.277,2646.00
925.230,2784.00
926.183,2420.00
927.138,2668.00
928.091,2946.00
929.044,2817.00
929.996,2669.00
930.949,2656.00
931.902,2833.00
932.854,2861.00
933.806,2583.00
934.758,2983.00
935.711,2956.00
936.663,2835.00
937.614,2826.00
938.568,2767.00
939.520,2418.00
940.471,2685.00
941.423,2782.00
942.374,2876.00
943.326,2755.00
944.277,2593.00
945.228,2831.00
946.179,2696.00
947.130,3025.00
948.080,2670.00
949.031,2543.00
949.984,2686.00
950.934,2701.00
951.884,2498.00
952.835,2704.00
953.785,2727.00
954.735,2625.00
955.685,2358.00
956.635,2665.00
957.585,2609.00
958.534,2658.00
959.484,2762.00
960.433,2621.00
961.383,2503.00
962.334,2974.00
963.283,2828.00
964.232,2869.00
965.181,2731.00
966.130,2803.00
967.079,2625.00
968.027,2729.00
968.976,2751.00
969.924,2602.00
970.873,2791.00
971.821,2746.00
972.769,2958.00
973.719,2818.00
974.667,2492.00
975.615,2691.00
976.562,2697.00
977.510,2400.00
978.458,2605.00
979.405,2852.00
980.352,2766.00
981.300,2983.00
982.247,2785.00
983.194,2555.00
984.141,2625.00
985.088,2729.00
986.036,2762.00
986.983,2990.00
987.930,3107.00
988.876,2342.00
989.822,2942.00
990.769,2581.00
991.715,2600.00
992.661,2390.00
993.607,2780.00
994.553,3304.00
995.498,2595.00
996.444,2281.00
997.389,2769.00
998.337,2500.00
999.282,2849.00
1000.227,2639.00
1001.173,2719.00
1002.118,2467.00
1003.062,2904.00
1004.007,2678.00
1004.952,2979.00
1005.897,2962.00
1006.841,2678.00
1007.786,2457.00
1008.730,2436.00
1009.674,3127.00
1010.618,2636.00
1011.564,2524.00
1012.508,2410.00
1013.452,2945.00
1014.396,2738.00
1015.339,2613.00
1016.283,2700.00
1017.226,2729.00
1018.170,2714.00
1019.113,2868.00
1020.056,2759.00
1020.999,2724.00
1021.942,2615.00
1022.885,2861.00
1023.828,2996.00
1024.770,2495.00
1025.715,2745.00
1026.657,2683.00
1027.600,2758.00
1028.542,2905.00
1029.484,2778.00
1030.426,2883.00
1031.368,2795.00
1032.310,2613.00
1033.251,2543.00
1034.193,2700.00
1035.135,2514.00
1036.076,2622.00
1037.017,2558.00
1037.959,2815.00
1038.900,2800.00
1039.843,2797.00
1040.784,2757.00
1041.725,2785.00
1042.665,2634.00
1043.606,2753.00
1044.547,2762.00
1045.487,2374.00
1046.427,2687.00
1047.368,2773.00
1048.308,2242.00
1049.248,2533.00
1050.188,2697.00
1051.128,2639.00
1052.067,2659.00
1053.007,2404.00
1053.947,2391.00
1054.886,2591.00
1055.827,2482.00
1056.766,2907.00
1057.706,2440.00
1058.645,2691.00
1059.584,2770.00
1060.522,2945.00
1061.461,2451.00
1062.400,2497.00
1063.338,2643.00
1064.277,2525.00
1065.215,2559.00
1066.154,2402.00
1067.092,2611.00
1068.030,2642.00
1068.968,2859.00
1069.906,2987.00
1070.843,2940.00
1071.781,2766.00
1072.720,2813.00
1073.658,2802.00
1074.595,2590.00
1075.533,2545.00
1076.470,2593.00
1077.407,2946.00
1078.344,2781.00
1079.281,2800.00
1080.217,2310.00
1081.154,2646.00
1082.091,2716.00
1083.027,2435.00
1083.964,2908.00
1084.900,2568.00
1085.836,2649.00
1086.772,2868.00
1087.708,2482.00
1088.644,2805.00
1089.580,2709.00
1090.515,2730.00
1091.451,2624.00
1092.388,2717.00
1093.324,2474.00
1094.259,3183.00
1095.194,2760.00
1096.129,2616.00
1097.064,2578.00
1097.999,2821.00
1098.934,2506.00
1099.869,2528.00
1100.803,2748.00
1101.738,2732.00
1102.672,2399.00
1103.607,2793.00
1104.541,2565.00
1105.475,2544.00
1106.409,2417.00
1107.343,2582.00
1108.277,2459.00
1109.210,2699.00
1110.144,2677.00
1111.078,2654.00
1112.011,2457.00
1112.944,2739.00
1113.878,2727.00
1114.811,2174.00
1115.744,2561.00
1116.678,2342.00
1117.611,2578.00
1118.544,2594.00
1119.477,2745.00
1120.409,2551.00
1121.342,3112.00
1122.274,2732.00
1123.206,2984.00
1124.138,2675.00
1125.070,3003.00
1126.002,2832.00
1126.934,2293.00
1127.866,2573.00
1128.798,2343.00
1129.729,2403.00
1130.661,2652.00
1131.592,2583.00
1132.523,2711.00
1133.454,2770.00
1134.385,2326.00
1135.317,2661.00
1136.247,2578.00
1137.178,2906.00
1138.109,2372.00
1139.039,3000.00
1139.970,2843.00
1140.900,2569.00
1141.831,2329.00
1142.761,2237.00
1143.691,2733.00
1144.621,2718.00
1145.551,2694.00
1146.480,2682.00
1147.410,2826.00
1148.340,2266.00
1149.269,2381.00
1150.199,2620.00
1151.128,3044.00
1152.057,2437.00
1152.979,2580.00
1153.898,2635.00
1154.819,2693.00
1155.739,2628.00
1156.658,2534.00
1157.579,2664.00
1158.498,2642.00
1159.419,2175.00
1160.338,2685.00
1161.256,2693.00
1162.177,2484.00
1163.095,2613.00
1164.016,2687.00
1164.934,2902.00
1165.852,2803.00
1166.772,2649.00
1167.690,2683.00
1168.610,2706.00
1169.528,2664.00
1170.446,2182.00
1171.365,2583.00
1172.283,2550.00
1173.202,2617.00
1174.120,2692.00
1175.037,2496.00
1175.956,2462.00
1176.873,2540.00
1177.792,2550.00
1178.709,3105.00
1179.626,2533.00
1180.544,2869.00
1181.461,2532.00
1182.379,2729.00
1183.296,2623.00
1184.212,2302.00
1185.130,2482.00
1186.046,3017.00
1186.962,2618.00
1187.880,2967.00
1188.796,2729.00
1189.714,2460.00
1190.629,2787.00
1191.545,2724.00
1192.462,2579.00
1193.378,2598.00
1194.295,2352.00
1195.210,2630.00
1196.125,2784.00
1197.042,2743.00
1197.957,2625.00
1198.872,2505.00
1199.788,2536.00
1200.703,2924.00
1201.619,2663.00
1202.534,2510.00
1203.448,2746.00
1204.364,2520.00
1205.278,2308.00
1206.192,2682.00
1207.108,3153.00
1208.022,2985.00
1208.938,2484.00
1209.851,2820.00
1210.765,2813.00
1211.680,2490.00
1212.594,2407.00
1213.507,2553.00
1214.422,3017.00
1215.335,2743.00
1216.248,2588.00
1217.163,2670.00
1218.076,3238.00
1218.990,2755.00
1219.903,2426.00
1220.816,2480.00
1221.730,2597.00
1222.642,2477.00
1223.554,2551.00
1224.469,2717.00
1225.380,2588.00
1226.292,2310.00
1227.206,2786.00
1228.118,2915.00
1229.032,2295.00
1229.943,2532.00
1230.855,2573.00
1231.768,2384.00
1232.679,2703.00
1233.590,2595.00
1234.503,2881.00
1235.414,2475.00
1236.325,2513.00
1237.238,2675.00
1238.149,2727.00
1239.059,2438.00
1239.972,2798.00
1240.882,2454.00
1241.793,2742.00
1242.705,2995.00
1243.615,2601.00
1244.525,2704.00
1245.437,2245.00
1246.347,2657.00
1247.259,2782.00
1248.168,3070.00
1249.078,2860.00
1249.989,2863.00
1250.899,2466.00
1251.808,2512.00
1252.719,2588.00
1253.628,2492.00
1254.537,3015.00
1255.448,2440.00
1256.357,2468.00
1257.266,2657.00
1258.176,2356.00
1259.085,2366.00
1259.993,2457.00
1260.904,2480.00
1261.812,2411.00
1262.720,3184.00
1263.630,2785.00
1264.538,2458.00
1265.446,2756.00
1266.356,2619.00
1267.263,2897.00
1268.171,2422.00
1269.080,2693.00
1269.988,2828.00
1270.895,2547.00
1271.804,2622.00
1272.711,2796.00
1273.619,2750.00
1274.527,2441.00
1275.434,2751.00
1276.341,2465.00
1277.248,2681.00
1278.156,2884.00
1279.063,2526.00
1279.969,2735.00
1280.877,3527.00
1281.783,2839.00
1282.690,2669.00
1283.598,2608.00
1284.503,2503.00
1285.409,2438.00
1286.317,2978.00
1287.223,3022.00
1288.128,2709.00
1289.036,2542.00
1289.941,2556.00
1290.846,2656.00
1291.751,2444.00
1292.658,2519.00
1293.563,3064.00
1294.468,2673.00
1295.375,2792.00
1296.280,2877.00
1297.184,3335.00
1298.091,2720.00
1298.995,2819.00
1299.900,3029.00
1300.806,2555.00
1301.710,2358.00
1302.614,2249.00
1303.518,2871.00
1304.424,2566.00
1305.327,2855.00
1306.231,2604.00
1307.137,2810.00
1308.040,2678.00
1308.943,2669.00
1309.847,2819.00
1310.752,2824.00
1311.655,2340.00
1312.558,2428.00
1313.463,2591.00
1314.366,2555.00
1315.269,2692.00
1316.171,2596.00
1317.076,2513.00
1317.978,2431.00
1318.881,2254.00
1319.785,2501.00
1320.687,2520.00
1321.589,2286.00
1322.491,2483.00
1323.395,2764.00
1324.297,3183.00
1325.198,2757.00
1326.102,2440.00
1327.004,2438.00
1327.905,3045.00
1328.806,2603.00
1329.709,2687.00
1330.611,2548.00
1331.512,2469.00
1332.413,3091.00
1333.316,2731.00
1334.216,2810.00
1335.117,2364.00
1336.020,2659.00
1336.920,2646.00
1337.821,2495.00
1338.721,2920.00
1339.623,2720.00
1340.523,2627.00
1341.423,2481.00
1342.323,2886.00
1343.225,2708.00
1344.125,2436.00
1345.025,2466.00
1345.924,2323.00
1346.826,2976.00
1347.725,3040.00
1348.624,2844.00
1349.524,2513.00
1350.425,2590.00
1351.324,2756.00
1352.223,2813.00
1353.121,2601.00
1354.022,2810.00
1354.921,3037.00
1355.819,2729.00
1356.718,2667.00
1357.618,2370.00
1358.516,2761.00
1359.415,2990.00
1360.313,2706.00
1361.213,2594.00
1362.111,2925.00
1363.008,3242.00
1363.906,2612.00
1364.806,2664.00
1365.703,2701.00
1366.601,2447.00
1367.498,2461.00
1368.397,2813.00
1369.295,2688.00
1370.192,2490.00
1371.089,2702.00
1371.987,2626.00
1372.884,2927.00
1373.781,2445.00
1374.678,2616.00
1375.574,2485.00
1376.473,2748.00
1377.369,2806.00
1378.265,2447.00
1379.161,2584.00
1380.059,2383.00
1380.955,2781.00
1381.851,2421.00
1382.747,2538.00
1383.643,2576.00
1384.540,2407.00
1385.436,2519.00
1386.331,2699.00
1387.227,2776.00
1388.124,2737.00
1389.019,2487.00
1389.914,2654.00
1390.809,2279.00
1391.704,3044.00
1392.601,2567.00
1393.495,2906.00
1394.390,2781.00
1395.285,2879.00
1396.179,2728.00
1397.075,2598.00
1397.969,2693.00
1398.864,2315.00
1399.758,2587.00
1400.652,2649.00
1401.547,2428.00
1402.441,2383.00
1403.335,2971.00
1404.229,2706.00
1405.122,2718.00
1406.017,2628.00
1406.911,2814.00
1407.804,3034.00
1408.697,2588.00
1409.590,2437.00
1410.485,2808.00
1411.378,2700.00
1412.271,2368.00
1413.163,2672.00
1414.056,2783.00
1414.949,3024.00
1415.843,2693.00
1416.735,2601.00
1417.627,2676.00
1418.520,2618.00
1419.412,2868.00
1420.306,2778.00
1421.197,2918.00
1422.089,2820.00
1422.981,3128.00
1423.873,2805.00
1424.764,2772.00
1425.657,2672.00
1426.549,2784.00
1427.440,2845.00
1428.331,2587.00
1429.222,2373.00
1430.113,2696.00
1431.006,2816.00
1431.897,2563.00
1432.787,2643.00
1433.678,2587.00
1434.568,2460.00
1435.459,2856.00
1436.351,2791.00
1437.241,2747.00
1438.131,2814.00
1439.021,2421.00
1439.911,2612.00
1440.801,2719.00
1441.693,2882.00
1442.583,2681.00
1443.472,2670.00
1444.362,2749.00
1445.251,2602.00
1446.140,2552.00
1447.030,2846.00
1447.921,2857.00
1448.810,2463.00
1449.699,3008.00
1450.588,2693.00
1451.476,2565.00
1452.365,2763.00
1453.254,2574.00
1454.144,2509.00
1455.032,2791.00
1455.921,2354.00
1456.809,2938.00
1457.697,2452.00
1458.585,2594.00
1459.473,2578.00
1460.361,2517.00
1461.251,2716.00
1462.138,2713.00
1463.026,2577.00
1463.913,2845.00
1464.801,2567.00
1465.688,2716.00
1466.575,2687.00
1467.463,3110.00
1468.351,2479.00
1469.238,2634.00
1470.125,2248.00
1471.012,2691.00
1471.899,2753.00
1472.785,2430.00
1473.672,2653.00
1474.558,2869.00
1475.446,2799.00
1476.333,2787.00
1477.219,2461.00
1478.105,2618.00
1478.991,2614.00
1479.877,2946.00
1480.762,2663.00
1481.648,2495.00
1482.534,2780.00
1483.419,2744.00
1484.307,2769.00
1485.192,2598.00
1486.077,2530.00
1486.962,2545.00
1487.847,2401.00
1488.732,2522.00
1489.617,2676.00
1490.502,2889.00
1491.387,2771.00
1492.271,2507.00
1493.156,2501.00
1494.042,2481.00
1494.927,2862.00
1495.811,2539.00
1496.695,2815.00
1497.579,2918.00
1498.463,2643.00
1499.347,2673.00
1500.231,2699.00
1501.114,2734.00
1501.998,2984.00
1502.881,2667.00
1503.765,2942.00
1504.648,3035.00
1505.533,2724.00
1506.417,2684.00
1507.300,2618.00
1508.183,2713.00
1509.066,2094.00
1509.948,2908.00
1510.831,2972.00
1511.714,2461.00
1512.596,2754.00
1513.479,2908.00
1514.361,2877.00
1515.243,2724.00
1516.125,2778.00
1517.008,2932.00
1517.890,2616.00
1518.771,2650.00
1519.655,2869.00
1520.537,2648.00
1521.419,2484.00
1522.300,2737.00
1523.182,2793.00
1524.063,2783.00
1524.944,2933.00
1525.825,2852.00
1526.707,2439.00
1527.588,2458.00
1528.468,2739.00
1529.349,2354.00
1530.230,2588.00
1531.111,2830.00
1531.991,2701.00
1532.872,2383.00
1533.752,2636.00
1534.632,2512.00
1535.513,2580.00
1536.393,2822.00
1537.273,2967.00
1538.153,3277.00
1539.032,2405.00
1539.912,2676.00
1540.792,2688.00
1541.672,2667.00
1542.551,2771.00
1543.430,3247.00
1544.310,2693.00
1545.189,2561.00
1546.068,3111.00
1546.947,2779.00
1547.826,2970.00
1548.705,2659.00
1549.584,2894.00
1550.462,2602.00
1551.341,2822.00
1552.219,2741.00
1553.098,2807.00
1553.976,2884.00
1554.854,3053.00
1555.733,2864.00
1556.611,2587.00
1557.489,2474.00
1558.367,2693.00
1559.244,2811.00
1560.122,2668.00
1561.000,2703.00
1561.877,2952.00
1562.755,2559.00
1563.632,2659.00
1564.509,2932.00
1565.386,3031.00
1566.264,2449.00
1567.141,2262.00
1568.017,2839.00
1568.894,2677.00
1569.771,2731.00
1570.648,2747.00
1571.524,2704.00
1572.401,2458.00
1573.277,2446.00
1574.153,2686.00
1575.029,2554.00
1575.906,3385.00
1576.781,2848.00
1577.657,2621.00
1578.533,2889.00
1579.409,2305.00
1580.285,2635.00
1581.160,3097.00
1582.036,2874.00
1582.911,2463.00
1583.786,3010.00
1584.662,2522.00
1585.537,2611.00
1586.412,2717.00
1587.287,2534.00
1588.160,2849.00
1589.035,2320.00
1589.909,2734.00
1590.784,2599.00
1591.658,2452.00
1592.533,2714.00
1593.407,2688.00
1594.281,2553.00
1595.155,3059.00
1596.029,2597.00
1596.903,2628.00
1597.777,2617.00
1598.651,2914.00
1599.525,2406.00
1600.398,2695.00
1601.272,2636.00
1602.144,3190.00
1603.017,2629.00
1603.890,2901.00
1604.763,2762.00
1605.636,2808.00
1606.509,2344.00
1607.382,2494.00
1608.255,2714.00
1609.128,2849.00
1610.000,2616.00
1610.873,2385.00
1611.746,2540.00
1612.616,2628.00
1613.488,2290.00
1614.361,2697.00
1615.233,2615.00
1616.105,2872.00
1616.977,2613.00
1617.849,2525.00
1618.720,2987.00
1619.592,2991.00
1620.464,2748.00
1621.333,3122.00
1622.205,2675.00
1623.076,2639.00
1623.947,2695.00
1624.818,2869.00
1625.689,2757.00
1626.560,2586.00
1627.431,2738.00
1628.302,3050.00
1629.171,2779.00
1630.042,2943.00
1630.912,3596.00
1631.782,3284.00
1632.653,2505.00
1633.523,2835.00
1634.393,2907.00
1635.263,2540.00
1636.131,2653.00
1637.001,2583.00
1637.871,2319.00
1638.741,2275.00
1639.611,2445.00
1640.480,2803.00
1641.350,2527.00
1642.219,2526.00
1643.087,2182.00
1643.956,3075.00
1644.825,2922.00
1645.694,2870.00
1646.563,2829.00
1647.432,2700.00
1648.299,2679.00
1649.167,2824.00
1650.036,2473.00
1650.904,2875.00
1651.773,2920.00
1652.641,2654.00
1653.509,2884.00
1654.376,2534.00
1655.244,2702.00
1656.112,2744.00
1656.980,2713.00
1657.847,2580.00
1658.715,2828.00
1659.581,2621.00
1660.448,2948.00
1661.316,2194.00
1662.183,2681.00
1663.051,2756.00
1663.918,2703.00
1664.783,2712.00
1665.650,2748.00
1666.517,2842.00
1667.384,2705.00
1668.251,2698.00
1669.115,2905.00
1669.982,2653.00
1670.849,2937.00
1671.715,2655.00
1672.581,2833.00
1673.446,2798.00
1674.312,2682.00
1675.178,3066.00
1676.044,2779.00
1676.910,2803.00
1677.774,2733.00
1678.639,2337.00
1679.505,2708.00
1680.370,2822.00
1681.236,3291.00
1682.099,2635.00
1682.965,2707.00
1683.830,2281.00
1684.695,2496.00
1685.560,2631.00
1686.423,2862.00
1687.288,2811.00
1688.153,2742.00
1689.017,2588.00
1689.880,2782.00
1690.745,2792.00
1691.609,2506.00
1692.473,2836.00
1693.338,2888.00
1694.200,2932.00
1695.064,2709.00
1695.928,2625.00
1696.792,2681.00
1697.654,3141.00
1698.517,2713.00
1699.381,2439.00
1700.245,2347.00
1701.106,2978.00
1701.969,2586.00
1702.833,2827.00
1703.696,2606.00
1704.557,2642.00
1705.420,2561.00
1706.283,2697.00
1707.146,2850.00
1708.007,2460.00
1708.870,2465.00
1709.732,2387.00
1710.595,2591.00
1711.455,2432.00
1712.318,2628.00
1713.180,2970.00
1714.040,2703.00
1714.902,2839.00
1715.764,2701.00
1716.626,2505.00
1717.486,2657.00
1718.348,2971.00
1719.209,4975.00
1720.071,2379.00
1720.930,2451.00
1721.792,2507.00
1722.653,2562.00
1723.512,2586.00
1724.374,2651.00
1725.234,2771.00
1726.095,2727.00
1726.954,2705.00
1727.815,2805.00
1728.676,2674.00
1729.535,2858.00
1730.395,2655.00
1731.256,2606.00
1732.114,2738.00
1732.974,2168.00
1733.834,3057.00
1734.693,2843.00
1735.553,2720.00
1736.413,3097.00
1737.272,2577.00
1738.130,2622.00
1738.990,2739.00
1739.849,2601.00
1740.707,3686.00
1741.566,2727.00
1742.426,2729.00
1743.283,3094.00
1744.142,2582.00
1745.001,2336.00
1745.858,2862.00
1746.717,2798.00
1747.576,2788.00
1748.433,2824.00
1749.292,3236.00
1750.150,3281.00
1751.007,2881.00
1751.865,2896.00
1752.723,2716.00
1753.579,2620.00
1754.438,2907.00
1755.296,2914.00
1756.152,2252.00
1757.010,2364.00
1757.865,2880.00
1758.723,2354.00
1759.581,3005.00
1760.436,2696.00
1761.294,3048.00
1762.151,2664.00
1763.006,2616.00
1763.864,2338.00
1764.721,2877.00
1765.576,2741.00
1766.433,2845.00
1767.288,2592.00
1768.144,2760.00
1769.001,2666.00
1769.856,2747.00
1770.712,2907.00
1771.568,2476.00
1772.423,2637.00
1773.279,2584.00
1774.133,2607.00
1774.989,3014.00
1775.845,3076.00
1776.699,2922.00
1777.555,2681.00
1778.409,3239.00
1779.265,2661.00
1780.120,2648.00
1780.974,2685.00
1781.829,2326.00
1782.682,2755.00
1783.538,2498.00
1784.393,2717.00
1785.246,2594.00
1786.101,2804.00
1786.954,2815.00
1787.808,2924.00
1788.661,2407.00
1789.516,2600.00
1790.370,2625.00
1791.223,2847.00
1792.077,2700.00
1792.930,2794.00
1793.784,2569.00
1794.636,2723.00
1795.490,2670.00
1796.344,2732.00
1797.196,2684.00
1798.049,2859.00
1798.901,2618.00
1799.755,2884.00
1800.606,2501.00
1801.460,3177.00
1802.311,2986.00
1803.165,3088.00
1804.018,3033.00
1804.869,2771.00
1805.722,3158.00
1806.573,2708.00
1807.426,2560.00
1808.276,2706.00
1809.129,2567.00
1809.980,2896.00
1810.832,2957.00
1811.683,2613.00
1812.535,3048.00
1813.385,2666.00
1814.237,3008.00
1815.089,2774.00
1815.940,2994.00
1816.791,2673.00
1817.641,2577.00
1818.493,2889.00
1819.343,2773.00
1820.194,2564.00
1821.044,2774.00
1821.895,2879.00
1822.745,2418.00
1823.596,2567.00
1824.445,3088.00
1825.296,2788.00
1826.145,2667.00
1826.996,2885.00
1827.845,2779.00
1828.695,2796.00
1829.544,2680.00
1830.395,2719.00
1831.243,2611.00
1832.094,2446.00
1832.942,3297.00
1833.792,2824.00
1834.640,2779.00
1835.490,2742.00
1836.338,2789.00
1837.186,2614.00
1838.036,2556.00
1838.884,2695.00
1839.733,3052.00
1840.581,2882.00
1841.430,2788.00
1842.278,3033.00
1843.127,2582.00
1843.974,2409.00
1844.823,3133.00
1845.671,2869.00
1846.519,2726.00
1847.366,2777.00
1848.213,2355.00
1849.062,2546.00
1849.909,2450.00
1850.757,3364.00
1851.604,2838.00
1852.452,2662.00
1853.298,2861.00
1854.146,2744.00
1854.993,2773.00
1855.839,3213.00
1856.687,2853.00
1857.532,2839.00
1858.380,2768.00
1859.226,2814.00
1860.073,2823.00
1860.919,2547.00
1861.765,2591.00
1862.612,2936.00
1863.457,2969.00
1864.304,2650.00
1865.150,2822.00
1865.995,2687.00
1866.842,2840.00
1867.686,2975.00
1868.533,2745.00
1869.378,2744.00
1870.223,2762.00
1871.069,2652.00
1871.914,2727.00
1872.760,2703.00
1873.604,2477.00
1874.448,2861.00
1875.294,2880.00
1876.139,2571.00
1876.984,2807.00
1877.828,2366.00
1878.672,2235.00
1879.518,2604.00
1880.361,2895.00
1881.205,2867.00
1882.050,2536.00
1882.894,3239.00
1883.739,2588.00
1884.582,2498.00
1885.425,2526.00
1886.270,2985.00
1887.113,2494.00
1887.956,2833.00
1888.801,2773.00
1889.644,2504.00
1890.486,2314.00
1891.331,2628.00
1892.173,2767.00
1893.017,2790.00
1893.860,2984.00
1894.702,3009.00
1895.546,2736.00
1896.388,3375.00
1897.230,3061.00
1898.074,2616.00
1898.916,2510.00
1899.757,2561.00
1900.601,3331.00
1901.443,3066.00
1902.284,3025.00
1903.125,3164.00
1903.969,2942.00
1904.810,2950.00
1905.651,2797.00
1906.494,3051.00
1907.335,3180.00
1908.176,2808.00
1909.018,2845.00
1909.859,2690.00
1910.700,2603.00
1911.542,3264.00
1912.383,2821.00
1913.223,2359.00
1914.064,2841.00
1914.906,2990.00
1915.746,3045.00
1916.586,3186.00
1917.428,2706.00
1918.268,2755.00
1919.107,2613.00
1919.947,2495.00
1920.789,2649.00
1921.628,2941.00
1922.468,2742.00
1923.309,2543.00
1924.148,3030.00
1924.988,2827.00
1925.827,2674.00
1926.667,2636.00
1927.507,2799.00
1928.345,2589.00
1929.184,2915.00
1930.025,2549.00
1930.864,2952.00
1931.702,3003.00
1932.541,2630.00
1933.381,2870.00
1934.219,2843.00
1935.057,2996.00
1935.896,2439.00
1936.735,2685.00
1937.573,2657.00
1938.411,2518.00
1939.249,2909.00
1940.089,2639.00
1940.927,2998.00
1941.764,3015.00
1942.602,2621.00
1943.439,2651.00
1944.278,2695.00
1945.115,2648.00
1945.953,2467.00
1946.790,2802.00
1947.628,3079.00
1948.465,2843.00
1949.302,2868.00
1950.139,2851.00
1950.976,2581.00
1951.814,2847.00
1952.651,2787.00
1953.487,2528.00
1954.323,2954.00
1955.160,2715.00
1955.998,3075.00
1956.834,2722.00
1957.670,2801.00
1958.506,2953.00
1959.342,2807.00
1960.177,2783.00
1961.015,2853.00
1961.850,2798.00
1962.686,2783.00
1963.521,2811.00
1964.357,3014.00
1965.192,2523.00
1966.029,2904.00
1966.864,2658.00
1967.699,2978.00
1968.534,2772.00
1969.369,3002.00
1970.204,2713.00
1971.040,2748.00
1971.875,2700.00
1972.709,2809.00
1973.544,2572.00
1974.378,2619.00
1975.212,2860.00
1976.047,2652.00
1976.882,2655.00
1977.716,3121.00
1978.550,2446.00
1979.384,2701.00
1980.218,2697.00
1981.052,2682.00
1981.885,2743.00
1982.719,2724.00
1983.554,2902.00
1984.388,3031.00
1985.221,2805.00
1986.054,2970.00
1986.887,2796.00
1987.720,2612.00
1988.553,3067.00
1989.386,2835.00
1990.219,2873.00
1991.053,3065.00
1991.886,2644.00
1992.719,2914.00
1993.551,2315.00
1994.383,2891.00
1995.216,2666.00
1996.048,2476.00
1996.880,2952.00
1997.712,2594.00
1998.544,2754.00
1999.376,2853.00
2000.208,3020.00
2001.040,3176.00
2001.873,2572.00
2002.705,2580.00
2003.536,2787.00
2004.367,2841.00
2005.199,2800.00
2006.030,2645.00
2006.861,2564.00
2007.692,2759.00
2008.523,2618.00
2009.354,2776.00
2010.185,2575.00
2011.016,2868.00
2011.846,2942.00
2012.677,2692.00
2013.507,3085.00
2014.338,2986.00
2015.168,2712.00
2015.999,3228.00
2016.829,2709.00
2017.659,2983.00
2018.489,3233.00
2019.319,2560.00
2020.149,2941.00
2020.980,2782.00
2021.810,2539.00
2022.639,2606.00
2023.469,2653.00
2024.298,2459.00
2025.128,2384.00
2025.957,2370.00
2026.786,2193.00
2027.615,2419.00
2028.444,2626.00
2029.273,2776.00
2030.102,2372.00
2030.931,2598.00
2031.758,2903.00
2032.586,2525.00
2033.415,2589.00
2034.243,2281.00
2035.072,2052.00
2035.900,2510.00
2036.728,2326.00
2037.556,2370.00
2038.385,2390.00
2039.213,2196.00
2040.040,2181.00
2040.868,2164.00
2041.696,2213.00
2042.524,2225.00
2043.351,2389.00
2044.179,2251.00
2045.006,2005.00
