RamanScope Measure Spectrum Data V3.72

<< MEASURE CONDITION >>
Exposure Type,Aver
Exposure Time [sec],15
Exposure Count,30
Measure Time,2023/07/07 11:40:21
Data Name,""
Data Comment,""
Rayleigh Wave[nm],532.0

<< SAMPLE SPECTRUM >>
Wave[dcm-1],No522
146.591,1112.57
147.626,1339.17
148.664,1576.67
149.699,1843.40
150.737,2099.83
151.772,2374.67
152.809,2610.33
153.846,2865.20
154.881,3072.87
155.918,3265.07
156.953,3412.20
157.989,3541.27
159.026,3669.23
160.060,3692.63
161.096,3809.27
162.130,3879.63
163.167,3947.13
164.200,4002.20
165.236,4045.10
166.272,4092.13
167.305,4184.67
168.341,4271.10
169.374,4336.67
170.409,4424.60
171.445,4461.30
172.477,4562.57
173.512,4639.30
174.545,4711.97
175.580,4795.17
176.614,4828.47
177.647,4854.70
178.681,4892.90
179.713,4917.87
180.747,4843.70
181.781,4781.70
182.813,4724.80
183.847,4721.23
184.878,4628.67
185.912,4645.23
186.945,4609.10
187.976,4617.83
189.010,4567.83
190.043,4597.63
191.073,4571.13
192.106,4612.90
193.137,4647.63
194.170,4616.97
195.202,4665.03
196.232,4672.43
197.265,4705.53
198.297,4774.27
199.327,4761.67
200.359,4810.97
201.388,4812.50
202.420,4874.93
203.452,4885.33
204.481,4873.53
205.512,4920.13
206.544,5000.37
207.573,4975.77
208.604,5059.40
209.635,5085.00
210.663,5143.90
211.694,5130.30
212.725,5222.37
213.753,5286.60
214.783,5344.67
215.813,5357.80
216.841,5418.13
217.871,5459.57
218.899,5452.23
219.929,5465.37
220.959,5440.53
221.986,5434.53
223.016,5408.77
224.045,5406.93
225.072,5341.00
226.101,5339.13
227.130,5280.17
228.157,5160.40
229.185,5148.87
230.214,5114.10
231.241,5069.80
232.269,5036.63
233.297,5000.27
234.323,5040.87
235.351,4966.97
236.379,4926.70
237.407,4902.70
238.433,4856.67
239.460,4868.17
240.488,4869.17
241.513,4866.00
242.540,4854.77
243.568,4867.33
244.592,4875.10
245.619,4881.93
246.646,4850.87
247.671,4876.77
248.697,4869.37
249.724,4882.00
250.748,4853.30
251.774,4829.83
252.801,4874.37
253.827,4851.77
254.850,4872.30
255.876,4882.27
256.902,4852.50
257.925,4924.53
258.951,4943.13
259.976,4900.17
260.999,4891.43
262.024,4974.03
263.049,4944.93
264.074,5027.90
265.097,5022.87
266.122,5059.57
267.146,5095.63
268.168,5077.37
269.193,5086.77
270.217,5133.60
271.241,5154.77
272.263,5208.90
273.287,5187.70
274.311,5251.13
275.332,5245.77
276.356,5293.93
277.379,5230.03
278.402,5231.80
279.424,5270.10
280.447,5250.33
281.470,5243.73
282.492,5200.27
283.513,5157.93
284.536,5132.33
285.558,5101.23
286.581,5080.63
287.601,5034.57
288.623,4981.37
289.645,4978.20
290.665,4922.97
291.687,4859.13
292.709,4804.63
293.730,4766.53
294.750,4709.70
295.771,4678.30
296.792,4662.77
297.813,4644.80
298.832,4601.53
299.853,4547.70
300.874,4505.10
301.895,4527.93
302.913,4453.80
303.934,4435.03
304.954,4385.43
305.975,4402.33
306.993,4351.57
308.013,4333.23
309.033,4309.00
310.052,4275.57
311.072,4261.53
312.090,4236.63
313.109,4265.20
314.129,4195.10
315.148,4229.10
316.165,4224.63
317.184,4192.43
318.203,4171.40
319.222,4126.43
320.238,4184.60
321.257,4160.70
322.275,4138.80
323.294,4120.00
324.312,4099.90
325.328,4101.30
326.346,4085.77
327.364,4106.77
328.382,4180.30
329.397,4147.07
330.415,4050.53
331.432,4053.30
332.450,4048.43
333.467,4032.90
334.482,4065.97
335.499,4054.80
336.516,4037.77
337.533,4056.53
338.547,4029.73
339.564,4016.33
340.580,4015.03
341.597,4048.90
342.613,3985.23
343.627,4001.63
344.643,3955.33
345.659,3945.10
346.675,3974.13
347.690,3951.87
348.704,3971.70
349.719,3976.83
350.735,3971.10
351.750,3909.20
352.765,3957.87
353.778,3949.80
354.793,3893.87
355.808,3944.60
356.822,3921.10
357.837,3954.30
358.851,3939.30
359.864,3922.13
360.878,3942.90
361.892,3969.93
362.906,4012.73
363.920,3973.10
364.932,3976.73
365.945,3926.77
366.959,3984.40
367.972,3970.97
368.986,4008.73
369.999,3988.80
371.010,3998.53
372.023,3996.33
373.036,4011.00
374.049,4025.23
375.061,4000.30
376.072,4045.90
377.084,4041.37
378.097,4065.77
379.109,4102.03
380.121,4072.30
381.133,4083.30
382.143,4076.80
383.155,4049.13
384.166,4079.73
385.178,4104.33
386.189,4088.03
387.201,4119.13
388.212,4139.60
389.221,4107.20
390.232,4082.27
391.243,4089.57
392.254,4049.93
393.264,4079.23
394.275,4070.83
395.283,4037.13
396.294,4042.57
397.304,3998.83
398.314,4032.20
399.324,3984.87
400.334,3996.07
401.344,3996.57
402.351,3960.50
403.361,3987.83
404.370,3942.27
405.380,3952.20
406.389,3955.87
407.398,3883.87
408.407,3887.07
409.414,4002.80
410.423,3900.27
411.431,3873.63
412.440,3826.87
413.448,3820.47
414.457,3850.10
415.465,3801.13
416.471,3787.70
417.479,3787.43
418.487,3764.77
419.495,3769.40
420.503,3788.90
421.510,3768.07
422.518,3751.03
423.525,3767.77
424.530,3719.93
425.537,3748.03
426.544,3682.47
427.551,3739.57
428.558,3734.53
429.565,3695.80
430.571,3706.37
431.578,3688.93
432.582,3699.67
433.588,3642.57
434.595,3717.67
435.601,3672.07
436.607,3711.40
437.612,3667.80
438.618,3685.80
439.624,3622.30
440.627,3694.20
441.633,3688.50
442.638,3649.27
443.643,3678.63
444.648,3643.63
445.653,3645.50
446.658,3657.77
447.663,3633.00
448.667,3636.53
449.672,3641.37
450.674,3643.17
451.678,3696.07
452.682,3674.40
453.687,3621.90
454.690,3625.67
455.694,3649.37
456.698,3620.23
457.702,3647.93
458.705,3637.27
459.709,3654.17
460.710,3656.87
461.713,3634.80
462.716,3622.43
463.719,3636.00
464.722,3644.97
465.725,3646.23
466.727,3661.83
467.730,3614.17
468.732,3648.67
469.735,3635.07
470.737,3683.93
471.737,3643.50
472.739,3603.33
473.741,3675.87
474.742,3628.67
475.744,3591.43
476.746,3645.87
477.747,3669.33
478.748,3658.47
479.750,3594.40
480.751,3635.30
481.752,3594.10
482.753,3662.60
483.751,3634.03
484.752,3625.27
485.753,3582.40
486.753,3597.70
487.753,3645.83
488.754,3606.87
489.754,3563.60
490.754,3567.93
491.754,3604.17
492.754,3604.63
493.753,3587.53
494.753,3554.70
495.752,3554.17
496.752,3608.70
497.749,3596.50
498.748,3538.03
499.747,3539.10
500.746,3541.53
501.745,3583.23
502.744,3574.30
503.742,3531.20
504.741,3524.70
505.739,3519.40
506.737,3525.97
507.735,3493.03
508.734,3485.37
509.732,3498.77
510.729,3558.70
511.727,3505.87
512.725,3520.27
513.720,3475.03
514.718,3540.07
515.715,3398.07
516.712,3489.73
517.709,3478.03
518.706,3506.00
519.703,3476.63
520.700,3469.67
521.696,3460.03
522.693,3432.93
523.689,3471.83
524.686,3485.67
525.682,3419.27
526.678,3455.40
527.674,3450.83
528.670,3443.13
529.666,3476.17
530.661,3435.90
531.657,3628.03
532.652,3457.87
533.648,3472.60
534.641,3438.67
535.636,3435.43
536.631,3458.87
537.626,3452.73
538.621,3460.33
539.616,3415.47
540.610,3415.93
541.605,3408.67
542.599,3437.57
543.593,3418.93
544.587,3436.17
545.581,3431.77
546.575,3385.37
547.569,3434.77
548.563,3409.47
549.557,3398.03
550.550,3387.03
551.543,3388.07
552.537,3351.53
553.530,3328.57
554.523,3370.70
555.516,3341.63
556.509,3322.40
557.502,3335.43
558.494,3332.03
559.487,3332.00
560.479,3334.53
561.472,3294.83
562.464,3296.40
563.456,3275.40
564.448,3274.63
565.440,3315.07
566.432,3265.33
567.423,3243.53
568.415,3283.33
569.404,3257.10
570.396,3264.70
571.387,3264.50
572.378,3243.60
573.369,3189.37
574.360,3205.87
575.351,3281.63
576.341,3215.03
577.332,3217.07
578.323,3193.00
579.313,3168.07
580.303,3195.37
581.293,3207.00
582.283,3160.23
583.273,3176.20
584.263,3135.07
585.253,3143.17
586.243,3152.43
587.232,3137.60
588.222,3102.70
589.211,3138.13
590.200,3089.67
591.189,3110.63
592.178,3109.93
593.167,3057.20
594.156,3042.47
595.145,3091.63
596.133,3027.90
597.122,3050.47
598.110,2990.67
599.098,3007.30
600.086,2938.37
601.074,2972.37
602.062,2960.70
603.050,2977.70
604.038,2931.77
605.025,2896.53
606.013,2906.17
607.000,2938.13
607.987,2929.93
608.975,2857.83
609.962,2880.03
610.949,2853.70
611.936,2913.23
612.922,2847.27
613.909,2844.37
614.895,2838.70
615.882,2832.03
616.868,2843.57
617.854,2834.83
618.841,2779.77
619.826,2784.80
620.812,2712.93
621.798,2775.17
622.784,2765.13
623.769,2733.63
624.755,2706.93
625.740,2748.30
626.725,2690.33
627.711,2750.57
628.698,2700.07
629.683,2681.73
630.667,2698.53
631.652,2666.20
632.637,2671.40
633.621,2679.43
634.606,2633.63
635.590,2657.10
636.574,2626.53
637.558,2606.37
638.542,2657.73
639.526,2568.97
640.510,2563.27
641.493,2566.17
642.477,2543.20
643.460,2543.37
644.444,2559.77
645.427,2486.80
646.410,2512.87
647.393,2516.63
648.376,2521.37
649.359,2496.87
650.341,2479.40
651.324,2481.97
652.307,2447.57
653.289,2497.53
654.271,2501.17
655.253,2432.30
656.235,2430.80
657.217,2444.17
658.199,2423.93
659.181,2448.83
660.163,2420.47
661.144,2412.00
662.126,2380.67
663.107,2385.67
664.088,2342.50
665.069,2375.40
666.050,2391.37
667.033,2322.97
668.014,2347.03
668.995,2364.60
669.975,2310.03
670.956,2331.57
671.936,2338.70
672.916,2316.73
673.896,2307.70
674.876,2305.43
675.856,2318.97
676.836,2291.27
677.816,2260.17
678.795,2295.27
679.775,2292.70
680.754,2250.77
681.734,2244.70
682.713,2226.03
683.692,2223.47
684.671,2232.50
685.650,2240.43
686.629,2199.33
687.607,2212.10
688.586,2168.33
689.564,2171.93
690.543,2168.80
691.523,2156.17
692.501,2140.03
693.479,2134.67
694.457,2161.80
695.435,2170.80
696.413,2122.97
697.390,2106.47
698.368,2080.30
699.345,2127.93
700.322,2059.90
701.300,2112.03
702.277,2102.30
703.254,2096.30
704.231,2077.87
705.207,2086.13
706.184,2095.07
707.161,2052.97
708.137,2036.67
709.113,2019.83
710.090,2052.00
711.068,2047.93
712.044,1995.20
713.020,2033.33
713.996,2025.53
714.971,2027.40
715.947,1964.83
716.922,1974.83
717.898,1969.93
718.873,1980.03
719.848,1992.10
720.823,2001.90
721.798,1963.17
722.773,1991.00
723.748,1951.57
724.723,1930.27
725.697,1942.90
726.672,1943.93
727.646,1934.90
728.622,1924.10
729.596,1906.27
730.570,1955.57
731.544,1885.00
732.518,1949.80
733.492,1936.33
734.466,1865.73
735.439,1923.00
736.413,1976.00
737.386,1910.00
738.359,1904.53
739.332,1869.67
740.305,1851.37
741.278,1876.83
742.251,1864.20
743.224,1855.93
744.196,1869.53
745.171,1843.97
746.143,1826.70
747.115,1833.33
748.087,1879.67
749.059,1843.97
750.031,1842.63
751.003,1881.33
751.975,1808.00
752.947,1823.40
753.918,1845.60
754.890,1815.17
755.861,1784.13
756.832,1766.07
757.803,1793.37
758.774,1789.33
759.747,1792.13
760.718,1783.17
761.689,1765.33
762.659,1782.00
763.630,1786.77
764.600,1744.90
765.570,1726.83
766.540,1754.83
767.510,1751.37
768.480,1763.30
769.450,1710.47
770.420,1759.73
771.390,1692.17
772.359,1707.80
773.329,1712.23
774.300,1723.80
775.269,1706.60
776.238,1675.70
777.207,1679.93
778.176,1652.20
779.145,1661.53
780.114,1676.93
781.083,1674.00
782.051,1695.10
783.019,1622.27
783.988,1632.00
784.956,1675.67
785.924,1657.33
786.894,1556.33
787.862,1635.57
788.830,1625.77
789.797,1611.97
790.765,1611.93
791.732,1587.67
792.700,1611.33
793.667,1566.67
794.634,1585.60
795.601,1586.50
796.568,1587.33
797.535,1554.83
798.502,1564.90
799.468,1586.87
800.437,1560.33
801.403,1571.17
802.370,1537.33
803.336,1529.47
804.302,1552.57
805.268,1545.67
806.234,1554.97
807.200,1537.30
808.166,1554.80
809.131,1539.70
810.097,1559.37
811.062,1523.93
812.027,1537.67
812.994,1513.93
813.960,1533.43
814.925,1547.20
815.889,1515.47
816.854,1579.30
817.819,1540.20
818.783,1532.87
819.748,1548.93
820.712,1533.07
821.677,1568.97
822.641,1571.23
823.605,1535.53
824.571,1568.83
825.534,1548.80
826.498,1543.73
827.462,1565.90
828.425,1578.10
829.389,1576.80
830.352,1586.20
831.315,1576.00
832.279,1582.87
833.242,1575.77
834.204,1578.57
835.167,1596.80
836.132,1645.30
837.095,1609.37
838.057,1628.30
839.020,1604.30
839.982,1582.70
840.944,1633.47
841.906,1638.90
842.868,1607.23
843.830,1645.13
844.792,1629.03
845.753,1632.13
846.715,1665.63
847.679,1652.30
848.640,1641.90
849.601,1670.63
850.562,1644.10
851.523,1692.67
852.484,1742.33
853.445,1679.37
854.406,1708.40
855.367,1707.73
856.327,1715.83
857.288,1727.37
858.248,1769.50
859.210,1726.17
860.170,1741.67
861.130,1728.13
862.090,1757.60
863.050,1789.03
864.010,1745.97
864.969,1804.07
865.929,1752.87
866.888,1791.07
867.848,1776.33
868.807,1786.43
869.766,1799.87
870.727,1825.83
871.686,1795.13
872.645,1846.17
873.604,1843.00
874.562,1800.30
875.521,1890.10
876.479,1837.60
877.437,1845.47
878.396,1885.17
879.354,1867.13
880.312,1870.43
881.270,1905.53
882.229,1869.50
883.187,1879.07
884.145,1908.93
885.102,1869.37
886.059,1877.80
887.017,1892.30
887.974,1884.07
888.931,1906.60
889.888,1926.23
890.845,1883.73
891.802,1886.80
892.758,1891.67
893.717,1920.87
894.673,1892.77
895.630,1906.60
896.586,1928.83
897.542,1905.17
898.498,1923.63
899.454,1963.40
900.410,1909.77
901.366,1930.70
902.321,1882.43
903.277,1941.10
904.232,1883.53
905.189,1930.03
906.145,1951.27
907.100,1928.93
908.055,1869.83
909.010,1926.70
909.965,1897.47
910.919,1930.47
911.874,1891.30
912.828,1901.00
913.783,1887.77
914.737,1882.50
915.693,1932.87
916.648,1890.90
917.602,1915.90
918.555,1886.43
919.509,1943.70
920.463,1877.53
921.417,1948.13
922.370,1848.80
923.324,1896.87
924.277,1878.30
925.230,1885.57
926.183,1905.50
927.138,1864.20
928.091,1850.37
929.044,1830.20
929.996,1877.07
930.949,1854.17
931.902,1874.17
932.854,1857.97
933.806,1853.50
934.758,1865.83
935.711,1852.80
936.663,1865.83
937.614,1868.53
938.568,1838.17
939.520,1827.23
940.471,1855.77
941.423,1820.53
942.374,1849.33
943.326,1798.87
944.277,1798.00
945.228,1792.33
946.179,1804.80
947.130,1779.60
948.080,1811.57
949.031,1771.97
949.984,1793.83
950.934,1781.57
951.884,1764.13
952.835,1779.03
953.785,1809.90
954.735,1746.77
955.685,1780.40
956.635,1755.60
957.585,1769.00
958.534,1762.17
959.484,1768.47
960.433,1723.03
961.383,1714.83
962.334,1740.17
963.283,1768.13
964.232,1730.93
965.181,1693.83
966.130,1717.47
967.079,1689.07
968.027,1708.57
968.976,1705.73
969.924,1704.33
970.873,1739.30
971.821,1649.17
972.769,1697.70
973.719,1698.47
974.667,1676.67
975.615,1682.83
976.562,1637.50
977.510,1658.43
978.458,1659.73
979.405,1632.57
980.352,1646.90
981.300,1628.53
982.247,1642.53
983.194,1669.50
984.141,1639.10
985.088,1617.70
986.036,1604.13
986.983,1632.23
987.930,1640.03
988.876,1665.03
989.822,1643.90
990.769,1663.03
991.715,1640.20
992.661,1614.03
993.607,1610.57
994.553,1560.63
995.498,1619.93
996.444,1602.67
997.389,1611.50
998.337,1611.00
999.282,1616.90
1000.227,1611.47
1001.173,1593.30
1002.118,1595.30
1003.062,1575.10
1004.007,1551.20
1004.952,1549.97
1005.897,1561.23
1006.841,1556.77
1007.786,1543.27
1008.730,1559.60
1009.674,1551.97
1010.618,1540.63
1011.564,1594.57
1012.508,1600.33
1013.452,1533.00
1014.396,1537.47
1015.339,1581.73
1016.283,1575.70
1017.226,1574.97
1018.170,1566.10
1019.113,1570.10
1020.056,1523.83
1020.999,1516.93
1021.942,1549.77
1022.885,1526.93
1023.828,1514.93
1024.770,1548.07
1025.715,1538.37
1026.657,1478.83
1027.600,1535.13
1028.542,1531.60
1029.484,1504.27
1030.426,1537.70
1031.368,1519.53
1032.310,1540.27
1033.251,1478.27
1034.193,1460.90
1035.135,1519.83
1036.076,1498.47
1037.017,1475.17
1037.959,1484.63
1038.900,1492.20
1039.843,1491.60
1040.784,1503.20
1041.725,1493.83
1042.665,1514.57
1043.606,1487.30
1044.547,1516.37
1045.487,1482.47
1046.427,1502.50
1047.368,1491.03
1048.308,1473.53
1049.248,1477.60
1050.188,1489.07
1051.128,1475.80
1052.067,1497.07
1053.007,1504.80
1053.947,1482.97
1054.886,1448.00
1055.827,1459.60
1056.766,1495.97
1057.706,1467.83
1058.645,1459.23
1059.584,1458.10
1060.522,1418.53
1061.461,1488.07
1062.400,1460.77
1063.338,1419.13
1064.277,1453.93
1065.215,1433.60
1066.154,1462.17
1067.092,1424.10
1068.030,1476.97
1068.968,1437.77
1069.906,1457.93
1070.843,1442.33
1071.781,1472.23
1072.720,1460.13
1073.658,1383.33
1074.595,1429.30
1075.533,1452.53
1076.470,1455.73
1077.407,1360.93
1078.344,1454.87
1079.281,1436.00
1080.217,1417.50
1081.154,1428.70
1082.091,1418.10
1083.027,1405.20
1083.964,1429.50
1084.900,1429.77
1085.836,1411.50
1086.772,1388.83
1087.708,1390.37
1088.644,1390.17
1089.580,1374.87
1090.515,1360.73
1091.451,1378.67
1092.388,1372.63
1093.324,1378.13
1094.259,1339.53
1095.194,1388.53
1096.129,1340.93
1097.064,1335.60
1097.999,1366.57
1098.934,1337.33
1099.869,1327.00
1100.803,1350.57
1101.738,1325.60
1102.672,1316.73
1103.607,1291.93
1104.541,1274.90
1105.475,1304.03
1106.409,1308.87
1107.343,1265.40
1108.277,1266.47
1109.210,1238.10
1110.144,1254.30
1111.078,1249.10
1112.011,1231.00
1112.944,1220.30
1113.878,1247.37
1114.811,1258.67
1115.744,1227.20
1116.678,1222.50
1117.611,1224.40
1118.544,1202.60
1119.477,1171.77
1120.409,1175.00
1121.342,1189.23
1122.274,1182.90
1123.206,1151.87
1124.138,1174.20
1125.070,1169.77
1126.002,1144.73
1126.934,1124.87
1127.866,1134.60
1128.798,1166.23
1129.729,1130.20
1130.661,1128.33
1131.592,1126.90
1132.523,1107.57
1133.454,1113.63
1134.385,1096.40
1135.317,1077.57
1136.247,1113.13
1137.178,1086.77
1138.109,1095.30
1139.039,1065.13
1139.970,1094.73
1140.900,1011.63
1141.831,1071.13
1142.761,1056.23
1143.691,1096.50
1144.621,1093.43
1145.551,1059.13
1146.480,1045.83
1147.410,1090.37
1148.340,1012.03
1149.269,1030.37
1150.199,1057.90
1151.128,1017.70
1152.057,1026.80
1152.979,1027.37
1153.898,1021.17
1154.819,1036.37
1155.739,1021.73
1156.658,1041.27
1157.579,1043.37
1158.498,1004.97
1159.419,1007.00
1160.338,962.73
1161.256,1004.93
1162.177,995.73
1163.095,1007.80
1164.016,1027.30
1164.934,986.47
1165.852,1020.70
1166.772,949.47
1167.690,978.83
1168.610,1020.83
1169.528,991.50
1170.446,1004.00
1171.365,985.13
1172.283,976.60
1173.202,972.50
1174.120,993.90
1175.037,1009.13
1175.956,962.73
1176.873,993.27
1177.792,952.90
1178.709,950.00
1179.626,1005.40
1180.544,966.93
1181.461,975.03
1182.379,952.80
1183.296,979.33
1184.212,956.17
1185.130,961.87
1186.046,975.20
1186.962,963.33
1187.880,943.67
1188.796,958.23
1189.714,943.73
1190.629,958.03
1191.545,970.47
1192.462,959.30
1193.378,962.77
1194.295,992.60
1195.210,975.03
1196.125,1014.47
1197.042,978.30
1197.957,931.57
1198.872,951.73
1199.788,965.43
1200.703,941.07
1201.619,970.47
1202.534,921.97
1203.448,929.33
1204.364,955.97
1205.278,965.90
1206.192,937.27
1207.108,986.33
1208.022,981.03
1208.938,954.87
1209.851,927.00
1210.765,934.17
1211.680,940.77
1212.594,908.60
1213.507,937.27
1214.422,968.50
1215.335,965.10
1216.248,927.63
1217.163,962.43
1218.076,979.20
1218.990,936.37
1219.903,968.80
1220.816,952.63
1221.730,942.03
1222.642,960.77
1223.554,949.97
1224.469,972.77
1225.380,937.73
1226.292,975.63
1227.206,970.13
1228.118,978.97
1229.032,932.10
1229.943,945.40
1230.855,969.53
1231.768,946.90
1232.679,974.07
1233.590,957.50
1234.503,960.67
1235.414,967.93
1236.325,966.17
1237.238,964.50
1238.149,933.10
1239.059,987.53
1239.972,993.20
1240.882,1002.83
1241.793,977.03
1242.705,998.27
1243.615,1010.93
1244.525,996.40
1245.437,973.43
1246.347,954.37
1247.259,1008.90
1248.168,975.90
1249.078,965.00
1249.989,975.30
1250.899,1000.13
1251.808,963.63
1252.719,1006.83
1253.628,992.60
1254.537,970.47
1255.448,979.37
1256.357,999.23
1257.266,968.87
1258.176,980.37
1259.085,997.27
1259.993,965.70
1260.904,1000.53
1261.812,1009.80
1262.720,986.03
1263.630,997.77
1264.538,996.37
1265.446,1011.70
1266.356,1045.70
1267.263,982.70
1268.171,1026.53
1269.080,965.00
1269.988,979.53
1270.895,1002.70
1271.804,1006.67
1272.711,1008.50
1273.619,972.57
1274.527,1002.30
1275.434,1021.93
1276.341,962.37
1277.248,1035.30
1278.156,970.23
1279.063,970.60
1279.969,964.37
1280.877,950.87
1281.783,1007.47
1282.690,996.40
1283.598,981.80
1284.503,969.40
1285.409,981.90
1286.317,977.23
1287.223,1013.37
1288.128,998.53
1289.036,994.53
1289.941,1017.47
1290.846,964.53
1291.751,996.33
1292.658,963.07
1293.563,995.57
1294.468,957.47
1295.375,980.57
1296.280,962.13
1297.184,952.43
1298.091,951.03
1298.995,980.63
1299.900,968.33
1300.806,966.93
1301.710,966.37
1302.614,953.37
1303.518,948.40
1304.424,961.83
1305.327,978.97
1306.231,961.20
1307.137,896.83
1308.040,971.93
1308.943,958.63
1309.847,941.60
1310.752,934.87
1311.655,975.50
1312.558,940.80
1313.463,911.53
1314.366,884.90
1315.269,914.67
1316.171,902.50
1317.076,876.30
1317.978,900.97
1318.881,926.10
1319.785,938.00
1320.687,932.73
1321.589,927.13
1322.491,949.93
1323.395,927.67
1324.297,918.83
1325.198,903.57
1326.102,915.33
1327.004,891.40
1327.905,899.07
1328.806,927.47
1329.709,877.17
1330.611,884.53
1331.512,846.77
1332.413,901.30
1333.316,920.67
1334.216,901.20
1335.117,851.03
1336.020,904.33
1336.920,897.63
1337.821,872.50
1338.721,859.03
1339.623,867.73
1340.523,867.27
1341.423,864.47
1342.323,803.80
1343.225,890.93
1344.125,854.60
1345.025,867.73
1345.924,818.80
1346.826,883.77
1347.725,827.63
1348.624,858.93
1349.524,872.83
1350.425,806.57
1351.324,826.40
1352.223,824.00
1353.121,818.50
1354.022,796.83
1354.921,819.43
1355.819,836.97
1356.718,837.43
1357.618,825.00
1358.516,785.23
1359.415,831.47
1360.313,802.63
1361.213,781.27
1362.111,779.13
1363.008,791.43
1363.906,757.67
1364.806,777.60
1365.703,799.97
1366.601,779.27
1367.498,778.53
1368.397,792.83
1369.295,767.10
1370.192,783.97
1371.089,764.57
1371.987,755.33
1372.884,807.27
1373.781,741.77
1374.678,786.67
1375.574,754.90
1376.473,754.13
1377.369,776.57
1378.265,777.13
1379.161,733.90
1380.059,754.10
1380.955,764.23
1381.851,754.70
1382.747,730.00
1383.643,737.70
1384.540,770.43
1385.436,764.70
1386.331,738.17
1387.227,745.77
1388.124,753.53
1389.019,752.57
1389.914,741.90
1390.809,768.57
1391.704,759.87
1392.601,704.33
1393.495,731.73
1394.390,750.93
1395.285,775.33
1396.179,698.63
1397.075,730.47
1397.969,702.23
1398.864,730.03
1399.758,731.97
1400.652,723.30
1401.547,681.47
1402.441,745.27
1403.335,743.20
1404.229,781.30
1405.122,727.80
1406.017,748.90
1406.911,721.47
1407.804,709.50
1408.697,719.87
1409.590,730.70
1410.485,682.83
1411.378,734.97
1412.271,737.87
1413.163,730.13
1414.056,677.83
1414.949,699.33
1415.843,683.47
1416.735,700.90
1417.627,674.20
1418.520,711.23
1419.412,689.17
1420.306,681.43
1421.197,705.20
1422.089,719.27
1422.981,691.73
1423.873,674.73
1424.764,725.67
1425.657,710.13
1426.549,681.03
1427.440,733.00
1428.331,704.10
1429.222,685.17
1430.113,644.30
1431.006,714.03
1431.897,660.07
1432.787,698.40
1433.678,663.67
1434.568,675.87
1435.459,670.40
1436.351,673.57
1437.241,679.93
1438.131,654.40
1439.021,646.20
1439.911,637.13
1440.801,642.23
1441.693,701.03
1442.583,676.43
1443.472,676.57
1444.362,643.57
1445.251,662.43
1446.140,640.63
1447.030,663.43
1447.921,705.37
1448.810,653.87
1449.699,687.90
1450.588,675.20
1451.476,661.23
1452.365,657.73
1453.254,650.77
1454.144,658.23
1455.032,647.53
1455.921,639.77
1456.809,606.23
1457.697,608.47
1458.585,632.27
1459.473,619.23
1460.361,626.40
1461.251,636.13
1462.138,628.43
1463.026,653.30
1463.913,635.57
1464.801,617.80
1465.688,634.40
1466.575,624.73
1467.463,684.57
1468.351,631.77
1469.238,615.77
1470.125,652.60
1471.012,647.23
1471.899,603.93
1472.785,650.07
1473.672,633.80
1474.558,619.80
1475.446,642.97
1476.333,615.43
1477.219,605.53
1478.105,610.40
1478.991,609.27
1479.877,617.33
1480.762,618.53
1481.648,615.77
1482.534,617.60
1483.419,596.53
1484.307,630.40
1485.192,584.30
1486.077,609.30
1486.962,626.13
1487.847,621.50
1488.732,611.70
1489.617,631.97
1490.502,601.27
1491.387,592.20
1492.271,628.63
1493.156,611.23
1494.042,623.47
1494.927,622.50
1495.811,615.03
1496.695,635.60
1497.579,603.60
1498.463,627.80
1499.347,651.87
1500.231,595.60
1501.114,558.53
1501.998,597.40
1502.881,569.87
1503.765,603.63
1504.648,552.53
1505.533,617.13
1506.417,589.50
1507.300,580.83
1508.183,614.17
1509.066,598.37
1509.948,588.27
1510.831,622.33
1511.714,559.67
1512.596,601.27
1513.479,588.40
1514.361,547.03
1515.243,565.50
1516.125,613.00
1517.008,587.67
1517.890,582.73
1518.771,580.13
1519.655,549.00
1520.537,594.87
1521.419,582.60
1522.300,603.00
1523.182,582.00
1524.063,539.60
1524.944,557.13
1525.825,581.90
1526.707,570.00
1527.588,578.53
1528.468,590.60
1529.349,556.83
1530.230,541.23
1531.111,605.30
1531.991,572.63
1532.872,589.97
1533.752,588.23
1534.632,567.03
1535.513,568.77
1536.393,587.67
1537.273,547.53
1538.153,540.30
1539.032,541.47
1539.912,563.47
1540.792,564.97
1541.672,557.00
1542.551,578.33
1543.430,575.90
1544.310,549.87
1545.189,558.60
1546.068,606.70
1546.947,584.47
1547.826,567.30
1548.705,569.57
1549.584,541.87
1550.462,572.23
1551.341,581.87
1552.219,553.97
1553.098,551.20
1553.976,548.23
1554.854,600.00
1555.733,580.50
1556.611,576.07
1557.489,587.97
1558.367,589.23
1559.244,601.07
1560.122,552.87
1561.000,566.77
1561.877,564.67
1562.755,588.77
1563.632,571.10
1564.509,522.47
1565.386,549.47
1566.264,554.30
1567.141,554.87
1568.017,579.30
1568.894,524.70
1569.771,547.23
1570.648,576.67
1571.524,590.30
1572.401,530.33
1573.277,532.07
1574.153,569.40
1575.029,545.47
1575.906,549.43
1576.781,542.27
1577.657,572.57
1578.533,549.10
1579.409,545.43
1580.285,544.93
1581.160,547.97
1582.036,531.83
1582.911,529.10
1583.786,536.17
1584.662,532.20
1585.537,519.60
1586.412,531.57
1587.287,536.20
1588.160,533.37
1589.035,514.37
1589.909,526.43
1590.784,538.93
1591.658,553.07
1592.533,529.77
1593.407,564.37
1594.281,532.27
1595.155,541.90
1596.029,553.23
1596.903,525.80
1597.777,563.67
1598.651,527.57
1599.525,544.30
1600.398,552.43
1601.272,558.20
1602.144,534.17
1603.017,499.67
1603.890,546.90
1604.763,530.27
1605.636,540.43
1606.509,545.83
1607.382,523.60
1608.255,553.87
1609.128,529.37
1610.000,536.17
1610.873,532.70
1611.746,506.67
1612.616,503.63
1613.488,539.63
1614.361,517.37
1615.233,545.40
1616.105,510.43
1616.977,502.13
1617.849,539.50
1618.720,522.10
1619.592,541.27
1620.464,520.27
1621.333,543.33
1622.205,548.03
1623.076,553.20
1623.947,527.23
1624.818,494.43
1625.689,540.63
1626.560,538.10
1627.431,513.13
1628.302,550.13
1629.171,534.30
1630.042,500.47
1630.912,238.43
1631.782,494.93
1632.653,537.70
1633.523,515.83
1634.393,514.03
1635.263,531.33
1636.131,525.20
1637.001,549.63
1637.871,508.03
1638.741,513.33
1639.611,526.33
1640.480,482.53
1641.350,529.67
1642.219,542.67
1643.087,499.87
1643.956,479.30
1644.825,483.93
1645.694,555.10
1646.563,519.80
1647.432,497.10
1648.299,482.47
1649.167,540.53
1650.036,522.37
1650.904,554.37
1651.773,511.27
1652.641,521.00
1653.509,532.57
1654.376,508.43
1655.244,530.50
1656.112,530.07
1656.980,523.23
1657.847,503.83
1658.715,525.70
1659.581,522.73
1660.448,530.70
1661.316,474.37
1662.183,501.40
1663.051,504.83
1663.918,503.70
1664.783,527.47
1665.650,526.20
1666.517,463.17
1667.384,500.43
1668.251,500.87
1669.115,507.27
1669.982,550.83
1670.849,501.00
1671.715,494.57
1672.581,505.47
1673.446,489.80
1674.312,519.90
1675.178,543.97
1676.044,512.97
1676.910,490.60
1677.774,482.70
1678.639,500.20
1679.505,535.10
1680.370,525.93
1681.236,519.07
1682.099,529.33
1682.965,520.63
1683.830,521.20
1684.695,520.77
1685.560,555.27
1686.423,463.00
1687.288,523.17
1688.153,496.30
1689.017,497.43
1689.880,503.97
1690.745,510.63
1691.609,494.07
1692.473,489.50
1693.338,527.40
1694.200,504.67
1695.064,504.03
1695.928,489.17
1696.792,472.23
1697.654,489.73
1698.517,502.43
1699.381,479.40
1700.245,472.67
1701.106,513.00
1701.969,476.67
1702.833,521.27
1703.696,489.60
1704.557,471.10
1705.420,468.20
1706.283,483.10
1707.146,503.43
1708.007,497.60
1708.870,488.60
1709.732,498.13
1710.595,473.30
1711.455,496.37
1712.318,474.17
1713.180,490.30
1714.040,488.80
1714.902,485.97
1715.764,510.57
1716.626,502.57
1717.486,464.00
1718.348,492.00
1719.209,410.43
1720.071,481.63
1720.930,478.80
1721.792,475.83
1722.653,488.90
1723.512,504.93
1724.374,480.90
1725.234,478.57
1726.095,500.90
1726.954,489.17
1727.815,474.87
1728.676,456.47
1729.535,478.77
1730.395,519.53
1731.256,487.53
1732.114,511.60
1732.974,486.57
1733.834,506.17
1734.693,475.63
1735.553,450.23
1736.413,471.73
1737.272,478.53
1738.130,485.87
1738.990,513.47
1739.849,508.33
1740.707,491.70
1741.566,453.70
1742.426,476.33
1743.283,483.60
1744.142,484.00
1745.001,448.07
1745.858,497.50
1746.717,459.43
1747.576,460.37
1748.433,476.27
1749.292,473.17
1750.150,427.57
1751.007,502.37
1751.865,476.83
1752.723,516.30
1753.579,495.30
1754.438,471.67
1755.296,453.73
1756.152,452.93
1757.010,495.83
1757.865,469.40
1758.723,458.73
1759.581,469.90
1760.436,436.67
1761.294,473.07
1762.151,462.13
1763.006,454.10
1763.864,474.53
1764.721,430.80
1765.576,477.97
1766.433,504.80
1767.288,501.37
1768.144,474.33
1769.001,452.37
1769.856,451.70
1770.712,424.57
1771.568,448.40
1772.423,436.20
1773.279,461.33
1774.133,467.50
1774.989,468.83
1775.845,455.00
1776.699,457.10
1777.555,441.03
1778.409,465.50
1779.265,480.43
1780.120,511.63
1780.974,447.20
1781.829,440.70
1782.682,439.43
1783.538,469.93
1784.393,453.60
1785.246,457.23
1786.101,466.47
1786.954,461.57
1787.808,475.97
1788.661,453.10
1789.516,443.77
1790.370,441.00
1791.223,459.27
1792.077,461.20
1792.930,439.00
1793.784,464.80
1794.636,446.93
1795.490,432.17
1796.344,436.97
1797.196,447.13
1798.049,423.87
1798.901,434.80
1799.755,444.03
1800.606,475.90
1801.460,434.17
1802.311,450.97
1803.165,498.33
1804.018,433.47
1804.869,428.23
1805.722,429.53
1806.573,442.90
1807.426,473.17
1808.276,422.50
1809.129,458.53
1809.980,441.07
1810.832,436.13
1811.683,440.87
1812.535,471.73
1813.385,459.20
1814.237,448.27
1815.089,411.67
1815.940,441.13
1816.791,448.37
1817.641,408.43
1818.493,463.33
1819.343,433.83
1820.194,443.30
1821.044,461.70
1821.895,428.40
1822.745,450.53
1823.596,434.80
1824.445,438.80
1825.296,430.53
1826.145,399.43
1826.996,419.93
1827.845,458.30
1828.695,446.93
1829.544,447.77
1830.395,457.83
1831.243,411.60
1832.094,387.43
1832.942,448.90
1833.792,381.73
1834.640,459.63
1835.490,434.23
1836.338,459.20
1837.186,431.50
1838.036,441.47
1838.884,400.70
1839.733,406.83
1840.581,435.70
1841.430,447.07
1842.278,404.13
1843.127,400.17
1843.974,412.80
1844.823,415.00
1845.671,436.90
1846.519,411.47
1847.366,452.43
1848.213,398.37
1849.062,430.83
1849.909,418.70
1850.757,385.73
1851.604,408.87
1852.452,434.90
1853.298,428.77
1854.146,401.30
1854.993,432.70
1855.839,450.40
1856.687,451.67
1857.532,441.37
1858.380,399.97
1859.226,440.13
1860.073,401.53
1860.919,430.73
1861.765,453.70
1862.612,426.67
1863.457,423.07
1864.304,450.33
1865.150,401.87
1865.995,417.33
1866.842,388.17
1867.686,466.67
1868.533,451.57
1869.378,436.00
1870.223,427.83
1871.069,366.87
1871.914,425.07
1872.760,428.50
1873.604,411.17
1874.448,401.97
1875.294,451.67
1876.139,376.53
1876.984,432.70
1877.828,417.47
1878.672,412.83
1879.518,394.93
1880.361,396.07
1881.205,429.63
1882.050,427.07
1882.894,405.50
1883.739,391.90
1884.582,403.60
1885.425,413.63
1886.270,425.10
1887.113,425.33
1887.956,396.53
1888.801,405.03
1889.644,420.37
1890.486,410.47
1891.331,404.73
1892.173,382.37
1893.017,424.53
1893.860,378.77
1894.702,399.20
1895.546,426.10
1896.388,373.23
1897.230,403.20
1898.074,412.33
1898.916,373.77
1899.757,439.43
1900.601,383.07
1901.443,445.90
1902.284,394.60
1903.125,405.40
1903.969,416.80
1904.810,424.70
1905.651,428.07
1906.494,403.77
1907.335,433.67
1908.176,399.73
1909.018,410.43
1909.859,437.10
1910.700,410.50
1911.542,405.03
1912.383,397.97
1913.223,415.93
1914.064,378.30
1914.906,419.00
1915.746,406.60
1916.586,432.40
1917.428,360.23
1918.268,414.93
1919.107,388.93
1919.947,396.40
1920.789,404.50
1921.628,407.93
1922.468,376.37
1923.309,384.03
1924.148,402.73
1924.988,400.17
1925.827,382.73
1926.667,383.93
1927.507,422.60
1928.345,413.40
1929.184,361.40
1930.025,425.97
1930.864,382.30
1931.702,422.90
1932.541,370.27
1933.381,354.87
1934.219,380.23
1935.057,441.30
1935.896,400.60
1936.735,388.17
1937.573,392.77
1938.411,416.97
1939.249,391.97
1940.089,367.37
1940.927,397.37
1941.764,412.67
1942.602,377.03
1943.439,401.27
1944.278,430.37
1945.115,385.57
1945.953,404.57
1946.790,377.17
1947.628,420.70
1948.465,366.77
1949.302,377.10
1950.139,408.57
1950.976,401.13
1951.814,409.87
1952.651,414.73
1953.487,383.47
1954.323,395.13
1955.160,356.63
1955.998,408.30
1956.834,404.87
1957.670,384.87
1958.506,385.07
1959.342,385.70
1960.177,393.83
1961.015,362.03
1961.850,399.87
1962.686,376.30
1963.521,365.73
1964.357,435.20
1965.192,392.87
1966.029,423.17
1966.864,358.90
1967.699,413.57
1968.534,415.27
1969.369,367.47
1970.204,404.67
1971.040,399.97
1971.875,397.47
1972.709,393.47
1973.544,382.63
1974.378,402.07
1975.212,386.20
1976.047,386.60
1976.882,400.50
1977.716,338.47
1978.550,380.67
1979.384,385.30
1980.218,406.03
1981.052,395.30
1981.885,421.87
1982.719,354.43
1983.554,393.07
1984.388,358.13
1985.221,371.17
1986.054,387.00
1986.887,378.03
1987.720,367.27
1988.553,383.83
1989.386,354.10
1990.219,403.33
1991.053,360.30
1991.886,403.67
1992.719,362.13
1993.551,368.70
1994.383,368.43
1995.216,383.47
1996.048,389.57
1996.880,351.23
1997.712,403.97
1998.544,369.57
1999.376,431.57
2000.208,354.13
2001.040,365.40
2001.873,380.73
2002.705,375.60
2003.536,376.17
2004.367,344.53
2005.199,367.47
2006.030,355.60
2006.861,387.80
2007.692,389.43
2008.523,321.60
2009.354,352.90
2010.185,397.60
2011.016,397.00
2011.846,346.73
2012.677,347.67
2013.507,364.67
2014.338,374.43
2015.168,344.43
2015.999,390.87
2016.829,386.73
2017.659,388.00
2018.489,388.57
2019.319,380.70
2020.149,361.23
2020.980,374.63
2021.810,369.17
2022.639,370.17
2023.469,393.70
2024.298,390.07
2025.128,387.17
2025.957,427.17
2026.786,404.20
2027.615,354.17
2028.444,398.27
2029.273,404.80
2030.102,380.40
2030.931,397.93
2031.758,343.33
2032.586,363.80
2033.415,381.40
2034.243,373.07
2035.072,392.70
2035.900,364.17
2036.728,399.87
2037.556,363.10
2038.385,369.77
2039.213,382.70
2040.040,355.73
2040.868,392.47
2041.696,396.53
2042.524,393.43
2043.351,378.10
2044.179,387.97
2045.006,367.23
2045.006,367.23

Max Intensity Wave.,219.929
Max Intensity Data,5465.37
Min Intensity Wave.,1630.912
Min Intensity Data,238.43
FWHM Wave.,409.440
FWHM Value,0.85
Pressure Wave.,685.319
Pressure Value [GPa],-23.22854
G/D Ratio,0.62095
G/D Gband Wave.,1546.230
G/D Gband Intensity,607.89
G/D Dband Wave.,1305.319
G/D Dband Intensity,978.97

<< BACKGROUND SPECTRUM >>
Wave[dcm-1],No522
146.591,2277.00
147.626,2113.00
148.664,2071.00
149.699,2530.00
150.737,2249.00
151.772,2387.00
152.809,2390.00
153.846,2287.00
154.881,2393.00
155.918,1946.00
156.953,2291.00
157.989,2592.00
159.026,2447.00
160.060,2675.00
161.096,2844.00
162.130,2511.00
163.167,2556.00
164.200,2446.00
165.236,2655.00
166.272,2689.00
167.305,2267.00
168.341,2524.00
169.374,2773.00
170.409,2803.00
171.445,2759.00
172.477,2527.00
173.512,2405.00
174.545,2707.00
175.580,2858.00
176.614,3031.00
177.647,2819.00
178.681,3035.00
179.713,3299.00
180.747,2805.00
181.781,2722.00
182.813,3011.00
183.847,3078.00
184.878,2754.00
185.912,2959.00
186.945,3125.00
187.976,3026.00
189.010,2728.00
190.043,2828.00
191.073,2934.00
192.106,2706.00
193.137,3148.00
194.170,2569.00
195.202,2920.00
196.232,2684.00
197.265,2969.00
198.297,3024.00
199.327,2762.00
200.359,2921.00
201.388,3309.00
202.420,2870.00
203.452,3069.00
204.481,2729.00
205.512,3326.00
206.544,3039.00
207.573,3072.00
208.604,3366.00
209.635,3538.00
210.663,2941.00
211.694,3026.00
212.725,2840.00
213.753,2784.00
214.783,3369.00
215.813,3259.00
216.841,2997.00
217.871,3148.00
218.899,2928.00
219.929,3139.00
220.959,2899.00
221.986,3147.00
223.016,2773.00
224.045,3132.00
225.072,3118.00
226.101,3167.00
227.130,3202.00
228.157,2855.00
229.185,2341.00
230.214,3168.00
231.241,2810.00
232.269,2457.00
233.297,2687.00
234.323,3163.00
235.351,2792.00
236.379,3081.00
237.407,2766.00
238.433,2939.00
239.460,3114.00
240.488,3124.00
241.513,3191.00
242.540,3116.00
243.568,3191.00
244.592,3216.00
245.619,3192.00
246.646,2935.00
247.671,2940.00
248.697,2786.00
249.724,2984.00
250.748,3017.00
251.774,3010.00
252.801,3277.00
253.827,3133.00
254.850,3080.00
255.876,2682.00
256.902,3176.00
257.925,2954.00
258.951,2698.00
259.976,2800.00
260.999,3153.00
262.024,2776.00
263.049,3653.00
264.074,3053.00
265.097,3025.00
266.122,3074.00
267.146,2993.00
268.168,3222.00
269.193,2890.00
270.217,3218.00
271.241,2725.00
272.263,2850.00
273.287,3185.00
274.311,2752.00
275.332,3285.00
276.356,2839.00
277.379,3125.00
278.402,3159.00
279.424,2937.00
280.447,2898.00
281.470,2718.00
282.492,3090.00
283.513,2935.00
284.536,3175.00
285.558,3165.00
286.581,3105.00
287.601,2844.00
288.623,2807.00
289.645,3055.00
290.665,3118.00
291.687,3146.00
292.709,3137.00
293.730,3399.00
294.750,2907.00
295.771,2772.00
296.792,3069.00
297.813,2906.00
298.832,3022.00
299.853,2734.00
300.874,3000.00
301.895,2926.00
302.913,2980.00
303.934,3252.00
304.954,3052.00
305.975,4229.00
306.993,2749.00
308.013,3113.00
309.033,3009.00
310.052,2913.00
311.072,2895.00
312.090,3059.00
313.109,3258.00
314.129,3427.00
315.148,2987.00
316.165,3027.00
317.184,3250.00
318.203,2761.00
319.222,2799.00
320.238,3082.00
321.257,2794.00
322.275,2693.00
323.294,2991.00
324.312,3159.00
325.328,3264.00
326.346,3316.00
327.364,3234.00
328.382,3079.00
329.397,3071.00
330.415,3253.00
331.432,3229.00
332.450,3253.00
333.467,3479.00
334.482,2563.00
335.499,3323.00
336.516,2867.00
337.533,2559.00
338.547,2842.00
339.564,2847.00
340.580,3079.00
341.597,2918.00
342.613,3422.00
343.627,2977.00
344.643,3038.00
345.659,3115.00
346.675,2984.00
347.690,2900.00
348.704,3075.00
349.719,2868.00
350.735,2743.00
351.750,3228.00
352.765,3001.00
353.778,2991.00
354.793,3196.00
355.808,2831.00
356.822,3217.00
357.837,2638.00
358.851,3291.00
359.864,2989.00
360.878,2746.00
361.892,2947.00
362.906,3121.00
363.920,2599.00
364.932,3099.00
365.945,3117.00
366.959,2990.00
367.972,2942.00
368.986,2695.00
369.999,3375.00
371.010,2830.00
372.023,3332.00
373.036,2948.00
374.049,3374.00
375.061,3123.00
376.072,2980.00
377.084,2877.00
378.097,2721.00
379.109,3164.00
380.121,2998.00
381.133,2669.00
382.143,3142.00
383.155,2751.00
384.166,2913.00
385.178,3100.00
386.189,3214.00
387.201,2709.00
388.212,2894.00
389.221,2930.00
390.232,3025.00
391.243,2932.00
392.254,3063.00
393.264,2840.00
394.275,3228.00
395.283,3215.00
396.294,3641.00
397.304,3515.00
398.314,3112.00
399.324,3080.00
400.334,2671.00
401.344,3163.00
402.351,2678.00
403.361,3197.00
404.370,2976.00
405.380,2907.00
406.389,3323.00
407.398,3133.00
408.407,3103.00
409.414,3177.00
410.423,3298.00
411.431,2766.00
412.440,2695.00
413.448,3335.00
414.457,2855.00
415.465,2829.00
416.471,2904.00
417.479,3019.00
418.487,2842.00
419.495,3335.00
420.503,3107.00
421.510,2632.00
422.518,3155.00
423.525,3172.00
424.530,3415.00
425.537,2891.00
426.544,3276.00
427.551,2850.00
428.558,3561.00
429.565,3439.00
430.571,2886.00
431.578,2917.00
432.582,2877.00
433.588,2994.00
434.595,2591.00
435.601,3304.00
436.607,3223.00
437.612,2755.00
438.618,3320.00
439.624,2983.00
440.627,2925.00
441.633,3103.00
442.638,3595.00
443.643,3072.00
444.648,3015.00
445.653,3179.00
446.658,2891.00
447.663,3039.00
448.667,2884.00
449.672,2919.00
450.674,2975.00
451.678,2683.00
452.682,2850.00
453.687,2849.00
454.690,3595.00
455.694,3259.00
456.698,2595.00
457.702,2665.00
458.705,2802.00
459.709,2783.00
460.710,2858.00
461.713,3042.00
462.716,3087.00
463.719,2997.00
464.722,3174.00
465.725,2957.00
466.727,2817.00
467.730,3078.00
468.732,2750.00
469.735,3281.00
470.737,2866.00
471.737,2886.00
472.739,2929.00
473.741,2777.00
474.742,3086.00
475.744,3145.00
476.746,3037.00
477.747,2939.00
478.748,3147.00
479.750,2957.00
480.751,2991.00
481.752,3763.00
482.753,3059.00
483.751,3530.00
484.752,2615.00
485.753,3002.00
486.753,2871.00
487.753,2979.00
488.754,3416.00
489.754,2726.00
490.754,3325.00
491.754,3122.00
492.754,2707.00
493.753,3016.00
494.753,2916.00
495.752,3330.00
496.752,3005.00
497.749,2962.00
498.748,2896.00
499.747,3396.00
500.746,3104.00
501.745,2742.00
502.744,2732.00
503.742,3324.00
504.741,2944.00
505.739,2484.00
506.737,2896.00
507.735,3156.00
508.734,3413.00
509.732,3164.00
510.729,3281.00
511.727,2881.00
512.725,2896.00
513.720,2818.00
514.718,3228.00
515.715,2750.00
516.712,2607.00
517.709,2988.00
518.706,2889.00
519.703,3044.00
520.700,3193.00
521.696,3343.00
522.693,2933.00
523.689,2846.00
524.686,3148.00
525.682,2834.00
526.678,3459.00
527.674,2919.00
528.670,2625.00
529.666,3480.00
530.661,3484.00
531.657,3158.00
532.652,3139.00
533.648,2986.00
534.641,3233.00
535.636,3037.00
536.631,3084.00
537.626,3166.00
538.621,2744.00
539.616,2619.00
540.610,2535.00
541.605,3020.00
542.599,3028.00
543.593,2989.00
544.587,3907.00
545.581,2842.00
546.575,3065.00
547.569,3001.00
548.563,2687.00
549.557,2670.00
550.550,2768.00
551.543,2739.00
552.537,3166.00
553.530,2802.00
554.523,2772.00
555.516,3137.00
556.509,2987.00
557.502,2644.00
558.494,3184.00
559.487,2917.00
560.479,3162.00
561.472,3251.00
562.464,3140.00
563.456,3285.00
564.448,2955.00
565.440,2968.00
566.432,3390.00
567.423,2908.00
568.415,2846.00
569.404,3102.00
570.396,2801.00
571.387,3120.00
572.378,3024.00
573.369,3985.00
574.360,3685.00
575.351,2907.00
576.341,2853.00
577.332,2880.00
578.323,2690.00
579.313,2898.00
580.303,3242.00
581.293,3110.00
582.283,3001.00
583.273,3101.00
584.263,3024.00
585.253,3100.00
586.243,3157.00
587.232,2671.00
588.222,2978.00
589.211,3153.00
590.200,3072.00
591.189,2943.00
592.178,2942.00
593.167,3433.00
594.156,3270.00
595.145,2852.00
596.133,3466.00
597.122,3089.00
598.110,3226.00
599.098,3048.00
600.086,3041.00
601.074,3192.00
602.062,2847.00
603.050,2720.00
604.038,3105.00
605.025,2818.00
606.013,3217.00
607.000,3363.00
607.987,2996.00
608.975,3074.00
609.962,2772.00
610.949,3138.00
611.936,3194.00
612.922,3157.00
613.909,2700.00
614.895,3325.00
615.882,2833.00
616.868,2969.00
617.854,2727.00
618.841,3028.00
619.826,3094.00
620.812,3030.00
621.798,2790.00
622.784,3175.00
623.769,3109.00
624.755,2732.00
625.740,3020.00
626.725,2737.00
627.711,2819.00
628.698,3086.00
629.683,2812.00
630.667,3149.00
631.652,2750.00
632.637,2939.00
633.621,3140.00
634.606,2921.00
635.590,3086.00
636.574,2913.00
637.558,3071.00
638.542,2977.00
639.526,2847.00
640.510,2657.00
641.493,3031.00
642.477,3007.00
643.460,2694.00
644.444,3222.00
645.427,3298.00
646.410,2663.00
647.393,2962.00
648.376,3056.00
649.359,2908.00
650.341,3081.00
651.324,3074.00
652.307,3044.00
653.289,2924.00
654.271,2841.00
655.253,2918.00
656.235,3121.00
657.217,3217.00
658.199,2641.00
659.181,2739.00
660.163,3004.00
661.144,2863.00
662.126,2907.00
663.107,2782.00
664.088,6259.00
665.069,3237.00
666.050,2794.00
667.033,2739.00
668.014,3060.00
668.995,2591.00
669.975,3022.00
670.956,2996.00
671.936,3118.00
672.916,2961.00
673.896,3095.00
674.876,2920.00
675.856,2832.00
676.836,2736.00
677.816,2327.00
678.795,2806.00
679.775,2661.00
680.754,3033.00
681.734,3148.00
682.713,3159.00
683.692,2781.00
684.671,2647.00
685.650,2731.00
686.629,2853.00
687.607,2726.00
688.586,2779.00
689.564,2871.00
690.543,3255.00
691.523,2399.00
692.501,2832.00
693.479,2955.00
694.457,2762.00
695.435,2823.00
696.413,2682.00
697.390,2524.00
698.368,2707.00
699.345,3073.00
700.322,2979.00
701.300,3060.00
702.277,3025.00
703.254,3234.00
704.231,2562.00
705.207,2943.00
706.184,2749.00
707.161,2662.00
708.137,2845.00
709.113,2817.00
710.090,2790.00
711.068,2571.00
712.044,2644.00
713.020,2874.00
713.996,2611.00
714.971,2792.00
715.947,2890.00
716.922,2828.00
717.898,2760.00
718.873,2883.00
719.848,2704.00
720.823,2677.00
721.798,2984.00
722.773,2744.00
723.748,2547.00
724.723,3044.00
725.697,2843.00
726.672,2769.00
727.646,2525.00
728.622,2994.00
729.596,2621.00
730.570,2699.00
731.544,3087.00
732.518,3239.00
733.492,2801.00
734.466,2910.00
735.439,2983.00
736.413,3046.00
737.386,2443.00
738.359,2419.00
739.332,2549.00
740.305,2874.00
741.278,3292.00
742.251,2922.00
743.224,2742.00
744.196,2535.00
745.171,3152.00
746.143,3049.00
747.115,2784.00
748.087,2692.00
749.059,3078.00
750.031,2892.00
751.003,3646.00
751.975,3252.00
752.947,2705.00
753.918,3060.00
754.890,2580.00
755.861,2789.00
756.832,3052.00
757.803,2846.00
758.774,2836.00
759.747,2620.00
760.718,3195.00
761.689,2752.00
762.659,2588.00
763.630,3125.00
764.600,2573.00
765.570,3075.00
766.540,3120.00
767.510,2912.00
768.480,3011.00
769.450,2747.00
770.420,2786.00
771.390,2676.00
772.359,2768.00
773.329,2671.00
774.300,2499.00
775.269,2729.00
776.238,3000.00
777.207,3157.00
778.176,2522.00
779.145,2811.00
780.114,2675.00
781.083,2545.00
782.051,2706.00
783.019,2700.00
783.988,3102.00
784.956,2814.00
785.924,2963.00
786.894,2933.00
787.862,2700.00
788.830,3121.00
789.797,2625.00
790.765,2591.00
791.732,2782.00
792.700,2629.00
793.667,2615.00
794.634,2771.00
795.601,2738.00
796.568,2780.00
797.535,2839.00
798.502,3450.00
799.468,2890.00
800.437,2408.00
801.403,2644.00
802.370,3271.00
803.336,3008.00
804.302,2868.00
805.268,2445.00
806.234,2549.00
807.200,2739.00
808.166,2768.00
809.131,2572.00
810.097,2959.00
811.062,3670.00
812.027,3011.00
812.994,2629.00
813.960,2612.00
814.925,2919.00
815.889,2544.00
816.854,2978.00
817.819,2635.00
818.783,2732.00
819.748,3083.00
820.712,2748.00
821.677,2648.00
822.641,2666.00
823.605,2721.00
824.571,3099.00
825.534,2749.00
826.498,2685.00
827.462,2800.00
828.425,2610.00
829.389,3035.00
830.352,2806.00
831.315,2898.00
832.279,2500.00
833.242,2761.00
834.204,2662.00
835.167,2641.00
836.132,3013.00
837.095,2512.00
838.057,2674.00
839.020,2813.00
839.982,2879.00
840.944,2667.00
841.906,2625.00
842.868,2980.00
843.830,2527.00
844.792,3058.00
845.753,2699.00
846.715,2438.00
847.679,2612.00
848.640,2639.00
849.601,2752.00
850.562,3282.00
851.523,2704.00
852.484,2441.00
853.445,3014.00
854.406,2705.00
855.367,2720.00
856.327,3045.00
857.288,2515.00
858.248,2653.00
859.210,2723.00
860.170,2525.00
861.130,3034.00
862.090,2434.00
863.050,2595.00
864.010,2706.00
864.969,2870.00
865.929,2633.00
866.888,2533.00
867.848,2846.00
868.807,2684.00
869.766,2857.00
870.727,2703.00
871.686,3007.00
872.645,2973.00
873.604,3296.00
874.562,2810.00
875.521,2746.00
876.479,3354.00
877.437,2595.00
878.396,2560.00
879.354,3173.00
880.312,2601.00
881.270,2628.00
882.229,3091.00
883.187,2609.00
884.145,2662.00
885.102,2946.00
886.059,2844.00
887.017,2878.00
887.974,2955.00
888.931,3057.00
889.888,2496.00
890.845,2449.00
891.802,2360.00
892.758,2651.00
893.717,2423.00
894.673,2584.00
895.630,2643.00
896.586,2877.00
897.542,2683.00
898.498,2514.00
899.454,2812.00
900.410,2690.00
901.366,2666.00
902.321,2647.00
903.277,2668.00
904.232,2780.00
905.189,2472.00
906.145,2636.00
907.100,2210.00
908.055,2733.00
909.010,2905.00
909.965,2365.00
910.919,2784.00
911.874,2577.00
912.828,2771.00
913.783,2807.00
914.737,2379.00
915.693,2732.00
916.648,2919.00
917.602,2931.00
918.555,2803.00
919.509,2795.00
920.463,2777.00
921.417,2719.00
922.370,2602.00
923.324,2670.00
924.277,2658.00
925.230,2755.00
926.183,2406.00
927.138,2713.00
928.091,2956.00
929.044,2845.00
929.996,2638.00
930.949,2657.00
931.902,2815.00
932.854,2848.00
933.806,2587.00
934.758,2968.00
935.711,2994.00
936.663,2815.00
937.614,2788.00
938.568,2742.00
939.520,2408.00
940.471,2688.00
941.423,2794.00
942.374,2872.00
943.326,2780.00
944.277,2612.00
945.228,2856.00
946.179,2709.00
947.130,3053.00
948.080,2645.00
949.031,2593.00
949.984,2672.00
950.934,2703.00
951.884,2490.00
952.835,2714.00
953.785,2734.00
954.735,2624.00
955.685,2342.00
956.635,2633.00
957.585,2636.00
958.534,2629.00
959.484,2724.00
960.433,2620.00
961.383,2478.00
962.334,2949.00
963.283,2747.00
964.232,2845.00
965.181,2744.00
966.130,2780.00
967.079,2654.00
968.027,2719.00
968.976,2747.00
969.924,2612.00
970.873,2757.00
971.821,2789.00
972.769,2926.00
973.719,2850.00
974.667,2493.00
975.615,2707.00
976.562,2755.00
977.510,2436.00
978.458,2616.00
979.405,2854.00
980.352,2778.00
981.300,2987.00
982.247,2804.00
983.194,2525.00
984.141,2644.00
985.088,2765.00
986.036,2803.00
986.983,3016.00
987.930,3111.00
988.876,2336.00
989.822,2935.00
990.769,2534.00
991.715,2588.00
992.661,2439.00
993.607,2801.00
994.553,3322.00
995.498,2585.00
996.444,2292.00
997.389,2779.00
998.337,2519.00
999.282,2852.00
1000.227,2643.00
1001.173,2704.00
1002.118,2435.00
1003.062,2906.00
1004.007,2713.00
1004.952,3015.00
1005.897,2937.00
1006.841,2719.00
1007.786,2480.00
1008.730,2431.00
1009.674,3175.00
1010.618,2679.00
1011.564,2483.00
1012.508,2356.00
1013.452,2959.00
1014.396,2742.00
1015.339,2595.00
1016.283,2671.00
1017.226,2708.00
1018.170,2682.00
1019.113,2873.00
1020.056,2747.00
1020.999,2742.00
1021.942,2585.00
1022.885,2860.00
1023.828,3014.00
1024.770,2494.00
1025.715,2744.00
1026.657,2719.00
1027.600,2748.00
1028.542,2892.00
1029.484,2753.00
1030.426,2844.00
1031.368,2787.00
1032.310,2553.00
1033.251,2568.00
1034.193,2747.00
1035.135,2489.00
1036.076,2643.00
1037.017,2567.00
1037.959,2844.00
1038.900,2795.00
1039.843,2811.00
1040.784,2747.00
1041.725,2810.00
1042.665,2617.00
1043.606,2763.00
1044.547,2723.00
1045.487,2375.00
1046.427,2664.00
1047.368,2766.00
1048.308,2254.00
1049.248,2531.00
1050.188,2690.00
1051.128,2613.00
1052.067,2656.00
1053.007,2384.00
1053.947,2386.00
1054.886,2600.00
1055.827,2502.00
1056.766,2857.00
1057.706,2456.00
1058.645,2676.00
1059.584,2757.00
1060.522,3008.00
1061.461,2431.00
1062.400,2481.00
1063.338,2684.00
1064.277,2507.00
1065.215,2548.00
1066.154,2402.00
1067.092,2611.00
1068.030,2620.00
1068.968,2870.00
1069.906,2996.00
1070.843,2957.00
1071.781,2711.00
1072.720,2796.00
1073.658,2868.00
1074.595,2605.00
1075.533,2547.00
1076.470,2555.00
1077.407,3036.00
1078.344,2740.00
1079.281,2790.00
1080.217,2314.00
1081.154,2667.00
1082.091,2721.00
1083.027,2456.00
1083.964,2900.00
1084.900,2537.00
1085.836,2602.00
1086.772,2871.00
1087.708,2461.00
1088.644,2817.00
1089.580,2698.00
1090.515,2761.00
1091.451,2594.00
1092.388,2703.00
1093.324,2438.00
1094.259,3256.00
1095.194,2723.00
1096.129,2633.00
1097.064,2579.00
1097.999,2785.00
1098.934,2533.00
1099.869,2543.00
1100.803,2682.00
1101.738,2698.00
1102.672,2386.00
1103.607,2815.00
1104.541,2562.00
1105.475,2528.00
1106.409,2400.00
1107.343,2609.00
1108.277,2430.00
1109.210,2733.00
1110.144,2673.00
1111.078,2664.00
1112.011,2467.00
1112.944,2772.00
1113.878,2698.00
1114.811,2150.00
1115.744,2580.00
1116.678,2307.00
1117.611,2557.00
1118.544,2592.00
1119.477,2765.00
1120.409,2561.00
1121.342,3114.00
1122.274,2743.00
1123.206,4269.00
1124.138,2659.00
1125.070,2958.00
1126.002,2848.00
1126.934,2327.00
1127.866,2563.00
1128.798,2315.00
1129.729,2380.00
1130.661,2641.00
1131.592,2570.00
1132.523,2746.00
1133.454,2763.00
1134.385,2317.00
1135.317,2674.00
1136.247,2568.00
1137.178,2872.00
1138.109,2367.00
1139.039,3031.00
1139.970,2816.00
1140.900,2645.00
1141.831,2340.00
1142.761,2250.00
1143.691,2735.00
1144.621,2621.00
1145.551,2698.00
1146.480,2697.00
1147.410,2813.00
1148.340,2343.00
1149.269,2390.00
1150.199,2569.00
1151.128,3063.00
1152.057,2450.00
1152.979,2590.00
1153.898,2625.00
1154.819,2715.00
1155.739,2639.00
1156.658,2537.00
1157.579,2661.00
1158.498,2658.00
1159.419,2202.00
1160.338,2730.00
1161.256,2702.00
1162.177,2502.00
1163.095,2629.00
1164.016,2684.00
1164.934,2913.00
1165.852,2800.00
1166.772,2664.00
1167.690,2655.00
1168.610,2685.00
1169.528,2650.00
1170.446,2181.00
1171.365,2569.00
1172.283,2527.00
1173.202,2647.00
1174.120,2661.00
1175.037,2466.00
1175.956,2478.00
1176.873,2495.00
1177.792,2554.00
1178.709,3118.00
1179.626,2505.00
1180.544,2852.00
1181.461,2499.00
1182.379,2740.00
1183.296,2629.00
1184.212,2294.00
1185.130,2477.00
1186.046,2959.00
1186.962,2637.00
1187.880,2927.00
1188.796,2676.00
1189.714,2454.00
1190.629,2775.00
1191.545,2682.00
1192.462,2563.00
1193.378,2597.00
1194.295,2312.00
1195.210,2623.00
1196.125,2721.00
1197.042,2690.00
1197.957,2654.00
1198.872,2516.00
1199.788,2530.00
1200.703,2971.00
1201.619,2629.00
1202.534,2528.00
1203.448,2732.00
1204.364,2561.00
1205.278,2287.00
1206.192,2694.00
1207.108,3096.00
1208.022,2965.00
1208.938,2470.00
1209.851,2798.00
1210.765,2869.00
1211.680,2537.00
1212.594,2451.00
1213.507,2581.00
1214.422,3008.00
1215.335,2735.00
1216.248,2587.00
1217.163,2647.00
1218.076,3191.00
1218.990,2761.00
1219.903,2406.00
1220.816,2466.00
1221.730,2610.00
1222.642,2487.00
1223.554,2550.00
1224.469,2692.00
1225.380,2596.00
1226.292,2285.00
1227.206,2750.00
1228.118,2932.00
1229.032,2288.00
1229.943,2525.00
1230.855,2570.00
1231.768,2401.00
1232.679,2708.00
1233.590,2612.00
1234.503,2851.00
1235.414,2468.00
1236.325,2526.00
1237.238,2700.00
1238.149,2764.00
1239.059,2430.00
1239.972,2772.00
1240.882,2412.00
1241.793,2744.00
1242.705,2965.00
1243.615,2545.00
1244.525,2693.00
1245.437,2205.00
1246.347,2704.00
1247.259,2754.00
1248.168,3058.00
1249.078,2886.00
1249.989,2891.00
1250.899,2413.00
1251.808,2517.00
1252.719,2545.00
1253.628,2492.00
1254.537,3015.00
1255.448,2462.00
1256.357,2447.00
1257.266,2659.00
1258.176,2373.00
1259.085,2342.00
1259.993,2468.00
1260.904,2458.00
1261.812,2435.00
1262.720,3179.00
1263.630,2789.00
1264.538,2460.00
1265.446,2721.00
1266.356,2571.00
1267.263,2894.00
1268.171,2395.00
1269.080,2724.00
1269.988,2815.00
1270.895,2542.00
1271.804,2589.00
1272.711,2791.00
1273.619,2784.00
1274.527,2435.00
1275.434,2721.00
1276.341,2455.00
1277.248,2603.00
1278.156,2940.00
1279.063,2511.00
1279.969,2735.00
1280.877,3558.00
1281.783,2810.00
1282.690,2680.00
1283.598,2603.00
1284.503,2506.00
1285.409,2472.00
1286.317,3001.00
1287.223,2989.00
1288.128,2678.00
1289.036,2509.00
1289.941,2544.00
1290.846,2662.00
1291.751,2454.00
1292.658,2540.00
1293.563,3039.00
1294.468,2648.00
1295.375,2772.00
1296.280,2868.00
1297.184,3348.00
1298.091,2738.00
1298.995,2780.00
1299.900,3004.00
1300.806,2533.00
1301.710,2380.00
1302.614,2216.00
1303.518,2888.00
1304.424,2577.00
1305.327,2799.00
1306.231,2600.00
1307.137,2832.00
1308.040,2668.00
1308.943,2642.00
1309.847,2838.00
1310.752,2825.00
1311.655,2268.00
1312.558,2409.00
1313.463,2584.00
1314.366,2565.00
1315.269,2686.00
1316.171,2624.00
1317.076,2570.00
1317.978,2449.00
1318.881,2231.00
1319.785,2461.00
1320.687,2488.00
1321.589,2228.00
1322.491,2426.00
1323.395,2690.00
1324.297,3167.00
1325.198,2749.00
1326.102,2425.00
1327.004,2461.00
1327.905,3009.00
1328.806,2574.00
1329.709,2686.00
1330.611,2574.00
1331.512,2487.00
1332.413,3071.00
1333.316,2648.00
1334.216,2768.00
1335.117,2393.00
1336.020,2631.00
1336.920,2606.00
1337.821,2492.00
1338.721,2900.00
1339.623,2687.00
1340.523,2590.00
1341.423,2484.00
1342.323,2949.00
1343.225,2681.00
1344.125,2447.00
1345.025,2492.00
1345.924,2328.00
1346.826,2931.00
1347.725,3058.00
1348.624,2850.00
1349.524,2461.00
1350.425,2612.00
1351.324,2735.00
1352.223,2804.00
1353.121,2629.00
1354.022,2847.00
1354.921,3012.00
1355.819,2722.00
1356.718,2660.00
1357.618,2382.00
1358.516,2770.00
1359.415,2981.00
1360.313,2725.00
1361.213,2609.00
1362.111,2929.00
1363.008,3276.00
1363.906,2650.00
1364.806,2655.00
1365.703,2718.00
1366.601,2462.00
1367.498,2468.00
1368.397,2809.00
1369.295,2714.00
1370.192,2469.00
1371.089,2744.00
1371.987,2632.00
1372.884,2846.00
1373.781,2472.00
1374.678,2619.00
1375.574,2488.00
1376.473,2776.00
1377.369,2840.00
1378.265,2461.00
1379.161,2615.00
1380.059,2353.00
1380.955,2744.00
1381.851,2413.00
1382.747,2539.00
1383.643,2582.00
1384.540,2423.00
1385.436,2512.00
1386.331,2703.00
1387.227,2795.00
1388.124,2737.00
1389.019,2438.00
1389.914,2616.00
1390.809,2255.00
1391.704,3023.00
1392.601,2586.00
1393.495,2912.00
1394.390,2792.00
1395.285,2843.00
1396.179,2743.00
1397.075,2600.00
1397.969,2708.00
1398.864,2328.00
1399.758,2567.00
1400.652,2662.00
1401.547,2492.00
1402.441,2389.00
1403.335,2949.00
1404.229,2618.00
1405.122,2705.00
1406.017,2576.00
1406.911,2770.00
1407.804,3034.00
1408.697,2608.00
1409.590,2434.00
1410.485,2828.00
1411.378,2705.00
1412.271,2357.00
1413.163,2668.00
1414.056,2817.00
1414.949,3020.00
1415.843,2687.00
1416.735,2590.00
1417.627,2668.00
1418.520,2595.00
1419.412,2853.00
1420.306,2799.00
1421.197,2900.00
1422.089,2817.00
1422.981,3086.00
1423.873,2827.00
1424.764,2699.00
1425.657,2644.00
1426.549,2782.00
1427.440,2789.00
1428.331,2535.00
1429.222,2343.00
1430.113,2716.00
1431.006,2784.00
1431.897,2566.00
1432.787,2639.00
1433.678,2586.00
1434.568,2460.00
1435.459,2868.00
1436.351,2804.00
1437.241,2771.00
1438.131,2816.00
1439.021,2425.00
1439.911,2648.00
1440.801,2728.00
1441.693,2839.00
1442.583,2640.00
1443.472,2627.00
1444.362,2769.00
1445.251,2585.00
1446.140,2579.00
1447.030,2825.00
1447.921,2794.00
1448.810,2474.00
1449.699,2975.00
1450.588,2658.00
1451.476,2542.00
1452.365,2748.00
1453.254,2553.00
1454.144,2531.00
1455.032,2788.00
1455.921,2392.00
1456.809,2972.00
1457.697,2483.00
1458.585,2603.00
1459.473,2608.00
1460.361,2512.00
1461.251,2713.00
1462.138,2731.00
1463.026,2587.00
1463.913,2869.00
1464.801,2580.00
1465.688,2727.00
1466.575,2675.00
1467.463,3038.00
1468.351,2515.00
1469.238,2637.00
1470.125,2239.00
1471.012,2682.00
1471.899,2761.00
1472.785,2450.00
1473.672,2643.00
1474.558,2882.00
1475.446,2768.00
1476.333,2811.00
1477.219,2477.00
1478.105,2627.00
1478.991,2612.00
1479.877,2953.00
1480.762,2635.00
1481.648,2519.00
1482.534,2778.00
1483.419,2733.00
1484.307,2747.00
1485.192,2650.00
1486.077,2507.00
1486.962,2504.00
1487.847,2390.00
1488.732,2499.00
1489.617,2633.00
1490.502,2918.00
1491.387,2809.00
1492.271,2465.00
1493.156,2483.00
1494.042,2443.00
1494.927,2836.00
1495.811,2551.00
1496.695,2766.00
1497.579,2927.00
1498.463,2615.00
1499.347,2640.00
1500.231,2683.00
1501.114,2744.00
1501.998,2918.00
1502.881,2719.00
1503.765,2932.00
1504.648,3083.00
1505.533,2741.00
1506.417,2664.00
1507.300,2622.00
1508.183,2701.00
1509.066,2139.00
1509.948,2899.00
1510.831,2973.00
1511.714,2477.00
1512.596,2770.00
1513.479,2895.00
1514.361,2899.00
1515.243,2702.00
1516.125,2787.00
1517.008,2912.00
1517.890,2614.00
1518.771,2690.00
1519.655,2896.00
1520.537,2594.00
1521.419,2493.00
1522.300,2676.00
1523.182,2785.00
1524.063,2816.00
1524.944,2968.00
1525.825,2846.00
1526.707,2484.00
1527.588,2446.00
1528.468,2721.00
1529.349,2353.00
1530.230,2612.00
1531.111,2805.00
1531.991,2705.00
1532.872,2362.00
1533.752,2607.00
1534.632,2532.00
1535.513,2538.00
1536.393,2787.00
1537.273,2985.00
1538.153,3322.00
1539.032,2436.00
1539.912,2648.00
1540.792,2671.00
1541.672,2671.00
1542.551,2757.00
1543.430,3241.00
1544.310,2688.00
1545.189,2567.00
1546.068,3038.00
1546.947,2759.00
1547.826,2974.00
1548.705,2657.00
1549.584,2902.00
1550.462,2608.00
1551.341,2799.00
1552.219,2729.00
1553.098,2814.00
1553.976,2881.00
1554.854,3020.00
1555.733,2846.00
1556.611,2570.00
1557.489,2433.00
1558.367,2634.00
1559.244,2784.00
1560.122,2648.00
1561.000,2725.00
1561.877,2947.00
1562.755,2508.00
1563.632,2613.00
1564.509,2949.00
1565.386,3026.00
1566.264,2426.00
1567.141,2293.00
1568.017,2779.00
1568.894,2682.00
1569.771,2708.00
1570.648,2753.00
1571.524,2639.00
1572.401,2439.00
1573.277,2461.00
1574.153,2689.00
1575.029,2534.00
1575.906,3355.00
1576.781,2830.00
1577.657,2579.00
1578.533,2894.00
1579.409,2304.00
1580.285,2626.00
1581.160,3077.00
1582.036,2839.00
1582.911,2504.00
1583.786,3005.00
1584.662,2480.00
1585.537,2646.00
1586.412,2707.00
1587.287,2509.00
1588.160,2851.00
1589.035,2345.00
1589.909,2701.00
1590.784,2638.00
1591.658,2458.00
1592.533,2727.00
1593.407,2650.00
1594.281,2570.00
1595.155,3061.00
1596.029,2564.00
1596.903,2623.00
1597.777,2557.00
1598.651,2929.00
1599.525,2367.00
1600.398,2672.00
1601.272,2598.00
1602.144,3186.00
1603.017,2658.00
1603.890,2906.00
1604.763,2753.00
1605.636,2800.00
1606.509,2349.00
1607.382,2508.00
1608.255,2720.00
1609.128,2891.00
1610.000,2624.00
1610.873,2370.00
1611.746,2589.00
1612.616,2637.00
1613.488,2247.00
1614.361,2677.00
1615.233,2600.00
1616.105,2886.00
1616.977,2611.00
1617.849,2503.00
1618.720,2986.00
1619.592,2961.00
1620.464,2761.00
1621.333,3114.00
1622.205,2650.00
1623.076,2620.00
1623.947,2651.00
1624.818,2943.00
1625.689,2769.00
1626.560,2573.00
1627.431,2744.00
1628.302,3027.00
1629.171,2786.00
1630.042,3015.00
1630.912,3655.00
1631.782,3269.00
1632.653,2486.00
1633.523,2841.00
1634.393,2911.00
1635.263,2526.00
1636.131,2663.00
1637.001,2568.00
1637.871,2319.00
1638.741,2315.00
1639.611,2412.00
1640.480,2830.00
1641.350,2525.00
1642.219,2486.00
1643.087,2203.00
1643.956,3132.00
1644.825,2949.00
1645.694,2851.00
1646.563,2836.00
1647.432,2743.00
1648.299,2733.00
1649.167,2779.00
1650.036,2479.00
1650.904,2832.00
1651.773,2891.00
1652.641,2679.00
1653.509,2846.00
1654.376,2550.00
1655.244,2693.00
1656.112,2706.00
1656.980,2671.00
1657.847,2557.00
1658.715,2829.00
1659.581,2579.00
1660.448,2889.00
1661.316,2234.00
1662.183,2710.00
1663.051,2731.00
1663.918,2719.00
1664.783,2686.00
1665.650,2760.00
1666.517,2885.00
1667.384,2698.00
1668.251,2719.00
1669.115,2893.00
1669.982,2604.00
1670.849,2963.00
1671.715,2661.00
1672.581,2819.00
1673.446,2815.00
1674.312,2681.00
1675.178,3038.00
1676.044,2762.00
1676.910,2775.00
1677.774,2735.00
1678.639,2346.00
1679.505,2649.00
1680.370,2789.00
1681.236,3302.00
1682.099,2599.00
1682.965,2692.00
1683.830,2279.00
1684.695,2491.00
1685.560,2556.00
1686.423,2866.00
1687.288,2796.00
1688.153,2726.00
1689.017,2619.00
1689.880,2760.00
1690.745,2808.00
1691.609,2532.00
1692.473,2872.00
1693.338,2878.00
1694.200,2940.00
1695.064,2684.00
1695.928,2608.00
1696.792,2717.00
1697.654,3181.00
1698.517,2704.00
1699.381,2457.00
1700.245,2372.00
1701.106,2970.00
1701.969,2603.00
1702.833,2801.00
1703.696,2598.00
1704.557,2668.00
1705.420,2581.00
1706.283,2714.00
1707.146,2803.00
1708.007,2488.00
1708.870,2489.00
1709.732,2374.00
1710.595,2588.00
1711.455,2438.00
1712.318,2617.00
1713.180,2959.00
1714.040,2733.00
1714.902,2860.00
1715.764,2676.00
1716.626,2462.00
1717.486,2675.00
1718.348,2946.00
1719.209,4912.00
1720.071,2356.00
1720.930,2444.00
1721.792,2547.00
1722.653,2541.00
1723.512,2552.00
1724.374,2641.00
1725.234,2744.00
1726.095,2695.00
1726.954,2675.00
1727.815,2825.00
1728.676,2687.00
1729.535,2904.00
1730.395,2623.00
1731.256,2598.00
1732.114,2715.00
1732.974,2166.00
1733.834,3016.00
1734.693,2843.00
1735.553,2744.00
1736.413,3107.00
1737.272,2580.00
1738.130,2617.00
1738.990,2743.00
1739.849,2561.00
1740.707,3658.00
1741.566,2740.00
1742.426,2738.00
1743.283,3070.00
1744.142,2562.00
1745.001,2385.00
1745.858,2836.00
1746.717,2777.00
1747.576,2801.00
1748.433,2836.00
1749.292,3259.00
1750.150,3345.00
1751.007,2847.00
1751.865,2895.00
1752.723,2664.00
1753.579,2595.00
1754.438,2914.00
1755.296,2919.00
1756.152,2283.00
1757.010,2353.00
1757.865,2883.00
1758.723,2360.00
1759.581,3007.00
1760.436,2691.00
1761.294,3046.00
1762.151,2682.00
1763.006,2628.00
1763.864,2339.00
1764.721,2927.00
1765.576,2705.00
1766.433,2801.00
1767.288,2564.00
1768.144,2715.00
1769.001,2651.00
1769.856,2787.00
1770.712,2943.00
1771.568,2497.00
1772.423,2627.00
1773.279,2599.00
1774.133,2594.00
1774.989,3079.00
1775.845,3078.00
1776.699,2938.00
1777.555,2703.00
1778.409,3216.00
1779.265,2618.00
1780.120,2588.00
1780.974,2688.00
1781.829,2314.00
1782.682,2769.00
1783.538,2501.00
1784.393,2733.00
1785.246,2589.00
1786.101,2785.00
1786.954,2811.00
1787.808,2871.00
1788.661,2414.00
1789.516,2623.00
1790.370,2643.00
1791.223,2878.00
1792.077,2679.00
1792.930,2789.00
1793.784,2562.00
1794.636,2715.00
1795.490,2672.00
1796.344,2718.00
1797.196,2682.00
1798.049,2873.00
1798.901,2594.00
1799.755,2929.00
1800.606,2464.00
1801.460,3217.00
1802.311,2986.00
1803.165,3045.00
1804.018,3059.00
1804.869,2796.00
1805.722,3163.00
1806.573,2733.00
1807.426,2494.00
1808.276,2707.00
1809.129,2581.00
1809.980,2895.00
1810.832,2975.00
1811.683,2605.00
1812.535,2994.00
1813.385,2599.00
1814.237,2975.00
1815.089,2767.00
1815.940,2971.00
1816.791,2620.00
1817.641,2594.00
1818.493,2822.00
1819.343,2778.00
1820.194,2555.00
1821.044,2780.00
1821.895,2925.00
1822.745,2417.00
1823.596,2589.00
1824.445,3095.00
1825.296,2809.00
1826.145,2694.00
1826.996,2891.00
1827.845,2711.00
1828.695,2755.00
1829.544,2683.00
1830.395,2721.00
1831.243,2639.00
1832.094,2487.00
1832.942,3279.00
1833.792,2862.00
1834.640,2735.00
1835.490,2703.00
1836.338,2742.00
1837.186,2599.00
1838.036,2556.00
1838.884,2719.00
1839.733,3042.00
1840.581,2873.00
1841.430,2803.00
1842.278,3065.00
1843.127,2623.00
1843.974,2409.00
1844.823,3135.00
1845.671,2851.00
1846.519,2723.00
1847.366,2746.00
1848.213,2379.00
1849.062,2519.00
1849.909,2446.00
1850.757,3379.00
1851.604,2829.00
1852.452,2622.00
1853.298,2883.00
1854.146,2773.00
1854.993,2731.00
1855.839,3187.00
1856.687,2793.00
1857.532,2802.00
1858.380,2731.00
1859.226,2754.00
1860.073,2850.00
1860.919,2546.00
1861.765,2564.00
1862.612,2934.00
1863.457,2940.00
1864.304,2632.00
1865.150,2844.00
1865.995,2688.00
1866.842,2852.00
1867.686,2896.00
1868.533,2749.00
1869.378,2736.00
1870.223,2724.00
1871.069,2668.00
1871.914,2720.00
1872.760,2682.00
1873.604,2505.00
1874.448,2864.00
1875.294,2872.00
1876.139,2629.00
1876.984,2816.00
1877.828,2374.00
1878.672,2236.00
1879.518,2600.00
1880.361,2903.00
1881.205,2845.00
1882.050,2509.00
1882.894,3220.00
1883.739,2604.00
1884.582,2502.00
1885.425,2539.00
1886.270,2943.00
1887.113,2457.00
1887.956,2820.00
1888.801,2772.00
1889.644,2515.00
1890.486,2307.00
1891.331,2651.00
1892.173,2768.00
1893.017,2764.00
1893.860,3026.00
1894.702,3014.00
1895.546,2711.00
1896.388,3429.00
1897.230,3076.00
1898.074,2616.00
1898.916,2544.00
1899.757,2519.00
1900.601,3399.00
1901.443,2956.00
1902.284,3021.00
1903.125,3177.00
1903.969,2899.00
1904.810,2922.00
1905.651,2784.00
1906.494,3039.00
1907.335,3134.00
1908.176,2834.00
1909.018,2804.00
1909.859,2657.00
1910.700,2574.00
1911.542,3244.00
1912.383,2797.00
1913.223,2349.00
1914.064,2879.00
1914.906,2968.00
1915.746,3052.00
1916.586,3155.00
1917.428,2754.00
1918.268,2747.00
1919.107,2632.00
1919.947,2489.00
1920.789,2655.00
1921.628,2956.00
1922.468,2730.00
1923.309,2581.00
1924.148,3034.00
1924.988,2802.00
1925.827,2724.00
1926.667,2629.00
1927.507,2742.00
1928.345,2545.00
1929.184,2920.00
1930.025,2517.00
1930.864,2983.00
1931.702,2997.00
1932.541,2666.00
1933.381,2893.00
1934.219,2895.00
1935.057,2970.00
1935.896,2434.00
1936.735,2696.00
1937.573,2642.00
1938.411,2515.00
1939.249,2892.00
1940.089,2645.00
1940.927,2985.00
1941.764,2992.00
1942.602,2658.00
1943.439,2616.00
1944.278,2662.00
1945.115,2659.00
1945.953,2465.00
1946.790,2817.00
1947.628,3049.00
1948.465,2860.00
1949.302,2887.00
1950.139,2834.00
1950.976,2598.00
1951.814,2875.00
1952.651,2764.00
1953.487,2535.00
1954.323,2973.00
1955.160,2752.00
1955.998,3074.00
1956.834,2712.00
1957.670,2803.00
1958.506,2959.00
1959.342,2832.00
1960.177,2776.00
1961.015,2885.00
1961.850,2762.00
1962.686,2795.00
1963.521,2808.00
1964.357,2965.00
1965.192,2514.00
1966.029,2840.00
1966.864,2675.00
1967.699,2928.00
1968.534,2734.00
1969.369,3032.00
1970.204,2684.00
1971.040,2767.00
1971.875,2657.00
1972.709,2764.00
1973.544,2576.00
1974.378,2609.00
1975.212,2850.00
1976.047,2615.00
1976.882,2592.00
1977.716,3173.00
1978.550,2459.00
1979.384,2688.00
1980.218,2682.00
1981.052,2668.00
1981.885,2726.00
1982.719,2771.00
1983.554,2884.00
1984.388,3069.00
1985.221,2817.00
1986.054,2973.00
1986.887,2790.00
1987.720,2609.00
1988.553,3038.00
1989.386,2847.00
1990.219,2858.00
1991.053,3069.00
1991.886,2599.00
1992.719,2960.00
1993.551,2294.00
1994.383,2908.00
1995.216,2650.00
1996.048,2455.00
1996.880,2924.00
1997.712,2589.00
1998.544,2761.00
1999.376,2772.00
2000.208,3054.00
2001.040,3184.00
2001.873,2571.00
2002.705,2563.00
2003.536,2804.00
2004.367,2828.00
2005.199,2797.00
2006.030,2642.00
2006.861,2530.00
2007.692,2756.00
2008.523,2656.00
2009.354,2795.00
2010.185,2532.00
2011.016,2873.00
2011.846,2973.00
2012.677,2712.00
2013.507,3102.00
2014.338,2968.00
2015.168,2707.00
2015.999,3247.00
2016.829,2676.00
2017.659,2940.00
2018.489,3249.00
2019.319,2562.00
2020.149,2943.00
2020.980,2776.00
2021.810,2561.00
2022.639,2631.00
2023.469,2616.00
2024.298,2430.00
2025.128,2356.00
2025.957,2326.00
2026.786,2171.00
2027.615,2433.00
2028.444,2577.00
2029.273,2744.00
2030.102,2353.00
2030.931,2574.00
2031.758,2910.00
2032.586,2559.00
2033.415,2601.00
2034.243,2243.00
2035.072,2024.00
2035.900,2513.00
2036.728,2303.00
2037.556,2375.00
2038.385,2386.00
2039.213,2193.00
2040.040,2198.00
2040.868,2142.00
2041.696,2190.00
2042.524,2200.00
2043.351,2414.00
2044.179,2209.00
2045.006,2009.00
