RamanScope Measure Spectrum Data V3.72

<< MEASURE CONDITION >>
Exposure Type,Aver
Exposure Time [sec],15
Exposure Count,4
Measure Time,2023/07/15 15:17:54
Data Name,""
Data Comment,""
Rayleigh Wave[nm],532.0

<< SAMPLE SPECTRUM >>
Wave[dcm-1],No134
146.591,521.00
147.626,593.25
148.664,733.00
149.699,780.75
150.737,905.50
151.772,994.50
152.809,1076.50
153.846,1167.00
154.881,1235.00
155.918,1293.25
156.953,1387.00
157.989,1426.50
159.026,1472.75
160.060,1510.50
161.096,1534.75
162.130,1558.00
163.167,1571.50
164.200,1706.00
165.236,1694.75
166.272,1668.25
167.305,1691.75
168.341,1795.25
169.374,1784.25
170.409,1825.00
171.445,1823.75
172.477,1889.75
173.512,1872.25
174.545,1942.25
175.580,1929.00
176.614,1941.75
177.647,1949.25
178.681,2030.50
179.713,2026.25
180.747,2003.25
181.781,2015.75
182.813,2024.75
183.847,2018.25
184.878,2056.00
185.912,2038.75
186.945,2132.50
187.976,2127.00
189.010,2203.75
190.043,2178.50
191.073,2239.25
192.106,2234.50
193.137,2246.75
194.170,2345.00
195.202,2391.75
196.232,2443.25
197.265,2515.75
198.297,2604.50
199.327,2636.50
200.359,2731.00
201.388,2778.50
202.420,2920.25
203.452,3039.25
204.481,3214.00
205.512,3367.50
206.544,3461.00
207.573,3721.25
208.604,3872.75
209.635,4162.25
210.663,4427.25
211.694,4719.00
212.725,4951.75
213.753,5271.25
214.783,5567.75
215.813,5766.75
216.841,5939.50
217.871,6049.25
218.899,6225.00
219.929,6109.00
220.959,5957.00
221.986,5765.75
223.016,5511.25
224.045,5308.50
225.072,5003.75
226.101,4708.25
227.130,4465.00
228.157,4186.00
229.185,3965.00
230.214,3863.00
231.241,3650.00
232.269,3542.00
233.297,3460.75
234.323,3383.75
235.351,3252.25
236.379,3239.00
237.407,3158.75
238.433,3117.50
239.460,3085.75
240.488,3095.50
241.513,3027.25
242.540,3085.75
243.568,3062.25
244.592,3080.25
245.619,3039.25
246.646,3058.75
247.671,3021.00
248.697,3096.50
249.724,3071.25
250.748,3068.75
251.774,3081.25
252.801,3105.75
253.827,3191.25
254.850,3184.25
255.876,3234.75
256.902,3303.75
257.925,3316.25
258.951,3415.00
259.976,3499.00
260.999,3523.00
262.024,3620.00
263.049,3713.75
264.074,3769.50
265.097,3903.75
266.122,3953.75
267.146,4056.75
268.168,4075.00
269.193,4196.00
270.217,4251.50
271.241,4360.75
272.263,4379.25
273.287,4492.50
274.311,4583.75
275.332,4559.50
276.356,4597.25
277.379,4599.50
278.402,4603.75
279.424,4572.50
280.447,4590.75
281.470,4489.50
282.492,4392.75
283.513,4349.50
284.536,4270.50
285.558,4187.75
286.581,4130.50
287.601,3975.50
288.623,3904.50
289.645,3837.00
290.665,3733.25
291.687,3619.75
292.709,3506.75
293.730,3475.25
294.750,3335.25
295.771,3229.25
296.792,3138.00
297.813,3093.50
298.832,2998.25
299.853,2919.25
300.874,2861.00
301.895,2818.50
302.913,2693.75
303.934,2667.75
304.954,2589.00
305.975,2559.50
306.993,2530.75
308.013,2437.25
309.033,2421.00
310.052,2348.25
311.072,2336.50
312.090,2328.50
313.109,2264.75
314.129,2248.50
315.148,2229.50
316.165,2191.50
317.184,2159.75
318.203,2187.75
319.222,2109.25
320.238,2078.50
321.257,2124.00
322.275,2102.25
323.294,2100.00
324.312,2071.75
325.328,1969.50
326.346,2038.50
327.364,2025.75
328.382,2003.75
329.397,1934.75
330.415,1985.75
331.432,2009.25
332.450,1931.00
333.467,1975.00
334.482,1946.25
335.499,1899.25
336.516,1970.50
337.533,1932.25
338.547,1925.50
339.564,1882.00
340.580,1936.25
341.597,1921.00
342.613,1937.75
343.627,1899.50
344.643,1899.25
345.659,1912.25
346.675,1898.50
347.690,1940.00
348.704,1920.75
349.719,1888.75
350.735,1882.00
351.750,1895.75
352.765,1905.50
353.778,1929.25
354.793,1928.50
355.808,1888.25
356.822,1934.00
357.837,1943.50
358.851,1942.75
359.864,1952.75
360.878,1994.25
361.892,1954.75
362.906,1986.50
363.920,1997.75
364.932,2005.75
365.945,1970.75
366.959,1994.75
367.972,2029.50
368.986,2059.25
369.999,2010.00
371.010,2062.25
372.023,2090.25
373.036,2068.00
374.049,2081.50
375.061,2122.00
376.072,2160.00
377.084,2089.25
378.097,2146.50
379.109,2194.25
380.121,2184.25
381.133,2198.25
382.143,2177.75
383.155,2162.25
384.166,2207.50
385.178,2248.50
386.189,2199.00
387.201,2202.25
388.212,2208.00
389.221,2187.75
390.232,2201.50
391.243,2172.25
392.254,2222.00
393.264,2202.00
394.275,2173.50
395.283,2149.50
396.294,2148.75
397.304,2113.25
398.314,2119.50
399.324,2093.25
400.334,2067.75
401.344,2016.00
402.351,2010.00
403.361,1996.25
404.370,1962.25
405.380,1957.25
406.389,1935.50
407.398,1941.50
408.407,1923.50
409.414,1361.00
410.423,1883.00
411.431,1840.50
412.440,1805.75
413.448,1850.50
414.457,1827.75
415.465,1764.25
416.471,1808.25
417.479,1781.75
418.487,1772.75
419.495,1808.25
420.503,1754.25
421.510,1744.50
422.518,1724.00
423.525,1721.25
424.530,1732.25
425.537,1696.75
426.544,1683.75
427.551,1722.25
428.558,1695.50
429.565,1629.00
430.571,1643.00
431.578,1618.00
432.582,1643.50
433.588,1706.50
434.595,1639.00
435.601,1653.50
436.607,1647.00
437.612,1625.75
438.618,1670.50
439.624,1658.75
440.627,1682.50
441.633,1646.25
442.638,1647.00
443.643,1641.25
444.648,1640.00
445.653,1687.75
446.658,1666.25
447.663,1622.50
448.667,1672.00
449.672,1645.50
450.674,1681.25
451.678,1624.25
452.682,1689.75
453.687,1653.75
454.690,1664.25
455.694,1656.25
456.698,1661.25
457.702,1686.25
458.705,1673.75
459.709,1708.25
460.710,1682.25
461.713,1671.75
462.716,1697.50
463.719,1684.25
464.722,1672.00
465.725,1710.00
466.727,1678.00
467.730,1730.50
468.732,1737.25
469.735,1716.00
470.737,1746.75
471.737,1709.50
472.739,1736.50
473.741,1707.25
474.742,1748.00
475.744,1758.75
476.746,1698.50
477.747,1755.75
478.748,1751.00
479.750,1711.75
480.751,1750.00
481.752,1706.25
482.753,1740.00
483.751,1817.25
484.752,1755.00
485.753,1738.25
486.753,1783.00
487.753,1726.50
488.754,1692.00
489.754,1699.50
490.754,1730.50
491.754,1736.50
492.754,1731.00
493.753,1749.75
494.753,1735.50
495.752,1719.75
496.752,1712.75
497.749,1731.00
498.748,1718.00
499.747,1690.75
500.746,1713.75
501.745,1731.50
502.744,1716.50
503.742,1684.75
504.741,1677.25
505.739,1681.50
506.737,1679.00
507.735,1686.75
508.734,1756.75
509.732,1663.00
510.729,1665.50
511.727,1661.25
512.725,1688.50
513.720,1711.00
514.718,1659.25
515.715,1603.00
516.712,1599.50
517.709,1670.25
518.706,1595.25
519.703,1674.00
520.700,1676.00
521.696,1594.50
522.693,1667.00
523.689,1719.00
524.686,1685.25
525.682,1645.25
526.678,1702.50
527.674,1638.75
528.670,1633.00
529.666,1632.25
530.661,1647.25
531.657,1636.00
532.652,1641.50
533.648,1653.50
534.641,1620.00
535.636,1624.00
536.631,1647.25
537.626,1668.50
538.621,1699.50
539.616,1659.50
540.610,1651.50
541.605,1663.00
542.599,1676.25
543.593,1667.25
544.587,1716.50
545.581,1680.75
546.575,1686.75
547.569,1706.00
548.563,1667.25
549.557,1721.00
550.550,1695.25
551.543,1678.25
552.537,1670.25
553.530,1704.75
554.523,1719.00
555.516,1640.50
556.509,1692.75
557.502,1706.50
558.494,1732.00
559.487,1712.75
560.479,1726.50
561.472,1736.25
562.464,1726.75
563.456,1719.50
564.448,1729.75
565.440,1726.25
566.432,1741.00
567.423,1746.00
568.415,1740.50
569.404,1764.50
570.396,1797.25
571.387,1800.25
572.378,1781.50
573.369,1782.00
574.360,1813.75
575.351,1830.75
576.341,1808.25
577.332,1785.00
578.323,1820.50
579.313,1834.25
580.303,1857.50
581.293,1835.75
582.283,1853.75
583.273,1857.50
584.263,1814.00
585.253,1841.25
586.243,1837.75
587.232,1874.25
588.222,1809.75
589.211,1826.50
590.200,1843.00
591.189,1818.75
592.178,1731.50
593.167,1779.50
594.156,1783.25
595.145,1825.75
596.133,1801.25
597.122,1728.25
598.110,1718.75
599.098,1758.50
600.086,1729.00
601.074,1683.00
602.062,1751.50
603.050,1757.00
604.038,1696.75
605.025,1687.00
606.013,1717.75
607.000,1723.50
607.987,1657.50
608.975,1663.25
609.962,1659.75
610.949,1654.75
611.936,1648.50
612.922,1596.00
613.909,1635.25
614.895,1609.00
615.882,1611.75
616.868,1619.75
617.854,1609.50
618.841,1613.50
619.826,1593.50
620.812,1573.25
621.798,1609.75
622.784,1560.75
623.769,1563.75
624.755,1543.25
625.740,1546.75
626.725,1534.75
627.711,1534.25
628.698,1570.00
629.683,1540.25
630.667,1496.50
631.652,1477.00
632.637,1496.25
633.621,1527.75
634.606,1489.25
635.590,1473.50
636.574,1486.75
637.558,1496.25
638.542,1469.25
639.526,1417.25
640.510,1440.00
641.493,1409.00
642.477,1498.75
643.460,1441.50
644.444,1448.50
645.427,1407.50
646.410,1410.75
647.393,1444.25
648.376,1411.25
649.359,1402.50
650.341,1365.50
651.324,1379.00
652.307,1398.25
653.289,1365.00
654.271,1384.75
655.253,1382.75
656.235,1335.00
657.217,1350.00
658.199,1367.00
659.181,1335.25
660.163,1349.00
661.144,1320.75
662.126,1357.00
663.107,1381.25
664.088,1371.00
665.069,1307.00
666.050,1302.25
667.033,1344.25
668.014,1330.50
668.995,1277.75
669.975,1338.25
670.956,1299.25
671.936,1290.00
672.916,1253.50
673.896,1295.75
674.876,1276.00
675.856,1267.00
676.836,1291.50
677.816,1255.00
678.795,1270.75
679.775,1224.25
680.754,1282.00
681.734,1267.25
682.713,1177.25
683.692,1240.25
684.671,1253.25
685.650,1262.50
686.629,1207.25
687.607,1284.50
688.586,1237.50
689.564,1214.75
690.543,1227.25
691.523,1209.25
692.501,1222.25
693.479,1255.00
694.457,1205.00
695.435,1204.00
696.413,1229.00
697.390,1195.00
698.368,1176.25
699.345,1237.50
700.322,1219.00
701.300,1201.75
702.277,1202.50
703.254,1168.75
704.231,1120.00
705.207,1133.50
706.184,1177.00
707.161,1167.75
708.137,1145.75
709.113,1158.25
710.090,1131.25
711.068,1102.50
712.044,1172.25
713.020,1157.25
713.996,1141.25
714.971,1203.00
715.947,1090.50
716.922,1143.00
717.898,1127.00
718.873,1098.00
719.848,1134.50
720.823,1123.00
721.798,1113.50
722.773,1162.75
723.748,1154.50
724.723,1139.50
725.697,1115.50
726.672,1163.00
727.646,1145.75
728.622,1069.50
729.596,1119.50
730.570,1076.75
731.544,1084.25
732.518,1095.75
733.492,1059.50
734.466,1094.00
735.439,1066.25
736.413,1143.75
737.386,1144.25
738.359,1078.00
739.332,1099.25
740.305,1099.25
741.278,1050.00
742.251,1102.25
743.224,1107.75
744.196,1106.00
745.171,1075.75
746.143,1157.25
747.115,1089.75
748.087,1078.25
749.059,1121.75
750.031,1067.25
751.003,1034.75
751.975,1070.00
752.947,1087.25
753.918,1120.25
754.890,1103.75
755.861,1060.00
756.832,1003.50
757.803,1080.25
758.774,1076.00
759.747,1051.25
760.718,1035.00
761.689,1086.25
762.659,1052.25
763.630,1047.75
764.600,1038.00
765.570,1069.75
766.540,1039.00
767.510,1053.75
768.480,1029.75
769.450,1079.25
770.420,1051.00
771.390,1054.50
772.359,1072.00
773.329,1055.75
774.300,1089.75
775.269,1056.75
776.238,1005.75
777.207,1012.50
778.176,1066.00
779.145,1001.00
780.114,1045.00
781.083,1024.50
782.051,1029.25
783.019,989.50
783.988,1048.25
784.956,1043.75
785.924,1006.75
786.894,1037.50
787.862,1046.50
788.830,1018.75
789.797,1034.75
790.765,1027.00
791.732,1048.50
792.700,1018.50
793.667,1023.25
794.634,1026.00
795.601,1034.00
796.568,959.75
797.535,973.75
798.502,1016.75
799.468,977.50
800.437,1031.50
801.403,1015.25
802.370,999.50
803.336,938.00
804.302,971.25
805.268,966.00
806.234,1043.25
807.200,966.25
808.166,1029.75
809.131,968.00
810.097,997.50
811.062,988.75
812.027,975.00
812.994,987.75
813.960,924.50
814.925,948.00
815.889,977.25
816.854,927.50
817.819,979.75
818.783,942.75
819.748,1002.50
820.712,951.00
821.677,916.50
822.641,936.25
823.605,911.00
824.571,991.00
825.534,947.00
826.498,972.50
827.462,994.00
828.425,931.25
829.389,945.50
830.352,943.25
831.315,956.50
832.279,953.25
833.242,948.75
834.204,964.50
835.167,957.00
836.132,967.25
837.095,973.25
838.057,949.50
839.020,897.75
839.982,900.50
840.944,942.00
841.906,986.00
842.868,882.25
843.830,965.50
844.792,953.50
845.753,945.75
846.715,928.75
847.679,970.00
848.640,911.75
849.601,937.75
850.562,925.00
851.523,912.25
852.484,939.50
853.445,914.00
854.406,925.00
855.367,955.50
856.327,897.75
857.288,926.25
858.248,947.00
859.210,942.75
860.170,922.00
861.130,923.75
862.090,910.25
863.050,936.75
864.010,923.75
864.969,928.75
865.929,874.75
866.888,858.00
867.848,869.25
868.807,902.25
869.766,923.25
870.727,882.00
871.686,914.75
872.645,874.00
873.604,932.25
874.562,940.25
875.521,900.25
876.479,891.75
877.437,898.75
878.396,924.75
879.354,845.25
880.312,901.50
881.270,903.50
882.229,902.75
883.187,861.75
884.145,857.50
885.102,879.50
886.059,893.00
887.017,888.25
887.974,877.75
888.931,897.25
889.888,914.50
890.845,903.75
891.802,876.50
892.758,867.25
893.717,866.00
894.673,920.50
895.630,916.00
896.586,919.50
897.542,914.75
898.498,916.75
899.454,899.75
900.410,924.00
901.366,880.50
902.321,855.00
903.277,869.25
904.232,892.00
905.189,885.50
906.145,932.00
907.100,890.75
908.055,880.00
909.010,879.50
909.965,920.25
910.919,936.25
911.874,868.25
912.828,843.50
913.783,867.25
914.737,880.00
915.693,917.00
916.648,864.50
917.602,871.50
918.555,817.00
919.509,893.50
920.463,883.50
921.417,925.25
922.370,890.25
923.324,867.75
924.277,892.25
925.230,869.75
926.183,889.25
927.138,868.00
928.091,883.25
929.044,881.25
929.996,880.00
930.949,849.00
931.902,884.75
932.854,907.50
933.806,906.75
934.758,846.50
935.711,860.25
936.663,851.25
937.614,854.25
938.568,880.75
939.520,856.75
940.471,871.25
941.423,857.25
942.374,864.25
943.326,905.75
944.277,856.75
945.228,869.50
946.179,863.50
947.130,845.00
948.080,881.25
949.031,883.25
949.984,858.75
950.934,841.25
951.884,904.50
952.835,837.00
953.785,853.75
954.735,872.00
955.685,805.75
956.635,893.75
957.585,884.75
958.534,847.75
959.484,832.50
960.433,816.50
961.383,858.00
962.334,892.75
963.283,868.25
964.232,829.75
965.181,904.50
966.130,837.50
967.079,849.50
968.027,868.75
968.976,843.00
969.924,849.00
970.873,846.75
971.821,872.25
972.769,831.75
973.719,816.50
974.667,869.50
975.615,902.75
976.562,872.00
977.510,871.25
978.458,864.75
979.405,857.25
980.352,833.00
981.300,894.00
982.247,861.50
983.194,878.00
984.141,845.50
985.088,919.50
986.036,862.75
986.983,889.75
987.930,822.75
988.876,862.75
989.822,845.75
990.769,891.75
991.715,864.50
992.661,899.75
993.607,854.25
994.553,826.75
995.498,871.50
996.444,858.50
997.389,908.75
998.337,864.00
999.282,822.75
1000.227,869.75
1001.173,907.25
1002.118,889.00
1003.062,849.50
1004.007,864.75
1004.952,887.00
1005.897,843.00
1006.841,851.75
1007.786,859.50
1008.730,871.00
1009.674,844.00
1010.618,894.75
1011.564,867.75
1012.508,871.75
1013.452,878.50
1014.396,856.50
1015.339,867.75
1016.283,914.25
1017.226,885.25
1018.170,880.50
1019.113,868.75
1020.056,855.25
1020.999,875.25
1021.942,894.25
1022.885,880.50
1023.828,805.50
1024.770,889.00
1025.715,879.00
1026.657,890.00
1027.600,877.25
1028.542,907.50
1029.484,918.00
1030.426,913.00
1031.368,906.50
1032.310,924.00
1033.251,862.00
1034.193,870.25
1035.135,872.75
1036.076,879.25
1037.017,879.25
1037.959,875.75
1038.900,908.50
1039.843,873.00
1040.784,865.50
1041.725,883.00
1042.665,901.75
1043.606,897.75
1044.547,905.25
1045.487,862.50
1046.427,893.25
1047.368,903.75
1048.308,904.00
1049.248,873.25
1050.188,925.25
1051.128,898.25
1052.067,890.25
1053.007,918.25
1053.947,893.75
1054.886,905.25
1055.827,930.25
1056.766,899.25
1057.706,930.00
1058.645,879.00
1059.584,909.50
1060.522,912.75
1061.461,880.25
1062.400,943.00
1063.338,922.75
1064.277,901.75
1065.215,921.00
1066.154,977.50
1067.092,946.50
1068.030,947.75
1068.968,868.00
1069.906,883.75
1070.843,912.50
1071.781,965.50
1072.720,943.50
1073.658,938.75
1074.595,900.25
1075.533,912.75
1076.470,930.50
1077.407,925.50
1078.344,924.00
1079.281,920.25
1080.217,943.75
1081.154,959.50
1082.091,919.25
1083.027,937.75
1083.964,926.25
1084.900,944.00
1085.836,945.25
1086.772,891.00
1087.708,934.75
1088.644,950.75
1089.580,917.50
1090.515,950.75
1091.451,889.50
1092.388,952.00
1093.324,936.00
1094.259,935.00
1095.194,912.50
1096.129,966.50
1097.064,924.75
1097.999,925.25
1098.934,912.25
1099.869,867.25
1100.803,901.75
1101.738,924.25
1102.672,921.00
1103.607,935.00
1104.541,933.75
1105.475,908.75
1106.409,990.75
1107.343,943.50
1108.277,940.25
1109.210,937.00
1110.144,951.00
1111.078,944.00
1112.011,917.75
1112.944,906.00
1113.878,948.75
1114.811,934.25
1115.744,919.50
1116.678,871.25
1117.611,961.25
1118.544,931.00
1119.477,914.25
1120.409,944.00
1121.342,916.25
1122.274,909.00
1123.206,914.75
1124.138,903.00
1125.070,896.25
1126.002,914.75
1126.934,894.50
1127.866,889.00
1128.798,921.50
1129.729,898.75
1130.661,929.00
1131.592,911.25
1132.523,933.75
1133.454,885.50
1134.385,889.25
1135.317,913.50
1136.247,931.50
1137.178,900.00
1138.109,910.75
1139.039,886.00
1139.970,902.25
1140.900,875.50
1141.831,901.00
1142.761,903.00
1143.691,985.50
1144.621,899.75
1145.551,935.00
1146.480,942.25
1147.410,903.25
1148.340,896.25
1149.269,948.50
1150.199,883.25
1151.128,922.75
1152.057,931.00
1152.979,900.50
1153.898,878.25
1154.819,881.75
1155.739,903.25
1156.658,954.75
1157.579,932.50
1158.498,914.25
1159.419,916.25
1160.338,950.00
1161.256,920.00
1162.177,891.75
1163.095,882.25
1164.016,907.00
1164.934,892.25
1165.852,889.25
1166.772,914.00
1167.690,933.00
1168.610,913.25
1169.528,916.75
1170.446,956.25
1171.365,927.00
1172.283,947.25
1173.202,953.50
1174.120,957.75
1175.037,924.25
1175.956,929.00
1176.873,892.00
1177.792,922.50
1178.709,950.75
1179.626,921.75
1180.544,970.00
1181.461,930.50
1182.379,925.50
1183.296,940.00
1184.212,926.00
1185.130,959.25
1186.046,918.25
1186.962,919.00
1187.880,957.50
1188.796,904.00
1189.714,945.00
1190.629,931.50
1191.545,969.25
1192.462,933.75
1193.378,906.75
1194.295,984.25
1195.210,955.50
1196.125,940.75
1197.042,954.00
1197.957,899.25
1198.872,983.25
1199.788,937.50
1200.703,878.25
1201.619,911.50
1202.534,932.25
1203.448,945.25
1204.364,947.00
1205.278,959.25
1206.192,950.75
1207.108,931.00
1208.022,955.00
1208.938,924.50
1209.851,960.00
1210.765,945.00
1211.680,964.50
1212.594,989.50
1213.507,964.50
1214.422,1008.75
1215.335,974.75
1216.248,967.75
1217.163,957.50
1218.076,971.75
1218.990,967.00
1219.903,950.50
1220.816,948.50
1221.730,992.25
1222.642,995.00
1223.554,957.75
1224.469,995.75
1225.380,1006.75
1226.292,1008.50
1227.206,971.75
1228.118,1006.00
1229.032,1015.25
1229.943,1005.25
1230.855,988.50
1231.768,1030.75
1232.679,991.25
1233.590,1027.00
1234.503,1022.25
1235.414,989.25
1236.325,1005.00
1237.238,1022.50
1238.149,1049.50
1239.059,1057.75
1239.972,1050.00
1240.882,1051.75
1241.793,1011.25
1242.705,1027.50
1243.615,991.25
1244.525,1087.50
1245.437,1044.00
1246.347,1088.50
1247.259,1118.25
1248.168,1078.25
1249.078,1027.00
1249.989,1085.50
1250.899,1083.25
1251.808,1078.25
1252.719,1069.25
1253.628,1050.25
1254.537,1036.50
1255.448,1017.00
1256.357,1062.75
1257.266,1048.75
1258.176,1027.25
1259.085,1032.75
1259.993,1061.25
1260.904,1062.75
1261.812,1041.50
1262.720,1027.25
1263.630,1071.00
1264.538,1071.25
1265.446,1043.25
1266.356,1041.25
1267.263,1070.25
1268.171,1035.75
1269.080,1058.75
1269.988,1060.00
1270.895,1046.00
1271.804,1093.75
1272.711,1070.00
1273.619,1021.25
1274.527,1063.50
1275.434,1029.75
1276.341,1034.50
1277.248,1075.00
1278.156,1086.75
1279.063,1059.75
1279.969,1019.75
1280.877,1016.50
1281.783,1061.50
1282.690,1067.50
1283.598,1081.25
1284.503,1043.00
1285.409,1039.75
1286.317,1058.75
1287.223,1008.75
1288.128,1020.00
1289.036,1031.50
1289.941,1007.00
1290.846,1022.75
1291.751,1022.25
1292.658,985.50
1293.563,1012.75
1294.468,1024.50
1295.375,1009.00
1296.280,1028.00
1297.184,994.50
1298.091,1003.25
1298.995,998.50
1299.900,1003.50
1300.806,988.50
1301.710,1015.75
1302.614,1023.25
1303.518,992.50
1304.424,1012.75
1305.327,1006.75
1306.231,966.25
1307.137,960.75
1308.040,938.50
1308.943,1003.00
1309.847,987.00
1310.752,959.00
1311.655,930.00
1312.558,915.50
1313.463,947.25
1314.366,939.75
1315.269,989.50
1316.171,944.50
1317.076,942.75
1317.978,920.00
1318.881,921.00
1319.785,952.25
1320.687,905.75
1321.589,882.00
1322.491,918.75
1323.395,910.25
1324.297,942.75
1325.198,928.50
1326.102,928.25
1327.004,908.00
1327.905,888.25
1328.806,895.00
1329.709,905.25
1330.611,885.25
1331.512,924.50
1332.413,868.25
1333.316,895.25
1334.216,866.50
1335.117,885.75
1336.020,870.50
1336.920,856.75
1337.821,847.75
1338.721,822.50
1339.623,827.00
1340.523,863.75
1341.423,849.50
1342.323,824.75
1343.225,823.50
1344.125,866.50
1345.025,841.00
1345.924,837.75
1346.826,805.75
1347.725,825.50
1348.624,805.00
1349.524,839.25
1350.425,843.75
1351.324,824.00
1352.223,831.00
1353.121,783.50
1354.022,838.00
1354.921,784.25
1355.819,798.75
1356.718,787.50
1357.618,817.50
1358.516,785.25
1359.415,775.25
1360.313,778.75
1361.213,780.25
1362.111,785.75
1363.008,790.00
1363.906,769.25
1364.806,773.50
1365.703,768.00
1366.601,771.75
1367.498,772.50
1368.397,748.25
1369.295,711.50
1370.192,748.00
1371.089,720.75
1371.987,777.25
1372.884,773.25
1373.781,798.75
1374.678,714.25
1375.574,771.75
1376.473,730.25
1377.369,779.50
1378.265,741.50
1379.161,773.75
1380.059,715.00
1380.955,702.25
1381.851,731.00
1382.747,714.75
1383.643,696.00
1384.540,722.25
1385.436,730.25
1386.331,712.25
1387.227,717.25
1388.124,743.25
1389.019,688.00
1389.914,738.25
1390.809,695.00
1391.704,687.00
1392.601,692.75
1393.495,694.75
1394.390,697.75
1395.285,670.50
1396.179,685.50
1397.075,679.00
1397.969,706.75
1398.864,669.75
1399.758,693.50
1400.652,676.75
1401.547,683.50
1402.441,696.00
1403.335,681.00
1404.229,676.50
1405.122,703.25
1406.017,657.00
1406.911,677.75
1407.804,716.50
1408.697,665.75
1409.590,659.00
1410.485,653.75
1411.378,656.25
1412.271,626.25
1413.163,698.25
1414.056,681.25
1414.949,674.00
1415.843,708.00
1416.735,655.00
1417.627,628.00
1418.520,666.50
1419.412,666.50
1420.306,681.25
1421.197,686.25
1422.089,640.50
1422.981,659.50
1423.873,643.25
1424.764,660.50
1425.657,679.50
1426.549,679.75
1427.440,631.75
1428.331,635.50
1429.222,635.50
1430.113,628.75
1431.006,655.25
1431.897,636.50
1432.787,646.50
1433.678,623.50
1434.568,625.75
1435.459,664.25
1436.351,661.75
1437.241,676.25
1438.131,632.25
1439.021,641.75
1439.911,617.75
1440.801,628.75
1441.693,605.25
1442.583,611.00
1443.472,665.50
1444.362,623.75
1445.251,630.50
1446.140,656.75
1447.030,619.25
1447.921,625.00
1448.810,620.00
1449.699,612.50
1450.588,633.50
1451.476,629.50
1452.365,619.25
1453.254,660.75
1454.144,644.00
1455.032,613.75
1455.921,628.75
1456.809,595.25
1457.697,611.00
1458.585,626.50
1459.473,624.00
1460.361,621.25
1461.251,630.75
1462.138,644.25
1463.026,630.50
1463.913,590.50
1464.801,630.25
1465.688,652.00
1466.575,610.75
1467.463,609.25
1468.351,590.75
1469.238,602.00
1470.125,575.25
1471.012,597.75
1471.899,586.00
1472.785,603.75
1473.672,573.75
1474.558,567.25
1475.446,592.00
1476.333,576.25
1477.219,601.00
1478.105,603.75
1478.991,580.00
1479.877,622.00
1480.762,591.25
1481.648,601.50
1482.534,594.25
1483.419,588.50
1484.307,557.75
1485.192,616.75
1486.077,581.50
1486.962,608.50
1487.847,598.75
1488.732,621.25
1489.617,601.75
1490.502,601.50
1491.387,580.25
1492.271,605.50
1493.156,570.75
1494.042,577.75
1494.927,607.25
1495.811,598.00
1496.695,601.50
1497.579,588.25
1498.463,596.25
1499.347,577.00
1500.231,595.00
1501.114,575.75
1501.998,602.00
1502.881,545.75
1503.765,571.75
1504.648,554.25
1505.533,557.25
1506.417,574.50
1507.300,545.00
1508.183,529.75
1509.066,568.00
1509.948,570.75
1510.831,590.50
1511.714,596.25
1512.596,523.25
1513.479,565.25
1514.361,600.75
1515.243,568.50
1516.125,557.50
1517.008,570.00
1517.890,547.00
1518.771,532.00
1519.655,529.25
1520.537,583.25
1521.419,559.50
1522.300,561.75
1523.182,545.50
1524.063,566.00
1524.944,581.00
1525.825,551.75
1526.707,574.75
1527.588,567.25
1528.468,566.25
1529.349,537.25
1530.230,556.00
1531.111,560.25
1531.991,582.00
1532.872,549.00
1533.752,536.00
1534.632,536.75
1535.513,568.25
1536.393,511.75
1537.273,548.75
1538.153,458.75
1539.032,542.75
1539.912,550.25
1540.792,550.25
1541.672,513.00
1542.551,545.00
1543.430,560.25
1544.310,580.25
1545.189,510.50
1546.068,582.25
1546.947,527.75
1547.826,563.25
1548.705,578.00
1549.584,567.50
1550.462,543.00
1551.341,532.25
1552.219,555.50
1553.098,581.25
1553.976,527.75
1554.854,532.50
1555.733,544.75
1556.611,522.50
1557.489,542.25
1558.367,524.00
1559.244,507.25
1560.122,550.00
1561.000,533.25
1561.877,508.00
1562.755,584.25
1563.632,512.25
1564.509,567.50
1565.386,528.50
1566.264,553.50
1567.141,553.00
1568.017,513.25
1568.894,542.75
1569.771,564.75
1570.648,510.75
1571.524,521.75
1572.401,516.25
1573.277,511.00
1574.153,525.75
1575.029,522.00
1575.906,552.75
1576.781,545.75
1577.657,494.25
1578.533,562.25
1579.409,540.00
1580.285,511.25
1581.160,476.50
1582.036,510.00
1582.911,510.00
1583.786,499.50
1584.662,574.75
1585.537,519.25
1586.412,511.50
1587.287,508.75
1588.160,520.75
1589.035,524.00
1589.909,522.00
1590.784,536.50
1591.658,524.75
1592.533,512.75
1593.407,503.75
1594.281,568.00
1595.155,554.25
1596.029,550.00
1596.903,532.00
1597.777,532.00
1598.651,541.25
1599.525,542.25
1600.398,511.75
1601.272,497.75
1602.144,526.00
1603.017,515.75
1603.890,545.25
1604.763,528.00
1605.636,546.25
1606.509,494.00
1607.382,522.25
1608.255,502.25
1609.128,511.25
1610.000,483.00
1610.873,522.75
1611.746,491.75
1612.616,521.00
1613.488,515.00
1614.361,549.50
1615.233,498.25
1616.105,513.00
1616.977,518.75
1617.849,533.75
1618.720,513.50
1619.592,521.75
1620.464,512.50
1621.333,557.75
1622.205,513.00
1623.076,567.25
1623.947,531.75
1624.818,513.75
1625.689,536.00
1626.560,556.75
1627.431,517.50
1628.302,533.00
1629.171,493.50
1630.042,530.75
1630.912,542.75
1631.782,518.50
1632.653,528.50
1633.523,499.00
1634.393,494.00
1635.263,533.00
1636.131,456.50
1637.001,490.25
1637.871,506.50
1638.741,501.25
1639.611,543.00
1640.480,537.00
1641.350,520.00
1642.219,518.50
1643.087,525.25
1643.956,486.50
1644.825,540.25
1645.694,489.00
1646.563,472.75
1647.432,535.75
1648.299,583.25
1649.167,485.25
1650.036,501.75
1650.904,483.75
1651.773,548.50
1652.641,529.00
1653.509,519.75
1654.376,522.00
1655.244,503.00
1656.112,506.25
1656.980,484.50
1657.847,493.50
1658.715,544.50
1659.581,504.50
1660.448,507.25
1661.316,504.50
1662.183,488.50
1663.051,515.75
1663.918,529.50
1664.783,499.75
1665.650,473.75
1666.517,502.75
1667.384,470.25
1668.251,522.00
1669.115,532.00
1669.982,510.00
1670.849,525.25
1671.715,527.25
1672.581,477.75
1673.446,540.75
1674.312,485.25
1675.178,479.00
1676.044,487.25
1676.910,529.25
1677.774,473.25
1678.639,515.75
1679.505,532.25
1680.370,505.75
1681.236,444.75
1682.099,505.00
1682.965,501.75
1683.830,489.25
1684.695,514.25
1685.560,497.75
1686.423,490.50
1687.288,492.50
1688.153,506.00
1689.017,474.75
1689.880,458.50
1690.745,490.50
1691.609,505.25
1692.473,537.75
1693.338,514.25
1694.200,515.50
1695.064,492.00
1695.928,480.00
1696.792,510.50
1697.654,524.25
1698.517,545.75
1699.381,485.75
1700.245,528.50
1701.106,526.50
1701.969,492.00
1702.833,509.75
1703.696,479.00
1704.557,486.75
1705.420,479.50
1706.283,474.75
1707.146,542.00
1708.007,490.50
1708.870,484.25
1709.732,507.50
1710.595,483.25
1711.455,496.75
1712.318,512.00
1713.180,480.50
1714.040,505.50
1714.902,492.75
1715.764,489.00
1716.626,455.50
1717.486,492.75
1718.348,505.50
1719.209,533.25
1720.071,531.50
1720.930,501.75
1721.792,533.25
1722.653,512.50
1723.512,499.25
1724.374,479.00
1725.234,519.50
1726.095,475.00
1726.954,473.50
1727.815,483.25
1728.676,472.00
1729.535,510.50
1730.395,475.00
1731.256,461.50
1732.114,459.75
1732.974,514.75
1733.834,534.50
1734.693,478.75
1735.553,460.75
1736.413,526.25
1737.272,492.75
1738.130,506.75
1738.990,484.00
1739.849,481.25
1740.707,493.00
1741.566,496.00
1742.426,478.00
1743.283,528.25
1744.142,503.00
1745.001,510.25
1745.858,515.75
1746.717,476.50
1747.576,468.25
1748.433,482.75
1749.292,495.25
1750.150,504.75
1751.007,502.25
1751.865,508.25
1752.723,515.25
1753.579,497.00
1754.438,463.00
1755.296,517.25
1756.152,486.25
1757.010,483.75
1757.865,503.50
1758.723,462.50
1759.581,474.00
1760.436,527.00
1761.294,465.25
1762.151,498.50
1763.006,533.50
1763.864,484.75
1764.721,477.25
1765.576,501.00
1766.433,534.50
1767.288,496.50
1768.144,466.00
1769.001,473.25
1769.856,516.75
1770.712,516.75
1771.568,490.50
1772.423,522.50
1773.279,519.00
1774.133,513.25
1774.989,522.00
1775.845,482.50
1776.699,455.50
1777.555,539.75
1778.409,590.75
1779.265,508.50
1780.120,519.25
1780.974,464.75
1781.829,472.50
1782.682,504.00
1783.538,483.25
1784.393,525.00
1785.246,493.25
1786.101,453.50
1786.954,498.50
1787.808,531.25
1788.661,494.50
1789.516,511.00
1790.370,474.50
1791.223,496.25
1792.077,475.75
1792.930,508.00
1793.784,456.25
1794.636,470.75
1795.490,482.75
1796.344,452.25
1797.196,505.25
1798.049,484.75
1798.901,453.00
1799.755,480.00
1800.606,496.25
1801.460,466.25
1802.311,499.75
1803.165,458.25
1804.018,511.75
1804.869,502.50
1805.722,506.25
1806.573,476.50
1807.426,512.00
1808.276,462.75
1809.129,462.75
1809.980,506.00
1810.832,525.75
1811.683,446.75
1812.535,527.25
1813.385,440.00
1814.237,500.25
1815.089,435.00
1815.940,504.25
1816.791,469.00
1817.641,455.75
1818.493,494.50
1819.343,505.75
1820.194,473.25
1821.044,531.50
1821.895,442.50
1822.745,478.50
1823.596,444.75
1824.445,508.75
1825.296,481.25
1826.145,491.25
1826.996,453.50
1827.845,479.75
1828.695,499.25
1829.544,475.75
1830.395,472.00
1831.243,488.25
1832.094,537.00
1832.942,477.25
1833.792,493.50
1834.640,501.50
1835.490,502.00
1836.338,447.50
1837.186,454.75
1838.036,492.50
1838.884,509.25
1839.733,493.75
1840.581,476.25
1841.430,504.50
1842.278,473.75
1843.127,456.75
1843.974,496.00
1844.823,431.00
1845.671,420.50
1846.519,468.75
1847.366,468.25
1848.213,479.50
1849.062,498.50
1849.909,483.50
1850.757,466.75
1851.604,427.00
1852.452,514.75
1853.298,463.75
1854.146,467.75
1854.993,466.75
1855.839,472.75
1856.687,475.25
1857.532,477.75
1858.380,499.00
1859.226,478.25
1860.073,465.00
1860.919,438.75
1861.765,479.00
1862.612,505.50
1863.457,468.00
1864.304,511.75
1865.150,514.00
1865.995,502.50
1866.842,466.25
1867.686,470.75
1868.533,481.75
1869.378,478.25
1870.223,461.25
1871.069,477.75
1871.914,498.50
1872.760,492.75
1873.604,498.00
1874.448,444.25
1875.294,490.50
1876.139,508.75
1876.984,524.00
1877.828,431.25
1878.672,494.00
1879.518,469.50
1880.361,520.00
1881.205,529.00
1882.050,483.75
1882.894,444.50
1883.739,481.50
1884.582,543.25
1885.425,464.25
1886.270,481.00
1887.113,469.25
1887.956,509.50
1888.801,487.25
1889.644,506.00
1890.486,495.25
1891.331,484.50
1892.173,478.75
1893.017,440.75
1893.860,504.75
1894.702,493.75
1895.546,490.00
1896.388,476.75
1897.230,483.50
1898.074,508.00
1898.916,473.00
1899.757,530.50
1900.601,488.00
1901.443,489.50
1902.284,469.50
1903.125,484.75
1903.969,483.50
1904.810,459.00
1905.651,468.50
1906.494,429.25
1907.335,495.00
1908.176,453.25
1909.018,467.75
1909.859,482.25
1910.700,485.75
1911.542,444.50
1912.383,538.25
1913.223,468.00
1914.064,469.25
1914.906,482.00
1915.746,473.25
1916.586,487.75
1917.428,491.25
1918.268,491.25
1919.107,498.25
1919.947,511.75
1920.789,474.75
1921.628,510.75
1922.468,495.25
1923.309,479.75
1924.148,502.00
1924.988,410.75
1925.827,461.25
1926.667,513.00
1927.507,445.00
1928.345,480.75
1929.184,456.25
1930.025,520.75
1930.864,467.50
1931.702,456.50
1932.541,488.75
1933.381,492.75
1934.219,481.00
1935.057,496.50
1935.896,486.25
1936.735,498.25
1937.573,456.25
1938.411,479.00
1939.249,513.50
1940.089,501.00
1940.927,494.75
1941.764,486.25
1942.602,471.75
1943.439,469.50
1944.278,452.50
1945.115,488.25
1945.953,465.75
1946.790,500.75
1947.628,534.25
1948.465,522.75
1949.302,465.00
1950.139,513.50
1950.976,469.00
1951.814,501.50
1952.651,422.00
1953.487,546.25
1954.323,504.25
1955.160,479.50
1955.998,477.25
1956.834,486.50
1957.670,483.25
1958.506,503.00
1959.342,497.50
1960.177,492.75
1961.015,462.00
1961.850,468.75
1962.686,455.00
1963.521,479.75
1964.357,441.75
1965.192,490.50
1966.029,472.00
1966.864,465.00
1967.699,481.75
1968.534,474.25
1969.369,483.75
1970.204,463.25
1971.040,480.25
1971.875,509.75
1972.709,460.75
1973.544,503.75
1974.378,456.00
1975.212,462.00
1976.047,512.25
1976.882,433.75
1977.716,464.00
1978.550,488.50
1979.384,500.25
1980.218,504.00
1981.052,439.25
1981.885,494.25
1982.719,421.75
1983.554,480.75
1984.388,469.50
1985.221,470.00
1986.054,514.25
1986.887,509.50
1987.720,482.00
1988.553,489.50
1989.386,510.25
1990.219,514.75
1991.053,467.75
1991.886,494.00
1992.719,506.00
1993.551,505.00
1994.383,445.75
1995.216,466.00
1996.048,523.50
1996.880,513.50
1997.712,472.25
1998.544,489.50
1999.376,494.50
2000.208,535.50
2001.040,516.50
2001.873,490.25
2002.705,455.25
2003.536,471.25
2004.367,486.50
2005.199,466.75
2006.030,499.75
2006.861,490.25
2007.692,433.75
2008.523,514.25
2009.354,507.25
2010.185,497.00
2011.016,499.00
2011.846,476.00
2012.677,494.00
2013.507,529.00
2014.338,438.50
2015.168,480.75
2015.999,528.00
2016.829,486.50
2017.659,480.75
2018.489,509.25
2019.319,521.00
2020.149,506.75
2020.980,502.25
2021.810,487.00
2022.639,500.50
2023.469,474.50
2024.298,475.25
2025.128,491.00
2025.957,522.75
2026.786,475.50
2027.615,503.75
2028.444,459.00
2029.273,499.25
2030.102,526.00
2030.931,476.50
2031.758,479.25
2032.586,507.50
2033.415,500.00
2034.243,489.25
2035.072,523.50
2035.900,534.75
2036.728,522.25
2037.556,477.50
2038.385,508.00
2039.213,501.50
2040.040,553.00
2040.868,519.75
2041.696,502.25
2042.524,540.00
2043.351,520.25
2044.179,517.25
2045.006,517.75
2045.006,517.75

Max Intensity Wave.,218.899
Max Intensity Data,6225.00
Min Intensity Wave.,1924.988
Min Intensity Data,410.75
FWHM Wave.,385.726
FWHM Value,29.54
Pressure Wave.,687.726
Pressure Value [GPa],-16.90335
G/D Ratio,0.57001
G/D Gband Wave.,1562.767
G/D Gband Intensity,584.27
G/D Dband Wave.,1302.339
G/D Dband Intensity,1025.02

<< BACKGROUND SPECTRUM >>
Wave[dcm-1],No134
146.591,2332.00
147.626,2191.00
148.664,2098.00
149.699,2656.00
150.737,2332.00
151.772,2496.00
152.809,2487.00
153.846,2401.00
154.881,2508.00
155.918,2044.00
156.953,2364.00
157.989,2715.00
159.026,2539.00
160.060,2744.00
161.096,2984.00
162.130,2617.00
163.167,2703.00
164.200,2487.00
165.236,2736.00
166.272,2812.00
167.305,2390.00
168.341,2622.00
169.374,2894.00
170.409,2873.00
171.445,2845.00
172.477,2597.00
173.512,2517.00
174.545,2776.00
175.580,2986.00
176.614,3166.00
177.647,2927.00
178.681,3158.00
179.713,3468.00
180.747,2932.00
181.781,2817.00
182.813,3115.00
183.847,3224.00
184.878,2789.00
185.912,3100.00
186.945,3239.00
187.976,3195.00
189.010,2780.00
190.043,2955.00
191.073,3016.00
192.106,2851.00
193.137,3326.00
194.170,2645.00
195.202,3018.00
196.232,2792.00
197.265,3083.00
198.297,3180.00
199.327,2894.00
200.359,3044.00
201.388,3477.00
202.420,3019.00
203.452,3204.00
204.481,2792.00
205.512,3412.00
206.544,3243.00
207.573,3158.00
208.604,3520.00
209.635,3664.00
210.663,3056.00
211.694,3091.00
212.725,2964.00
213.753,2912.00
214.783,3512.00
215.813,3336.00
216.841,3167.00
217.871,3304.00
218.899,2981.00
219.929,3261.00
220.959,3029.00
221.986,3254.00
223.016,2857.00
224.045,3250.00
225.072,3239.00
226.101,3322.00
227.130,3364.00
228.157,2935.00
229.185,2457.00
230.214,3291.00
231.241,2948.00
232.269,2545.00
233.297,2786.00
234.323,3347.00
235.351,2950.00
236.379,3209.00
237.407,2863.00
238.433,3041.00
239.460,3222.00
240.488,3220.00
241.513,3354.00
242.540,3190.00
243.568,3335.00
244.592,3332.00
245.619,3336.00
246.646,3045.00
247.671,3093.00
248.697,2878.00
249.724,3124.00
250.748,3149.00
251.774,3131.00
252.801,3431.00
253.827,3229.00
254.850,3213.00
255.876,2827.00
256.902,3258.00
257.925,3119.00
258.951,2834.00
259.976,2874.00
260.999,3234.00
262.024,2904.00
263.049,3770.00
264.074,3228.00
265.097,3105.00
266.122,3205.00
267.146,3117.00
268.168,3360.00
269.193,2957.00
270.217,3378.00
271.241,2799.00
272.263,3003.00
273.287,3260.00
274.311,2874.00
275.332,3424.00
276.356,2998.00
277.379,3246.00
278.402,3260.00
279.424,3060.00
280.447,2980.00
281.470,2808.00
282.492,3241.00
283.513,2988.00
284.536,3289.00
285.558,3256.00
286.581,3241.00
287.601,2978.00
288.623,2901.00
289.645,3174.00
290.665,3220.00
291.687,3235.00
292.709,3252.00
293.730,3483.00
294.750,3013.00
295.771,2857.00
296.792,3207.00
297.813,3025.00
298.832,3190.00
299.853,2826.00
300.874,3102.00
301.895,3051.00
302.913,3131.00
303.934,3389.00
304.954,3160.00
305.975,3304.00
306.993,2830.00
308.013,3254.00
309.033,3123.00
310.052,3072.00
311.072,3021.00
312.090,3141.00
313.109,3389.00
314.129,3551.00
315.148,3108.00
316.165,3194.00
317.184,3359.00
318.203,2831.00
319.222,2858.00
320.238,3249.00
321.257,2917.00
322.275,2754.00
323.294,3067.00
324.312,3220.00
325.328,3447.00
326.346,3406.00
327.364,3324.00
328.382,3271.00
329.397,3292.00
330.415,3371.00
331.432,3288.00
332.450,3433.00
333.467,3582.00
334.482,2676.00
335.499,3526.00
336.516,2956.00
337.533,2666.00
338.547,2932.00
339.564,2964.00
340.580,3161.00
341.597,3073.00
342.613,3580.00
343.627,3093.00
344.643,3128.00
345.659,3226.00
346.675,3119.00
347.690,2965.00
348.704,3182.00
349.719,3008.00
350.735,2869.00
351.750,3327.00
352.765,3139.00
353.778,3093.00
354.793,3260.00
355.808,2959.00
356.822,3310.00
357.837,2722.00
358.851,3366.00
359.864,3053.00
360.878,2807.00
361.892,3093.00
362.906,3292.00
363.920,2684.00
364.932,3222.00
365.945,3222.00
366.959,3118.00
367.972,3041.00
368.986,2784.00
369.999,3521.00
371.010,2940.00
372.023,3472.00
373.036,3083.00
374.049,3513.00
375.061,3203.00
376.072,3113.00
377.084,3001.00
378.097,2779.00
379.109,3303.00
380.121,3090.00
381.133,2755.00
382.143,3250.00
383.155,2851.00
384.166,3006.00
385.178,3172.00
386.189,3351.00
387.201,2844.00
388.212,3031.00
389.221,3044.00
390.232,3113.00
391.243,3030.00
392.254,3125.00
393.264,2931.00
394.275,3361.00
395.283,3307.00
396.294,3744.00
397.304,3602.00
398.314,3215.00
399.324,3142.00
400.334,2738.00
401.344,3297.00
402.351,2772.00
403.361,3338.00
404.370,3069.00
405.380,3021.00
406.389,3478.00
407.398,3232.00
408.407,3189.00
409.414,3831.00
410.423,3439.00
411.431,2893.00
412.440,2784.00
413.448,3455.00
414.457,2986.00
415.465,2926.00
416.471,2962.00
417.479,3144.00
418.487,2922.00
419.495,3388.00
420.503,3216.00
421.510,2705.00
422.518,3293.00
423.525,3280.00
424.530,3516.00
425.537,3004.00
426.544,3370.00
427.551,2955.00
428.558,3737.00
429.565,3580.00
430.571,2993.00
431.578,3052.00
432.582,3007.00
433.588,3051.00
434.595,2712.00
435.601,3431.00
436.607,3353.00
437.612,2867.00
438.618,3431.00
439.624,3040.00
440.627,3014.00
441.633,3238.00
442.638,3751.00
443.643,3207.00
444.648,3133.00
445.653,3292.00
446.658,2997.00
447.663,3167.00
448.667,2963.00
449.672,3022.00
450.674,3056.00
451.678,2818.00
452.682,2950.00
453.687,2942.00
454.690,3737.00
455.694,3412.00
456.698,2641.00
457.702,2773.00
458.705,2892.00
459.709,2894.00
460.710,2985.00
461.713,3138.00
462.716,3154.00
463.719,3105.00
464.722,3329.00
465.725,3091.00
466.727,2960.00
467.730,3137.00
468.732,2863.00
469.735,3414.00
470.737,3022.00
471.737,3033.00
472.739,3026.00
473.741,2942.00
474.742,3188.00
475.744,3209.00
476.746,3171.00
477.747,3069.00
478.748,3260.00
479.750,3073.00
480.751,3094.00
481.752,3906.00
482.753,3207.00
483.751,3617.00
484.752,2707.00
485.753,3097.00
486.753,2928.00
487.753,3106.00
488.754,3579.00
489.754,2798.00
490.754,3438.00
491.754,3244.00
492.754,2788.00
493.753,3126.00
494.753,3009.00
495.752,3453.00
496.752,3140.00
497.749,3092.00
498.748,2960.00
499.747,3519.00
500.746,3210.00
501.745,2856.00
502.744,2837.00
503.742,3473.00
504.741,3058.00
505.739,2580.00
506.737,2980.00
507.735,3278.00
508.734,3434.00
509.732,3276.00
510.729,3464.00
511.727,2997.00
512.725,2985.00
513.720,2836.00
514.718,3360.00
515.715,2780.00
516.712,2759.00
517.709,3071.00
518.706,3045.00
519.703,3121.00
520.700,3289.00
521.696,3498.00
522.693,2994.00
523.689,2898.00
524.686,3226.00
525.682,2879.00
526.678,3529.00
527.674,3020.00
528.670,2693.00
529.666,3636.00
530.661,3579.00
531.657,3262.00
532.652,3273.00
533.648,3102.00
534.641,3349.00
535.636,3198.00
536.631,3196.00
537.626,3263.00
538.621,2813.00
539.616,2703.00
540.610,2624.00
541.605,3093.00
542.599,3167.00
543.593,3122.00
544.587,4019.00
545.581,2949.00
546.575,3131.00
547.569,3142.00
548.563,2804.00
549.557,2726.00
550.550,2842.00
551.543,2846.00
552.537,3297.00
553.530,2852.00
554.523,2853.00
555.516,3269.00
556.509,3061.00
557.502,2703.00
558.494,3288.00
559.487,3031.00
560.479,3282.00
561.472,3375.00
562.464,3215.00
563.456,3424.00
564.448,3067.00
565.440,3108.00
566.432,3518.00
567.423,3003.00
568.415,3025.00
569.404,3214.00
570.396,2893.00
571.387,3229.00
572.378,3135.00
573.369,4122.00
574.360,3808.00
575.351,3054.00
576.341,2947.00
577.332,2998.00
578.323,2793.00
579.313,3005.00
580.303,3364.00
581.293,3227.00
582.283,3069.00
583.273,3235.00
584.263,3115.00
585.253,3196.00
586.243,3279.00
587.232,2723.00
588.222,3047.00
589.211,3259.00
590.200,3140.00
591.189,3042.00
592.178,3131.00
593.167,3566.00
594.156,3395.00
595.145,2969.00
596.133,3556.00
597.122,3239.00
598.110,3344.00
599.098,3171.00
600.086,3134.00
601.074,3332.00
602.062,2886.00
603.050,2804.00
604.038,3206.00
605.025,2885.00
606.013,3292.00
607.000,3468.00
607.987,3153.00
608.975,3140.00
609.962,2883.00
610.949,3269.00
611.936,3368.00
612.922,3315.00
613.909,2801.00
614.895,3511.00
615.882,2918.00
616.868,3089.00
617.854,2854.00
618.841,3114.00
619.826,3239.00
620.812,3093.00
621.798,2870.00
622.784,3292.00
623.769,3197.00
624.755,2815.00
625.740,3151.00
626.725,2792.00
627.711,2964.00
628.698,3146.00
629.683,2878.00
630.667,3283.00
631.652,2885.00
632.637,3064.00
633.621,3252.00
634.606,3021.00
635.590,3234.00
636.574,3031.00
637.558,3157.00
638.542,3132.00
639.526,2963.00
640.510,2716.00
641.493,3158.00
642.477,3046.00
643.460,2777.00
644.444,3314.00
645.427,3408.00
646.410,2752.00
647.393,3037.00
648.376,3166.00
649.359,3008.00
650.341,3205.00
651.324,3197.00
652.307,3131.00
653.289,3056.00
654.271,2956.00
655.253,2999.00
656.235,3234.00
657.217,3335.00
658.199,2720.00
659.181,2860.00
660.163,3090.00
661.144,2976.00
662.126,2950.00
663.107,2845.00
664.088,4860.00
665.069,3373.00
666.050,2936.00
667.033,2781.00
668.014,3119.00
668.995,2697.00
669.975,3046.00
670.956,3108.00
671.936,3247.00
672.916,3107.00
673.896,3211.00
674.876,3041.00
675.856,2949.00
676.836,2819.00
677.816,2390.00
678.795,2918.00
679.775,2799.00
680.754,3127.00
681.734,3254.00
682.713,3304.00
683.692,2868.00
684.671,2711.00
685.650,2847.00
686.629,2949.00
687.607,2797.00
688.586,2844.00
689.564,2931.00
690.543,3354.00
691.523,2458.00
692.501,2907.00
693.479,2992.00
694.457,2879.00
695.435,2960.00
696.413,2732.00
697.390,2567.00
698.368,2792.00
699.345,3170.00
700.322,3017.00
701.300,3180.00
702.277,3135.00
703.254,3376.00
704.231,2672.00
705.207,3059.00
706.184,2873.00
707.161,2739.00
708.137,2944.00
709.113,2889.00
710.090,2899.00
711.068,2714.00
712.044,2663.00
713.020,2968.00
713.996,2698.00
714.971,2858.00
715.947,2977.00
716.922,2874.00
717.898,2849.00
718.873,2993.00
719.848,2809.00
720.823,2806.00
721.798,3085.00
722.773,2798.00
723.748,2587.00
724.723,3079.00
725.697,2945.00
726.672,2823.00
727.646,2552.00
728.622,3098.00
729.596,2711.00
730.570,2874.00
731.544,3182.00
732.518,3396.00
733.492,2932.00
734.466,2978.00
735.439,3105.00
736.413,3156.00
737.386,2517.00
738.359,2524.00
739.332,2617.00
740.305,2967.00
741.278,3437.00
742.251,2999.00
743.224,2809.00
744.196,2611.00
745.171,3246.00
746.143,3095.00
747.115,2862.00
748.087,2810.00
749.059,3163.00
750.031,2976.00
751.003,3834.00
751.975,3372.00
752.947,2805.00
753.918,3150.00
754.890,2637.00
755.861,2868.00
756.832,3177.00
757.803,2906.00
758.774,2897.00
759.747,2695.00
760.718,3325.00
761.689,2807.00
762.659,2668.00
763.630,3243.00
764.600,2643.00
765.570,3122.00
766.540,3227.00
767.510,3037.00
768.480,3162.00
769.450,2778.00
770.420,2921.00
771.390,2711.00
772.359,2819.00
773.329,2729.00
774.300,2556.00
775.269,2822.00
776.238,3114.00
777.207,3286.00
778.176,2559.00
779.145,2900.00
780.114,2729.00
781.083,2641.00
782.051,2833.00
783.019,2787.00
783.988,3161.00
784.956,2923.00
785.924,3075.00
786.894,2946.00
787.862,2763.00
788.830,3227.00
789.797,2699.00
790.765,2683.00
791.732,2809.00
792.700,2730.00
793.667,2662.00
794.634,2851.00
795.601,2794.00
796.568,2910.00
797.535,2933.00
798.502,3545.00
799.468,3035.00
800.437,2460.00
801.403,2716.00
802.370,3379.00
803.336,3119.00
804.302,2982.00
805.268,2525.00
806.234,2589.00
807.200,2830.00
808.166,2835.00
809.131,2653.00
810.097,3070.00
811.062,3750.00
812.027,3097.00
812.994,2650.00
813.960,2730.00
814.925,3073.00
815.889,2592.00
816.854,3163.00
817.819,2732.00
818.783,2836.00
819.748,3150.00
820.712,2821.00
821.677,2742.00
822.641,2776.00
823.605,2849.00
824.571,3181.00
825.534,2843.00
826.498,2729.00
827.462,2869.00
828.425,2718.00
829.389,3155.00
830.352,2895.00
831.315,2995.00
832.279,2563.00
833.242,2833.00
834.204,2738.00
835.167,2718.00
836.132,3115.00
837.095,2571.00
838.057,2747.00
839.020,2925.00
839.982,2968.00
840.944,2743.00
841.906,2674.00
842.868,3087.00
843.830,2610.00
844.792,3116.00
845.753,2766.00
846.715,2529.00
847.679,2610.00
848.640,2696.00
849.601,2817.00
850.562,3344.00
851.523,2806.00
852.484,2548.00
853.445,3088.00
854.406,2782.00
855.367,2768.00
856.327,3156.00
857.288,2592.00
858.248,2733.00
859.210,2765.00
860.170,2600.00
861.130,3121.00
862.090,2509.00
863.050,2674.00
864.010,2742.00
864.969,2973.00
865.929,2695.00
866.888,2634.00
867.848,2924.00
868.807,2728.00
869.766,2939.00
870.727,2838.00
871.686,3069.00
872.645,3116.00
873.604,3372.00
874.562,2802.00
875.521,2893.00
876.479,3475.00
877.437,2665.00
878.396,2644.00
879.354,3316.00
880.312,2694.00
881.270,2747.00
882.229,3214.00
883.187,2736.00
884.145,2788.00
885.102,3032.00
886.059,2926.00
887.017,2969.00
887.974,3057.00
888.931,3152.00
889.888,2561.00
890.845,2484.00
891.802,2423.00
892.758,2734.00
893.717,2528.00
894.673,2606.00
895.630,2672.00
896.586,2935.00
897.542,2761.00
898.498,2585.00
899.454,2929.00
900.410,2733.00
901.366,2747.00
902.321,3886.00
903.277,2774.00
904.232,2818.00
905.189,2550.00
906.145,2691.00
907.100,2269.00
908.055,2813.00
909.010,2992.00
909.965,2400.00
910.919,2847.00
911.874,2654.00
912.828,2875.00
913.783,2853.00
914.737,2413.00
915.693,2811.00
916.648,2976.00
917.602,3058.00
918.555,2910.00
919.509,2907.00
920.463,2842.00
921.417,2808.00
922.370,2617.00
923.324,2768.00
924.277,2730.00
925.230,2861.00
926.183,2469.00
927.138,2771.00
928.091,3040.00
929.044,2884.00
929.996,2731.00
930.949,2738.00
931.902,2922.00
932.854,2904.00
933.806,2661.00
934.758,3054.00
935.711,3093.00
936.663,2869.00
937.614,2888.00
938.568,2795.00
939.520,2469.00
940.471,2803.00
941.423,2874.00
942.374,2964.00
943.326,2803.00
944.277,2675.00
945.228,2907.00
946.179,2765.00
947.130,3132.00
948.080,2742.00
949.031,2615.00
949.984,2770.00
950.934,2798.00
951.884,2520.00
952.835,2805.00
953.785,2826.00
954.735,2669.00
955.685,2468.00
956.635,2669.00
957.585,2695.00
958.534,2709.00
959.484,2839.00
960.433,2713.00
961.383,2514.00
962.334,3015.00
963.283,2859.00
964.232,2966.00
965.181,2750.00
966.130,2888.00
967.079,2726.00
968.027,2822.00
968.976,2808.00
969.924,2712.00
970.873,2877.00
971.821,2801.00
972.769,3032.00
973.719,2952.00
974.667,2572.00
975.615,2751.00
976.562,2802.00
977.510,2485.00
978.458,2685.00
979.405,2917.00
980.352,2867.00
981.300,3033.00
982.247,2875.00
983.194,2595.00
984.141,2727.00
985.088,2770.00
986.036,2855.00
986.983,3075.00
987.930,3235.00
988.876,2442.00
989.822,3084.00
990.769,2614.00
991.715,2695.00
992.661,2475.00
993.607,2901.00
994.553,3409.00
995.498,2661.00
996.444,2374.00
997.389,2826.00
998.337,2606.00
999.282,3002.00
1000.227,2735.00
1001.173,2728.00
1002.118,2508.00
1003.062,3013.00
1004.007,2760.00
1004.952,3070.00
1005.897,3049.00
1006.841,2792.00
1007.786,2530.00
1008.730,2500.00
1009.674,3280.00
1010.618,2718.00
1011.564,2584.00
1012.508,2465.00
1013.452,3021.00
1014.396,2825.00
1015.339,2681.00
1016.283,2757.00
1017.226,2799.00
1018.170,2775.00
1019.113,2983.00
1020.056,2806.00
1020.999,2790.00
1021.942,2662.00
1022.885,2939.00
1023.828,3142.00
1024.770,2557.00
1025.715,2844.00
1026.657,2768.00
1027.600,2830.00
1028.542,2965.00
1029.484,2822.00
1030.426,2901.00
1031.368,2840.00
1032.310,2633.00
1033.251,2606.00
1034.193,2785.00
1035.135,2562.00
1036.076,2704.00
1037.017,2615.00
1037.959,2936.00
1038.900,2834.00
1039.843,2877.00
1040.784,2844.00
1041.725,2890.00
1042.665,2709.00
1043.606,2821.00
1044.547,2823.00
1045.487,2464.00
1046.427,2729.00
1047.368,2842.00
1048.308,2282.00
1049.248,2602.00
1050.188,2765.00
1051.128,2671.00
1052.067,2724.00
1053.007,2472.00
1053.947,2449.00
1054.886,2631.00
1055.827,2538.00
1056.766,3052.00
1057.706,2493.00
1058.645,2739.00
1059.584,2799.00
1060.522,3057.00
1061.461,2536.00
1062.400,2498.00
1063.338,2715.00
1064.277,2567.00
1065.215,2575.00
1066.154,2417.00
1067.092,2629.00
1068.030,2667.00
1068.968,2974.00
1069.906,3099.00
1070.843,3034.00
1071.781,2791.00
1072.720,2854.00
1073.658,2896.00
1074.595,2687.00
1075.533,2641.00
1076.470,2639.00
1077.407,3085.00
1078.344,2849.00
1079.281,2886.00
1080.217,2346.00
1081.154,2719.00
1082.091,2814.00
1083.027,2518.00
1083.964,3013.00
1084.900,2601.00
1085.836,2675.00
1086.772,2989.00
1087.708,2525.00
1088.644,2891.00
1089.580,2787.00
1090.515,2795.00
1091.451,2703.00
1092.388,2762.00
1093.324,2507.00
1094.259,3334.00
1095.194,2842.00
1096.129,2642.00
1097.064,2649.00
1097.999,2886.00
1098.934,2612.00
1099.869,2641.00
1100.803,2796.00
1101.738,2794.00
1102.672,2468.00
1103.607,2873.00
1104.541,2606.00
1105.475,2609.00
1106.409,2440.00
1107.343,2664.00
1108.277,2483.00
1109.210,2768.00
1110.144,2706.00
1111.078,2729.00
1112.011,2528.00
1112.944,2854.00
1113.878,2757.00
1114.811,2220.00
1115.744,2659.00
1116.678,2409.00
1117.611,2613.00
1118.544,2654.00
1119.477,2828.00
1120.409,2607.00
1121.342,3199.00
1122.274,2803.00
1123.206,4285.00
1124.138,2752.00
1125.070,3074.00
1126.002,2926.00
1126.934,2358.00
1127.866,2647.00
1128.798,2372.00
1129.729,2433.00
1130.661,2712.00
1131.592,2640.00
1132.523,2798.00
1133.454,2865.00
1134.385,2370.00
1135.317,2705.00
1136.247,2640.00
1137.178,2936.00
1138.109,2418.00
1139.039,3084.00
1139.970,2910.00
1140.900,2660.00
1141.831,2421.00
1142.761,2273.00
1143.691,3268.00
1144.621,2721.00
1145.551,2745.00
1146.480,2738.00
1147.410,2914.00
1148.340,2360.00
1149.269,2403.00
1150.199,2671.00
1151.128,3096.00
1152.057,2492.00
1152.979,2637.00
1153.898,2699.00
1154.819,2819.00
1155.739,2692.00
1156.658,2601.00
1157.579,2734.00
1158.498,2690.00
1159.419,2230.00
1160.338,2713.00
1161.256,2735.00
1162.177,2577.00
1163.095,2708.00
1164.016,2780.00
1164.934,2987.00
1165.852,2906.00
1166.772,2667.00
1167.690,2709.00
1168.610,2756.00
1169.528,2726.00
1170.446,2228.00
1171.365,2607.00
1172.283,2542.00
1173.202,2668.00
1174.120,2712.00
1175.037,2561.00
1175.956,2522.00
1176.873,2560.00
1177.792,2601.00
1178.709,3173.00
1179.626,2590.00
1180.544,2872.00
1181.461,2572.00
1182.379,2807.00
1183.296,2706.00
1184.212,2340.00
1185.130,2513.00
1186.046,3045.00
1186.962,2735.00
1187.880,2965.00
1188.796,2748.00
1189.714,2475.00
1190.629,2835.00
1191.545,2735.00
1192.462,2658.00
1193.378,2672.00
1194.295,2363.00
1195.210,2711.00
1196.125,2835.00
1197.042,2776.00
1197.957,2709.00
1198.872,2554.00
1199.788,2603.00
1200.703,3099.00
1201.619,2752.00
1202.534,2582.00
1203.448,2772.00
1204.364,2643.00
1205.278,2354.00
1206.192,2761.00
1207.108,3232.00
1208.022,3064.00
1208.938,2567.00
1209.851,2860.00
1210.765,2946.00
1211.680,2624.00
1212.594,2460.00
1213.507,2662.00
1214.422,3064.00
1215.335,2825.00
1216.248,2637.00
1217.163,2752.00
1218.076,3321.00
1218.990,2821.00
1219.903,2503.00
1220.816,2543.00
1221.730,2660.00
1222.642,2567.00
1223.554,2631.00
1224.469,2783.00
1225.380,2654.00
1226.292,2344.00
1227.206,2863.00
1228.118,3023.00
1229.032,2318.00
1229.943,2580.00
1230.855,2664.00
1231.768,2430.00
1232.679,2795.00
1233.590,2661.00
1234.503,2937.00
1235.414,2564.00
1236.325,2600.00
1237.238,2782.00
1238.149,2782.00
1239.059,2494.00
1239.972,2885.00
1240.882,2484.00
1241.793,2844.00
1242.705,3045.00
1243.615,2692.00
1244.525,2751.00
1245.437,2261.00
1246.347,2696.00
1247.259,2835.00
1248.168,3116.00
1249.078,2931.00
1249.989,2939.00
1250.899,2496.00
1251.808,2550.00
1252.719,2612.00
1253.628,2563.00
1254.537,3095.00
1255.448,2548.00
1256.357,2521.00
1257.266,2697.00
1258.176,2447.00
1259.085,2426.00
1259.993,2504.00
1260.904,2538.00
1261.812,2543.00
1262.720,3234.00
1263.630,2857.00
1264.538,2512.00
1265.446,2808.00
1266.356,2698.00
1267.263,2984.00
1268.171,2534.00
1269.080,2773.00
1269.988,2872.00
1270.895,2645.00
1271.804,2633.00
1272.711,2896.00
1273.619,2886.00
1274.527,2508.00
1275.434,2855.00
1276.341,2518.00
1277.248,2716.00
1278.156,2972.00
1279.063,2548.00
1279.969,2814.00
1280.877,3636.00
1281.783,2873.00
1282.690,2745.00
1283.598,2657.00
1284.503,2565.00
1285.409,2532.00
1286.317,3047.00
1287.223,3126.00
1288.128,2783.00
1289.036,2606.00
1289.941,2653.00
1290.846,2722.00
1291.751,2536.00
1292.658,2658.00
1293.563,3132.00
1294.468,2718.00
1295.375,2861.00
1296.280,2933.00
1297.184,3437.00
1298.091,2809.00
1298.995,2864.00
1299.900,3086.00
1300.806,2618.00
1301.710,2431.00
1302.614,2243.00
1303.518,2953.00
1304.424,2617.00
1305.327,2881.00
1306.231,2687.00
1307.137,2859.00
1308.040,2770.00
1308.943,2707.00
1309.847,2898.00
1310.752,2898.00
1311.655,2386.00
1312.558,2480.00
1313.463,2631.00
1314.366,2601.00
1315.269,2701.00
1316.171,2680.00
1317.076,2580.00
1317.978,2515.00
1318.881,2298.00
1319.785,2522.00
1320.687,2569.00
1321.589,2309.00
1322.491,2531.00
1323.395,2776.00
1324.297,3241.00
1325.198,2827.00
1326.102,2478.00
1327.004,2507.00
1327.905,3125.00
1328.806,2662.00
1329.709,2743.00
1330.611,2632.00
1331.512,2482.00
1332.413,3166.00
1333.316,2725.00
1334.216,2895.00
1335.117,2433.00
1336.020,2741.00
1336.920,2701.00
1337.821,2543.00
1338.721,3006.00
1339.623,2770.00
1340.523,2659.00
1341.423,2555.00
1342.323,2987.00
1343.225,2805.00
1344.125,2493.00
1345.025,2567.00
1345.924,2342.00
1346.826,3071.00
1347.725,3091.00
1348.624,2935.00
1349.524,2555.00
1350.425,2645.00
1351.324,2790.00
1352.223,2867.00
1353.121,2690.00
1354.022,2859.00
1354.921,3122.00
1355.819,2820.00
1356.718,2739.00
1357.618,2428.00
1358.516,2810.00
1359.415,3101.00
1360.313,2816.00
1361.213,2655.00
1362.111,2992.00
1363.008,3360.00
1363.906,2679.00
1364.806,2712.00
1365.703,2798.00
1366.601,2525.00
1367.498,2516.00
1368.397,2907.00
1369.295,2801.00
1370.192,2528.00
1371.089,2823.00
1371.987,2665.00
1372.884,2946.00
1373.781,2454.00
1374.678,2745.00
1375.574,2507.00
1376.473,2834.00
1377.369,2908.00
1378.265,2552.00
1379.161,2634.00
1380.059,2403.00
1380.955,2857.00
1381.851,2472.00
1382.747,2608.00
1383.643,2657.00
1384.540,2475.00
1385.436,2579.00
1386.331,2753.00
1387.227,2860.00
1388.124,2774.00
1389.019,2515.00
1389.914,2671.00
1390.809,2358.00
1391.704,3149.00
1392.601,2636.00
1393.495,2998.00
1394.390,2859.00
1395.285,2957.00
1396.179,2799.00
1397.075,2685.00
1397.969,2741.00
1398.864,2394.00
1399.758,2658.00
1400.652,2742.00
1401.547,2519.00
1402.441,2458.00
1403.335,3056.00
1404.229,2860.00
1405.122,2761.00
1406.017,2698.00
1406.911,2876.00
1407.804,3097.00
1408.697,2700.00
1409.590,2543.00
1410.485,2892.00
1411.378,2784.00
1412.271,2403.00
1413.163,2745.00
1414.056,2862.00
1414.949,3096.00
1415.843,2716.00
1416.735,2666.00
1417.627,2746.00
1418.520,2692.00
1419.412,2948.00
1420.306,2864.00
1421.197,2981.00
1422.089,2945.00
1422.981,3173.00
1423.873,2885.00
1424.764,2800.00
1425.657,2746.00
1426.549,2826.00
1427.440,2934.00
1428.331,2627.00
1429.222,2397.00
1430.113,2772.00
1431.006,2904.00
1431.897,2637.00
1432.787,2711.00
1433.678,2659.00
1434.568,2533.00
1435.459,2929.00
1436.351,2878.00
1437.241,2838.00
1438.131,2878.00
1439.021,2463.00
1439.911,2683.00
1440.801,2785.00
1441.693,2952.00
1442.583,2764.00
1443.472,2683.00
1444.362,2830.00
1445.251,2662.00
1446.140,2625.00
1447.030,2917.00
1447.921,2923.00
1448.810,2532.00
1449.699,3084.00
1450.588,2747.00
1451.476,2626.00
1452.365,2831.00
1453.254,2592.00
1454.144,2564.00
1455.032,2867.00
1455.921,2444.00
1456.809,3002.00
1457.697,2529.00
1458.585,2661.00
1459.473,2631.00
1460.361,2544.00
1461.251,2797.00
1462.138,2783.00
1463.026,2686.00
1463.913,2970.00
1464.801,2624.00
1465.688,2790.00
1466.575,2739.00
1467.463,3189.00
1468.351,2572.00
1469.238,2709.00
1470.125,2333.00
1471.012,2779.00
1471.899,2826.00
1472.785,2525.00
1473.672,2734.00
1474.558,2974.00
1475.446,2870.00
1476.333,2909.00
1477.219,2526.00
1478.105,2693.00
1478.991,2692.00
1479.877,2992.00
1480.762,2723.00
1481.648,2592.00
1482.534,2871.00
1483.419,2805.00
1484.307,2876.00
1485.192,2682.00
1486.077,2592.00
1486.962,2579.00
1487.847,2435.00
1488.732,2552.00
1489.617,2725.00
1490.502,2996.00
1491.387,2878.00
1492.271,2511.00
1493.156,2576.00
1494.042,2535.00
1494.927,2921.00
1495.811,2613.00
1496.695,2878.00
1497.579,3016.00
1498.463,2719.00
1499.347,2783.00
1500.231,2750.00
1501.114,2792.00
1501.998,2992.00
1502.881,2782.00
1503.765,3023.00
1504.648,3164.00
1505.533,2852.00
1506.417,2740.00
1507.300,2709.00
1508.183,2843.00
1509.066,2208.00
1509.948,2993.00
1510.831,3076.00
1511.714,2494.00
1512.596,2906.00
1513.479,2989.00
1514.361,2906.00
1515.243,2753.00
1516.125,2877.00
1517.008,3000.00
1517.890,2715.00
1518.771,2788.00
1519.655,2967.00
1520.537,2651.00
1521.419,2564.00
1522.300,2782.00
1523.182,2904.00
1524.063,2883.00
1524.944,3015.00
1525.825,2936.00
1526.707,2524.00
1527.588,2532.00
1528.468,2827.00
1529.349,2414.00
1530.230,2632.00
1531.111,2908.00
1531.991,2780.00
1532.872,2443.00
1533.752,2713.00
1534.632,2617.00
1535.513,2569.00
1536.393,2952.00
1537.273,3083.00
1538.153,3435.00
1539.032,2471.00
1539.912,2731.00
1540.792,2744.00
1541.672,2795.00
1542.551,2863.00
1543.430,3355.00
1544.310,2742.00
1545.189,2660.00
1546.068,3151.00
1546.947,2858.00
1547.826,3051.00
1548.705,2704.00
1549.584,2957.00
1550.462,2675.00
1551.341,2917.00
1552.219,2806.00
1553.098,2864.00
1553.976,2950.00
1554.854,3162.00
1555.733,2962.00
1556.611,2684.00
1557.489,2556.00
1558.367,2765.00
1559.244,2928.00
1560.122,2748.00
1561.000,2825.00
1561.877,3064.00
1562.755,2579.00
1563.632,2741.00
1564.509,2976.00
1565.386,3139.00
1566.264,2492.00
1567.141,2347.00
1568.017,2903.00
1568.894,2725.00
1569.771,2755.00
1570.648,2888.00
1571.524,2767.00
1572.401,2503.00
1573.277,2526.00
1574.153,2798.00
1575.029,2628.00
1575.906,3443.00
1576.781,2911.00
1577.657,2693.00
1578.533,2976.00
1579.409,2380.00
1580.285,2731.00
1581.160,3215.00
1582.036,2951.00
1582.911,2581.00
1583.786,3140.00
1584.662,2503.00
1585.537,2727.00
1586.412,2819.00
1587.287,2611.00
1588.160,2944.00
1589.035,2423.00
1589.909,2763.00
1590.784,2742.00
1591.658,2551.00
1592.533,2820.00
1593.407,2782.00
1594.281,2611.00
1595.155,3145.00
1596.029,2631.00
1596.903,2704.00
1597.777,2657.00
1598.651,3011.00
1599.525,2422.00
1600.398,2786.00
1601.272,2724.00
1602.144,3314.00
1603.017,2714.00
1603.890,3004.00
1604.763,2840.00
1605.636,2857.00
1606.509,2476.00
1607.382,2592.00
1608.255,2869.00
1609.128,2968.00
1610.000,2747.00
1610.873,2449.00
1611.746,2672.00
1612.616,2694.00
1613.488,2337.00
1614.361,2743.00
1615.233,2727.00
1616.105,2961.00
1616.977,2657.00
1617.849,2567.00
1618.720,3078.00
1619.592,3051.00
1620.464,2851.00
1621.333,3187.00
1622.205,2742.00
1623.076,2684.00
1623.947,2722.00
1624.818,3007.00
1625.689,2871.00
1626.560,2625.00
1627.431,2809.00
1628.302,3164.00
1629.171,2902.00
1630.042,3063.00
1630.912,3399.00
1631.782,3334.00
1632.653,2549.00
1633.523,2924.00
1634.393,3047.00
1635.263,2607.00
1636.131,2772.00
1637.001,2691.00
1637.871,2385.00
1638.741,2410.00
1639.611,2475.00
1640.480,2860.00
1641.350,2626.00
1642.219,2587.00
1643.087,2228.00
1643.956,3239.00
1644.825,3012.00
1645.694,2997.00
1646.563,2959.00
1647.432,2816.00
1648.299,2739.00
1649.167,2901.00
1650.036,2575.00
1650.904,2942.00
1651.773,2929.00
1652.641,2743.00
1653.509,2955.00
1654.376,2611.00
1655.244,2784.00
1656.112,2803.00
1656.980,2779.00
1657.847,2647.00
1658.715,2903.00
1659.581,2673.00
1660.448,2974.00
1661.316,2299.00
1662.183,2826.00
1663.051,2803.00
1663.918,2783.00
1664.783,2781.00
1665.650,2875.00
1666.517,2936.00
1667.384,2807.00
1668.251,2783.00
1669.115,2975.00
1669.982,2743.00
1670.849,3049.00
1671.715,2727.00
1672.581,2926.00
1673.446,2871.00
1674.312,2819.00
1675.178,3202.00
1676.044,2875.00
1676.910,2820.00
1677.774,2830.00
1678.639,2399.00
1679.505,2752.00
1680.370,2910.00
1681.236,3469.00
1682.099,2741.00
1682.965,2770.00
1683.830,2372.00
1684.695,2569.00
1685.560,2690.00
1686.423,2918.00
1687.288,2913.00
1688.153,2805.00
1689.017,2718.00
1689.880,2889.00
1690.745,2909.00
1691.609,2610.00
1692.473,2887.00
1693.338,2965.00
1694.200,3039.00
1695.064,2803.00
1695.928,2701.00
1696.792,2794.00
1697.654,3267.00
1698.517,2778.00
1699.381,2503.00
1700.245,2403.00
1701.106,3037.00
1701.969,2646.00
1702.833,2917.00
1703.696,2687.00
1704.557,2747.00
1705.420,2646.00
1706.283,2817.00
1707.146,2878.00
1708.007,2571.00
1708.870,2583.00
1709.732,2420.00
1710.595,2682.00
1711.455,2525.00
1712.318,2662.00
1713.180,3055.00
1714.040,2833.00
1714.902,2948.00
1715.764,2799.00
1716.626,2577.00
1717.486,2750.00
1718.348,3030.00
1719.209,4357.00
1720.071,2395.00
1720.930,2506.00
1721.792,2577.00
1722.653,2593.00
1723.512,2655.00
1724.374,2727.00
1725.234,2829.00
1726.095,2807.00
1726.954,2774.00
1727.815,2903.00
1728.676,2746.00
1729.535,2986.00
1730.395,2759.00
1731.256,2713.00
1732.114,2859.00
1732.974,2217.00
1733.834,3112.00
1734.693,2955.00
1735.553,2827.00
1736.413,3167.00
1737.272,2647.00
1738.130,2705.00
1738.990,2862.00
1739.849,2682.00
1740.707,3787.00
1741.566,2814.00
1742.426,2819.00
1743.283,3161.00
1744.142,2664.00
1745.001,2423.00
1745.858,2945.00
1746.717,2870.00
1747.576,2899.00
1748.433,2960.00
1749.292,3350.00
1750.150,3398.00
1751.007,2981.00
1751.865,2982.00
1752.723,2784.00
1753.579,2705.00
1754.438,3036.00
1755.296,2987.00
1756.152,2305.00
1757.010,2460.00
1757.865,2979.00
1758.723,2469.00
1759.581,3134.00
1760.436,2726.00
1761.294,3156.00
1762.151,2734.00
1763.006,2663.00
1763.864,2436.00
1764.721,3008.00
1765.576,2784.00
1766.433,2912.00
1767.288,2670.00
1768.144,2857.00
1769.001,2752.00
1769.856,2865.00
1770.712,3004.00
1771.568,2581.00
1772.423,2667.00
1773.279,2649.00
1774.133,2682.00
1774.989,3157.00
1775.845,3186.00
1776.699,3074.00
1777.555,2727.00
1778.409,3321.00
1779.265,2750.00
1780.120,2701.00
1780.974,2788.00
1781.829,2387.00
1782.682,2850.00
1783.538,2613.00
1784.393,2819.00
1785.246,2653.00
1786.101,2906.00
1786.954,2928.00
1787.808,2966.00
1788.661,2495.00
1789.516,2666.00
1790.370,2733.00
1791.223,2965.00
1792.077,2789.00
1792.930,2859.00
1793.784,2665.00
1794.636,2811.00
1795.490,2750.00
1796.344,2843.00
1797.196,2762.00
1798.049,2955.00
1798.901,2703.00
1799.755,3036.00
1800.606,2566.00
1801.460,3341.00
1802.311,3099.00
1803.165,3230.00
1804.018,3120.00
1804.869,2845.00
1805.722,3250.00
1806.573,2818.00
1807.426,2580.00
1808.276,2805.00
1809.129,2695.00
1809.980,2984.00
1810.832,3044.00
1811.683,2737.00
1812.535,3078.00
1813.385,2758.00
1814.237,3057.00
1815.089,2864.00
1815.940,3058.00
1816.791,2752.00
1817.641,2684.00
1818.493,2939.00
1819.343,2856.00
1820.194,2672.00
1821.044,2860.00
1821.895,3053.00
1822.745,2514.00
1823.596,2688.00
1824.445,3188.00
1825.296,2905.00
1826.145,2750.00
1826.996,3029.00
1827.845,2844.00
1828.695,2845.00
1829.544,2807.00
1830.395,2848.00
1831.243,2710.00
1832.094,2476.00
1832.942,3426.00
1833.792,2899.00
1834.640,2841.00
1835.490,2784.00
1836.338,2884.00
1837.186,2684.00
1838.036,2651.00
1838.884,2747.00
1839.733,3116.00
1840.581,2988.00
1841.430,2928.00
1842.278,3175.00
1843.127,2710.00
1843.974,2469.00
1844.823,3284.00
1845.671,3029.00
1846.519,2819.00
1847.366,2893.00
1848.213,2419.00
1849.062,2600.00
1849.909,2551.00
1850.757,3503.00
1851.604,2971.00
1852.452,2678.00
1853.298,2988.00
1854.146,2854.00
1854.993,2850.00
1855.839,3326.00
1856.687,2913.00
1857.532,2929.00
1858.380,2777.00
1859.226,2893.00
1860.073,2957.00
1860.919,2654.00
1861.765,2710.00
1862.612,3046.00
1863.457,3034.00
1864.304,2727.00
1865.150,2884.00
1865.995,2777.00
1866.842,2941.00
1867.686,3056.00
1868.533,2879.00
1869.378,2845.00
1870.223,2851.00
1871.069,2699.00
1871.914,2829.00
1872.760,2803.00
1873.604,2554.00
1874.448,2990.00
1875.294,2990.00
1876.139,2643.00
1876.984,2903.00
1877.828,2488.00
1878.672,2301.00
1879.518,2705.00
1880.361,2938.00
1881.205,2927.00
1882.050,2608.00
1882.894,3359.00
1883.739,2670.00
1884.582,2521.00
1885.425,2615.00
1886.270,3065.00
1887.113,2575.00
1887.956,2889.00
1888.801,2870.00
1889.644,2599.00
1890.486,2383.00
1891.331,2718.00
1892.173,2843.00
1893.017,2909.00
1893.860,3090.00
1894.702,3086.00
1895.546,2820.00
1896.388,3535.00
1897.230,3174.00
1898.074,2692.00
1898.916,2620.00
1899.757,2600.00
1900.601,3514.00
1901.443,3113.00
1902.284,3144.00
1903.125,3281.00
1903.969,3013.00
1904.810,3077.00
1905.651,2907.00
1906.494,3193.00
1907.335,3275.00
1908.176,2947.00
1909.018,2927.00
1909.859,2762.00
1910.700,2675.00
1911.542,3375.00
1912.383,2855.00
1913.223,2439.00
1914.064,2961.00
1914.906,3082.00
1915.746,3174.00
1916.586,3286.00
1917.428,2806.00
1918.268,2851.00
1919.107,2697.00
1919.947,2529.00
1920.789,2756.00
1921.628,3036.00
1922.468,2827.00
1923.309,2683.00
1924.148,3118.00
1924.988,2949.00
1925.827,2821.00
1926.667,2670.00
1927.507,2907.00
1928.345,2657.00
1929.184,2994.00
1930.025,2607.00
1930.864,3096.00
1931.702,3162.00
1932.541,2719.00
1933.381,2956.00
1934.219,2962.00
1935.057,3129.00
1935.896,2521.00
1936.735,2775.00
1937.573,2768.00
1938.411,2616.00
1939.249,2951.00
1940.089,2694.00
1940.927,3078.00
1941.764,3116.00
1942.602,2753.00
1943.439,2722.00
1944.278,2824.00
1945.115,2740.00
1945.953,2572.00
1946.790,2906.00
1947.628,3153.00
1948.465,2928.00
1949.302,3008.00
1950.139,2948.00
1950.976,2708.00
1951.814,2975.00
1952.651,2945.00
1953.487,2572.00
1954.323,3072.00
1955.160,2800.00
1955.998,3206.00
1956.834,2782.00
1957.670,2916.00
1958.506,3049.00
1959.342,2921.00
1960.177,2868.00
1961.015,2984.00
1961.850,2876.00
1962.686,2899.00
1963.521,2870.00
1964.357,3145.00
1965.192,2596.00
1966.029,3001.00
1966.864,2770.00
1967.699,3061.00
1968.534,2879.00
1969.369,3137.00
1970.204,2802.00
1971.040,2876.00
1971.875,2758.00
1972.709,2874.00
1973.544,2638.00
1974.378,2757.00
1975.212,2977.00
1976.047,2685.00
1976.882,2756.00
1977.716,3252.00
1978.550,2530.00
1979.384,2762.00
1980.218,2766.00
1981.052,2805.00
1981.885,2873.00
1982.719,2893.00
1983.554,2993.00
1984.388,3188.00
1985.221,2927.00
1986.054,3066.00
1986.887,2886.00
1987.720,2666.00
1988.553,3144.00
1989.386,2906.00
1990.219,2944.00
1991.053,3165.00
1991.886,2697.00
1992.719,3025.00
1993.551,2320.00
1994.383,3024.00
1995.216,2771.00
1996.048,2498.00
1996.880,2998.00
1997.712,2708.00
1998.544,2829.00
1999.376,2919.00
2000.208,3105.00
2001.040,3272.00
2001.873,2637.00
2002.705,2691.00
2003.536,2910.00
2004.367,2891.00
2005.199,2900.00
2006.030,2702.00
2006.861,2630.00
2007.692,2905.00
2008.523,2679.00
2009.354,2853.00
2010.185,2628.00
2011.016,3004.00
2011.846,3079.00
2012.677,2794.00
2013.507,3174.00
2014.338,3132.00
2015.168,2761.00
2015.999,3330.00
2016.829,2785.00
2017.659,3092.00
2018.489,3385.00
2019.319,2635.00
2020.149,3000.00
2020.980,2863.00
2021.810,2648.00
2022.639,2706.00
2023.469,2731.00
2024.298,2545.00
2025.128,2454.00
2025.957,2424.00
2026.786,2280.00
2027.615,2467.00
2028.444,2726.00
2029.273,2876.00
2030.102,2433.00
2030.931,2705.00
2031.758,2999.00
2032.586,2609.00
2033.415,2704.00
2034.243,2306.00
2035.072,2070.00
2035.900,2554.00
2036.728,2403.00
2037.556,2472.00
2038.385,2453.00
2039.213,2269.00
2040.040,2220.00
2040.868,2206.00
2041.696,2297.00
2042.524,2259.00
2043.351,2483.00
2044.179,2277.00
2045.006,2045.00
