RamanScope Measure Spectrum Data V3.72

<< MEASURE CONDITION >>
Exposure Type,Aver
Exposure Time [sec],15
Exposure Count,4
Measure Time,2023/07/15 15:24:18
Data Name,""
Data Comment,""
Rayleigh Wave[nm],532.0

<< SAMPLE SPECTRUM >>
Wave[dcm-1],No138
146.591,515.00
147.626,598.25
148.664,661.25
149.699,751.50
150.737,829.75
151.772,944.00
152.809,1037.75
153.846,1128.25
154.881,1211.50
155.918,1235.50
156.953,1310.50
157.989,1327.75
159.026,1432.00
160.060,1456.75
161.096,1438.25
162.130,1474.25
163.167,1505.00
164.200,1613.25
165.236,1633.00
166.272,1568.25
167.305,1583.00
168.341,1666.75
169.374,1670.00
170.409,1726.50
171.445,1706.00
172.477,1758.50
173.512,1770.75
174.545,1823.25
175.580,1841.50
176.614,1857.00
177.647,1892.25
178.681,1891.25
179.713,1867.25
180.747,1863.25
181.781,1906.25
182.813,1918.25
183.847,1924.00
184.878,1919.75
185.912,1929.50
186.945,1970.25
187.976,2020.50
189.010,1999.50
190.043,2010.00
191.073,2056.50
192.106,2109.75
193.137,2152.50
194.170,2173.75
195.202,2245.75
196.232,2272.00
197.265,2300.75
198.297,2377.75
199.327,2399.75
200.359,2475.50
201.388,2621.25
202.420,2668.75
203.452,2765.75
204.481,2911.50
205.512,2981.50
206.544,3158.00
207.573,3364.25
208.604,3477.25
209.635,3773.00
210.663,4007.50
211.694,4218.75
212.725,4483.25
213.753,4861.00
214.783,5131.25
215.813,5291.25
216.841,5541.50
217.871,5708.50
218.899,5813.75
219.929,5772.75
220.959,5778.25
221.986,5593.75
223.016,5363.50
224.045,5140.00
225.072,4881.00
226.101,4600.00
227.130,4318.25
228.157,4086.75
229.185,3815.25
230.214,3638.25
231.241,3465.25
232.269,3365.75
233.297,3259.00
234.323,3178.00
235.351,3103.75
236.379,3020.50
237.407,2934.75
238.433,2923.50
239.460,2845.50
240.488,2806.00
241.513,2883.75
242.540,2776.00
243.568,2870.50
244.592,2795.50
245.619,2797.25
246.646,2865.75
247.671,2798.75
248.697,2853.25
249.724,2874.25
250.748,2850.25
251.774,2902.75
252.801,2892.00
253.827,2955.00
254.850,2990.00
255.876,3011.25
256.902,3087.25
257.925,3103.25
258.951,3148.75
259.976,3192.75
260.999,3278.00
262.024,3321.25
263.049,3381.00
264.074,3445.00
265.097,3554.25
266.122,3639.00
267.146,3701.75
268.168,3754.25
269.193,3848.50
270.217,3886.75
271.241,4076.50
272.263,4090.75
273.287,4114.50
274.311,4273.75
275.332,4265.50
276.356,4305.25
277.379,4355.00
278.402,4359.50
279.424,4370.75
280.447,4341.50
281.470,4251.75
282.492,4246.50
283.513,4174.75
284.536,4148.00
285.558,4066.25
286.581,3978.75
287.601,3838.25
288.623,3761.75
289.645,3629.75
290.665,3591.00
291.687,3473.25
292.709,3348.50
293.730,3281.75
294.750,3216.25
295.771,3130.75
296.792,2987.25
297.813,2926.50
298.832,2865.75
299.853,2772.50
300.874,2673.00
301.895,2676.00
302.913,2582.50
303.934,2580.00
304.954,2481.75
305.975,2388.50
306.993,2350.25
308.013,2299.75
309.033,2268.25
310.052,2208.25
311.072,2209.50
312.090,2178.50
313.109,2204.50
314.129,2122.25
315.148,2101.25
316.165,2035.50
317.184,2075.50
318.203,2015.25
319.222,2037.25
320.238,1943.25
321.257,1978.50
322.275,1964.50
323.294,1944.75
324.312,1913.25
325.328,1893.00
326.346,1890.75
327.364,1886.25
328.382,1883.00
329.397,1855.75
330.415,1879.00
331.432,1809.00
332.450,1838.00
333.467,1829.25
334.482,1822.25
335.499,1813.25
336.516,1832.75
337.533,1795.75
338.547,1854.25
339.564,1771.50
340.580,1805.50
341.597,1806.25
342.613,1795.00
343.627,1837.75
344.643,1754.50
345.659,1785.75
346.675,1741.25
347.690,1793.50
348.704,1829.50
349.719,1821.50
350.735,1776.00
351.750,1776.75
352.765,1793.75
353.778,1791.00
354.793,1797.50
355.808,1799.25
356.822,1729.00
357.837,1820.00
358.851,1828.00
359.864,1800.75
360.878,1829.75
361.892,1855.75
362.906,1859.50
363.920,1832.50
364.932,1927.25
365.945,1855.00
366.959,1893.25
367.972,1907.75
368.986,1949.25
369.999,1942.75
371.010,1950.50
372.023,1943.50
373.036,1919.75
374.049,1986.00
375.061,1988.00
376.072,1967.25
377.084,2017.75
378.097,2049.25
379.109,2004.75
380.121,2099.25
381.133,2046.00
382.143,2087.25
383.155,2046.25
384.166,2059.00
385.178,2059.00
386.189,2070.50
387.201,2077.25
388.212,2074.50
389.221,2131.50
390.232,2071.50
391.243,2046.50
392.254,2001.25
393.264,2063.25
394.275,2024.25
395.283,2082.00
396.294,1992.75
397.304,2039.25
398.314,1966.25
399.324,1981.25
400.334,1961.25
401.344,1934.00
402.351,1896.00
403.361,1933.00
404.370,1881.75
405.380,1867.75
406.389,1902.50
407.398,1815.50
408.407,1871.50
409.414,1771.00
410.423,1748.00
411.431,1774.00
412.440,1724.75
413.448,1710.50
414.457,1722.50
415.465,1706.25
416.471,1721.50
417.479,1667.25
418.487,1647.00
419.495,1702.75
420.503,1678.75
421.510,1591.75
422.518,1622.00
423.525,1621.50
424.530,1621.00
425.537,1614.25
426.544,1640.00
427.551,1587.50
428.558,1545.75
429.565,1519.75
430.571,1577.75
431.578,1551.25
432.582,1587.75
433.588,1519.25
434.595,1605.25
435.601,1568.75
436.607,1570.25
437.612,1545.00
438.618,1485.25
439.624,1504.75
440.627,1527.25
441.633,1560.25
442.638,1520.50
443.643,1513.25
444.648,1557.00
445.653,1512.25
446.658,1567.50
447.663,1537.50
448.667,1517.75
449.672,1556.50
450.674,1570.25
451.678,1580.25
452.682,1546.50
453.687,1588.50
454.690,1569.50
455.694,1534.25
456.698,1576.75
457.702,1535.25
458.705,1549.50
459.709,1616.50
460.710,1605.00
461.713,1611.25
462.716,1583.00
463.719,1559.25
464.722,1633.50
465.725,1562.75
466.727,1690.00
467.730,1593.50
468.732,1619.00
469.735,1643.50
470.737,1641.75
471.737,1647.50
472.739,1645.50
473.741,1616.50
474.742,1605.50
475.744,1624.25
476.746,1665.25
477.747,1601.00
478.748,1662.75
479.750,1656.25
480.751,1683.25
481.752,1643.00
482.753,1605.50
483.751,1626.25
484.752,1611.50
485.753,1630.50
486.753,1653.50
487.753,1624.50
488.754,1688.75
489.754,1635.50
490.754,1624.75
491.754,1623.75
492.754,1643.00
493.753,1647.25
494.753,1606.75
495.752,1611.75
496.752,1607.25
497.749,1627.75
498.748,1594.75
499.747,1625.75
500.746,1678.00
501.745,1613.50
502.744,1646.75
503.742,1595.25
504.741,1574.75
505.739,1556.00
506.737,1547.75
507.735,1584.75
508.734,1592.75
509.732,1590.25
510.729,1544.25
511.727,1572.75
512.725,1512.75
513.720,1545.00
514.718,1520.75
515.715,1538.00
516.712,1573.25
517.709,1558.75
518.706,1560.75
519.703,1569.00
520.700,1530.50
521.696,1519.00
522.693,1540.25
523.689,1546.75
524.686,1537.25
525.682,1524.75
526.678,1568.25
527.674,1584.00
528.670,1499.50
529.666,1531.00
530.661,1542.00
531.657,1546.25
532.652,1538.75
533.648,1590.25
534.641,1530.00
535.636,1520.50
536.631,1552.00
537.626,1580.75
538.621,1567.50
539.616,1519.75
540.610,1573.75
541.605,1549.25
542.599,1584.00
543.593,1562.50
544.587,1614.75
545.581,1563.50
546.575,1582.50
547.569,1546.00
548.563,1600.75
549.557,1528.75
550.550,1609.25
551.543,1591.00
552.537,1553.25
553.530,1577.75
554.523,1623.00
555.516,1597.25
556.509,1590.50
557.502,1593.25
558.494,1591.00
559.487,1609.50
560.479,1655.75
561.472,1604.50
562.464,1664.75
563.456,1600.75
564.448,1653.75
565.440,1671.00
566.432,1670.00
567.423,1657.25
568.415,1634.00
569.404,1684.25
570.396,1659.25
571.387,1658.50
572.378,1706.75
573.369,1742.50
574.360,1703.75
575.351,1740.00
576.341,1697.50
577.332,1726.00
578.323,1714.25
579.313,1699.00
580.303,1687.25
581.293,1736.25
582.283,1761.25
583.273,1695.75
584.263,1710.25
585.253,1770.00
586.243,1699.25
587.232,1773.50
588.222,1698.25
589.211,1703.00
590.200,1729.50
591.189,1758.75
592.178,1697.25
593.167,1719.00
594.156,1767.50
595.145,1683.50
596.133,1706.00
597.122,1675.25
598.110,1675.00
599.098,1641.25
600.086,1646.25
601.074,1653.50
602.062,1627.75
603.050,1705.50
604.038,1614.00
605.025,1623.00
606.013,1591.75
607.000,1585.75
607.987,1640.75
608.975,1561.50
609.962,1597.75
610.949,1594.50
611.936,1540.00
612.922,1570.00
613.909,1554.50
614.895,1479.50
615.882,1570.25
616.868,1570.75
617.854,1484.50
618.841,1540.25
619.826,1521.75
620.812,1501.00
621.798,1528.00
622.784,1513.25
623.769,1528.25
624.755,1499.75
625.740,1477.75
626.725,1456.50
627.711,1488.75
628.698,1495.75
629.683,1435.50
630.667,1434.00
631.652,1451.50
632.637,1423.75
633.621,1436.00
634.606,1440.25
635.590,1406.25
636.574,1399.50
637.558,1362.75
638.542,1385.25
639.526,1344.00
640.510,1362.50
641.493,1363.50
642.477,1359.50
643.460,1405.75
644.444,1326.75
645.427,1319.50
646.410,1354.75
647.393,1345.50
648.376,1338.25
649.359,1323.00
650.341,1324.75
651.324,1356.25
652.307,1314.25
653.289,1356.00
654.271,1313.25
655.253,1295.25
656.235,1223.00
657.217,1270.50
658.199,1334.75
659.181,1278.25
660.163,1254.75
661.144,1243.75
662.126,1278.50
663.107,1266.00
664.088,1227.25
665.069,1263.00
666.050,1232.00
667.033,1232.25
668.014,1239.25
668.995,1284.75
669.975,1272.25
670.956,1236.00
671.936,1187.75
672.916,1209.50
673.896,1217.00
674.876,1215.50
675.856,1223.25
676.836,1209.25
677.816,1193.50
678.795,1167.00
679.775,1133.00
680.754,1155.00
681.734,1183.50
682.713,1191.75
683.692,1166.25
684.671,1129.25
685.650,1225.50
686.629,1153.25
687.607,1151.75
688.586,1171.25
689.564,1192.75
690.543,1159.25
691.523,1139.00
692.501,1095.00
693.479,1166.00
694.457,1102.75
695.435,1093.00
696.413,1132.75
697.390,1111.75
698.368,1136.50
699.345,1059.75
700.322,1143.00
701.300,1125.25
702.277,1089.75
703.254,1082.00
704.231,1078.25
705.207,1079.25
706.184,1125.50
707.161,1089.00
708.137,1061.50
709.113,1083.25
710.090,1059.50
711.068,1149.75
712.044,1075.50
713.020,1125.75
713.996,1094.00
714.971,1023.25
715.947,1111.75
716.922,1084.50
717.898,1076.75
718.873,1048.50
719.848,1003.00
720.823,1059.00
721.798,1098.75
722.773,1091.50
723.748,1026.75
724.723,1064.25
725.697,1087.25
726.672,1089.00
727.646,1102.75
728.622,1012.50
729.596,1032.75
730.570,1074.75
731.544,1054.50
732.518,1030.75
733.492,1004.50
734.466,995.00
735.439,1062.00
736.413,1079.50
737.386,1034.75
738.359,1024.50
739.332,1035.75
740.305,1047.00
741.278,1044.00
742.251,989.00
743.224,1032.50
744.196,1043.00
745.171,1020.00
746.143,1009.75
747.115,1032.50
748.087,999.75
749.059,998.50
750.031,1028.25
751.003,980.75
751.975,1017.25
752.947,1013.25
753.918,1058.50
754.890,984.00
755.861,998.25
756.832,1015.25
757.803,981.50
758.774,1024.75
759.747,959.25
760.718,976.00
761.689,934.00
762.659,971.25
763.630,1010.25
764.600,992.00
765.570,984.25
766.540,970.75
767.510,987.00
768.480,934.75
769.450,964.75
770.420,969.75
771.390,961.25
772.359,1011.50
773.329,983.75
774.300,960.00
775.269,949.75
776.238,928.00
777.207,931.25
778.176,988.25
779.145,960.50
780.114,945.50
781.083,939.50
782.051,938.00
783.019,944.75
783.988,1021.25
784.956,921.00
785.924,950.75
786.894,963.50
787.862,962.25
788.830,938.75
789.797,954.25
790.765,967.00
791.732,963.75
792.700,951.50
793.667,924.25
794.634,975.00
795.601,936.75
796.568,932.75
797.535,941.25
798.502,893.75
799.468,920.50
800.437,986.25
801.403,908.00
802.370,956.75
803.336,928.75
804.302,936.50
805.268,932.25
806.234,947.25
807.200,905.25
808.166,877.00
809.131,881.25
810.097,879.00
811.062,893.50
812.027,888.50
812.994,908.75
813.960,906.25
814.925,879.50
815.889,915.50
816.854,915.75
817.819,907.75
818.783,901.00
819.748,924.50
820.712,900.50
821.677,877.75
822.641,873.25
823.605,856.50
824.571,881.50
825.534,868.25
826.498,882.75
827.462,865.25
828.425,878.25
829.389,869.50
830.352,955.50
831.315,911.00
832.279,896.50
833.242,849.25
834.204,857.50
835.167,900.00
836.132,879.25
837.095,885.25
838.057,883.75
839.020,878.75
839.982,916.75
840.944,874.50
841.906,872.50
842.868,914.75
843.830,837.00
844.792,886.00
845.753,915.50
846.715,868.75
847.679,865.00
848.640,880.50
849.601,893.50
850.562,888.75
851.523,883.75
852.484,873.25
853.445,912.25
854.406,881.75
855.367,860.25
856.327,877.75
857.288,831.00
858.248,865.75
859.210,882.25
860.170,831.75
861.130,830.50
862.090,881.00
863.050,888.50
864.010,876.25
864.969,833.50
865.929,859.00
866.888,853.50
867.848,843.50
868.807,857.00
869.766,826.50
870.727,867.75
871.686,870.50
872.645,852.50
873.604,852.75
874.562,810.25
875.521,847.75
876.479,872.00
877.437,807.50
878.396,814.00
879.354,800.75
880.312,845.75
881.270,867.50
882.229,846.50
883.187,847.50
884.145,830.75
885.102,852.00
886.059,814.50
887.017,803.75
887.974,832.25
888.931,828.00
889.888,810.75
890.845,832.25
891.802,829.00
892.758,822.25
893.717,854.25
894.673,849.25
895.630,862.75
896.586,893.25
897.542,825.00
898.498,776.00
899.454,822.50
900.410,858.00
901.366,807.00
902.321,819.50
903.277,858.25
904.232,814.75
905.189,837.50
906.145,824.75
907.100,842.75
908.055,810.25
909.010,794.75
909.965,787.25
910.919,828.00
911.874,794.00
912.828,844.25
913.783,830.25
914.737,796.25
915.693,824.25
916.648,836.50
917.602,805.50
918.555,826.00
919.509,796.75
920.463,849.25
921.417,838.50
922.370,772.25
923.324,796.75
924.277,777.00
925.230,799.75
926.183,812.25
927.138,775.75
928.091,762.00
929.044,802.25
929.996,851.00
930.949,842.25
931.902,847.00
932.854,823.25
933.806,828.00
934.758,810.50
935.711,819.25
936.663,835.75
937.614,810.25
938.568,804.50
939.520,796.50
940.471,824.75
941.423,823.00
942.374,846.50
943.326,786.50
944.277,792.75
945.228,844.00
946.179,812.75
947.130,778.50
948.080,826.50
949.031,803.00
949.984,773.75
950.934,812.25
951.884,820.00
952.835,839.50
953.785,765.25
954.735,809.25
955.685,891.00
956.635,798.50
957.585,813.25
958.534,841.00
959.484,738.25
960.433,814.50
961.383,794.75
962.334,852.25
963.283,798.50
964.232,814.50
965.181,795.25
966.130,846.00
967.079,822.00
968.027,796.50
968.976,825.50
969.924,841.25
970.873,793.50
971.821,812.50
972.769,844.75
973.719,805.75
974.667,817.75
975.615,818.75
976.562,808.25
977.510,810.00
978.458,804.50
979.405,824.75
980.352,802.00
981.300,780.75
982.247,831.75
983.194,800.75
984.141,820.25
985.088,815.50
986.036,783.00
986.983,803.75
987.930,822.00
988.876,877.25
989.822,756.75
990.769,840.00
991.715,817.25
992.661,788.75
993.607,824.25
994.553,822.25
995.498,824.25
996.444,813.00
997.389,798.50
998.337,835.00
999.282,817.25
1000.227,783.75
1001.173,817.50
1002.118,851.75
1003.062,824.50
1004.007,784.50
1004.952,842.00
1005.897,791.25
1006.841,859.75
1007.786,817.75
1008.730,837.75
1009.674,850.25
1010.618,845.00
1011.564,855.25
1012.508,813.00
1013.452,873.25
1014.396,826.25
1015.339,812.25
1016.283,862.00
1017.226,825.50
1018.170,819.00
1019.113,803.25
1020.056,827.00
1020.999,843.50
1021.942,848.25
1022.885,853.25
1023.828,843.75
1024.770,866.75
1025.715,801.50
1026.657,855.25
1027.600,767.75
1028.542,798.00
1029.484,817.00
1030.426,858.00
1031.368,807.75
1032.310,842.25
1033.251,812.25
1034.193,819.75
1035.135,805.50
1036.076,850.25
1037.017,851.00
1037.959,830.25
1038.900,827.50
1039.843,859.00
1040.784,815.75
1041.725,843.50
1042.665,844.25
1043.606,835.25
1044.547,842.00
1045.487,825.00
1046.427,795.50
1047.368,792.25
1048.308,882.25
1049.248,855.50
1050.188,862.50
1051.128,822.50
1052.067,807.00
1053.007,840.50
1053.947,805.50
1054.886,854.75
1055.827,855.25
1056.766,864.25
1057.706,826.50
1058.645,840.25
1059.584,866.00
1060.522,830.00
1061.461,874.00
1062.400,854.50
1063.338,844.00
1064.277,864.25
1065.215,883.50
1066.154,841.75
1067.092,879.50
1068.030,877.50
1068.968,870.75
1069.906,840.50
1070.843,875.75
1071.781,858.50
1072.720,848.50
1073.658,875.75
1074.595,862.50
1075.533,852.00
1076.470,859.75
1077.407,840.50
1078.344,886.75
1079.281,922.50
1080.217,882.25
1081.154,860.75
1082.091,828.75
1083.027,914.75
1083.964,873.25
1084.900,885.75
1085.836,878.25
1086.772,867.75
1087.708,872.00
1088.644,845.25
1089.580,890.00
1090.515,917.50
1091.451,857.75
1092.388,876.75
1093.324,917.00
1094.259,866.00
1095.194,873.75
1096.129,883.00
1097.064,863.75
1097.999,867.75
1098.934,895.00
1099.869,877.50
1100.803,863.25
1101.738,887.25
1102.672,861.00
1103.607,890.50
1104.541,887.50
1105.475,881.25
1106.409,880.25
1107.343,878.25
1108.277,870.00
1109.210,889.50
1110.144,865.00
1111.078,849.00
1112.011,865.25
1112.944,816.50
1113.878,848.50
1114.811,872.00
1115.744,842.25
1116.678,870.00
1117.611,904.00
1118.544,851.50
1119.477,845.50
1120.409,845.25
1121.342,845.75
1122.274,837.50
1123.206,851.25
1124.138,860.50
1125.070,858.25
1126.002,858.75
1126.934,811.50
1127.866,865.25
1128.798,819.50
1129.729,862.75
1130.661,845.50
1131.592,846.50
1132.523,867.75
1133.454,866.50
1134.385,856.00
1135.317,820.50
1136.247,847.50
1137.178,846.00
1138.109,865.50
1139.039,859.75
1139.970,841.00
1140.900,810.50
1141.831,794.25
1142.761,875.50
1143.691,843.75
1144.621,844.50
1145.551,849.00
1146.480,847.00
1147.410,863.00
1148.340,839.25
1149.269,850.75
1150.199,826.50
1151.128,881.50
1152.057,841.75
1152.979,849.25
1153.898,845.00
1154.819,834.25
1155.739,864.00
1156.658,873.00
1157.579,852.25
1158.498,863.50
1159.419,842.50
1160.338,851.75
1161.256,833.00
1162.177,806.25
1163.095,867.25
1164.016,870.50
1164.934,824.00
1165.852,821.25
1166.772,859.25
1167.690,814.00
1168.610,835.25
1169.528,886.75
1170.446,825.00
1171.365,819.00
1172.283,838.50
1173.202,818.50
1174.120,866.00
1175.037,825.75
1175.956,863.25
1176.873,820.50
1177.792,815.00
1178.709,867.75
1179.626,847.00
1180.544,848.75
1181.461,867.75
1182.379,876.50
1183.296,868.00
1184.212,898.75
1185.130,835.25
1186.046,856.25
1186.962,924.25
1187.880,895.75
1188.796,845.00
1189.714,933.50
1190.629,888.25
1191.545,899.25
1192.462,862.75
1193.378,850.75
1194.295,895.75
1195.210,865.75
1196.125,850.75
1197.042,854.75
1197.957,864.50
1198.872,868.50
1199.788,907.75
1200.703,947.50
1201.619,897.25
1202.534,874.75
1203.448,893.25
1204.364,918.00
1205.278,921.25
1206.192,929.25
1207.108,923.25
1208.022,858.00
1208.938,859.50
1209.851,866.50
1210.765,906.75
1211.680,914.00
1212.594,910.00
1213.507,881.50
1214.422,905.75
1215.335,937.75
1216.248,883.75
1217.163,917.00
1218.076,886.50
1218.990,923.00
1219.903,904.75
1220.816,926.00
1221.730,981.50
1222.642,940.50
1223.554,943.50
1224.469,927.75
1225.380,898.25
1226.292,911.25
1227.206,914.75
1228.118,911.50
1229.032,946.50
1229.943,981.00
1230.855,943.50
1231.768,923.00
1232.679,963.50
1233.590,935.75
1234.503,925.50
1235.414,953.50
1236.325,989.25
1237.238,972.25
1238.149,993.75
1239.059,929.50
1239.972,956.25
1240.882,959.75
1241.793,984.00
1242.705,983.00
1243.615,1004.75
1244.525,991.00
1245.437,978.50
1246.347,1007.25
1247.259,998.75
1248.168,961.75
1249.078,989.50
1249.989,958.50
1250.899,1002.75
1251.808,989.00
1252.719,1035.00
1253.628,986.75
1254.537,962.50
1255.448,987.00
1256.357,979.50
1257.266,1044.00
1258.176,968.00
1259.085,1018.75
1259.993,1036.25
1260.904,991.75
1261.812,1010.25
1262.720,998.00
1263.630,1028.00
1264.538,1001.75
1265.446,1003.00
1266.356,968.25
1267.263,968.25
1268.171,1014.50
1269.080,1034.00
1269.988,1007.50
1270.895,1021.25
1271.804,983.50
1272.711,971.00
1273.619,1043.50
1274.527,1034.50
1275.434,954.00
1276.341,1000.25
1277.248,1020.50
1278.156,997.50
1279.063,999.75
1279.969,1002.50
1280.877,1034.00
1281.783,1001.50
1282.690,1043.25
1283.598,983.25
1284.503,1008.25
1285.409,1020.25
1286.317,972.25
1287.223,944.00
1288.128,1006.25
1289.036,997.00
1289.941,1010.25
1290.846,966.75
1291.751,973.50
1292.658,1001.75
1293.563,968.50
1294.468,990.00
1295.375,930.25
1296.280,989.50
1297.184,978.00
1298.091,944.75
1298.995,956.75
1299.900,945.50
1300.806,941.25
1301.710,961.00
1302.614,913.00
1303.518,967.75
1304.424,931.50
1305.327,921.25
1306.231,942.50
1307.137,924.25
1308.040,918.00
1308.943,918.75
1309.847,931.25
1310.752,941.75
1311.655,918.25
1312.558,896.50
1313.463,880.00
1314.366,934.75
1315.269,937.75
1316.171,913.00
1317.076,884.25
1317.978,869.50
1318.881,909.50
1319.785,876.75
1320.687,848.75
1321.589,849.75
1322.491,841.75
1323.395,884.50
1324.297,903.75
1325.198,836.25
1326.102,852.75
1327.004,823.75
1327.905,809.50
1328.806,797.75
1329.709,847.00
1330.611,809.00
1331.512,887.00
1332.413,830.25
1333.316,824.25
1334.216,848.75
1335.117,851.75
1336.020,788.75
1336.920,802.00
1337.821,807.00
1338.721,809.25
1339.623,822.75
1340.523,804.00
1341.423,793.25
1342.323,778.00
1343.225,803.75
1344.125,787.50
1345.025,764.75
1345.924,770.25
1346.826,802.25
1347.725,761.00
1348.624,795.50
1349.524,776.00
1350.425,791.00
1351.324,753.25
1352.223,724.00
1353.121,755.00
1354.022,752.75
1354.921,729.25
1355.819,770.25
1356.718,691.00
1357.618,735.50
1358.516,748.00
1359.415,780.00
1360.313,759.00
1361.213,756.25
1362.111,736.25
1363.008,739.00
1363.906,700.50
1364.806,687.25
1365.703,698.25
1366.601,689.00
1367.498,718.50
1368.397,685.50
1369.295,736.75
1370.192,721.50
1371.089,697.50
1371.987,742.75
1372.884,704.50
1373.781,706.75
1374.678,669.75
1375.574,688.50
1376.473,708.00
1377.369,699.00
1378.265,683.75
1379.161,675.00
1380.059,641.50
1380.955,663.75
1381.851,679.50
1382.747,656.00
1383.643,657.00
1384.540,676.75
1385.436,657.00
1386.331,654.50
1387.227,675.50
1388.124,681.25
1389.019,624.50
1389.914,646.50
1390.809,678.75
1391.704,676.75
1392.601,649.00
1393.495,634.75
1394.390,679.50
1395.285,632.00
1396.179,658.00
1397.075,636.75
1397.969,628.00
1398.864,648.50
1399.758,645.25
1400.652,637.75
1401.547,616.00
1402.441,628.75
1403.335,621.00
1404.229,654.50
1405.122,643.25
1406.017,643.00
1406.911,646.75
1407.804,644.25
1408.697,641.50
1409.590,631.25
1410.485,604.50
1411.378,612.00
1412.271,603.75
1413.163,625.25
1414.056,617.75
1414.949,626.25
1415.843,599.00
1416.735,612.25
1417.627,590.25
1418.520,563.00
1419.412,563.00
1420.306,616.25
1421.197,581.00
1422.089,600.75
1422.981,573.00
1423.873,596.50
1424.764,622.00
1425.657,599.00
1426.549,604.00
1427.440,577.25
1428.331,562.00
1429.222,609.25
1430.113,567.00
1431.006,617.50
1431.897,591.00
1432.787,600.50
1433.678,574.50
1434.568,584.75
1435.459,591.75
1436.351,617.75
1437.241,590.00
1438.131,620.25
1439.021,567.00
1439.911,553.75
1440.801,599.25
1441.693,580.50
1442.583,565.00
1443.472,585.25
1444.362,574.25
1445.251,587.00
1446.140,557.75
1447.030,514.75
1447.921,551.00
1448.810,565.25
1449.699,574.50
1450.588,608.00
1451.476,556.50
1452.365,549.50
1453.254,538.50
1454.144,545.50
1455.032,554.50
1455.921,580.00
1456.809,561.75
1457.697,524.25
1458.585,578.25
1459.473,533.25
1460.361,556.50
1461.251,562.75
1462.138,582.00
1463.026,579.25
1463.913,586.25
1464.801,538.50
1465.688,533.00
1466.575,574.00
1467.463,526.00
1468.351,537.75
1469.238,573.75
1470.125,561.50
1471.012,560.00
1471.899,547.25
1472.785,529.00
1473.672,557.50
1474.558,563.75
1475.446,561.50
1476.333,486.00
1477.219,548.25
1478.105,513.50
1478.991,521.25
1479.877,545.00
1480.762,521.25
1481.648,513.00
1482.534,518.50
1483.419,546.00
1484.307,515.50
1485.192,523.25
1486.077,546.75
1486.962,553.00
1487.847,526.75
1488.732,547.75
1489.617,488.00
1490.502,523.00
1491.387,515.50
1492.271,565.00
1493.156,522.00
1494.042,535.75
1494.927,530.50
1495.811,582.50
1496.695,553.50
1497.579,532.50
1498.463,527.00
1499.347,509.75
1500.231,515.50
1501.114,536.75
1501.998,538.75
1502.881,512.25
1503.765,514.25
1504.648,513.25
1505.533,543.25
1506.417,488.25
1507.300,532.00
1508.183,493.00
1509.066,511.25
1509.948,526.25
1510.831,485.25
1511.714,548.25
1512.596,506.75
1513.479,513.75
1514.361,496.75
1515.243,495.75
1516.125,508.50
1517.008,541.25
1517.890,543.25
1518.771,521.00
1519.655,503.75
1520.537,469.75
1521.419,542.25
1522.300,490.25
1523.182,499.00
1524.063,493.00
1524.944,478.00
1525.825,524.25
1526.707,542.25
1527.588,474.25
1528.468,477.50
1529.349,502.75
1530.230,453.25
1531.111,526.25
1531.991,505.00
1532.872,486.50
1533.752,496.00
1534.632,532.75
1535.513,486.75
1536.393,513.75
1537.273,516.50
1538.153,460.75
1539.032,545.00
1539.912,490.75
1540.792,491.25
1541.672,498.75
1542.551,466.50
1543.430,510.00
1544.310,413.00
1545.189,494.50
1546.068,511.00
1546.947,492.00
1547.826,545.25
1548.705,499.25
1549.584,499.75
1550.462,505.25
1551.341,511.50
1552.219,490.00
1553.098,500.00
1553.976,523.00
1554.854,510.00
1555.733,481.50
1556.611,515.75
1557.489,490.25
1558.367,464.75
1559.244,502.75
1560.122,500.50
1561.000,455.25
1561.877,537.00
1562.755,534.25
1563.632,536.00
1564.509,486.50
1565.386,469.25
1566.264,467.00
1567.141,471.00
1568.017,520.25
1568.894,475.00
1569.771,485.75
1570.648,470.50
1571.524,495.25
1572.401,457.00
1573.277,473.50
1574.153,489.75
1575.029,447.50
1575.906,481.00
1576.781,458.75
1577.657,466.00
1578.533,450.75
1579.409,469.50
1580.285,428.75
1581.160,486.00
1582.036,515.50
1582.911,436.00
1583.786,490.50
1584.662,491.75
1585.537,459.50
1586.412,506.50
1587.287,492.50
1588.160,449.50
1589.035,473.00
1589.909,483.75
1590.784,482.50
1591.658,492.75
1592.533,479.75
1593.407,498.75
1594.281,464.75
1595.155,480.25
1596.029,459.50
1596.903,471.25
1597.777,438.75
1598.651,492.75
1599.525,447.25
1600.398,456.50
1601.272,498.25
1602.144,465.00
1603.017,426.50
1603.890,445.75
1604.763,514.50
1605.636,484.00
1606.509,445.50
1607.382,477.00
1608.255,463.00
1609.128,465.00
1610.000,428.50
1610.873,477.50
1611.746,473.25
1612.616,479.00
1613.488,485.25
1614.361,419.50
1615.233,446.75
1616.105,461.50
1616.977,452.25
1617.849,471.75
1618.720,472.75
1619.592,451.00
1620.464,493.50
1621.333,500.50
1622.205,433.50
1623.076,440.75
1623.947,462.50
1624.818,463.00
1625.689,439.50
1626.560,489.50
1627.431,442.00
1628.302,473.50
1629.171,472.50
1630.042,495.50
1630.912,485.50
1631.782,450.50
1632.653,462.00
1633.523,460.25
1634.393,493.50
1635.263,458.75
1636.131,469.25
1637.001,448.25
1637.871,487.25
1638.741,455.50
1639.611,451.00
1640.480,443.00
1641.350,450.00
1642.219,479.50
1643.087,460.50
1643.956,435.50
1644.825,417.25
1645.694,433.50
1646.563,443.50
1647.432,433.25
1648.299,481.50
1649.167,476.00
1650.036,429.75
1650.904,447.50
1651.773,462.50
1652.641,444.75
1653.509,421.50
1654.376,452.50
1655.244,463.50
1656.112,457.50
1656.980,429.75
1657.847,406.25
1658.715,499.25
1659.581,427.00
1660.448,438.75
1661.316,446.25
1662.183,464.00
1663.051,465.25
1663.918,488.75
1664.783,481.50
1665.650,463.25
1666.517,452.50
1667.384,435.00
1668.251,418.75
1669.115,375.25
1669.982,452.00
1670.849,475.25
1671.715,455.00
1672.581,469.00
1673.446,397.75
1674.312,475.25
1675.178,477.00
1676.044,439.75
1676.910,465.75
1677.774,429.50
1678.639,447.50
1679.505,519.50
1680.370,453.75
1681.236,408.50
1682.099,455.75
1682.965,504.50
1683.830,454.50
1684.695,454.50
1685.560,456.25
1686.423,446.00
1687.288,435.75
1688.153,441.75
1689.017,438.50
1689.880,430.00
1690.745,467.50
1691.609,464.00
1692.473,447.75
1693.338,439.50
1694.200,430.50
1695.064,467.50
1695.928,454.75
1696.792,456.00
1697.654,497.75
1698.517,423.50
1699.381,489.50
1700.245,463.75
1701.106,430.50
1701.969,448.75
1702.833,455.25
1703.696,470.25
1704.557,434.25
1705.420,414.75
1706.283,455.75
1707.146,447.50
1708.007,432.25
1708.870,456.00
1709.732,472.75
1710.595,413.75
1711.455,433.50
1712.318,430.25
1713.180,394.75
1714.040,440.25
1714.902,450.25
1715.764,438.75
1716.626,435.75
1717.486,411.00
1718.348,449.75
1719.209,507.00
1720.071,431.00
1720.930,433.25
1721.792,423.75
1722.653,456.00
1723.512,443.50
1724.374,461.50
1725.234,417.75
1726.095,430.25
1726.954,408.75
1727.815,440.50
1728.676,400.25
1729.535,452.00
1730.395,400.50
1731.256,451.00
1732.114,427.25
1732.974,452.00
1733.834,418.25
1734.693,400.50
1735.553,430.75
1736.413,457.00
1737.272,428.25
1738.130,437.00
1738.990,420.00
1739.849,444.00
1740.707,444.00
1741.566,458.00
1742.426,442.25
1743.283,423.75
1744.142,439.50
1745.001,453.25
1745.858,445.25
1746.717,422.25
1747.576,418.50
1748.433,453.50
1749.292,447.75
1750.150,438.25
1751.007,442.50
1751.865,424.75
1752.723,460.75
1753.579,413.25
1754.438,456.75
1755.296,439.50
1756.152,371.75
1757.010,406.00
1757.865,402.50
1758.723,419.50
1759.581,470.50
1760.436,454.50
1761.294,476.50
1762.151,419.50
1763.006,418.50
1763.864,420.75
1764.721,430.75
1765.576,448.50
1766.433,426.50
1767.288,439.50
1768.144,426.25
1769.001,427.00
1769.856,492.50
1770.712,378.00
1771.568,444.75
1772.423,440.00
1773.279,460.25
1774.133,469.50
1774.989,455.75
1775.845,468.00
1776.699,448.50
1777.555,417.00
1778.409,446.50
1779.265,459.00
1780.120,437.50
1780.974,390.50
1781.829,437.50
1782.682,418.50
1783.538,448.50
1784.393,448.50
1785.246,436.75
1786.101,462.75
1786.954,445.50
1787.808,472.75
1788.661,443.75
1789.516,399.75
1790.370,437.75
1791.223,460.25
1792.077,383.25
1792.930,480.00
1793.784,396.75
1794.636,429.00
1795.490,412.50
1796.344,474.50
1797.196,438.50
1798.049,417.00
1798.901,451.50
1799.755,413.00
1800.606,434.00
1801.460,407.00
1802.311,428.50
1803.165,444.50
1804.018,434.50
1804.869,411.50
1805.722,460.50
1806.573,371.25
1807.426,425.75
1808.276,435.00
1809.129,438.50
1809.980,475.50
1810.832,448.25
1811.683,409.75
1812.535,461.25
1813.385,396.00
1814.237,411.25
1815.089,410.50
1815.940,444.00
1816.791,435.25
1817.641,400.00
1818.493,451.00
1819.343,369.75
1820.194,408.50
1821.044,458.00
1821.895,400.25
1822.745,422.50
1823.596,408.00
1824.445,426.75
1825.296,444.50
1826.145,471.00
1826.996,437.75
1827.845,456.75
1828.695,431.25
1829.544,434.25
1830.395,451.25
1831.243,427.75
1832.094,397.50
1832.942,412.00
1833.792,448.00
1834.640,438.50
1835.490,404.25
1836.338,430.50
1837.186,416.50
1838.036,416.50
1838.884,440.50
1839.733,453.00
1840.581,424.25
1841.430,403.50
1842.278,444.50
1843.127,374.50
1843.974,394.50
1844.823,426.00
1845.671,422.25
1846.519,388.50
1847.366,397.50
1848.213,430.50
1849.062,416.75
1849.909,410.25
1850.757,423.75
1851.604,405.50
1852.452,431.00
1853.298,394.75
1854.146,426.00
1854.993,395.00
1855.839,369.75
1856.687,426.25
1857.532,388.50
1858.380,425.25
1859.226,411.75
1860.073,470.00
1860.919,419.25
1861.765,377.50
1862.612,415.00
1863.457,460.75
1864.304,396.00
1865.150,420.00
1865.995,363.25
1866.842,449.75
1867.686,429.00
1868.533,420.75
1869.378,342.25
1870.223,432.75
1871.069,395.00
1871.914,418.50
1872.760,414.25
1873.604,415.00
1874.448,430.25
1875.294,425.25
1876.139,429.00
1876.984,437.00
1877.828,418.00
1878.672,402.50
1879.518,425.25
1880.361,401.75
1881.205,421.50
1882.050,454.00
1882.894,436.25
1883.739,385.00
1884.582,455.75
1885.425,391.75
1886.270,430.00
1887.113,456.00
1887.956,433.50
1888.801,454.00
1889.644,401.75
1890.486,438.25
1891.331,398.25
1892.173,414.75
1893.017,416.75
1893.860,459.50
1894.702,443.25
1895.546,383.50
1896.388,402.25
1897.230,432.25
1898.074,432.50
1898.916,434.25
1899.757,431.25
1900.601,399.75
1901.443,428.00
1902.284,468.25
1903.125,391.75
1903.969,415.75
1904.810,434.75
1905.651,382.50
1906.494,485.00
1907.335,471.25
1908.176,395.50
1909.018,439.00
1909.859,427.25
1910.700,401.25
1911.542,453.25
1912.383,378.50
1913.223,411.50
1914.064,459.00
1914.906,446.00
1915.746,444.75
1916.586,386.50
1917.428,420.25
1918.268,448.50
1919.107,409.50
1919.947,420.00
1920.789,435.75
1921.628,422.75
1922.468,427.50
1923.309,429.00
1924.148,453.50
1924.988,411.25
1925.827,385.25
1926.667,385.50
1927.507,481.75
1928.345,416.00
1929.184,398.00
1930.025,445.25
1930.864,390.25
1931.702,412.75
1932.541,406.50
1933.381,440.25
1934.219,403.75
1935.057,494.50
1935.896,461.25
1936.735,428.50
1937.573,428.00
1938.411,443.00
1939.249,412.50
1940.089,426.00
1940.927,403.00
1941.764,397.75
1942.602,449.25
1943.439,412.50
1944.278,438.25
1945.115,411.75
1945.953,419.75
1946.790,455.00
1947.628,441.25
1948.465,430.00
1949.302,419.00
1950.139,406.25
1950.976,408.75
1951.814,443.25
1952.651,430.50
1953.487,412.25
1954.323,412.00
1955.160,432.25
1955.998,401.75
1956.834,402.75
1957.670,438.75
1958.506,430.75
1959.342,416.25
1960.177,400.25
1961.015,395.25
1961.850,398.25
1962.686,433.00
1963.521,391.50
1964.357,412.25
1965.192,454.75
1966.029,430.75
1966.864,436.50
1967.699,378.75
1968.534,433.00
1969.369,412.00
1970.204,424.75
1971.040,414.75
1971.875,392.75
1972.709,440.00
1973.544,402.75
1974.378,404.00
1975.212,392.00
1976.047,413.00
1976.882,425.25
1977.716,484.75
1978.550,405.25
1979.384,443.50
1980.218,470.50
1981.052,433.00
1981.885,419.25
1982.719,436.75
1983.554,411.00
1984.388,428.25
1985.221,406.00
1986.054,405.25
1986.887,425.50
1987.720,429.50
1988.553,429.00
1989.386,423.50
1990.219,462.00
1991.053,460.25
1991.886,440.75
1992.719,461.25
1993.551,412.75
1994.383,408.50
1995.216,427.75
1996.048,407.75
1996.880,419.00
1997.712,425.50
1998.544,432.50
1999.376,400.75
2000.208,463.00
2001.040,460.50
2001.873,444.75
2002.705,389.75
2003.536,404.75
2004.367,402.25
2005.199,406.50
2006.030,401.25
2006.861,419.00
2007.692,377.00
2008.523,444.75
2009.354,410.00
2010.185,418.00
2011.016,411.25
2011.846,447.75
2012.677,409.25
2013.507,428.50
2014.338,390.00
2015.168,414.25
2015.999,417.75
2016.829,392.75
2017.659,411.75
2018.489,455.25
2019.319,423.75
2020.149,432.00
2020.980,432.75
2021.810,448.75
2022.639,410.75
2023.469,454.50
2024.298,427.00
2025.128,398.00
2025.957,447.00
2026.786,433.25
2027.615,429.00
2028.444,435.00
2029.273,421.50
2030.102,396.00
2030.931,416.00
2031.758,401.25
2032.586,404.75
2033.415,428.25
2034.243,396.75
2035.072,418.75
2035.900,462.50
2036.728,447.00
2037.556,455.00
2038.385,464.75
2039.213,399.25
2040.040,414.75
2040.868,456.75
2041.696,429.50
2042.524,444.00
2043.351,443.50
2044.179,420.00
2045.006,426.00
2045.006,426.00

Max Intensity Wave.,218.899
Max Intensity Data,5813.75
Min Intensity Wave.,1869.378
Min Intensity Data,342.25
FWHM Wave.,387.046
FWHM Value,26.87
Pressure Wave.,685.720
Pressure Value [GPa],-22.18187
G/D Ratio,0.56321
G/D Gband Wave.,1547.858
G/D Gband Intensity,545.32
G/D Dband Wave.,1303.611
G/D Dband Intensity,968.23

<< BACKGROUND SPECTRUM >>
Wave[dcm-1],No138
146.591,2297.00
147.626,2144.00
148.664,2103.00
149.699,2608.00
150.737,2344.00
151.772,2487.00
152.809,2456.00
153.846,2359.00
154.881,2445.00
155.918,2053.00
156.953,2346.00
157.989,2729.00
159.026,2515.00
160.060,2714.00
161.096,2963.00
162.130,2596.00
163.167,2675.00
164.200,2482.00
165.236,2696.00
166.272,2802.00
167.305,2381.00
168.341,2607.00
169.374,2892.00
170.409,2864.00
171.445,2832.00
172.477,2618.00
173.512,2475.00
174.545,2768.00
175.580,2945.00
176.614,3136.00
177.647,2872.00
178.681,3134.00
179.713,3460.00
180.747,2930.00
181.781,2808.00
182.813,3085.00
183.847,3192.00
184.878,2808.00
185.912,3080.00
186.945,3248.00
187.976,3159.00
189.010,2808.00
190.043,2949.00
191.073,3012.00
192.106,2781.00
193.137,3283.00
194.170,2636.00
195.202,2982.00
196.232,2760.00
197.265,3111.00
198.297,3155.00
199.327,2872.00
200.359,3056.00
201.388,3413.00
202.420,3023.00
203.452,3211.00
204.481,2748.00
205.512,3452.00
206.544,3174.00
207.573,3143.00
208.604,3562.00
209.635,3629.00
210.663,3048.00
211.694,3081.00
212.725,2954.00
213.753,2880.00
214.783,3482.00
215.813,3380.00
216.841,3087.00
217.871,3308.00
218.899,3016.00
219.929,3292.00
220.959,2993.00
221.986,3255.00
223.016,2868.00
224.045,3253.00
225.072,3220.00
226.101,3291.00
227.130,3355.00
228.157,2916.00
229.185,2439.00
230.214,3320.00
231.241,2943.00
232.269,2550.00
233.297,2764.00
234.323,3318.00
235.351,2908.00
236.379,3207.00
237.407,2876.00
238.433,3029.00
239.460,3252.00
240.488,3249.00
241.513,3270.00
242.540,3248.00
243.568,3294.00
244.592,3357.00
245.619,3335.00
246.646,3020.00
247.671,3053.00
248.697,2888.00
249.724,3110.00
250.748,3122.00
251.774,3084.00
252.801,3418.00
253.827,3197.00
254.850,3200.00
255.876,2801.00
256.902,3205.00
257.925,3093.00
258.951,2838.00
259.976,2856.00
260.999,3178.00
262.024,2894.00
263.049,3759.00
264.074,3224.00
265.097,3133.00
266.122,3197.00
267.146,3129.00
268.168,3362.00
269.193,2956.00
270.217,3379.00
271.241,2774.00
272.263,2983.00
273.287,3321.00
274.311,2841.00
275.332,3446.00
276.356,2976.00
277.379,3218.00
278.402,3255.00
279.424,3046.00
280.447,2997.00
281.470,2841.00
282.492,3188.00
283.513,3011.00
284.536,3252.00
285.558,3235.00
286.581,3190.00
287.601,2949.00
288.623,2887.00
289.645,3205.00
290.665,3203.00
291.687,3273.00
292.709,3247.00
293.730,3530.00
294.750,2986.00
295.771,2831.00
296.792,3219.00
297.813,3034.00
298.832,3137.00
299.853,2881.00
300.874,3131.00
301.895,3074.00
302.913,3092.00
303.934,3343.00
304.954,3115.00
305.975,3298.00
306.993,2837.00
308.013,3232.00
309.033,3106.00
310.052,3054.00
311.072,2964.00
312.090,3147.00
313.109,3332.00
314.129,3496.00
315.148,3073.00
316.165,3192.00
317.184,3314.00
318.203,2821.00
319.222,2801.00
320.238,3251.00
321.257,2917.00
322.275,2753.00
323.294,3074.00
324.312,3243.00
325.328,3399.00
326.346,3390.00
327.364,3350.00
328.382,3280.00
329.397,3234.00
330.415,3326.00
331.432,3341.00
332.450,3344.00
333.467,3577.00
334.482,2664.00
335.499,3473.00
336.516,2970.00
337.533,2672.00
338.547,2886.00
339.564,2961.00
340.580,3170.00
341.597,3045.00
342.613,3568.00
343.627,3060.00
344.643,3111.00
345.659,3204.00
346.675,3114.00
347.690,2981.00
348.704,3169.00
349.719,2942.00
350.735,2865.00
351.750,3304.00
352.765,3103.00
353.778,3070.00
354.793,3241.00
355.808,2934.00
356.822,3344.00
357.837,2734.00
358.851,3352.00
359.864,3071.00
360.878,2820.00
361.892,3033.00
362.906,3264.00
363.920,2665.00
364.932,3151.00
365.945,3189.00
366.959,3087.00
367.972,3032.00
368.986,2770.00
369.999,3467.00
371.010,2911.00
372.023,3455.00
373.036,3069.00
374.049,3481.00
375.061,3162.00
376.072,3099.00
377.084,2950.00
378.097,2750.00
379.109,3310.00
380.121,3060.00
381.133,2751.00
382.143,3205.00
383.155,2821.00
384.166,2992.00
385.178,3205.00
386.189,3318.00
387.201,2838.00
388.212,3002.00
389.221,2996.00
390.232,3106.00
391.243,3024.00
392.254,3188.00
393.264,2929.00
394.275,3357.00
395.283,3252.00
396.294,3749.00
397.304,3565.00
398.314,3214.00
399.324,3115.00
400.334,2728.00
401.344,3250.00
402.351,2770.00
403.361,3293.00
404.370,3035.00
405.380,3029.00
406.389,3441.00
407.398,3237.00
408.407,3131.00
409.414,3850.00
410.423,3447.00
411.431,2850.00
412.440,2755.00
413.448,3446.00
414.457,2969.00
415.465,2902.00
416.471,2953.00
417.479,3106.00
418.487,2920.00
419.495,3359.00
420.503,3193.00
421.510,2710.00
422.518,3249.00
423.525,3296.00
424.530,3510.00
425.537,2998.00
426.544,3305.00
427.551,2959.00
428.558,3736.00
429.565,3585.00
430.571,2969.00
431.578,3002.00
432.582,2951.00
433.588,3081.00
434.595,2679.00
435.601,3419.00
436.607,3352.00
437.612,2831.00
438.618,3502.00
439.624,3078.00
440.627,3030.00
441.633,3220.00
442.638,3731.00
443.643,3225.00
444.648,3108.00
445.653,3309.00
446.658,2984.00
447.663,3134.00
448.667,3006.00
449.672,3009.00
450.674,3051.00
451.678,2768.00
452.682,2977.00
453.687,2900.00
454.690,3686.00
455.694,3403.00
456.698,2621.00
457.702,2782.00
458.705,2901.00
459.709,2869.00
460.710,2938.00
461.713,3110.00
462.716,3161.00
463.719,3127.00
464.722,3283.00
465.725,3088.00
466.727,2856.00
467.730,3159.00
468.732,2862.00
469.735,3379.00
470.737,3013.00
471.737,2985.00
472.739,2986.00
473.741,2908.00
474.742,3163.00
475.744,3202.00
476.746,3091.00
477.747,3077.00
478.748,3265.00
479.750,3018.00
480.751,3077.00
481.752,3863.00
482.753,3215.00
483.751,3683.00
484.752,2737.00
485.753,3070.00
486.753,2942.00
487.753,3103.00
488.754,3486.00
489.754,2782.00
490.754,3416.00
491.754,3225.00
492.754,2786.00
493.753,3121.00
494.753,3005.00
495.752,3436.00
496.752,3147.00
497.749,3096.00
498.748,2955.00
499.747,3499.00
500.746,3129.00
501.745,2827.00
502.744,2825.00
503.742,3435.00
504.741,3034.00
505.739,2583.00
506.737,2999.00
507.735,3230.00
508.734,3463.00
509.732,3209.00
510.729,3479.00
511.727,2958.00
512.725,3033.00
513.720,2874.00
514.718,3363.00
515.715,2786.00
516.712,2704.00
517.709,3082.00
518.706,2980.00
519.703,3110.00
520.700,3297.00
521.696,3480.00
522.693,3017.00
523.689,2913.00
524.686,3256.00
525.682,2895.00
526.678,3545.00
527.674,2978.00
528.670,2723.00
529.666,3640.00
530.661,3582.00
531.657,3235.00
532.652,3265.00
533.648,3074.00
534.641,3337.00
535.636,3161.00
536.631,3175.00
537.626,3251.00
538.621,2844.00
539.616,2703.00
540.610,2594.00
541.605,3115.00
542.599,3154.00
543.593,3093.00
544.587,4002.00
545.581,2936.00
546.575,3114.00
547.569,3156.00
548.563,2742.00
549.557,2797.00
550.550,2828.00
551.543,2820.00
552.537,3276.00
553.530,2868.00
554.523,2827.00
555.516,3189.00
556.509,3048.00
557.502,2737.00
558.494,3296.00
559.487,3010.00
560.479,3271.00
561.472,3372.00
562.464,3190.00
563.456,3400.00
564.448,3012.00
565.440,3083.00
566.432,3476.00
567.423,2973.00
568.415,2977.00
569.404,3189.00
570.396,2906.00
571.387,3244.00
572.378,3118.00
573.369,4043.00
574.360,3822.00
575.351,3009.00
576.341,2936.00
577.332,2977.00
578.323,2782.00
579.313,3004.00
580.303,3403.00
581.293,3225.00
582.283,3050.00
583.273,3232.00
584.263,3104.00
585.253,3198.00
586.243,3303.00
587.232,2709.00
588.222,3069.00
589.211,3276.00
590.200,3153.00
591.189,3022.00
592.178,3074.00
593.167,3519.00
594.156,3320.00
595.145,3007.00
596.133,3544.00
597.122,3225.00
598.110,3299.00
599.098,3177.00
600.086,3083.00
601.074,3268.00
602.062,2927.00
603.050,2778.00
604.038,3195.00
605.025,2855.00
606.013,3304.00
607.000,3478.00
607.987,3116.00
608.975,3187.00
609.962,2839.00
610.949,3240.00
611.936,3361.00
612.922,3253.00
613.909,2795.00
614.895,3487.00
615.882,2908.00
616.868,3058.00
617.854,2851.00
618.841,3095.00
619.826,3186.00
620.812,3068.00
621.798,2849.00
622.784,3258.00
623.769,3150.00
624.755,2781.00
625.740,3149.00
626.725,2794.00
627.711,2912.00
628.698,3149.00
629.683,2902.00
630.667,3247.00
631.652,2840.00
632.637,3037.00
633.621,3239.00
634.606,2988.00
635.590,3210.00
636.574,3025.00
637.558,3186.00
638.542,3154.00
639.526,2941.00
640.510,2697.00
641.493,3147.00
642.477,3101.00
643.460,2745.00
644.444,3350.00
645.427,3382.00
646.410,2727.00
647.393,3039.00
648.376,3159.00
649.359,2989.00
650.341,3181.00
651.324,3158.00
652.307,3150.00
653.289,2999.00
654.271,2927.00
655.253,2986.00
656.235,3260.00
657.217,3357.00
658.199,2674.00
659.181,2835.00
660.163,3100.00
661.144,2980.00
662.126,2970.00
663.107,2873.00
664.088,4858.00
665.069,3344.00
666.050,2913.00
667.033,2820.00
668.014,3162.00
668.995,2612.00
669.975,3069.00
670.956,3078.00
671.936,3276.00
672.916,3045.00
673.896,3200.00
674.876,3010.00
675.856,2936.00
676.836,2825.00
677.816,2378.00
678.795,2916.00
679.775,2796.00
680.754,3113.00
681.734,3234.00
682.713,3225.00
683.692,2845.00
684.671,2733.00
685.650,2814.00
686.629,2952.00
687.607,2843.00
688.586,2851.00
689.564,2915.00
690.543,3333.00
691.523,2456.00
692.501,2954.00
693.479,2994.00
694.457,2918.00
695.435,2963.00
696.413,2737.00
697.390,2580.00
698.368,2732.00
699.345,3244.00
700.322,2979.00
701.300,3170.00
702.277,3149.00
703.254,3364.00
704.231,2673.00
705.207,3059.00
706.184,2837.00
707.161,2743.00
708.137,2953.00
709.113,2887.00
710.090,2894.00
711.068,2650.00
712.044,2695.00
713.020,2930.00
713.996,2674.00
714.971,2933.00
715.947,2877.00
716.922,2883.00
717.898,2820.00
718.873,2964.00
719.848,2855.00
720.823,2766.00
721.798,3043.00
722.773,2796.00
723.748,2609.00
724.723,3087.00
725.697,2909.00
726.672,2799.00
727.646,2544.00
728.622,3099.00
729.596,2707.00
730.570,2806.00
731.544,3159.00
732.518,3353.00
733.492,2918.00
734.466,2990.00
735.439,3052.00
736.413,3150.00
737.386,2531.00
738.359,2477.00
739.332,2604.00
740.305,2925.00
741.278,3397.00
742.251,3047.00
743.224,2814.00
744.196,2589.00
745.171,3230.00
746.143,3114.00
747.115,2822.00
748.087,2812.00
749.059,3170.00
750.031,2940.00
751.003,3812.00
751.975,3333.00
752.947,2776.00
753.918,3136.00
754.890,2652.00
755.861,2836.00
756.832,3122.00
757.803,2929.00
758.774,2901.00
759.747,2713.00
760.718,3312.00
761.689,2837.00
762.659,2683.00
763.630,3235.00
764.600,2647.00
765.570,3145.00
766.540,3203.00
767.510,3010.00
768.480,3175.00
769.450,2818.00
770.420,2915.00
771.390,2722.00
772.359,2833.00
773.329,2734.00
774.300,2589.00
775.269,2862.00
776.238,3092.00
777.207,3246.00
778.176,2569.00
779.145,2899.00
780.114,2745.00
781.083,2648.00
782.051,2825.00
783.019,2763.00
783.988,3138.00
784.956,2942.00
785.924,3077.00
786.894,2942.00
787.862,2758.00
788.830,3217.00
789.797,2680.00
790.765,2666.00
791.732,2828.00
792.700,2712.00
793.667,2667.00
794.634,2832.00
795.601,2821.00
796.568,2881.00
797.535,2901.00
798.502,3539.00
799.468,3004.00
800.437,2410.00
801.403,2746.00
802.370,3358.00
803.336,3054.00
804.302,2932.00
805.268,2517.00
806.234,2584.00
807.200,2812.00
808.166,2872.00
809.131,2665.00
810.097,3090.00
811.062,3769.00
812.027,3096.00
812.994,2692.00
813.960,2690.00
814.925,3029.00
815.889,2571.00
816.854,3077.00
817.819,2725.00
818.783,2800.00
819.748,3159.00
820.712,2811.00
821.677,2702.00
822.641,2771.00
823.605,2800.00
824.571,3235.00
825.534,2826.00
826.498,2757.00
827.462,2898.00
828.425,2685.00
829.389,3147.00
830.352,2849.00
831.315,2982.00
832.279,2560.00
833.242,2859.00
834.204,2743.00
835.167,2706.00
836.132,3128.00
837.095,2600.00
838.057,2751.00
839.020,2886.00
839.982,2888.00
840.944,2749.00
841.906,2676.00
842.868,3007.00
843.830,2621.00
844.792,3112.00
845.753,2730.00
846.715,2501.00
847.679,2663.00
848.640,2670.00
849.601,2792.00
850.562,3317.00
851.523,2759.00
852.484,2522.00
853.445,3041.00
854.406,2769.00
855.367,2799.00
856.327,3126.00
857.288,2577.00
858.248,2735.00
859.210,2743.00
860.170,2602.00
861.130,3120.00
862.090,2479.00
863.050,2659.00
864.010,2731.00
864.969,2993.00
865.929,2672.00
866.888,2607.00
867.848,2907.00
868.807,2711.00
869.766,2946.00
870.727,2781.00
871.686,3051.00
872.645,3063.00
873.604,3362.00
874.562,2877.00
875.521,2859.00
876.479,3427.00
877.437,2711.00
878.396,2665.00
879.354,3271.00
880.312,2678.00
881.270,2711.00
882.229,3191.00
883.187,2694.00
884.145,2738.00
885.102,2992.00
886.059,2922.00
887.017,2978.00
887.974,3044.00
888.931,3136.00
889.888,2609.00
890.845,2484.00
891.802,2388.00
892.758,2697.00
893.717,2469.00
894.673,2606.00
895.630,2673.00
896.586,2921.00
897.542,2759.00
898.498,2627.00
899.454,2925.00
900.410,2723.00
901.366,2743.00
902.321,3847.00
903.277,2719.00
904.232,2826.00
905.189,2535.00
906.145,2723.00
907.100,2251.00
908.055,2814.00
909.010,3028.00
909.965,2446.00
910.919,2867.00
911.874,2647.00
912.828,2825.00
913.783,2845.00
914.737,2432.00
915.693,2846.00
916.648,2955.00
917.602,3054.00
918.555,2871.00
919.509,2925.00
920.463,2824.00
921.417,2811.00
922.370,2665.00
923.324,2778.00
924.277,2767.00
925.230,2849.00
926.183,2466.00
927.138,2771.00
928.091,3080.00
929.044,2918.00
929.996,2691.00
930.949,2704.00
931.902,2891.00
932.854,2900.00
933.806,2661.00
934.758,3051.00
935.711,3056.00
936.663,2815.00
937.614,2873.00
938.568,2807.00
939.520,2450.00
940.471,2753.00
941.423,2834.00
942.374,2930.00
943.326,2843.00
944.277,2653.00
945.228,2866.00
946.179,2765.00
947.130,3148.00
948.080,2734.00
949.031,2635.00
949.984,2777.00
950.934,2782.00
951.884,2512.00
952.835,2756.00
953.785,2830.00
954.735,2675.00
955.685,2348.00
956.635,2705.00
957.585,2697.00
958.534,2680.00
959.484,2862.00
960.433,2673.00
961.383,2518.00
962.334,2998.00
963.283,2840.00
964.232,2940.00
965.181,2791.00
966.130,2849.00
967.079,2688.00
968.027,2793.00
968.976,2788.00
969.924,2662.00
970.873,2898.00
971.821,2785.00
972.769,2962.00
973.719,2908.00
974.667,2532.00
975.615,2777.00
976.562,2799.00
977.510,2473.00
978.458,2685.00
979.405,2880.00
980.352,2839.00
981.300,3063.00
982.247,2843.00
983.194,2598.00
984.141,2685.00
985.088,2786.00
986.036,2863.00
986.983,3086.00
987.930,3177.00
988.876,2355.00
989.822,3072.00
990.769,2598.00
991.715,2677.00
992.661,2511.00
993.607,2847.00
994.553,3356.00
995.498,2673.00
996.444,2338.00
997.389,2851.00
998.337,2578.00
999.282,2928.00
1000.227,2747.00
1001.173,2744.00
1002.118,2474.00
1003.062,2968.00
1004.007,2768.00
1004.952,3058.00
1005.897,3044.00
1006.841,2753.00
1007.786,2516.00
1008.730,2473.00
1009.674,3233.00
1010.618,2685.00
1011.564,2535.00
1012.508,2469.00
1013.452,2966.00
1014.396,2794.00
1015.339,2683.00
1016.283,2738.00
1017.226,2810.00
1018.170,2788.00
1019.113,2964.00
1020.056,2783.00
1020.999,2760.00
1021.942,2657.00
1022.885,2912.00
1023.828,3036.00
1024.770,2546.00
1025.715,2845.00
1026.657,2727.00
1027.600,2865.00
1028.542,3024.00
1029.484,2816.00
1030.426,2879.00
1031.368,2863.00
1032.310,2634.00
1033.251,2605.00
1034.193,2773.00
1035.135,2594.00
1036.076,2679.00
1037.017,2576.00
1037.959,2915.00
1038.900,2851.00
1039.843,2841.00
1040.784,2814.00
1041.725,2848.00
1042.665,2678.00
1043.606,2814.00
1044.547,2811.00
1045.487,2432.00
1046.427,2765.00
1047.368,2876.00
1048.308,2249.00
1049.248,2571.00
1050.188,2756.00
1051.128,2687.00
1052.067,2748.00
1053.007,2479.00
1053.947,2463.00
1054.886,2636.00
1055.827,2550.00
1056.766,3029.00
1057.706,2526.00
1058.645,2747.00
1059.584,2781.00
1060.522,3085.00
1061.461,2495.00
1062.400,2525.00
1063.338,2699.00
1064.277,2570.00
1065.215,2554.00
1066.154,2458.00
1067.092,2631.00
1068.030,2670.00
1068.968,2949.00
1069.906,3117.00
1070.843,3021.00
1071.781,2815.00
1072.720,2917.00
1073.658,2866.00
1074.595,2671.00
1075.533,2622.00
1076.470,2638.00
1077.407,3075.00
1078.344,2817.00
1079.281,2839.00
1080.217,2333.00
1081.154,2732.00
1082.091,2815.00
1083.027,2483.00
1083.964,3006.00
1084.900,2611.00
1085.836,2669.00
1086.772,2954.00
1087.708,2510.00
1088.644,2896.00
1089.580,2739.00
1090.515,2778.00
1091.451,2685.00
1092.388,2769.00
1093.324,2476.00
1094.259,3323.00
1095.194,2813.00
1096.129,2662.00
1097.064,2650.00
1097.999,2881.00
1098.934,2575.00
1099.869,2599.00
1100.803,2773.00
1101.738,2773.00
1102.672,2447.00
1103.607,2855.00
1104.541,2610.00
1105.475,2579.00
1106.409,2463.00
1107.343,2639.00
1108.277,2475.00
1109.210,2765.00
1110.144,2730.00
1111.078,2750.00
1112.011,2510.00
1112.944,2858.00
1113.878,2787.00
1114.811,2204.00
1115.744,2660.00
1116.678,2336.00
1117.611,2608.00
1118.544,2670.00
1119.477,2825.00
1120.409,2601.00
1121.342,3204.00
1122.274,2837.00
1123.206,4289.00
1124.138,2722.00
1125.070,3067.00
1126.002,2905.00
1126.934,2362.00
1127.866,2622.00
1128.798,2389.00
1129.729,2410.00
1130.661,2722.00
1131.592,2629.00
1132.523,2792.00
1133.454,2823.00
1134.385,2336.00
1135.317,2717.00
1136.247,2626.00
1137.178,2940.00
1138.109,2418.00
1139.039,3041.00
1139.970,2911.00
1140.900,2649.00
1141.831,2436.00
1142.761,2249.00
1143.691,3339.00
1144.621,2703.00
1145.551,2751.00
1146.480,2757.00
1147.410,2898.00
1148.340,2347.00
1149.269,2411.00
1150.199,2687.00
1151.128,3098.00
1152.057,2513.00
1152.979,2630.00
1153.898,2671.00
1154.819,2791.00
1155.739,2693.00
1156.658,2591.00
1157.579,2756.00
1158.498,2683.00
1159.419,2234.00
1160.338,2731.00
1161.256,2758.00
1162.177,2584.00
1163.095,2647.00
1164.016,2768.00
1164.934,2951.00
1165.852,2913.00
1166.772,2684.00
1167.690,2747.00
1168.610,2769.00
1169.528,2694.00
1170.446,2266.00
1171.365,2645.00
1172.283,2574.00
1173.202,2730.00
1174.120,2728.00
1175.037,2576.00
1175.956,2527.00
1176.873,2584.00
1177.792,2628.00
1178.709,3165.00
1179.626,2592.00
1180.544,2911.00
1181.461,2553.00
1182.379,2777.00
1183.296,2683.00
1184.212,2292.00
1185.130,2530.00
1186.046,3027.00
1186.962,2655.00
1187.880,2934.00
1188.796,2757.00
1189.714,2444.00
1190.629,2798.00
1191.545,2735.00
1192.462,2625.00
1193.378,2679.00
1194.295,2373.00
1195.210,2716.00
1196.125,2854.00
1197.042,2798.00
1197.957,2711.00
1198.872,2566.00
1199.788,2581.00
1200.703,3012.00
1201.619,2724.00
1202.534,2578.00
1203.448,2764.00
1204.364,2606.00
1205.278,2312.00
1206.192,2716.00
1207.108,3181.00
1208.022,3101.00
1208.938,2556.00
1209.851,2873.00
1210.765,2952.00
1211.680,2594.00
1212.594,2454.00
1213.507,2665.00
1214.422,3086.00
1215.335,2776.00
1216.248,2645.00
1217.163,2720.00
1218.076,3331.00
1218.990,2808.00
1219.903,2513.00
1220.816,2515.00
1221.730,2605.00
1222.642,2551.00
1223.554,2592.00
1224.469,2750.00
1225.380,2654.00
1226.292,2363.00
1227.206,2839.00
1228.118,3041.00
1229.032,2308.00
1229.943,2525.00
1230.855,2623.00
1231.768,2439.00
1232.679,2759.00
1233.590,2680.00
1234.503,2958.00
1235.414,2526.00
1236.325,2562.00
1237.238,2759.00
1238.149,2761.00
1239.059,2524.00
1239.972,2892.00
1240.882,2517.00
1241.793,2815.00
1242.705,3038.00
1243.615,2641.00
1244.525,2769.00
1245.437,2250.00
1246.347,2702.00
1247.259,2860.00
1248.168,3167.00
1249.078,2930.00
1249.989,2988.00
1250.899,2481.00
1251.808,2565.00
1252.719,2566.00
1253.628,2545.00
1254.537,3105.00
1255.448,2546.00
1256.357,2522.00
1257.266,2656.00
1258.176,2451.00
1259.085,2395.00
1259.993,2460.00
1260.904,2525.00
1261.812,2492.00
1262.720,3223.00
1263.630,2855.00
1264.538,2540.00
1265.446,2810.00
1266.356,2689.00
1267.263,2994.00
1268.171,2471.00
1269.080,2740.00
1269.988,2873.00
1270.895,2583.00
1271.804,2673.00
1272.711,2898.00
1273.619,2825.00
1274.527,2499.00
1275.434,2863.00
1276.341,2503.00
1277.248,2713.00
1278.156,3010.00
1279.063,2570.00
1279.969,2782.00
1280.877,3562.00
1281.783,2890.00
1282.690,2745.00
1283.598,2660.00
1284.503,2529.00
1285.409,2509.00
1286.317,3096.00
1287.223,3118.00
1288.128,2740.00
1289.036,2570.00
1289.941,2603.00
1290.846,2692.00
1291.751,2533.00
1292.658,2597.00
1293.563,3144.00
1294.468,2707.00
1295.375,2860.00
1296.280,2922.00
1297.184,3411.00
1298.091,2780.00
1298.995,2854.00
1299.900,3101.00
1300.806,2605.00
1301.710,2427.00
1302.614,2288.00
1303.518,2932.00
1304.424,2662.00
1305.327,2910.00
1306.231,2663.00
1307.137,2844.00
1308.040,2756.00
1308.943,2728.00
1309.847,2909.00
1310.752,2887.00
1311.655,2337.00
1312.558,2481.00
1313.463,2616.00
1314.366,2551.00
1315.269,2703.00
1316.171,2671.00
1317.076,2575.00
1317.978,2512.00
1318.881,2254.00
1319.785,2535.00
1320.687,2587.00
1321.589,2323.00
1322.491,2549.00
1323.395,2761.00
1324.297,3227.00
1325.198,2818.00
1326.102,2490.00
1327.004,2510.00
1327.905,3143.00
1328.806,2690.00
1329.709,2745.00
1330.611,2636.00
1331.512,2457.00
1332.413,3139.00
1333.316,2744.00
1334.216,2847.00
1335.117,2409.00
1336.020,2739.00
1336.920,2707.00
1337.821,2549.00
1338.721,2955.00
1339.623,2727.00
1340.523,2650.00
1341.423,2566.00
1342.323,2987.00
1343.225,2782.00
1344.125,2530.00
1345.025,2585.00
1345.924,2356.00
1346.826,3030.00
1347.725,3120.00
1348.624,2893.00
1349.524,2539.00
1350.425,2640.00
1351.324,2792.00
1352.223,2897.00
1353.121,2663.00
1354.022,2890.00
1354.921,3121.00
1355.819,2796.00
1356.718,2774.00
1357.618,2447.00
1358.516,2804.00
1359.415,3066.00
1360.313,2769.00
1361.213,2628.00
1362.111,2974.00
1363.008,3344.00
1363.906,2685.00
1364.806,2750.00
1365.703,2805.00
1366.601,2528.00
1367.498,2500.00
1368.397,2886.00
1369.295,2717.00
1370.192,2499.00
1371.089,2768.00
1371.987,2645.00
1372.884,2928.00
1373.781,2483.00
1374.678,2719.00
1375.574,2516.00
1376.473,2806.00
1377.369,2909.00
1378.265,2547.00
1379.161,2675.00
1380.059,2413.00
1380.955,2816.00
1381.851,2466.00
1382.747,2587.00
1383.643,2639.00
1384.540,2463.00
1385.436,2588.00
1386.331,2769.00
1387.227,2838.00
1388.124,2778.00
1389.019,2522.00
1389.914,2677.00
1390.809,2331.00
1391.704,3112.00
1392.601,2605.00
1393.495,2984.00
1394.390,2814.00
1395.285,2942.00
1396.179,2772.00
1397.075,2674.00
1397.969,2761.00
1398.864,2385.00
1399.758,2640.00
1400.652,2709.00
1401.547,2537.00
1402.441,2466.00
1403.335,3054.00
1404.229,2808.00
1405.122,2766.00
1406.017,2666.00
1406.911,2820.00
1407.804,3109.00
1408.697,2660.00
1409.590,2525.00
1410.485,2860.00
1411.378,2785.00
1412.271,2395.00
1413.163,2760.00
1414.056,2870.00
1414.949,3077.00
1415.843,2759.00
1416.735,2639.00
1417.627,2736.00
1418.520,2708.00
1419.412,2978.00
1420.306,2858.00
1421.197,3006.00
1422.089,2929.00
1422.981,3200.00
1423.873,2884.00
1424.764,2788.00
1425.657,2757.00
1426.549,2819.00
1427.440,2901.00
1428.331,2644.00
1429.222,2376.00
1430.113,2775.00
1431.006,2867.00
1431.897,2626.00
1432.787,2724.00
1433.678,2645.00
1434.568,2506.00
1435.459,2923.00
1436.351,2876.00
1437.241,2836.00
1438.131,2835.00
1439.021,2460.00
1439.911,2703.00
1440.801,2744.00
1441.693,2937.00
1442.583,2738.00
1443.472,2701.00
1444.362,2827.00
1445.251,2665.00
1446.140,2666.00
1447.030,2944.00
1447.921,2939.00
1448.810,2530.00
1449.699,3078.00
1450.588,2728.00
1451.476,2625.00
1452.365,2830.00
1453.254,2628.00
1454.144,2612.00
1455.032,2845.00
1455.921,2414.00
1456.809,2981.00
1457.697,2557.00
1458.585,2633.00
1459.473,2678.00
1460.361,2549.00
1461.251,2782.00
1462.138,2766.00
1463.026,2658.00
1463.913,2940.00
1464.801,2639.00
1465.688,2832.00
1466.575,2724.00
1467.463,3197.00
1468.351,2569.00
1469.238,2683.00
1470.125,2305.00
1471.012,2760.00
1471.899,2810.00
1472.785,2542.00
1473.672,2706.00
1474.558,2927.00
1475.446,2841.00
1476.333,2929.00
1477.219,2521.00
1478.105,2712.00
1478.991,2703.00
1479.877,3019.00
1480.762,2726.00
1481.648,2602.00
1482.534,2861.00
1483.419,2783.00
1484.307,2855.00
1485.192,2712.00
1486.077,2564.00
1486.962,2551.00
1487.847,2463.00
1488.732,2539.00
1489.617,2753.00
1490.502,3009.00
1491.387,2871.00
1492.271,2515.00
1493.156,2554.00
1494.042,2510.00
1494.927,2934.00
1495.811,2579.00
1496.695,2858.00
1497.579,3024.00
1498.463,2725.00
1499.347,2800.00
1500.231,2759.00
1501.114,2757.00
1501.998,2988.00
1502.881,2770.00
1503.765,3040.00
1504.648,3134.00
1505.533,2806.00
1506.417,2756.00
1507.300,2657.00
1508.183,2797.00
1509.066,2196.00
1509.948,2973.00
1510.831,3109.00
1511.714,2482.00
1512.596,2895.00
1513.479,2961.00
1514.361,2946.00
1515.243,2746.00
1516.125,2896.00
1517.008,2983.00
1517.890,2674.00
1518.771,2741.00
1519.655,2944.00
1520.537,2684.00
1521.419,2526.00
1522.300,2788.00
1523.182,2878.00
1524.063,2849.00
1524.944,3041.00
1525.825,2913.00
1526.707,2504.00
1527.588,2544.00
1528.468,2834.00
1529.349,2394.00
1530.230,2682.00
1531.111,2897.00
1531.991,2784.00
1532.872,2440.00
1533.752,2704.00
1534.632,2568.00
1535.513,2602.00
1536.393,2889.00
1537.273,3045.00
1538.153,3425.00
1539.032,2433.00
1539.912,2732.00
1540.792,2739.00
1541.672,2774.00
1542.551,2875.00
1543.430,3302.00
1544.310,2813.00
1545.189,2638.00
1546.068,3168.00
1546.947,2811.00
1547.826,3008.00
1548.705,2719.00
1549.584,2944.00
1550.462,2677.00
1551.341,2886.00
1552.219,2813.00
1553.098,2899.00
1553.976,2913.00
1554.854,3130.00
1555.733,2952.00
1556.611,2630.00
1557.489,2539.00
1558.367,2738.00
1559.244,2904.00
1560.122,2729.00
1561.000,2816.00
1561.877,2999.00
1562.755,2577.00
1563.632,2653.00
1564.509,3007.00
1565.386,3124.00
1566.264,2511.00
1567.141,2370.00
1568.017,2863.00
1568.894,2723.00
1569.771,2777.00
1570.648,2863.00
1571.524,2752.00
1572.401,2507.00
1573.277,2510.00
1574.153,2774.00
1575.029,2635.00
1575.906,3456.00
1576.781,2923.00
1577.657,2700.00
1578.533,3009.00
1579.409,2375.00
1580.285,2741.00
1581.160,3150.00
1582.036,2901.00
1582.911,2582.00
1583.786,3094.00
1584.662,2511.00
1585.537,2724.00
1586.412,2746.00
1587.287,2576.00
1588.160,2952.00
1589.035,2371.00
1589.909,2736.00
1590.784,2700.00
1591.658,2513.00
1592.533,2784.00
1593.407,2743.00
1594.281,2653.00
1595.155,3165.00
1596.029,2650.00
1596.903,2677.00
1597.777,2670.00
1598.651,2986.00
1599.525,2442.00
1600.398,2780.00
1601.272,2674.00
1602.144,3304.00
1603.017,2729.00
1603.890,3012.00
1604.763,2813.00
1605.636,2856.00
1606.509,2448.00
1607.382,2570.00
1608.255,2829.00
1609.128,2951.00
1610.000,2753.00
1610.873,2421.00
1611.746,2640.00
1612.616,2658.00
1613.488,2319.00
1614.361,2787.00
1615.233,2690.00
1616.105,2957.00
1616.977,2657.00
1617.849,2563.00
1618.720,3055.00
1619.592,3060.00
1620.464,2814.00
1621.333,3178.00
1622.205,2775.00
1623.076,2743.00
1623.947,2729.00
1624.818,3005.00
1625.689,2896.00
1626.560,2647.00
1627.431,2818.00
1628.302,3171.00
1629.171,2862.00
1630.042,3036.00
1630.912,3391.00
1631.782,3352.00
1632.653,2550.00
1633.523,2916.00
1634.393,2981.00
1635.263,2598.00
1636.131,2732.00
1637.001,2696.00
1637.871,2340.00
1638.741,2386.00
1639.611,2496.00
1640.480,2888.00
1641.350,2637.00
1642.219,2565.00
1643.087,2225.00
1643.956,3205.00
1644.825,3037.00
1645.694,2967.00
1646.563,2911.00
1647.432,2810.00
1648.299,2747.00
1649.167,2862.00
1650.036,2594.00
1650.904,2890.00
1651.773,2969.00
1652.641,2786.00
1653.509,2969.00
1654.376,2612.00
1655.244,2773.00
1656.112,2787.00
1656.980,2785.00
1657.847,2646.00
1658.715,2916.00
1659.581,2690.00
1660.448,3003.00
1661.316,2259.00
1662.183,2777.00
1663.051,2785.00
1663.918,2777.00
1664.783,2747.00
1665.650,2843.00
1666.517,2903.00
1667.384,2779.00
1668.251,2827.00
1669.115,3058.00
1669.982,2715.00
1670.849,3026.00
1671.715,2723.00
1672.581,2882.00
1673.446,2920.00
1674.312,2758.00
1675.178,3168.00
1676.044,2871.00
1676.910,2824.00
1677.774,2808.00
1678.639,2397.00
1679.505,2701.00
1680.370,2915.00
1681.236,3440.00
1682.099,2693.00
1682.965,2743.00
1683.830,2346.00
1684.695,2551.00
1685.560,2673.00
1686.423,2902.00
1687.288,2891.00
1688.153,2821.00
1689.017,2702.00
1689.880,2851.00
1690.745,2892.00
1691.609,2574.00
1692.473,2918.00
1693.338,2996.00
1694.200,3027.00
1695.064,2741.00
1695.928,2657.00
1696.792,2776.00
1697.654,3245.00
1698.517,2802.00
1699.381,2447.00
1700.245,2399.00
1701.106,3060.00
1701.969,2639.00
1702.833,2900.00
1703.696,2650.00
1704.557,2763.00
1705.420,2645.00
1706.283,2778.00
1707.146,2889.00
1708.007,2584.00
1708.870,2558.00
1709.732,2419.00
1710.595,2669.00
1711.455,2530.00
1712.318,2684.00
1713.180,3068.00
1714.040,2803.00
1714.902,2931.00
1715.764,2776.00
1716.626,2541.00
1717.486,2785.00
1718.348,3007.00
1719.209,4919.00
1720.071,2428.00
1720.930,2503.00
1721.792,2627.00
1722.653,2587.00
1723.512,2647.00
1724.374,2692.00
1725.234,2830.00
1726.095,2791.00
1726.954,2794.00
1727.815,2899.00
1728.676,2741.00
1729.535,2993.00
1730.395,2766.00
1731.256,2661.00
1732.114,2819.00
1732.974,2219.00
1733.834,3146.00
1734.693,2972.00
1735.553,2783.00
1736.413,3174.00
1737.272,2647.00
1738.130,2701.00
1738.990,2860.00
1739.849,2655.00
1740.707,3781.00
1741.566,2771.00
1742.426,2815.00
1743.283,3173.00
1744.142,2663.00
1745.001,2419.00
1745.858,2946.00
1746.717,2870.00
1747.576,2887.00
1748.433,2911.00
1749.292,3366.00
1750.150,3385.00
1751.007,2961.00
1751.865,2999.00
1752.723,2779.00
1753.579,2705.00
1754.438,2975.00
1755.296,2978.00
1756.152,2350.00
1757.010,2463.00
1757.865,3007.00
1758.723,2438.00
1759.581,3081.00
1760.436,2724.00
1761.294,3086.00
1762.151,2763.00
1763.006,2688.00
1763.864,2426.00
1764.721,2973.00
1765.576,2792.00
1766.433,2950.00
1767.288,2660.00
1768.144,2833.00
1769.001,2714.00
1769.856,2804.00
1770.712,3028.00
1771.568,2548.00
1772.423,2658.00
1773.279,2632.00
1774.133,2648.00
1774.989,3164.00
1775.845,3152.00
1776.699,3005.00
1777.555,2765.00
1778.409,3308.00
1779.265,2689.00
1780.120,2720.00
1780.974,2794.00
1781.829,2370.00
1782.682,2853.00
1783.538,2570.00
1784.393,2797.00
1785.246,2664.00
1786.101,2836.00
1786.954,2894.00
1787.808,2953.00
1788.661,2463.00
1789.516,2708.00
1790.370,2724.00
1791.223,2968.00
1792.077,2795.00
1792.930,2823.00
1793.784,2677.00
1794.636,2792.00
1795.490,2760.00
1796.344,2774.00
1797.196,2755.00
1798.049,2950.00
1798.901,2648.00
1799.755,3032.00
1800.606,2564.00
1801.460,3335.00
1802.311,3089.00
1803.165,3181.00
1804.018,3117.00
1804.869,2884.00
1805.722,3235.00
1806.573,2862.00
1807.426,2623.00
1808.276,2754.00
1809.129,2640.00
1809.980,2951.00
1810.832,3045.00
1811.683,2715.00
1812.535,3096.00
1813.385,2721.00
1814.237,3091.00
1815.089,2834.00
1815.940,3042.00
1816.791,2732.00
1817.641,2663.00
1818.493,2922.00
1819.343,2873.00
1820.194,2676.00
1821.044,2865.00
1821.895,3030.00
1822.745,2512.00
1823.596,2707.00
1824.445,3200.00
1825.296,2862.00
1826.145,2708.00
1826.996,2972.00
1827.845,2791.00
1828.695,2836.00
1829.544,2773.00
1830.395,2800.00
1831.243,2696.00
1832.094,2531.00
1832.942,3412.00
1833.792,2887.00
1834.640,2845.00
1835.490,2824.00
1836.338,2826.00
1837.186,2672.00
1838.036,2655.00
1838.884,2774.00
1839.733,3121.00
1840.581,2977.00
1841.430,2949.00
1842.278,3151.00
1843.127,2704.00
1843.974,2486.00
1844.823,3223.00
1845.671,2955.00
1846.519,2819.00
1847.366,2872.00
1848.213,2420.00
1849.062,2599.00
1849.909,2531.00
1850.757,3462.00
1851.604,2928.00
1852.452,2688.00
1853.298,3002.00
1854.146,2831.00
1854.993,2852.00
1855.839,3348.00
1856.687,2900.00
1857.532,2921.00
1858.380,2787.00
1859.226,2888.00
1860.073,2900.00
1860.919,2613.00
1861.765,2714.00
1862.612,3050.00
1863.457,2969.00
1864.304,2741.00
1865.150,2907.00
1865.995,2801.00
1866.842,2893.00
1867.686,3039.00
1868.533,2854.00
1869.378,2890.00
1870.223,2803.00
1871.069,2722.00
1871.914,2823.00
1872.760,2788.00
1873.604,2585.00
1874.448,2914.00
1875.294,2964.00
1876.139,2658.00
1876.984,2917.00
1877.828,2447.00
1878.672,2320.00
1879.518,2661.00
1880.361,2980.00
1881.205,2959.00
1882.050,2575.00
1882.894,3297.00
1883.739,2694.00
1884.582,2533.00
1885.425,2631.00
1886.270,3058.00
1887.113,2539.00
1887.956,2897.00
1888.801,2834.00
1889.644,2610.00
1890.486,2372.00
1891.331,2758.00
1892.173,2851.00
1893.017,2856.00
1893.860,3041.00
1894.702,3089.00
1895.546,2837.00
1896.388,3514.00
1897.230,3160.00
1898.074,2683.00
1898.916,2566.00
1899.757,2603.00
1900.601,3517.00
1901.443,3105.00
1902.284,3075.00
1903.125,3301.00
1903.969,2987.00
1904.810,3042.00
1905.651,2931.00
1906.494,3063.00
1907.335,3235.00
1908.176,2943.00
1909.018,2885.00
1909.859,2742.00
1910.700,2666.00
1911.542,3306.00
1912.383,2903.00
1913.223,2430.00
1914.064,2925.00
1914.906,3065.00
1915.746,3128.00
1916.586,3331.00
1917.428,2800.00
1918.268,2843.00
1919.107,2707.00
1919.947,2549.00
1920.789,2735.00
1921.628,3061.00
1922.468,2831.00
1923.309,2651.00
1924.148,3103.00
1924.988,2899.00
1925.827,2810.00
1926.667,2719.00
1927.507,2795.00
1928.345,2650.00
1929.184,2975.00
1930.025,2613.00
1930.864,3091.00
1931.702,3118.00
1932.541,2728.00
1933.381,2931.00
1934.219,2979.00
1935.057,3054.00
1935.896,2497.00
1936.735,2784.00
1937.573,2710.00
1938.411,2594.00
1939.249,2996.00
1940.089,2710.00
1940.927,3084.00
1941.764,3120.00
1942.602,2704.00
1943.439,2728.00
1944.278,2784.00
1945.115,2744.00
1945.953,2552.00
1946.790,2865.00
1947.628,3168.00
1948.465,2932.00
1949.302,2952.00
1950.139,2960.00
1950.976,2698.00
1951.814,2968.00
1952.651,2865.00
1953.487,2601.00
1954.323,3092.00
1955.160,2773.00
1955.998,3216.00
1956.834,2818.00
1957.670,2874.00
1958.506,3061.00
1959.342,2939.00
1960.177,2873.00
1961.015,2980.00
1961.850,2888.00
1962.686,2866.00
1963.521,2887.00
1964.357,3091.00
1965.192,2573.00
1966.029,2972.00
1966.864,2728.00
1967.699,3091.00
1968.534,2863.00
1969.369,3127.00
1970.204,2776.00
1971.040,2864.00
1971.875,2778.00
1972.709,2851.00
1973.544,2662.00
1974.378,2740.00
1975.212,2964.00
1976.047,2716.00
1976.882,2699.00
1977.716,3181.00
1978.550,2517.00
1979.384,2749.00
1980.218,2741.00
1981.052,2751.00
1981.885,2846.00
1982.719,2834.00
1983.554,2982.00
1984.388,3138.00
1985.221,2938.00
1986.054,3100.00
1986.887,2849.00
1987.720,2653.00
1988.553,3156.00
1989.386,2921.00
1990.219,2937.00
1991.053,3127.00
1991.886,2678.00
1992.719,2992.00
1993.551,2339.00
1994.383,2979.00
1995.216,2739.00
1996.048,2540.00
1996.880,3008.00
1997.712,2695.00
1998.544,2818.00
1999.376,2930.00
2000.208,3105.00
2001.040,3248.00
2001.873,2626.00
2002.705,2672.00
2003.536,2885.00
2004.367,2903.00
2005.199,2889.00
2006.030,2732.00
2006.861,2640.00
2007.692,2883.00
2008.523,2686.00
2009.354,2887.00
2010.185,2633.00
2011.016,3012.00
2011.846,3027.00
2012.677,2776.00
2013.507,3175.00
2014.338,3119.00
2015.168,2756.00
2015.999,3387.00
2016.829,2780.00
2017.659,3075.00
2018.489,3339.00
2019.319,2657.00
2020.149,2994.00
2020.980,2857.00
2021.810,2610.00
2022.639,2735.00
2023.469,2694.00
2024.298,2508.00
2025.128,2455.00
2025.957,2428.00
2026.786,2271.00
2027.615,2460.00
2028.444,2684.00
2029.273,2866.00
2030.102,2468.00
2030.931,2702.00
2031.758,2989.00
2032.586,2648.00
2033.415,2701.00
2034.243,2313.00
2035.072,2100.00
2035.900,2566.00
2036.728,2397.00
2037.556,2419.00
2038.385,2442.00
2039.213,2285.00
2040.040,2261.00
2040.868,2211.00
2041.696,2283.00
2042.524,2284.00
2043.351,2475.00
2044.179,2294.00
2045.006,2067.00
