RamanScope Measure Spectrum Data V3.72

<< MEASURE CONDITION >>
Exposure Type,Aver
Exposure Time [sec],15
Exposure Count,4
Measure Time,2023/07/15 15:46:32
Data Name,""
Data Comment,""
Rayleigh Wave[nm],532.0

<< SAMPLE SPECTRUM >>
Wave[dcm-1],No152
146.591,1102.00
147.626,1253.25
148.664,1480.75
149.699,1728.75
150.737,1944.25
151.772,2163.25
152.809,2338.50
153.846,2555.00
154.881,2758.00
155.918,2905.50
156.953,3008.00
157.989,3142.25
159.026,3271.50
160.060,3313.25
161.096,3395.25
162.130,3489.50
163.167,3508.50
164.200,3556.25
165.236,3609.50
166.272,3657.75
167.305,3755.00
168.341,3795.25
169.374,3878.00
170.409,3973.25
171.445,3986.00
172.477,4088.00
173.512,4144.50
174.545,4175.25
175.580,4325.75
176.614,4287.25
177.647,4296.00
178.681,4314.25
179.713,4278.75
180.747,4248.00
181.781,4223.25
182.813,4187.25
183.847,4144.75
184.878,4144.25
185.912,4095.50
186.945,4106.50
187.976,4110.25
189.010,4194.00
190.043,4246.75
191.073,4236.75
192.106,4272.75
193.137,4330.25
194.170,4362.50
195.202,4341.25
196.232,4420.50
197.265,4539.00
198.297,4571.25
199.327,4620.00
200.359,4674.75
201.388,4713.50
202.420,4818.25
203.452,4918.75
204.481,4962.75
205.512,5033.00
206.544,5159.25
207.573,5235.00
208.604,5304.25
209.635,5332.00
210.663,5438.25
211.694,5492.75
212.725,5617.50
213.753,5570.00
214.783,5687.25
215.813,5681.75
216.841,5620.75
217.871,5637.50
218.899,5608.50
219.929,5586.75
220.959,5536.75
221.986,5462.00
223.016,5343.75
224.045,5290.50
225.072,5349.00
226.101,5228.00
227.130,5240.50
228.157,5137.25
229.185,5093.75
230.214,5068.25
231.241,5065.25
232.269,4984.00
233.297,5074.25
234.323,5001.00
235.351,5031.00
236.379,5054.00
237.407,5040.25
238.433,5076.50
239.460,5128.50
240.488,5175.50
241.513,5177.75
242.540,5167.25
243.568,5222.00
244.592,5265.25
245.619,5303.50
246.646,5302.25
247.671,5240.75
248.697,5241.25
249.724,5224.75
250.748,5240.25
251.774,5187.75
252.801,5218.25
253.827,5248.00
254.850,5242.00
255.876,5278.50
256.902,5219.25
257.925,5281.00
258.951,5264.25
259.976,5300.25
260.999,5330.50
262.024,5443.25
263.049,5365.50
264.074,5415.00
265.097,5477.75
266.122,5521.50
267.146,5531.75
268.168,5468.00
269.193,5505.50
270.217,5599.00
271.241,5595.50
272.263,5611.25
273.287,5624.75
274.311,5591.25
275.332,5683.50
276.356,5611.50
277.379,5584.00
278.402,5535.25
279.424,5506.50
280.447,5379.00
281.470,5407.25
282.492,5357.75
283.513,5249.00
284.536,5179.00
285.558,5174.50
286.581,5041.00
287.601,5028.25
288.623,5009.50
289.645,4955.50
290.665,4941.50
291.687,4883.50
292.709,4808.25
293.730,4757.50
294.750,4786.50
295.771,4661.75
296.792,4678.50
297.813,4604.75
298.832,4551.50
299.853,4548.75
300.874,4492.75
301.895,4491.50
302.913,4454.25
303.934,4402.00
304.954,4392.00
305.975,4365.75
306.993,4357.75
308.013,4304.25
309.033,4332.75
310.052,4228.75
311.072,4261.25
312.090,4248.75
313.109,4237.00
314.129,4174.75
315.148,4132.25
316.165,4133.00
317.184,4182.75
318.203,4171.00
319.222,4096.00
320.238,4057.25
321.257,4075.75
322.275,4100.50
323.294,4088.00
324.312,4087.75
325.328,4036.75
326.346,4058.25
327.364,4000.75
328.382,4072.50
329.397,4056.75
330.415,3965.25
331.432,4002.25
332.450,3995.50
333.467,3988.50
334.482,4006.50
335.499,3982.75
336.516,4047.75
337.533,3973.25
338.547,3964.25
339.564,3932.50
340.580,4024.00
341.597,3974.75
342.613,3971.25
343.627,3953.00
344.643,3988.25
345.659,3959.50
346.675,3957.75
347.690,3922.25
348.704,3915.50
349.719,3917.00
350.735,3908.50
351.750,3934.75
352.765,3887.25
353.778,3938.00
354.793,3938.50
355.808,3901.50
356.822,3892.25
357.837,3903.00
358.851,3952.50
359.864,3909.75
360.878,3949.75
361.892,3877.25
362.906,3889.50
363.920,3950.00
364.932,3939.25
365.945,3885.00
366.959,3881.25
367.972,3891.50
368.986,3925.50
369.999,3934.00
371.010,3942.00
372.023,3949.75
373.036,3964.25
374.049,3917.50
375.061,3904.25
376.072,3956.75
377.084,3912.25
378.097,3949.50
379.109,3935.75
380.121,3976.25
381.133,3931.00
382.143,3902.00
383.155,3919.25
384.166,3869.00
385.178,3875.25
386.189,3899.50
387.201,3968.25
388.212,3972.25
389.221,3880.50
390.232,3925.00
391.243,3898.75
392.254,3850.75
393.264,3871.00
394.275,3832.25
395.283,3875.75
396.294,3805.00
397.304,3814.00
398.314,3810.00
399.324,3809.00
400.334,3794.75
401.344,3769.25
402.351,3761.25
403.361,3754.75
404.370,3756.00
405.380,3738.00
406.389,3695.25
407.398,3702.00
408.407,3668.75
409.414,3654.75
410.423,3641.25
411.431,3667.75
412.440,3645.50
413.448,3629.00
414.457,3587.25
415.465,3627.00
416.471,3580.75
417.479,3572.00
418.487,3630.50
419.495,3610.00
420.503,3599.25
421.510,3593.00
422.518,3584.50
423.525,3546.75
424.530,3584.50
425.537,3585.75
426.544,3551.50
427.551,3542.75
428.558,3526.00
429.565,3550.50
430.571,3553.75
431.578,3572.25
432.582,3542.50
433.588,3529.50
434.595,3501.50
435.601,3528.25
436.607,3556.75
437.612,3516.00
438.618,3454.25
439.624,3491.00
440.627,3489.00
441.633,3526.50
442.638,3496.00
443.643,3525.00
444.648,3510.50
445.653,3481.25
446.658,3557.50
447.663,3485.50
448.667,3506.00
449.672,3485.50
450.674,3542.25
451.678,3566.50
452.682,3548.25
453.687,3565.75
454.690,3557.00
455.694,3574.00
456.698,3569.50
457.702,3525.50
458.705,3576.00
459.709,3545.00
460.710,3544.25
461.713,3571.25
462.716,3558.00
463.719,3545.50
464.722,3515.75
465.725,3539.00
466.727,3617.00
467.730,3520.75
468.732,3548.50
469.735,3568.00
470.737,3566.50
471.737,3563.00
472.739,3520.00
473.741,3529.50
474.742,3575.50
475.744,3604.75
476.746,3549.50
477.747,3554.75
478.748,3586.50
479.750,3563.50
480.751,3547.75
481.752,3597.00
482.753,3518.00
483.751,3571.25
484.752,3568.00
485.753,3541.75
486.753,3551.00
487.753,3578.00
488.754,3593.75
489.754,3559.75
490.754,3522.00
491.754,3554.25
492.754,3528.00
493.753,3553.00
494.753,3562.25
495.752,3500.50
496.752,3573.00
497.749,3545.75
498.748,3566.00
499.747,3500.00
500.746,3511.50
501.745,3500.50
502.744,3539.75
503.742,3536.50
504.741,3502.00
505.739,3498.00
506.737,3449.50
507.735,3489.00
508.734,3441.25
509.732,3435.50
510.729,3420.75
511.727,3437.25
512.725,3414.50
513.720,3433.50
514.718,3394.00
515.715,3416.00
516.712,3360.25
517.709,3444.00
518.706,3386.00
519.703,3428.50
520.700,3393.50
521.696,3311.00
522.693,3371.25
523.689,3390.50
524.686,3428.50
525.682,3363.75
526.678,3435.50
527.674,3410.25
528.670,3429.25
529.666,3421.50
530.661,3396.25
531.657,3366.25
532.652,3394.00
533.648,3425.00
534.641,3394.75
535.636,3401.75
536.631,3344.25
537.626,3386.75
538.621,3392.75
539.616,3337.75
540.610,3292.25
541.605,3336.00
542.599,3327.25
543.593,3405.75
544.587,3365.00
545.581,3392.25
546.575,3401.25
547.569,3364.75
548.563,3389.75
549.557,3415.25
550.550,3366.00
551.543,3377.75
552.537,3381.00
553.530,3362.25
554.523,3375.25
555.516,3357.25
556.509,3346.50
557.502,3361.25
558.494,3369.25
559.487,3376.75
560.479,3375.50
561.472,3338.00
562.464,3353.00
563.456,3399.25
564.448,3442.75
565.440,3387.75
566.432,3353.75
567.423,3391.00
568.415,3409.00
569.404,3398.75
570.396,3440.75
571.387,3371.75
572.378,3415.50
573.369,3445.50
574.360,3436.00
575.351,3425.00
576.341,3433.25
577.332,3464.50
578.323,3488.25
579.313,3482.50
580.303,3529.25
581.293,3474.25
582.283,3527.75
583.273,3462.00
584.263,3528.50
585.253,3518.25
586.243,3586.00
587.232,3574.00
588.222,3538.50
589.211,3570.75
590.200,3577.75
591.189,3550.25
592.178,3527.25
593.167,3520.25
594.156,3506.50
595.145,3584.00
596.133,3524.00
597.122,3535.00
598.110,3554.00
599.098,3572.50
600.086,3505.50
601.074,3569.75
602.062,3518.00
603.050,3517.25
604.038,3491.75
605.025,3533.25
606.013,3536.00
607.000,3491.50
607.987,3505.25
608.975,3521.00
609.962,3427.25
610.949,3488.25
611.936,3395.00
612.922,3437.75
613.909,3402.00
614.895,3354.25
615.882,3356.50
616.868,3348.75
617.854,3354.00
618.841,3336.00
619.826,3297.25
620.812,3274.00
621.798,3268.00
622.784,3241.25
623.769,3180.50
624.755,3181.00
625.740,3219.50
626.725,3171.50
627.711,3178.75
628.698,3105.75
629.683,3128.75
630.667,3084.25
631.652,3091.25
632.637,3088.00
633.621,3050.25
634.606,3079.00
635.590,2986.25
636.574,3026.75
637.558,3026.75
638.542,2940.75
639.526,2928.50
640.510,2978.25
641.493,2967.00
642.477,2966.00
643.460,2933.25
644.444,3005.75
645.427,2909.00
646.410,2895.25
647.393,2919.50
648.376,2911.00
649.359,2896.75
650.341,2862.00
651.324,2816.00
652.307,2880.00
653.289,2868.75
654.271,2849.25
655.253,2854.25
656.235,2845.50
657.217,2862.25
658.199,2842.00
659.181,2892.00
660.163,2858.00
661.144,2794.75
662.126,2836.25
663.107,2781.75
664.088,2784.75
665.069,2808.50
666.050,2752.75
667.033,2780.75
668.014,2748.25
668.995,2712.00
669.975,2768.25
670.956,2709.50
671.936,2728.50
672.916,2667.75
673.896,2752.75
674.876,2677.50
675.856,2651.75
676.836,2639.75
677.816,2601.25
678.795,2653.00
679.775,2597.50
680.754,2585.75
681.734,2619.75
682.713,2543.00
683.692,2578.75
684.671,2557.75
685.650,2542.75
686.629,2497.00
687.607,2481.00
688.586,2527.50
689.564,2535.00
690.543,2500.75
691.523,2462.75
692.501,2444.25
693.479,2484.75
694.457,2477.50
695.435,2484.25
696.413,2458.25
697.390,2429.75
698.368,2438.00
699.345,2387.75
700.322,2416.50
701.300,2398.25
702.277,2381.00
703.254,2358.50
704.231,2381.25
705.207,2412.25
706.184,2367.25
707.161,2366.25
708.137,2374.50
709.113,2373.50
710.090,2343.00
711.068,2379.50
712.044,2381.50
713.020,2320.50
713.996,2331.50
714.971,2292.25
715.947,2320.75
716.922,2323.25
717.898,2262.50
718.873,2311.75
719.848,2311.00
720.823,2307.75
721.798,2318.50
722.773,2359.50
723.748,2266.00
724.723,2246.00
725.697,2266.25
726.672,2260.50
727.646,2281.50
728.622,2277.50
729.596,2227.75
730.570,2241.75
731.544,2234.25
732.518,2259.25
733.492,2240.25
734.466,2219.75
735.439,2206.25
736.413,2232.75
737.386,2169.25
738.359,2196.25
739.332,2187.50
740.305,2142.00
741.278,2206.00
742.251,2201.00
743.224,2185.75
744.196,2120.00
745.171,2138.75
746.143,2165.75
747.115,2202.50
748.087,2150.75
749.059,2105.75
750.031,2194.25
751.003,2126.25
751.975,2144.25
752.947,2124.75
753.918,2104.00
754.890,2053.00
755.861,2063.00
756.832,2092.75
757.803,2088.75
758.774,2055.75
759.747,2071.50
760.718,2030.50
761.689,2036.00
762.659,2045.25
763.630,2049.00
764.600,2043.00
765.570,2003.75
766.540,2006.50
767.510,2041.75
768.480,2037.75
769.450,2001.25
770.420,2064.50
771.390,1982.25
772.359,2036.00
773.329,2017.75
774.300,1991.00
775.269,2020.25
776.238,2056.00
777.207,1944.25
778.176,1961.25
779.145,1960.00
780.114,1999.25
781.083,1935.50
782.051,1911.75
783.019,1961.50
783.988,1957.50
784.956,1925.75
785.924,1947.50
786.894,1930.25
787.862,1962.25
788.830,1940.50
789.797,1900.00
790.765,1926.75
791.732,1894.25
792.700,1918.25
793.667,1897.50
794.634,1906.25
795.601,1897.50
796.568,1899.00
797.535,1933.00
798.502,1904.50
799.468,1875.25
800.437,1879.00
801.403,1854.75
802.370,1862.50
803.336,1865.00
804.302,1875.00
805.268,1881.00
806.234,1850.75
807.200,1784.50
808.166,1858.50
809.131,1845.50
810.097,1880.50
811.062,1849.75
812.027,1856.25
812.994,1839.50
813.960,1806.75
814.925,1794.50
815.889,1864.75
816.854,1833.00
817.819,1770.50
818.783,1798.00
819.748,1838.50
820.712,1805.00
821.677,1808.50
822.641,1771.00
823.605,1786.75
824.571,1797.50
825.534,1793.25
826.498,1794.25
827.462,1785.50
828.425,1783.75
829.389,1795.75
830.352,1820.25
831.315,1793.75
832.279,1794.75
833.242,1792.75
834.204,1761.75
835.167,1763.00
836.132,1771.00
837.095,1757.25
838.057,1767.25
839.020,1740.00
839.982,1774.50
840.944,1775.75
841.906,1786.50
842.868,1769.50
843.830,1727.25
844.792,1749.50
845.753,1716.00
846.715,1736.75
847.679,1773.75
848.640,1764.50
849.601,1694.50
850.562,1732.50
851.523,1758.00
852.484,1741.75
853.445,1719.25
854.406,1763.75
855.367,1719.50
856.327,1711.00
857.288,1781.00
858.248,1745.25
859.210,1686.00
860.170,1717.50
861.130,1727.50
862.090,1705.25
863.050,1719.50
864.010,1725.50
864.969,1708.00
865.929,1744.00
866.888,1726.00
867.848,1735.75
868.807,1699.50
869.766,1680.50
870.727,1693.00
871.686,1671.25
872.645,1698.00
873.604,1707.50
874.562,1706.25
875.521,1738.50
876.479,1707.75
877.437,1691.50
878.396,1709.75
879.354,1726.25
880.312,1685.50
881.270,1739.25
882.229,1626.50
883.187,1693.50
884.145,1717.25
885.102,1668.50
886.059,1681.25
887.017,1680.25
887.974,1729.50
888.931,1726.75
889.888,1722.75
890.845,1689.00
891.802,1693.00
892.758,1714.25
893.717,1677.50
894.673,1666.00
895.630,1668.50
896.586,1632.50
897.542,1713.00
898.498,1692.75
899.454,1677.50
900.410,1688.25
901.366,1719.25
902.321,1585.75
903.277,1693.00
904.232,1708.25
905.189,1670.00
906.145,1743.00
907.100,1709.25
908.055,1693.75
909.010,1705.50
909.965,1712.00
910.919,1726.50
911.874,1693.00
912.828,1692.75
913.783,1681.25
914.737,1724.50
915.693,1713.75
916.648,1696.50
917.602,1668.00
918.555,1698.75
919.509,1748.50
920.463,1737.00
921.417,1738.25
922.370,1682.75
923.324,1679.50
924.277,1690.00
925.230,1726.00
926.183,1733.25
927.138,1689.00
928.091,1678.75
929.044,1711.75
929.996,1712.50
930.949,1787.50
931.902,1773.00
932.854,1733.00
933.806,1746.50
934.758,1742.50
935.711,1684.50
936.663,1693.25
937.614,1696.75
938.568,1751.50
939.520,1699.50
940.471,1707.25
941.423,1685.00
942.374,1732.25
943.326,1725.75
944.277,1657.50
945.228,1682.00
946.179,1689.50
947.130,1740.00
948.080,1717.00
949.031,1729.50
949.984,1684.25
950.934,1639.00
951.884,1692.75
952.835,1657.00
953.785,1682.50
954.735,1709.25
955.685,1678.00
956.635,1670.50
957.585,1690.75
958.534,1659.50
959.484,1654.00
960.433,1660.50
961.383,1635.75
962.334,1663.00
963.283,1645.50
964.232,1646.50
965.181,1611.50
966.130,1663.25
967.079,1620.75
968.027,1657.50
968.976,1629.75
969.924,1686.75
970.873,1655.00
971.821,1661.25
972.769,1696.25
973.719,1668.75
974.667,1698.25
975.615,1604.50
976.562,1615.25
977.510,1645.75
978.458,1631.75
979.405,1636.75
980.352,1648.25
981.300,1621.00
982.247,1595.25
983.194,1645.75
984.141,1650.00
985.088,1633.00
986.036,1592.25
986.983,1588.00
987.930,1592.00
988.876,1602.75
989.822,1607.75
990.769,1598.25
991.715,1601.75
992.661,1609.00
993.607,1574.00
994.553,1593.25
995.498,1607.25
996.444,1621.25
997.389,1612.00
998.337,1610.00
999.282,1635.75
1000.227,1606.75
1001.173,1612.75
1002.118,1570.00
1003.062,1625.00
1004.007,1600.50
1004.952,1614.00
1005.897,1583.25
1006.841,1547.25
1007.786,1600.50
1008.730,1567.75
1009.674,1628.50
1010.618,1587.50
1011.564,1609.25
1012.508,1587.25
1013.452,1557.75
1014.396,1542.50
1015.339,1572.50
1016.283,1590.75
1017.226,1579.00
1018.170,1556.75
1019.113,1523.50
1020.056,1594.25
1020.999,1558.25
1021.942,1538.50
1022.885,1548.00
1023.828,1531.50
1024.770,1553.75
1025.715,1582.00
1026.657,1565.50
1027.600,1578.25
1028.542,1553.50
1029.484,1564.25
1030.426,1565.50
1031.368,1562.00
1032.310,1569.00
1033.251,1584.00
1034.193,1569.50
1035.135,1577.75
1036.076,1558.25
1037.017,1541.75
1037.959,1551.75
1038.900,1597.75
1039.843,1569.50
1040.784,1571.25
1041.725,1560.50
1042.665,1573.00
1043.606,1562.00
1044.547,1591.25
1045.487,1587.50
1046.427,1575.50
1047.368,1581.75
1048.308,1619.75
1049.248,1510.00
1050.188,1540.25
1051.128,1575.00
1052.067,1585.00
1053.007,1601.00
1053.947,1554.50
1054.886,1519.00
1055.827,1601.00
1056.766,1573.50
1057.706,1546.50
1058.645,1562.25
1059.584,1552.25
1060.522,1552.75
1061.461,1622.50
1062.400,1599.50
1063.338,1596.75
1064.277,1558.25
1065.215,1563.00
1066.154,1580.75
1067.092,1597.75
1068.030,1579.75
1068.968,1603.75
1069.906,1521.25
1070.843,1589.00
1071.781,1586.00
1072.720,1571.25
1073.658,1647.75
1074.595,1542.00
1075.533,1596.25
1076.470,1596.75
1077.407,1585.00
1078.344,1588.25
1079.281,1565.25
1080.217,1596.00
1081.154,1613.25
1082.091,1591.00
1083.027,1597.75
1083.964,1597.50
1084.900,1555.50
1085.836,1578.75
1086.772,1554.25
1087.708,1589.25
1088.644,1585.75
1089.580,1605.50
1090.515,1564.00
1091.451,1547.00
1092.388,1579.25
1093.324,1570.75
1094.259,1569.50
1095.194,1605.25
1096.129,1554.50
1097.064,1555.75
1097.999,1542.75
1098.934,1549.75
1099.869,1591.00
1100.803,1522.25
1101.738,1547.50
1102.672,1539.25
1103.607,1576.25
1104.541,1547.75
1105.475,1580.25
1106.409,1561.50
1107.343,1558.25
1108.277,1529.25
1109.210,1526.75
1110.144,1523.50
1111.078,1508.00
1112.011,1561.00
1112.944,1511.00
1113.878,1551.00
1114.811,1527.00
1115.744,1495.75
1116.678,1550.25
1117.611,1505.50
1118.544,1505.00
1119.477,1469.25
1120.409,1486.75
1121.342,1507.25
1122.274,1506.50
1123.206,1511.25
1124.138,1500.00
1125.070,1444.00
1126.002,1491.00
1126.934,1501.75
1127.866,1469.25
1128.798,1478.25
1129.729,1473.75
1130.661,1496.50
1131.592,1446.50
1132.523,1476.00
1133.454,1446.00
1134.385,1439.50
1135.317,1487.50
1136.247,1489.00
1137.178,1431.50
1138.109,1429.50
1139.039,1428.25
1139.970,1442.75
1140.900,1456.00
1141.831,1447.75
1142.761,1451.50
1143.691,1232.75
1144.621,1453.00
1145.551,1432.50
1146.480,1429.00
1147.410,1490.50
1148.340,1414.00
1149.269,1454.50
1150.199,1430.25
1151.128,1407.75
1152.057,1470.25
1152.979,1452.00
1153.898,1461.25
1154.819,1375.25
1155.739,1427.00
1156.658,1432.75
1157.579,1405.25
1158.498,1434.00
1159.419,1433.25
1160.338,1435.25
1161.256,1392.00
1162.177,1415.00
1163.095,1428.50
1164.016,1465.00
1164.934,1392.75
1165.852,1391.00
1166.772,1392.75
1167.690,1408.75
1168.610,1400.50
1169.528,1460.75
1170.446,1395.25
1171.365,1382.00
1172.283,1409.25
1173.202,1408.50
1174.120,1463.75
1175.037,1458.00
1175.956,1385.50
1176.873,1406.50
1177.792,1410.25
1178.709,1368.50
1179.626,1401.25
1180.544,1441.50
1181.461,1379.50
1182.379,1425.50
1183.296,1359.75
1184.212,1410.00
1185.130,1412.50
1186.046,1337.75
1186.962,1393.50
1187.880,1373.75
1188.796,1399.75
1189.714,1390.75
1190.629,1359.00
1191.545,1360.75
1192.462,1384.50
1193.378,1389.25
1194.295,1387.25
1195.210,1362.25
1196.125,1379.25
1197.042,1417.50
1197.957,1413.25
1198.872,1372.75
1199.788,1380.00
1200.703,1426.00
1201.619,1417.75
1202.534,1397.75
1203.448,1434.50
1204.364,1372.75
1205.278,1387.75
1206.192,1404.75
1207.108,1384.25
1208.022,1366.25
1208.938,1397.00
1209.851,1425.75
1210.765,1401.00
1211.680,1384.75
1212.594,1391.00
1213.507,1381.00
1214.422,1388.00
1215.335,1392.50
1216.248,1402.75
1217.163,1407.25
1218.076,1368.25
1218.990,1348.50
1219.903,1361.25
1220.816,1395.00
1221.730,1419.25
1222.642,1391.75
1223.554,1401.50
1224.469,1370.00
1225.380,1395.00
1226.292,1421.00
1227.206,1369.75
1228.118,1369.75
1229.032,1428.25
1229.943,1357.50
1230.855,1378.50
1231.768,1376.25
1232.679,1369.25
1233.590,1368.00
1234.503,1404.00
1235.414,1377.75
1236.325,1385.00
1237.238,1392.00
1238.149,1419.25
1239.059,1383.75
1239.972,1372.75
1240.882,1375.50
1241.793,1381.75
1242.705,1397.00
1243.615,1357.00
1244.525,1398.00
1245.437,1397.75
1246.347,1390.50
1247.259,1398.50
1248.168,1382.75
1249.078,1412.50
1249.989,1398.75
1250.899,1416.50
1251.808,1387.25
1252.719,1389.75
1253.628,1423.00
1254.537,1452.50
1255.448,1415.50
1256.357,1379.00
1257.266,1389.50
1258.176,1436.25
1259.085,1368.00
1259.993,1414.50
1260.904,1370.00
1261.812,1375.75
1262.720,1359.75
1263.630,1449.50
1264.538,1352.50
1265.446,1389.75
1266.356,1396.00
1267.263,1381.00
1268.171,1422.00
1269.080,1410.50
1269.988,1317.50
1270.895,1375.75
1271.804,1421.50
1272.711,1424.75
1273.619,1390.75
1274.527,1394.75
1275.434,1388.00
1276.341,1394.25
1277.248,1387.75
1278.156,1405.00
1279.063,1364.75
1279.969,1377.25
1280.877,1370.75
1281.783,1353.75
1282.690,1374.75
1283.598,1410.75
1284.503,1392.00
1285.409,1407.00
1286.317,1430.75
1287.223,1366.00
1288.128,1361.25
1289.036,1379.25
1289.941,1401.50
1290.846,1360.25
1291.751,1342.25
1292.658,1389.00
1293.563,1349.00
1294.468,1320.75
1295.375,1380.75
1296.280,1340.75
1297.184,1356.00
1298.091,1363.25
1298.995,1359.00
1299.900,1316.75
1300.806,1339.25
1301.710,1332.75
1302.614,1341.50
1303.518,1365.50
1304.424,1349.00
1305.327,1326.25
1306.231,1290.25
1307.137,1353.50
1308.040,1339.25
1308.943,1322.50
1309.847,1302.50
1310.752,1309.00
1311.655,1335.25
1312.558,1311.00
1313.463,1326.25
1314.366,1298.50
1315.269,1343.00
1316.171,1303.25
1317.076,1290.75
1317.978,1270.25
1318.881,1335.00
1319.785,1340.75
1320.687,1306.00
1321.589,1272.00
1322.491,1294.00
1323.395,1296.75
1324.297,1285.25
1325.198,1295.50
1326.102,1302.25
1327.004,1303.25
1327.905,1285.25
1328.806,1269.50
1329.709,1300.25
1330.611,1326.50
1331.512,1301.00
1332.413,1283.75
1333.316,1286.50
1334.216,1320.25
1335.117,1276.75
1336.020,1250.25
1336.920,1266.75
1337.821,1274.25
1338.721,1251.00
1339.623,1305.00
1340.523,1278.00
1341.423,1270.00
1342.323,1290.75
1343.225,1257.00
1344.125,1286.50
1345.025,1244.25
1345.924,1295.75
1346.826,1246.75
1347.725,1246.25
1348.624,1289.50
1349.524,1236.00
1350.425,1282.00
1351.324,1216.00
1352.223,1304.25
1353.121,1266.50
1354.022,1228.50
1354.921,1219.50
1355.819,1223.50
1356.718,1243.75
1357.618,1284.75
1358.516,1260.25
1359.415,1233.00
1360.313,1229.50
1361.213,1216.25
1362.111,1174.00
1363.008,1212.00
1363.906,1228.75
1364.806,1194.75
1365.703,1176.00
1366.601,1179.75
1367.498,1225.50
1368.397,1191.25
1369.295,1204.00
1370.192,1232.25
1371.089,1215.25
1371.987,1190.00
1372.884,1216.75
1373.781,1190.25
1374.678,1227.75
1375.574,1164.25
1376.473,1220.25
1377.369,1216.25
1378.265,1184.75
1379.161,1177.00
1380.059,1181.00
1380.955,1175.00
1381.851,1204.00
1382.747,1196.00
1383.643,1187.25
1384.540,1186.50
1385.436,1192.00
1386.331,1152.50
1387.227,1160.25
1388.124,1163.00
1389.019,1167.25
1389.914,1197.25
1390.809,1172.75
1391.704,1163.75
1392.601,1159.50
1393.495,1182.00
1394.390,1167.25
1395.285,1185.25
1396.179,1149.25
1397.075,1154.00
1397.969,1125.50
1398.864,1151.00
1399.758,1169.75
1400.652,1144.75
1401.547,1133.00
1402.441,1131.25
1403.335,1165.75
1404.229,1167.00
1405.122,1136.75
1406.017,1193.50
1406.911,1147.00
1407.804,1123.75
1408.697,1173.50
1409.590,1122.25
1410.485,1129.25
1411.378,1157.25
1412.271,1148.00
1413.163,1169.00
1414.056,1174.50
1414.949,1150.00
1415.843,1090.00
1416.735,1167.75
1417.627,1178.25
1418.520,1129.75
1419.412,1132.25
1420.306,1116.25
1421.197,1174.25
1422.089,1125.00
1422.981,1161.00
1423.873,1151.75
1424.764,1139.25
1425.657,1161.75
1426.549,1168.25
1427.440,1124.50
1428.331,1128.75
1429.222,1112.75
1430.113,1119.25
1431.006,1133.25
1431.897,1144.50
1432.787,1128.00
1433.678,1175.00
1434.568,1121.50
1435.459,1172.00
1436.351,1158.50
1437.241,1144.50
1438.131,1130.00
1439.021,1133.25
1439.911,1102.75
1440.801,1108.25
1441.693,1152.50
1442.583,1118.00
1443.472,1125.00
1444.362,1109.00
1445.251,1061.00
1446.140,1147.75
1447.030,1103.25
1447.921,1145.25
1448.810,1101.00
1449.699,1094.75
1450.588,1095.00
1451.476,1110.25
1452.365,1139.50
1453.254,1148.25
1454.144,1107.75
1455.032,1080.50
1455.921,1112.75
1456.809,1122.25
1457.697,1093.50
1458.585,1136.75
1459.473,1107.75
1460.361,1091.50
1461.251,1098.00
1462.138,1106.50
1463.026,1114.75
1463.913,1063.00
1464.801,1093.50
1465.688,1089.75
1466.575,1118.50
1467.463,1098.50
1468.351,1083.50
1469.238,1087.25
1470.125,1066.75
1471.012,1079.50
1471.899,1110.50
1472.785,1093.25
1473.672,1094.25
1474.558,1035.00
1475.446,1078.50
1476.333,1041.50
1477.219,1047.50
1478.105,1104.75
1478.991,1067.75
1479.877,1066.00
1480.762,1028.00
1481.648,1085.00
1482.534,1059.50
1483.419,1084.00
1484.307,1048.50
1485.192,1037.75
1486.077,1098.50
1486.962,1058.00
1487.847,1060.50
1488.732,1074.00
1489.617,1045.50
1490.502,1086.00
1491.387,1020.25
1492.271,1027.75
1493.156,1076.50
1494.042,1035.75
1494.927,1031.50
1495.811,1051.25
1496.695,1064.75
1497.579,1005.50
1498.463,1017.25
1499.347,1069.25
1500.231,1029.25
1501.114,1047.00
1501.998,1045.75
1502.881,1035.25
1503.765,1051.00
1504.648,1048.75
1505.533,1030.25
1506.417,1023.00
1507.300,1032.00
1508.183,1046.75
1509.066,1020.00
1509.948,1030.00
1510.831,1017.75
1511.714,1018.50
1512.596,1041.00
1513.479,1038.50
1514.361,1020.75
1515.243,990.00
1516.125,1033.75
1517.008,1036.25
1517.890,1030.25
1518.771,1054.00
1519.655,1003.75
1520.537,962.00
1521.419,1047.25
1522.300,984.00
1523.182,1010.50
1524.063,1013.00
1524.944,1032.75
1525.825,1053.00
1526.707,1054.25
1527.588,1018.50
1528.468,1027.00
1529.349,1014.25
1530.230,1012.25
1531.111,1028.00
1531.991,987.25
1532.872,1005.50
1533.752,1050.50
1534.632,1028.25
1535.513,1013.50
1536.393,1027.25
1537.273,992.75
1538.153,1048.25
1539.032,959.00
1539.912,1030.50
1540.792,963.75
1541.672,998.25
1542.551,968.50
1543.430,1037.50
1544.310,1013.25
1545.189,1015.00
1546.068,994.00
1546.947,1025.50
1547.826,984.50
1548.705,1002.75
1549.584,1017.00
1550.462,1000.50
1551.341,970.50
1552.219,998.25
1553.098,1049.00
1553.976,978.25
1554.854,980.75
1555.733,997.50
1556.611,953.00
1557.489,1000.25
1558.367,1007.75
1559.244,999.75
1560.122,1007.50
1561.000,1033.25
1561.877,961.75
1562.755,1002.25
1563.632,958.00
1564.509,958.25
1565.386,1030.25
1566.264,1008.75
1567.141,997.75
1568.017,997.75
1568.894,991.75
1569.771,951.75
1570.648,989.00
1571.524,1018.75
1572.401,985.25
1573.277,977.00
1574.153,968.00
1575.029,979.75
1575.906,979.75
1576.781,979.75
1577.657,956.75
1578.533,937.75
1579.409,963.50
1580.285,961.00
1581.160,953.00
1582.036,998.00
1582.911,918.75
1583.786,915.25
1584.662,1001.25
1585.537,976.25
1586.412,967.50
1587.287,955.00
1588.160,992.50
1589.035,981.25
1589.909,985.25
1590.784,979.25
1591.658,995.00
1592.533,963.75
1593.407,953.50
1594.281,953.75
1595.155,971.75
1596.029,951.50
1596.903,971.00
1597.777,969.50
1598.651,983.25
1599.525,961.75
1600.398,965.25
1601.272,981.75
1602.144,960.25
1603.017,966.75
1603.890,952.25
1604.763,945.50
1605.636,951.00
1606.509,965.00
1607.382,973.75
1608.255,940.50
1609.128,1020.50
1610.000,986.25
1610.873,966.75
1611.746,982.75
1612.616,978.50
1613.488,944.25
1614.361,974.50
1615.233,948.00
1616.105,990.00
1616.977,950.75
1617.849,950.00
1618.720,949.50
1619.592,977.75
1620.464,928.25
1621.333,954.25
1622.205,956.50
1623.076,962.50
1623.947,939.00
1624.818,989.75
1625.689,936.25
1626.560,908.50
1627.431,964.75
1628.302,985.25
1629.171,947.75
1630.042,931.25
1630.912,965.25
1631.782,936.00
1632.653,927.50
1633.523,965.00
1634.393,944.00
1635.263,934.75
1636.131,982.50
1637.001,956.50
1637.871,922.25
1638.741,972.25
1639.611,961.00
1640.480,958.25
1641.350,942.50
1642.219,948.25
1643.087,907.00
1643.956,945.00
1644.825,904.25
1645.694,974.00
1646.563,965.75
1647.432,973.00
1648.299,932.50
1649.167,923.00
1650.036,927.25
1650.904,959.75
1651.773,983.25
1652.641,948.50
1653.509,931.25
1654.376,953.75
1655.244,937.00
1656.112,953.75
1656.980,915.50
1657.847,917.00
1658.715,974.25
1659.581,961.25
1660.448,945.75
1661.316,912.75
1662.183,940.50
1663.051,919.25
1663.918,962.00
1664.783,926.50
1665.650,894.25
1666.517,918.25
1667.384,880.50
1668.251,910.50
1669.115,915.25
1669.982,947.00
1670.849,924.00
1671.715,914.50
1672.581,961.75
1673.446,907.25
1674.312,933.50
1675.178,919.00
1676.044,938.50
1676.910,958.50
1677.774,990.25
1678.639,950.50
1679.505,941.50
1680.370,936.50
1681.236,941.75
1682.099,904.25
1682.965,917.25
1683.830,940.25
1684.695,914.00
1685.560,943.75
1686.423,952.25
1687.288,957.25
1688.153,941.00
1689.017,902.25
1689.880,889.75
1690.745,907.75
1691.609,927.25
1692.473,915.75
1693.338,921.25
1694.200,912.50
1695.064,938.50
1695.928,917.75
1696.792,959.50
1697.654,932.00
1698.517,943.75
1699.381,919.25
1700.245,943.00
1701.106,983.75
1701.969,905.25
1702.833,919.75
1703.696,943.00
1704.557,899.50
1705.420,917.00
1706.283,920.00
1707.146,916.25
1708.007,888.75
1708.870,892.75
1709.732,927.75
1710.595,908.50
1711.455,930.00
1712.318,896.50
1713.180,908.25
1714.040,948.75
1714.902,945.25
1715.764,885.75
1716.626,917.25
1717.486,928.00
1718.348,920.75
1719.209,919.25
1720.071,890.25
1720.930,902.50
1721.792,929.25
1722.653,894.00
1723.512,927.75
1724.374,894.50
1725.234,938.00
1726.095,927.75
1726.954,890.50
1727.815,893.00
1728.676,917.50
1729.535,909.75
1730.395,933.25
1731.256,909.75
1732.114,922.25
1732.974,915.75
1733.834,929.75
1734.693,912.00
1735.553,929.00
1736.413,924.50
1737.272,934.75
1738.130,879.25
1738.990,881.50
1739.849,927.50
1740.707,931.50
1741.566,912.25
1742.426,904.00
1743.283,908.75
1744.142,910.25
1745.001,934.25
1745.858,922.25
1746.717,927.25
1747.576,869.00
1748.433,921.25
1749.292,900.25
1750.150,916.50
1751.007,938.00
1751.865,874.50
1752.723,925.75
1753.579,871.75
1754.438,902.25
1755.296,925.00
1756.152,917.25
1757.010,908.75
1757.865,911.50
1758.723,873.00
1759.581,950.50
1760.436,919.00
1761.294,927.00
1762.151,896.50
1763.006,895.75
1763.864,924.50
1764.721,946.75
1765.576,905.50
1766.433,914.75
1767.288,894.00
1768.144,916.75
1769.001,890.25
1769.856,926.25
1770.712,901.00
1771.568,903.25
1772.423,943.25
1773.279,909.50
1774.133,897.00
1774.989,923.50
1775.845,929.75
1776.699,893.00
1777.555,899.25
1778.409,898.50
1779.265,932.50
1780.120,908.75
1780.974,899.50
1781.829,879.00
1782.682,916.25
1783.538,887.50
1784.393,855.75
1785.246,925.75
1786.101,907.75
1786.954,913.75
1787.808,864.00
1788.661,899.75
1789.516,883.00
1790.370,883.25
1791.223,905.50
1792.077,867.00
1792.930,945.50
1793.784,920.75
1794.636,904.50
1795.490,897.50
1796.344,932.25
1797.196,895.75
1798.049,928.50
1798.901,915.50
1799.755,934.75
1800.606,903.00
1801.460,896.25
1802.311,936.75
1803.165,878.50
1804.018,896.50
1804.869,926.25
1805.722,917.75
1806.573,893.75
1807.426,894.50
1808.276,894.50
1809.129,889.75
1809.980,963.25
1810.832,890.00
1811.683,941.50
1812.535,915.75
1813.385,918.00
1814.237,895.00
1815.089,888.50
1815.940,871.50
1816.791,917.00
1817.641,875.75
1818.493,852.75
1819.343,915.50
1820.194,865.25
1821.044,884.50
1821.895,915.00
1822.745,918.50
1823.596,905.75
1824.445,874.00
1825.296,884.00
1826.145,890.50
1826.996,881.25
1827.845,892.75
1828.695,845.00
1829.544,890.75
1830.395,869.00
1831.243,907.25
1832.094,852.25
1832.942,888.50
1833.792,912.50
1834.640,871.25
1835.490,896.50
1836.338,891.00
1837.186,891.25
1838.036,869.50
1838.884,909.75
1839.733,884.00
1840.581,862.00
1841.430,904.00
1842.278,923.50
1843.127,875.00
1843.974,892.50
1844.823,898.25
1845.671,861.50
1846.519,886.50
1847.366,876.25
1848.213,900.75
1849.062,888.25
1849.909,893.25
1850.757,891.50
1851.604,924.25
1852.452,884.00
1853.298,821.25
1854.146,885.75
1854.993,885.50
1855.839,884.50
1856.687,878.75
1857.532,919.50
1858.380,859.25
1859.226,876.75
1860.073,832.75
1860.919,893.75
1861.765,882.75
1862.612,878.25
1863.457,898.25
1864.304,853.25
1865.150,860.75
1865.995,875.00
1866.842,873.25
1867.686,889.25
1868.533,898.75
1869.378,873.00
1870.223,878.00
1871.069,871.00
1871.914,925.00
1872.760,876.25
1873.604,895.50
1874.448,910.75
1875.294,857.50
1876.139,886.50
1876.984,890.75
1877.828,899.25
1878.672,917.00
1879.518,898.50
1880.361,894.50
1881.205,918.25
1882.050,898.25
1882.894,892.25
1883.739,846.50
1884.582,884.50
1885.425,882.00
1886.270,861.25
1887.113,803.00
1887.956,911.25
1888.801,883.50
1889.644,845.25
1890.486,908.25
1891.331,897.50
1892.173,889.25
1893.017,871.25
1893.860,854.25
1894.702,895.25
1895.546,881.50
1896.388,856.25
1897.230,908.25
1898.074,856.25
1898.916,863.00
1899.757,897.25
1900.601,819.75
1901.443,890.50
1902.284,849.00
1903.125,860.00
1903.969,857.75
1904.810,877.50
1905.651,851.50
1906.494,902.75
1907.335,837.25
1908.176,882.00
1909.018,871.00
1909.859,881.25
1910.700,858.75
1911.542,876.75
1912.383,887.25
1913.223,848.00
1914.064,868.00
1914.906,827.50
1915.746,921.75
1916.586,892.00
1917.428,821.25
1918.268,895.50
1919.107,882.75
1919.947,879.25
1920.789,875.75
1921.628,856.00
1922.468,899.75
1923.309,885.25
1924.148,891.00
1924.988,871.50
1925.827,811.25
1926.667,849.00
1927.507,852.75
1928.345,883.50
1929.184,827.50
1930.025,908.25
1930.864,839.75
1931.702,867.25
1932.541,878.50
1933.381,878.50
1934.219,862.75
1935.057,868.00
1935.896,890.00
1936.735,906.50
1937.573,867.00
1938.411,855.75
1939.249,883.00
1940.089,865.25
1940.927,820.50
1941.764,909.25
1942.602,903.25
1943.439,897.25
1944.278,877.00
1945.115,851.75
1945.953,901.25
1946.790,898.25
1947.628,867.75
1948.465,869.00
1949.302,870.25
1950.139,835.75
1950.976,909.75
1951.814,872.00
1952.651,903.50
1953.487,863.25
1954.323,841.00
1955.160,847.25
1955.998,858.75
1956.834,850.50
1957.670,878.25
1958.506,863.25
1959.342,877.75
1960.177,838.75
1961.015,920.50
1961.850,920.25
1962.686,835.50
1963.521,865.25
1964.357,858.50
1965.192,914.50
1966.029,843.50
1966.864,880.25
1967.699,882.75
1968.534,837.25
1969.369,885.75
1970.204,851.00
1971.040,871.00
1971.875,847.50
1972.709,896.00
1973.544,835.00
1974.378,859.25
1975.212,899.50
1976.047,868.75
1976.882,853.50
1977.716,853.50
1978.550,851.00
1979.384,864.75
1980.218,864.75
1981.052,872.25
1981.885,879.25
1982.719,908.50
1983.554,867.75
1984.388,858.00
1985.221,893.00
1986.054,848.25
1986.887,878.50
1987.720,874.75
1988.553,869.50
1989.386,863.25
1990.219,862.00
1991.053,889.50
1991.886,888.75
1992.719,858.50
1993.551,875.00
1994.383,855.75
1995.216,832.25
1996.048,859.50
1996.880,866.50
1997.712,898.25
1998.544,897.00
1999.376,887.50
2000.208,889.50
2001.040,896.75
2001.873,881.75
2002.705,851.75
2003.536,855.75
2004.367,908.00
2005.199,872.25
2006.030,844.75
2006.861,797.25
2007.692,891.25
2008.523,890.50
2009.354,884.75
2010.185,850.00
2011.016,892.00
2011.846,859.75
2012.677,886.75
2013.507,854.00
2014.338,883.75
2015.168,869.50
2015.999,865.75
2016.829,849.75
2017.659,908.50
2018.489,860.50
2019.319,889.75
2020.149,867.00
2020.980,902.00
2021.810,875.00
2022.639,882.25
2023.469,878.75
2024.298,885.75
2025.128,877.25
2025.957,907.50
2026.786,865.00
2027.615,877.00
2028.444,913.25
2029.273,882.00
2030.102,925.25
2030.931,885.75
2031.758,904.00
2032.586,923.00
2033.415,922.50
2034.243,919.00
2035.072,917.25
2035.900,878.50
2036.728,886.75
2037.556,872.50
2038.385,881.50
2039.213,935.25
2040.040,889.75
2040.868,901.00
2041.696,886.75
2042.524,895.75
2043.351,913.25
2044.179,908.00
2045.006,898.00
2045.006,898.00

Max Intensity Wave.,214.783
Max Intensity Data,5687.25
Min Intensity Wave.,2006.861
Min Intensity Data,797.25
FWHM Wave.,284.363
FWHM Value,232.31
Pressure Wave.,684.671
Pressure Value [GPa],-24.91530
G/D Ratio,0.76842
G/D Gband Wave.,1553.026
G/D Gband Intensity,1049.41
G/D Dband Wave.,1303.603
G/D Dband Intensity,1365.68

<< BACKGROUND SPECTRUM >>
Wave[dcm-1],No152
146.591,2279.00
147.626,2154.00
148.664,2098.00
149.699,2555.00
150.737,2292.00
151.772,2419.00
152.809,2457.00
153.846,2344.00
154.881,2447.00
155.918,2008.00
156.953,2339.00
157.989,2663.00
159.026,2477.00
160.060,2682.00
161.096,2921.00
162.130,2551.00
163.167,2626.00
164.200,2491.00
165.236,2701.00
166.272,2730.00
167.305,2299.00
168.341,2617.00
169.374,2838.00
170.409,2803.00
171.445,2792.00
172.477,2582.00
173.512,2450.00
174.545,2741.00
175.580,2862.00
176.614,3085.00
177.647,2861.00
178.681,3100.00
179.713,3406.00
180.747,2885.00
181.781,2739.00
182.813,3034.00
183.847,3165.00
184.878,2785.00
185.912,3039.00
186.945,3223.00
187.976,3145.00
189.010,2778.00
190.043,2875.00
191.073,2995.00
192.106,2783.00
193.137,3227.00
194.170,2617.00
195.202,3034.00
196.232,2735.00
197.265,3022.00
198.297,3127.00
199.327,2826.00
200.359,3028.00
201.388,3418.00
202.420,2960.00
203.452,3182.00
204.481,2729.00
205.512,3385.00
206.544,3080.00
207.573,3097.00
208.604,3436.00
209.635,3618.00
210.663,3023.00
211.694,3032.00
212.725,2850.00
213.753,2877.00
214.783,3437.00
215.813,3306.00
216.841,3069.00
217.871,3193.00
218.899,2946.00
219.929,3203.00
220.959,2932.00
221.986,3206.00
223.016,2814.00
224.045,3220.00
225.072,3123.00
226.101,3261.00
227.130,3273.00
228.157,2876.00
229.185,2388.00
230.214,3267.00
231.241,2842.00
232.269,2491.00
233.297,2705.00
234.323,3341.00
235.351,2882.00
236.379,3109.00
237.407,2814.00
238.433,3011.00
239.460,3163.00
240.488,3180.00
241.513,3258.00
242.540,3165.00
243.568,3314.00
244.592,3311.00
245.619,3257.00
246.646,2981.00
247.671,3018.00
248.697,2852.00
249.724,3070.00
250.748,3022.00
251.774,3058.00
252.801,3388.00
253.827,3149.00
254.850,3129.00
255.876,2756.00
256.902,3184.00
257.925,3021.00
258.951,2814.00
259.976,2862.00
260.999,3172.00
262.024,2812.00
263.049,3743.00
264.074,3180.00
265.097,3072.00
266.122,3120.00
267.146,3053.00
268.168,3290.00
269.193,2953.00
270.217,3257.00
271.241,2756.00
272.263,2959.00
273.287,3204.00
274.311,2823.00
275.332,3298.00
276.356,2893.00
277.379,3142.00
278.402,3157.00
279.424,3003.00
280.447,2952.00
281.470,2758.00
282.492,3136.00
283.513,2950.00
284.536,3231.00
285.558,3193.00
286.581,3209.00
287.601,2908.00
288.623,2865.00
289.645,3138.00
290.665,3151.00
291.687,3158.00
292.709,3160.00
293.730,3494.00
294.750,2940.00
295.771,2798.00
296.792,3133.00
297.813,2964.00
298.832,3097.00
299.853,2761.00
300.874,3053.00
301.895,3031.00
302.913,3016.00
303.934,3347.00
304.954,3075.00
305.975,3243.00
306.993,2778.00
308.013,3180.00
309.033,3042.00
310.052,2994.00
311.072,2914.00
312.090,3076.00
313.109,3317.00
314.129,3488.00
315.148,3085.00
316.165,3149.00
317.184,3285.00
318.203,2774.00
319.222,2808.00
320.238,3242.00
321.257,2887.00
322.275,2726.00
323.294,3009.00
324.312,3189.00
325.328,3332.00
326.346,3363.00
327.364,3317.00
328.382,3219.00
329.397,3179.00
330.415,3341.00
331.432,3287.00
332.450,3330.00
333.467,3506.00
334.482,2606.00
335.499,3439.00
336.516,2875.00
337.533,2649.00
338.547,2881.00
339.564,2920.00
340.580,3087.00
341.597,3007.00
342.613,3502.00
343.627,3042.00
344.643,3044.00
345.659,3131.00
346.675,3010.00
347.690,2969.00
348.704,3141.00
349.719,2932.00
350.735,2810.00
351.750,3249.00
352.765,3074.00
353.778,3026.00
354.793,3193.00
355.808,2880.00
356.822,3234.00
357.837,2684.00
358.851,3293.00
359.864,3007.00
360.878,2768.00
361.892,3021.00
362.906,3213.00
363.920,2606.00
364.932,3138.00
365.945,3153.00
366.959,3086.00
367.972,3011.00
368.986,2768.00
369.999,3413.00
371.010,2863.00
372.023,3401.00
373.036,3011.00
374.049,3461.00
375.061,3162.00
376.072,3030.00
377.084,2931.00
378.097,2727.00
379.109,3255.00
380.121,3029.00
381.133,2732.00
382.143,3206.00
383.155,2778.00
384.166,3010.00
385.178,3178.00
386.189,3257.00
387.201,2732.00
388.212,2948.00
389.221,2972.00
390.232,3041.00
391.243,2950.00
392.254,3113.00
393.264,2865.00
394.275,3305.00
395.283,3223.00
396.294,3685.00
397.304,3547.00
398.314,3171.00
399.324,3079.00
400.334,2686.00
401.344,3190.00
402.351,2727.00
403.361,3258.00
404.370,3014.00
405.380,2929.00
406.389,3421.00
407.398,3179.00
408.407,3144.00
409.414,3220.00
410.423,3382.00
411.431,2802.00
412.440,2739.00
413.448,3381.00
414.457,2965.00
415.465,2873.00
416.471,2932.00
417.479,3095.00
418.487,2867.00
419.495,3354.00
420.503,3179.00
421.510,2681.00
422.518,3222.00
423.525,3263.00
424.530,3457.00
425.537,2935.00
426.544,3278.00
427.551,2913.00
428.558,3642.00
429.565,3503.00
430.571,2911.00
431.578,2944.00
432.582,2927.00
433.588,3012.00
434.595,2679.00
435.601,3378.00
436.607,3313.00
437.612,2803.00
438.618,3420.00
439.624,3019.00
440.627,3001.00
441.633,3171.00
442.638,3687.00
443.643,3149.00
444.648,3078.00
445.653,3255.00
446.658,2915.00
447.663,3079.00
448.667,2935.00
449.672,3005.00
450.674,3007.00
451.678,2746.00
452.682,2919.00
453.687,2882.00
454.690,3682.00
455.694,3303.00
456.698,2609.00
457.702,2734.00
458.705,2808.00
459.709,2841.00
460.710,2915.00
461.713,3082.00
462.716,3109.00
463.719,3020.00
464.722,3262.00
465.725,3015.00
466.727,2860.00
467.730,3106.00
468.732,2825.00
469.735,3329.00
470.737,2942.00
471.737,2965.00
472.739,2957.00
473.741,2878.00
474.742,3103.00
475.744,3129.00
476.746,3095.00
477.747,3023.00
478.748,3200.00
479.750,2974.00
480.751,3063.00
481.752,3802.00
482.753,3191.00
483.751,3608.00
484.752,2680.00
485.753,3027.00
486.753,2921.00
487.753,3038.00
488.754,3444.00
489.754,2756.00
490.754,3402.00
491.754,3187.00
492.754,2761.00
493.753,3060.00
494.753,2945.00
495.752,3404.00
496.752,3070.00
497.749,3051.00
498.748,2889.00
499.747,3450.00
500.746,3141.00
501.745,2825.00
502.744,2766.00
503.742,3346.00
504.741,2976.00
505.739,2526.00
506.737,2967.00
507.735,3196.00
508.734,3417.00
509.732,3192.00
510.729,3388.00
511.727,2935.00
512.725,2969.00
513.720,2819.00
514.718,3296.00
515.715,2688.00
516.712,2683.00
517.709,3018.00
518.706,2931.00
519.703,3061.00
520.700,3221.00
521.696,3434.00
522.693,2957.00
523.689,2899.00
524.686,3191.00
525.682,2839.00
526.678,3493.00
527.674,2926.00
528.670,2642.00
529.666,3526.00
530.661,3511.00
531.657,3194.00
532.652,3221.00
533.648,3025.00
534.641,3293.00
535.636,3106.00
536.631,3173.00
537.626,3191.00
538.621,2790.00
539.616,2666.00
540.610,2600.00
541.605,3070.00
542.599,3127.00
543.593,2992.00
544.587,3984.00
545.581,2873.00
546.575,3045.00
547.569,3102.00
548.563,2721.00
549.557,2669.00
550.550,2786.00
551.543,2759.00
552.537,3204.00
553.530,2795.00
554.523,2810.00
555.516,3184.00
556.509,3006.00
557.502,2696.00
558.494,3222.00
559.487,2992.00
560.479,3229.00
561.472,3336.00
562.464,3200.00
563.456,3336.00
564.448,2977.00
565.440,3031.00
566.432,3429.00
567.423,2901.00
568.415,2932.00
569.404,3162.00
570.396,2847.00
571.387,3202.00
572.378,3087.00
573.369,3989.00
574.360,3744.00
575.351,3010.00
576.341,2909.00
577.332,2923.00
578.323,2718.00
579.313,2928.00
580.303,3264.00
581.293,3183.00
582.283,3019.00
583.273,3181.00
584.263,3040.00
585.253,3149.00
586.243,3198.00
587.232,2667.00
588.222,3010.00
589.211,3196.00
590.200,3095.00
591.189,3000.00
592.178,3038.00
593.167,3480.00
594.156,3341.00
595.145,2922.00
596.133,3529.00
597.122,3157.00
598.110,3260.00
599.098,3094.00
600.086,3072.00
601.074,3210.00
602.062,2898.00
603.050,2801.00
604.038,3205.00
605.025,2841.00
606.013,3237.00
607.000,3445.00
607.987,3075.00
608.975,3074.00
609.962,2839.00
610.949,3150.00
611.936,3326.00
612.922,3226.00
613.909,2749.00
614.895,3414.00
615.882,2905.00
616.868,3064.00
617.854,2797.00
618.841,3047.00
619.826,3161.00
620.812,3007.00
621.798,2853.00
622.784,3202.00
623.769,3182.00
624.755,2734.00
625.740,3123.00
626.725,2751.00
627.711,2860.00
628.698,3161.00
629.683,2845.00
630.667,3218.00
631.652,2787.00
632.637,2965.00
633.621,3211.00
634.606,2951.00
635.590,3212.00
636.574,2982.00
637.558,3102.00
638.542,3110.00
639.526,2895.00
640.510,2652.00
641.493,3089.00
642.477,3025.00
643.460,2728.00
644.444,3235.00
645.427,3341.00
646.410,2702.00
647.393,2990.00
648.376,3116.00
649.359,2935.00
650.341,3126.00
651.324,3180.00
652.307,3080.00
653.289,3008.00
654.271,2914.00
655.253,2933.00
656.235,3144.00
657.217,3296.00
658.199,2669.00
659.181,2748.00
660.163,3007.00
661.144,2936.00
662.126,2905.00
663.107,2866.00
664.088,4796.00
665.069,3282.00
666.050,2872.00
667.033,2770.00
668.014,3097.00
668.995,2640.00
669.975,3032.00
670.956,3064.00
671.936,3197.00
672.916,2995.00
673.896,3128.00
674.876,2988.00
675.856,2900.00
676.836,2791.00
677.816,2355.00
678.795,2861.00
679.775,2749.00
680.754,3092.00
681.734,3178.00
682.713,3219.00
683.692,2803.00
684.671,2662.00
685.650,2800.00
686.629,2917.00
687.607,2799.00
688.586,2791.00
689.564,2872.00
690.543,3284.00
691.523,2438.00
692.501,2902.00
693.479,2955.00
694.457,2805.00
695.435,2893.00
696.413,2681.00
697.390,2545.00
698.368,2702.00
699.345,3162.00
700.322,2966.00
701.300,3110.00
702.277,3086.00
703.254,3324.00
704.231,2588.00
705.207,2989.00
706.184,2825.00
707.161,2692.00
708.137,2889.00
709.113,2836.00
710.090,2847.00
711.068,2623.00
712.044,2608.00
713.020,2907.00
713.996,2652.00
714.971,2851.00
715.947,2862.00
716.922,2825.00
717.898,2791.00
718.873,2904.00
719.848,2751.00
720.823,2717.00
721.798,2966.00
722.773,2730.00
723.748,2560.00
724.723,3071.00
725.697,2883.00
726.672,2781.00
727.646,2520.00
728.622,2996.00
729.596,2655.00
730.570,2782.00
731.544,3107.00
732.518,3313.00
733.492,2865.00
734.466,2915.00
735.439,3041.00
736.413,3134.00
737.386,2519.00
738.359,2470.00
739.332,2570.00
740.305,2890.00
741.278,3356.00
742.251,2942.00
743.224,2757.00
744.196,2608.00
745.171,3196.00
746.143,3052.00
747.115,2753.00
748.087,2771.00
749.059,3152.00
750.031,2893.00
751.003,3741.00
751.975,3303.00
752.947,2734.00
753.918,3137.00
754.890,2646.00
755.861,2826.00
756.832,3079.00
757.803,2848.00
758.774,2886.00
759.747,2641.00
760.718,3261.00
761.689,2794.00
762.659,2608.00
763.630,3196.00
764.600,2591.00
765.570,3107.00
766.540,3157.00
767.510,2977.00
768.480,3068.00
769.450,2766.00
770.420,2834.00
771.390,2702.00
772.359,2754.00
773.329,2685.00
774.300,2556.00
775.269,2764.00
776.238,2989.00
777.207,3209.00
778.176,2558.00
779.145,2848.00
780.114,2680.00
781.083,2610.00
782.051,2791.00
783.019,2717.00
783.988,3132.00
784.956,2909.00
785.924,2996.00
786.894,2927.00
787.862,2714.00
788.830,3152.00
789.797,2675.00
790.765,2624.00
791.732,2810.00
792.700,2672.00
793.667,2625.00
794.634,2819.00
795.601,2769.00
796.568,2828.00
797.535,2833.00
798.502,3458.00
799.468,2939.00
800.437,2451.00
801.403,2716.00
802.370,3330.00
803.336,3004.00
804.302,2895.00
805.268,2459.00
806.234,2608.00
807.200,2809.00
808.166,2804.00
809.131,2614.00
810.097,2998.00
811.062,3692.00
812.027,3015.00
812.994,2601.00
813.960,2664.00
814.925,3004.00
815.889,2540.00
816.854,3067.00
817.819,2750.00
818.783,2756.00
819.748,3125.00
820.712,2781.00
821.677,2654.00
822.641,2740.00
823.605,2769.00
824.571,3162.00
825.534,2799.00
826.498,2704.00
827.462,2845.00
828.425,2655.00
829.389,3088.00
830.352,2830.00
831.315,2945.00
832.279,2527.00
833.242,2787.00
834.204,2696.00
835.167,2684.00
836.132,3103.00
837.095,2562.00
838.057,2723.00
839.020,2840.00
839.982,2897.00
840.944,2711.00
841.906,2677.00
842.868,2974.00
843.830,2581.00
844.792,3091.00
845.753,2747.00
846.715,2494.00
847.679,2601.00
848.640,2642.00
849.601,2818.00
850.562,3318.00
851.523,2732.00
852.484,2538.00
853.445,3033.00
854.406,2705.00
855.367,2772.00
856.327,3093.00
857.288,2501.00
858.248,2687.00
859.210,2746.00
860.170,2557.00
861.130,3050.00
862.090,2462.00
863.050,2638.00
864.010,2716.00
864.969,2942.00
865.929,2600.00
866.888,2541.00
867.848,2832.00
868.807,2688.00
869.766,2917.00
870.727,2749.00
871.686,3050.00
872.645,3040.00
873.604,3332.00
874.562,2799.00
875.521,2819.00
876.479,3369.00
877.437,2637.00
878.396,2613.00
879.354,3186.00
880.312,2651.00
881.270,2679.00
882.229,3210.00
883.187,2650.00
884.145,2705.00
885.102,2991.00
886.059,2883.00
887.017,2928.00
887.974,2968.00
888.931,3082.00
889.888,2523.00
890.845,2462.00
891.802,2373.00
892.758,2644.00
893.717,2484.00
894.673,2615.00
895.630,2693.00
896.586,2959.00
897.542,2684.00
898.498,2581.00
899.454,2899.00
900.410,2698.00
901.366,2675.00
902.321,3817.00
903.277,2723.00
904.232,2779.00
905.189,2557.00
906.145,2658.00
907.100,2238.00
908.055,2763.00
909.010,2962.00
909.965,2362.00
910.919,2820.00
911.874,2585.00
912.828,2803.00
913.783,2816.00
914.737,2380.00
915.693,2793.00
916.648,2923.00
917.602,3015.00
918.555,2817.00
919.509,2837.00
920.463,2783.00
921.417,2806.00
922.370,2619.00
923.324,2743.00
924.277,2723.00
925.230,2779.00
926.183,2413.00
927.138,2747.00
928.091,3019.00
929.044,2851.00
929.996,2694.00
930.949,2618.00
931.902,2827.00
932.854,2867.00
933.806,2583.00
934.758,2980.00
935.711,3049.00
936.663,2815.00
937.614,2807.00
938.568,2730.00
939.520,2413.00
940.471,2731.00
941.423,2826.00
942.374,2899.00
943.326,2753.00
944.277,2650.00
945.228,2874.00
946.179,2745.00
947.130,3066.00
948.080,2694.00
949.031,2569.00
949.984,2716.00
950.934,2750.00
951.884,2493.00
952.835,2756.00
953.785,2787.00
954.735,2624.00
955.685,2400.00
956.635,2663.00
957.585,2684.00
958.534,2655.00
959.484,2785.00
960.433,2652.00
961.383,2491.00
962.334,2996.00
963.283,2818.00
964.232,2879.00
965.181,2785.00
966.130,2822.00
967.079,2681.00
968.027,2760.00
968.976,2771.00
969.924,2631.00
970.873,2805.00
971.821,2750.00
972.769,2929.00
973.719,2874.00
974.667,2491.00
975.615,2771.00
976.562,2765.00
977.510,2459.00
978.458,2648.00
979.405,2854.00
980.352,2755.00
981.300,3003.00
982.247,2850.00
983.194,2577.00
984.141,2628.00
985.088,2746.00
986.036,2806.00
986.983,3073.00
987.930,3166.00
988.876,2404.00
989.822,2996.00
990.769,2608.00
991.715,2631.00
992.661,2460.00
993.607,2832.00
994.553,3325.00
995.498,2617.00
996.444,2286.00
997.389,2808.00
998.337,2569.00
999.282,2862.00
1000.227,2678.00
1001.173,2713.00
1002.118,2493.00
1003.062,2911.00
1004.007,2713.00
1004.952,3009.00
1005.897,2954.00
1006.841,2763.00
1007.786,2474.00
1008.730,2463.00
1009.674,3166.00
1010.618,2680.00
1011.564,2502.00
1012.508,2417.00
1013.452,2983.00
1014.396,2769.00
1015.339,2621.00
1016.283,2712.00
1017.226,2758.00
1018.170,2751.00
1019.113,2946.00
1020.056,2731.00
1020.999,2748.00
1021.942,2648.00
1022.885,2902.00
1023.828,3033.00
1024.770,2538.00
1025.715,2764.00
1026.657,2729.00
1027.600,2796.00
1028.542,2970.00
1029.484,2792.00
1030.426,2864.00
1031.368,2819.00
1032.310,2604.00
1033.251,2537.00
1034.193,2736.00
1035.135,2517.00
1036.076,2655.00
1037.017,2576.00
1037.959,2859.00
1038.900,2737.00
1039.843,2807.00
1040.784,2766.00
1041.725,2841.00
1042.665,2646.00
1043.606,2802.00
1044.547,2762.00
1045.487,2361.00
1046.427,2703.00
1047.368,2780.00
1048.308,2252.00
1049.248,2596.00
1050.188,2738.00
1051.128,2627.00
1052.067,2669.00
1053.007,2425.00
1053.947,2420.00
1054.886,2633.00
1055.827,2486.00
1056.766,2994.00
1057.706,2482.00
1058.645,2696.00
1059.584,2762.00
1060.522,3005.00
1061.461,2452.00
1062.400,2476.00
1063.338,2629.00
1064.277,2553.00
1065.215,2558.00
1066.154,2408.00
1067.092,2592.00
1068.030,2663.00
1068.968,2874.00
1069.906,3080.00
1070.843,3000.00
1071.781,2769.00
1072.720,2855.00
1073.658,2805.00
1074.595,2653.00
1075.533,2573.00
1076.470,2611.00
1077.407,3002.00
1078.344,2787.00
1079.281,2854.00
1080.217,2327.00
1081.154,2666.00
1082.091,2753.00
1083.027,2478.00
1083.964,2952.00
1084.900,2594.00
1085.836,2621.00
1086.772,2922.00
1087.708,2464.00
1088.644,2828.00
1089.580,2693.00
1090.515,2783.00
1091.451,2644.00
1092.388,2724.00
1093.324,2496.00
1094.259,3267.00
1095.194,2750.00
1096.129,2652.00
1097.064,2601.00
1097.999,2864.00
1098.934,2562.00
1099.869,2545.00
1100.803,2761.00
1101.738,2750.00
1102.672,2412.00
1103.607,2809.00
1104.541,2575.00
1105.475,2546.00
1106.409,2412.00
1107.343,2612.00
1108.277,2459.00
1109.210,2738.00
1110.144,2721.00
1111.078,2688.00
1112.011,2465.00
1112.944,2787.00
1113.878,2712.00
1114.811,2182.00
1115.744,2624.00
1116.678,2299.00
1117.611,2602.00
1118.544,2613.00
1119.477,2796.00
1120.409,2556.00
1121.342,3150.00
1122.274,2765.00
1123.206,4206.00
1124.138,2696.00
1125.070,3048.00
1126.002,2861.00
1126.934,2286.00
1127.866,2588.00
1128.798,2324.00
1129.729,2385.00
1130.661,2659.00
1131.592,2600.00
1132.523,2772.00
1133.454,2777.00
1134.385,2327.00
1135.317,2670.00
1136.247,2589.00
1137.178,2900.00
1138.109,2419.00
1139.039,3018.00
1139.970,2868.00
1140.900,2610.00
1141.831,2376.00
1142.761,2251.00
1143.691,3325.00
1144.621,2657.00
1145.551,2725.00
1146.480,2732.00
1147.410,2858.00
1148.340,2350.00
1149.269,2354.00
1150.199,2607.00
1151.128,3085.00
1152.057,2441.00
1152.979,2589.00
1153.898,2629.00
1154.819,2806.00
1155.739,2646.00
1156.658,2571.00
1157.579,2714.00
1158.498,2663.00
1159.419,2201.00
1160.338,2665.00
1161.256,2727.00
1162.177,2512.00
1163.095,2630.00
1164.016,2690.00
1164.934,2931.00
1165.852,2874.00
1166.772,2644.00
1167.690,2685.00
1168.610,2732.00
1169.528,2647.00
1170.446,2228.00
1171.365,2597.00
1172.283,2542.00
1173.202,2660.00
1174.120,2655.00
1175.037,2480.00
1175.956,2490.00
1176.873,2545.00
1177.792,2557.00
1178.709,3151.00
1179.626,2553.00
1180.544,2836.00
1181.461,2543.00
1182.379,2707.00
1183.296,2682.00
1184.212,2303.00
1185.130,2476.00
1186.046,3031.00
1186.962,2654.00
1187.880,2944.00
1188.796,2710.00
1189.714,2437.00
1190.629,2830.00
1191.545,2745.00
1192.462,2581.00
1193.378,2625.00
1194.295,2363.00
1195.210,2692.00
1196.125,2806.00
1197.042,2687.00
1197.957,2631.00
1198.872,2539.00
1199.788,2561.00
1200.703,2981.00
1201.619,2647.00
1202.534,2503.00
1203.448,2698.00
1204.364,2631.00
1205.278,2319.00
1206.192,2703.00
1207.108,3163.00
1208.022,3028.00
1208.938,2491.00
1209.851,2790.00
1210.765,2875.00
1211.680,2562.00
1212.594,2440.00
1213.507,2598.00
1214.422,3048.00
1215.335,2754.00
1216.248,2588.00
1217.163,2664.00
1218.076,3257.00
1218.990,2793.00
1219.903,2456.00
1220.816,2465.00
1221.730,2593.00
1222.642,2510.00
1223.554,2559.00
1224.469,2753.00
1225.380,2598.00
1226.292,2278.00
1227.206,2789.00
1228.118,2986.00
1229.032,2250.00
1229.943,2541.00
1230.855,2597.00
1231.768,2426.00
1232.679,2764.00
1233.590,2665.00
1234.503,2859.00
1235.414,2495.00
1236.325,2536.00
1237.238,2752.00
1238.149,2710.00
1239.059,2471.00
1239.972,2843.00
1240.882,2480.00
1241.793,2777.00
1242.705,2980.00
1243.615,2658.00
1244.525,2751.00
1245.437,2233.00
1246.347,2686.00
1247.259,2825.00
1248.168,3104.00
1249.078,2887.00
1249.989,2919.00
1250.899,2449.00
1251.808,2530.00
1252.719,2589.00
1253.628,2491.00
1254.537,2971.00
1255.448,2466.00
1256.357,2493.00
1257.266,2659.00
1258.176,2358.00
1259.085,2390.00
1259.993,2448.00
1260.904,2483.00
1261.812,2494.00
1262.720,3196.00
1263.630,2768.00
1264.538,2528.00
1265.446,2783.00
1266.356,2625.00
1267.263,2940.00
1268.171,2437.00
1269.080,2700.00
1269.988,2866.00
1270.895,2578.00
1271.804,2588.00
1272.711,2810.00
1273.619,2796.00
1274.527,2449.00
1275.434,2760.00
1276.341,2444.00
1277.248,2685.00
1278.156,2925.00
1279.063,2538.00
1279.969,2745.00
1280.877,3536.00
1281.783,2859.00
1282.690,2734.00
1283.598,2580.00
1284.503,2506.00
1285.409,2441.00
1286.317,2991.00
1287.223,3057.00
1288.128,2701.00
1289.036,2545.00
1289.941,2570.00
1290.846,2659.00
1291.751,2506.00
1292.658,2567.00
1293.563,3078.00
1294.468,2701.00
1295.375,2798.00
1296.280,2901.00
1297.184,3363.00
1298.091,2745.00
1298.995,2826.00
1299.900,3049.00
1300.806,2567.00
1301.710,2411.00
1302.614,2227.00
1303.518,2884.00
1304.424,2583.00
1305.327,2850.00
1306.231,2675.00
1307.137,2806.00
1308.040,2708.00
1308.943,2691.00
1309.847,2892.00
1310.752,2846.00
1311.655,2309.00
1312.558,2453.00
1313.463,2578.00
1314.366,2544.00
1315.269,2673.00
1316.171,2635.00
1317.076,2558.00
1317.978,2480.00
1318.881,2237.00
1319.785,2498.00
1320.687,2534.00
1321.589,2284.00
1322.491,2488.00
1323.395,2726.00
1324.297,3216.00
1325.198,2792.00
1326.102,2473.00
1327.004,2496.00
1327.905,3065.00
1328.806,2621.00
1329.709,2721.00
1330.611,2566.00
1331.512,2473.00
1332.413,3090.00
1333.316,2691.00
1334.216,2799.00
1335.117,2392.00
1336.020,2718.00
1336.920,2668.00
1337.821,2518.00
1338.721,2922.00
1339.623,2673.00
1340.523,2597.00
1341.423,2516.00
1342.323,2908.00
1343.225,2748.00
1344.125,2479.00
1345.025,2535.00
1345.924,2289.00
1346.826,2992.00
1347.725,3052.00
1348.624,2843.00
1349.524,2531.00
1350.425,2582.00
1351.324,2765.00
1352.223,2785.00
1353.121,2607.00
1354.022,2863.00
1354.921,3072.00
1355.819,2787.00
1356.718,2695.00
1357.618,2363.00
1358.516,2762.00
1359.415,3056.00
1360.313,2746.00
1361.213,2619.00
1362.111,2962.00
1363.008,3308.00
1363.906,2632.00
1364.806,2685.00
1365.703,2775.00
1366.601,2504.00
1367.498,2453.00
1368.397,2857.00
1369.295,2715.00
1370.192,2458.00
1371.089,2741.00
1371.987,2675.00
1372.884,2871.00
1373.781,2463.00
1374.678,2637.00
1375.574,2527.00
1376.473,2763.00
1377.369,2846.00
1378.265,2515.00
1379.161,2631.00
1380.059,2366.00
1380.955,2766.00
1381.851,2412.00
1382.747,2535.00
1383.643,2602.00
1384.540,2433.00
1385.436,2540.00
1386.331,2717.00
1387.227,2807.00
1388.124,2780.00
1389.019,2466.00
1389.914,2637.00
1390.809,2314.00
1391.704,3074.00
1392.601,2588.00
1393.495,2928.00
1394.390,2806.00
1395.285,2884.00
1396.179,2764.00
1397.075,2648.00
1397.969,2724.00
1398.864,2352.00
1399.758,2609.00
1400.652,2688.00
1401.547,2488.00
1402.441,2456.00
1403.335,3013.00
1404.229,2787.00
1405.122,2728.00
1406.017,2616.00
1406.911,2813.00
1407.804,3079.00
1408.697,2622.00
1409.590,2509.00
1410.485,2848.00
1411.378,2727.00
1412.271,2355.00
1413.163,2697.00
1414.056,2806.00
1414.949,3040.00
1415.843,2730.00
1416.735,2599.00
1417.627,2651.00
1418.520,2649.00
1419.412,2884.00
1420.306,2852.00
1421.197,2926.00
1422.089,2882.00
1422.981,3119.00
1423.873,2833.00
1424.764,2773.00
1425.657,2677.00
1426.549,2789.00
1427.440,2874.00
1428.331,2574.00
1429.222,2371.00
1430.113,2718.00
1431.006,2871.00
1431.897,2557.00
1432.787,2685.00
1433.678,2567.00
1434.568,2465.00
1435.459,2855.00
1436.351,2830.00
1437.241,2798.00
1438.131,2818.00
1439.021,2418.00
1439.911,2650.00
1440.801,2748.00
1441.693,2853.00
1442.583,2697.00
1443.472,2649.00
1444.362,2784.00
1445.251,2661.00
1446.140,2559.00
1447.030,2870.00
1447.921,2847.00
1448.810,2509.00
1449.699,3043.00
1450.588,2714.00
1451.476,2569.00
1452.365,2746.00
1453.254,2546.00
1454.144,2559.00
1455.032,2816.00
1455.921,2410.00
1456.809,2925.00
1457.697,2480.00
1458.585,2591.00
1459.473,2600.00
1460.361,2537.00
1461.251,2738.00
1462.138,2721.00
1463.026,2622.00
1463.913,2940.00
1464.801,2595.00
1465.688,2780.00
1466.575,2679.00
1467.463,3125.00
1468.351,2548.00
1469.238,2626.00
1470.125,2293.00
1471.012,2722.00
1471.899,2738.00
1472.785,2488.00
1473.672,2668.00
1474.558,2935.00
1475.446,2813.00
1476.333,2860.00
1477.219,2508.00
1478.105,2640.00
1478.991,2658.00
1479.877,2975.00
1480.762,2700.00
1481.648,2537.00
1482.534,2837.00
1483.419,2729.00
1484.307,2827.00
1485.192,2676.00
1486.077,2502.00
1486.962,2535.00
1487.847,2407.00
1488.732,2510.00
1489.617,2705.00
1490.502,2912.00
1491.387,2859.00
1492.271,2535.00
1493.156,2513.00
1494.042,2510.00
1494.927,2896.00
1495.811,2578.00
1496.695,2798.00
1497.579,3014.00
1498.463,2697.00
1499.347,2713.00
1500.231,2725.00
1501.114,2732.00
1501.998,2953.00
1502.881,2750.00
1503.765,2966.00
1504.648,3095.00
1505.533,2808.00
1506.417,2690.00
1507.300,2648.00
1508.183,2745.00
1509.066,2182.00
1509.948,2912.00
1510.831,3060.00
1511.714,2472.00
1512.596,2823.00
1513.479,2928.00
1514.361,2876.00
1515.243,2729.00
1516.125,2825.00
1517.008,2967.00
1517.890,2648.00
1518.771,2712.00
1519.655,2930.00
1520.537,2666.00
1521.419,2494.00
1522.300,2760.00
1523.182,2817.00
1524.063,2828.00
1524.944,2961.00
1525.825,2848.00
1526.707,2472.00
1527.588,2478.00
1528.468,2757.00
1529.349,2375.00
1530.230,2616.00
1531.111,2840.00
1531.991,2752.00
1532.872,2407.00
1533.752,2635.00
1534.632,2556.00
1535.513,2536.00
1536.393,2804.00
1537.273,3038.00
1538.153,3314.00
1539.032,2464.00
1539.912,2665.00
1540.792,2737.00
1541.672,2729.00
1542.551,2812.00
1543.430,3260.00
1544.310,2726.00
1545.189,2594.00
1546.068,3139.00
1546.947,2764.00
1547.826,3017.00
1548.705,2684.00
1549.584,2897.00
1550.462,2643.00
1551.341,2868.00
1552.219,2758.00
1553.098,2780.00
1553.976,2927.00
1554.854,3122.00
1555.733,2896.00
1556.611,2644.00
1557.489,2497.00
1558.367,2695.00
1559.244,2857.00
1560.122,2676.00
1561.000,2740.00
1561.877,3015.00
1562.755,2566.00
1563.632,2678.00
1564.509,3004.00
1565.386,3029.00
1566.264,2447.00
1567.141,2297.00
1568.017,2833.00
1568.894,2680.00
1569.771,2775.00
1570.648,2810.00
1571.524,2722.00
1572.401,2451.00
1573.277,2465.00
1574.153,2743.00
1575.029,2576.00
1575.906,3405.00
1576.781,2870.00
1577.657,2651.00
1578.533,2970.00
1579.409,2348.00
1580.285,2675.00
1581.160,3132.00
1582.036,2859.00
1582.911,2560.00
1583.786,3096.00
1584.662,2474.00
1585.537,2661.00
1586.412,2747.00
1587.287,2560.00
1588.160,2857.00
1589.035,2345.00
1589.909,2734.00
1590.784,2670.00
1591.658,2493.00
1592.533,2775.00
1593.407,2731.00
1594.281,2609.00
1595.155,3117.00
1596.029,2623.00
1596.903,2658.00
1597.777,2623.00
1598.651,2930.00
1599.525,2402.00
1600.398,2722.00
1601.272,2661.00
1602.144,3262.00
1603.017,2661.00
1603.890,2949.00
1604.763,2797.00
1605.636,2854.00
1606.509,2416.00
1607.382,2539.00
1608.255,2826.00
1609.128,2891.00
1610.000,2641.00
1610.873,2396.00
1611.746,2590.00
1612.616,2640.00
1613.488,2310.00
1614.361,2682.00
1615.233,2652.00
1616.105,2884.00
1616.977,2632.00
1617.849,2544.00
1618.720,3037.00
1619.592,3008.00
1620.464,2825.00
1621.333,3160.00
1622.205,2693.00
1623.076,2687.00
1623.947,2693.00
1624.818,2943.00
1625.689,2829.00
1626.560,2651.00
1627.431,2746.00
1628.302,3074.00
1629.171,2843.00
1630.042,3039.00
1630.912,3362.00
1631.782,3305.00
1632.653,2536.00
1633.523,2867.00
1634.393,2954.00
1635.263,2597.00
1636.131,2686.00
1637.001,2641.00
1637.871,2350.00
1638.741,2321.00
1639.611,2446.00
1640.480,2808.00
1641.350,2594.00
1642.219,2528.00
1643.087,2231.00
1643.956,3132.00
1644.825,2976.00
1645.694,2897.00
1646.563,2848.00
1647.432,2750.00
1648.299,2721.00
1649.167,2865.00
1650.036,2539.00
1650.904,2849.00
1651.773,2881.00
1652.641,2718.00
1653.509,2907.00
1654.376,2582.00
1655.244,2746.00
1656.112,2738.00
1656.980,2740.00
1657.847,2591.00
1658.715,2868.00
1659.581,2613.00
1660.448,2937.00
1661.316,2221.00
1662.183,2742.00
1663.051,2760.00
1663.918,2730.00
1664.783,2722.00
1665.650,2843.00
1666.517,2885.00
1667.384,2784.00
1668.251,2776.00
1669.115,2952.00
1669.982,2666.00
1670.849,2994.00
1671.715,2708.00
1672.581,2820.00
1673.446,2848.00
1674.312,2765.00
1675.178,3140.00
1676.044,2809.00
1676.910,2772.00
1677.774,2701.00
1678.639,2366.00
1679.505,2704.00
1680.370,2846.00
1681.236,3324.00
1682.099,2674.00
1682.965,2740.00
1683.830,2329.00
1684.695,2529.00
1685.560,2633.00
1686.423,2840.00
1687.288,2829.00
1688.153,2751.00
1689.017,2679.00
1689.880,2834.00
1690.745,2868.00
1691.609,2546.00
1692.473,2875.00
1693.338,2939.00
1694.200,3021.00
1695.064,2732.00
1695.928,2629.00
1696.792,2718.00
1697.654,3206.00
1698.517,2722.00
1699.381,2452.00
1700.245,2367.00
1701.106,2957.00
1701.969,2605.00
1702.833,2856.00
1703.696,2604.00
1704.557,2726.00
1705.420,2598.00
1706.283,2750.00
1707.146,2864.00
1708.007,2545.00
1708.870,2536.00
1709.732,2404.00
1710.595,2625.00
1711.455,2489.00
1712.318,2651.00
1713.180,3008.00
1714.040,2757.00
1714.902,2891.00
1715.764,2750.00
1716.626,2510.00
1717.486,2677.00
1718.348,2975.00
1719.209,4083.00
1720.071,2408.00
1720.930,2476.00
1721.792,2567.00
1722.653,2570.00
1723.512,2606.00
1724.374,2684.00
1725.234,2765.00
1726.095,2731.00
1726.954,2741.00
1727.815,2884.00
1728.676,2668.00
1729.535,2935.00
1730.395,2679.00
1731.256,2643.00
1732.114,2777.00
1732.974,2205.00
1733.834,3075.00
1734.693,2894.00
1735.553,2735.00
1736.413,3119.00
1737.272,2599.00
1738.130,2690.00
1738.990,2809.00
1739.849,2591.00
1740.707,3726.00
1741.566,2746.00
1742.426,2776.00
1743.283,3134.00
1744.142,2611.00
1745.001,2385.00
1745.858,2905.00
1746.717,2785.00
1747.576,2865.00
1748.433,2887.00
1749.292,3318.00
1750.150,3334.00
1751.007,2895.00
1751.865,2958.00
1752.723,2738.00
1753.579,2689.00
1754.438,2960.00
1755.296,2938.00
1756.152,2260.00
1757.010,2424.00
1757.865,2938.00
1758.723,2404.00
1759.581,3033.00
1760.436,2692.00
1761.294,3060.00
1762.151,2744.00
1763.006,2653.00
1763.864,2391.00
1764.721,2893.00
1765.576,2757.00
1766.433,2901.00
1767.288,2643.00
1768.144,2779.00
1769.001,2695.00
1769.856,2811.00
1770.712,2954.00
1771.568,2518.00
1772.423,2619.00
1773.279,2623.00
1774.133,2635.00
1774.989,3121.00
1775.845,3104.00
1776.699,3014.00
1777.555,2722.00
1778.409,3263.00
1779.265,2655.00
1780.120,2689.00
1780.974,2729.00
1781.829,2348.00
1782.682,2790.00
1783.538,2594.00
1784.393,2806.00
1785.246,2630.00
1786.101,2804.00
1786.954,2844.00
1787.808,2972.00
1788.661,2460.00
1789.516,2668.00
1790.370,2672.00
1791.223,2924.00
1792.077,2761.00
1792.930,2777.00
1793.784,2584.00
1794.636,2741.00
1795.490,2709.00
1796.344,2734.00
1797.196,2706.00
1798.049,2888.00
1798.901,2619.00
1799.755,2934.00
1800.606,2540.00
1801.460,3281.00
1802.311,3000.00
1803.165,3175.00
1804.018,3088.00
1804.869,2793.00
1805.722,3170.00
1806.573,2781.00
1807.426,2566.00
1808.276,2729.00
1809.129,2618.00
1809.980,2893.00
1810.832,2994.00
1811.683,2637.00
1812.535,3066.00
1813.385,2656.00
1814.237,3023.00
1815.089,2789.00
1815.940,3022.00
1816.791,2677.00
1817.641,2612.00
1818.493,2911.00
1819.343,2786.00
1820.194,2632.00
1821.044,2866.00
1821.895,2945.00
1822.745,2450.00
1823.596,2645.00
1824.445,3153.00
1825.296,2841.00
1826.145,2695.00
1826.996,2944.00
1827.845,2771.00
1828.695,2830.00
1829.544,2758.00
1830.395,2818.00
1831.243,2660.00
1832.094,2511.00
1832.942,3340.00
1833.792,2853.00
1834.640,2828.00
1835.490,2740.00
1836.338,2803.00
1837.186,2641.00
1838.036,2626.00
1838.884,2724.00
1839.733,3077.00
1840.581,2951.00
1841.430,2871.00
1842.278,3060.00
1843.127,2649.00
1843.974,2426.00
1844.823,3142.00
1845.671,2911.00
1846.519,2776.00
1847.366,2838.00
1848.213,2364.00
1849.062,2552.00
1849.909,2471.00
1850.757,3393.00
1851.604,2833.00
1852.452,2660.00
1853.298,2981.00
1854.146,2794.00
1854.993,2798.00
1855.839,3262.00
1856.687,2865.00
1857.532,2842.00
1858.380,2768.00
1859.226,2824.00
1860.073,2917.00
1860.919,2574.00
1861.765,2644.00
1862.612,3005.00
1863.457,2953.00
1864.304,2714.00
1865.150,2888.00
1865.995,2720.00
1866.842,2878.00
1867.686,2987.00
1868.533,2801.00
1869.378,2809.00
1870.223,2784.00
1871.069,2677.00
1871.914,2755.00
1872.760,2762.00
1873.604,2534.00
1874.448,2881.00
1875.294,2943.00
1876.139,2623.00
1876.984,2896.00
1877.828,2393.00
1878.672,2250.00
1879.518,2619.00
1880.361,2918.00
1881.205,2896.00
1882.050,2554.00
1882.894,3257.00
1883.739,2638.00
1884.582,2504.00
1885.425,2572.00
1886.270,3013.00
1887.113,2567.00
1887.956,2845.00
1888.801,2817.00
1889.644,2597.00
1890.486,2339.00
1891.331,2678.00
1892.173,2803.00
1893.017,2843.00
1893.860,3063.00
1894.702,3038.00
1895.546,2777.00
1896.388,3475.00
1897.230,3114.00
1898.074,2686.00
1898.916,2549.00
1899.757,2575.00
1900.601,3446.00
1901.443,3056.00
1902.284,3072.00
1903.125,3243.00
1903.969,2982.00
1904.810,3001.00
1905.651,2868.00
1906.494,3061.00
1907.335,3255.00
1908.176,2876.00
1909.018,2855.00
1909.859,2721.00
1910.700,2638.00
1911.542,3267.00
1912.383,2840.00
1913.223,2418.00
1914.064,2919.00
1914.906,3088.00
1915.746,3067.00
1916.586,3209.00
1917.428,2808.00
1918.268,2770.00
1919.107,2656.00
1919.947,2530.00
1920.789,2702.00
1921.628,3033.00
1922.468,2757.00
1923.309,2617.00
1924.148,3077.00
1924.988,2844.00
1925.827,2787.00
1926.667,2674.00
1927.507,2830.00
1928.345,2603.00
1929.184,2961.00
1930.025,2570.00
1930.864,3037.00
1931.702,3080.00
1932.541,2678.00
1933.381,2902.00
1934.219,2933.00
1935.057,3086.00
1935.896,2477.00
1936.735,2713.00
1937.573,2676.00
1938.411,2574.00
1939.249,2928.00
1940.089,2667.00
1940.927,3071.00
1941.764,3045.00
1942.602,2681.00
1943.439,2661.00
1944.278,2743.00
1945.115,2727.00
1945.953,2502.00
1946.790,2835.00
1947.628,3118.00
1948.465,2891.00
1949.302,2911.00
1950.139,2932.00
1950.976,2642.00
1951.814,2929.00
1952.651,2791.00
1953.487,2583.00
1954.323,3056.00
1955.160,2769.00
1955.998,3154.00
1956.834,2782.00
1957.670,2855.00
1958.506,3013.00
1959.342,2875.00
1960.177,2852.00
1961.015,2877.00
1961.850,2795.00
1962.686,2830.00
1963.521,2827.00
1964.357,3077.00
1965.192,2510.00
1966.029,2947.00
1966.864,2696.00
1967.699,2998.00
1968.534,2842.00
1969.369,3040.00
1970.204,2766.00
1971.040,2821.00
1971.875,2745.00
1972.709,2800.00
1973.544,2645.00
1974.378,2677.00
1975.212,2875.00
1976.047,2667.00
1976.882,2668.00
1977.716,3178.00
1978.550,2487.00
1979.384,2746.00
1980.218,2742.00
1981.052,2708.00
1981.885,2812.00
1982.719,2758.00
1983.554,2945.00
1984.388,3112.00
1985.221,2844.00
1986.054,3036.00
1986.887,2824.00
1987.720,2639.00
1988.553,3089.00
1989.386,2889.00
1990.219,2924.00
1991.053,3076.00
1991.886,2659.00
1992.719,3002.00
1993.551,2323.00
1994.383,2929.00
1995.216,2744.00
1996.048,2531.00
1996.880,2961.00
1997.712,2627.00
1998.544,2758.00
1999.376,2845.00
2000.208,3062.00
2001.040,3215.00
2001.873,2602.00
2002.705,2613.00
2003.536,2854.00
2004.367,2820.00
2005.199,2846.00
2006.030,2717.00
2006.861,2635.00
2007.692,2797.00
2008.523,2649.00
2009.354,2813.00
2010.185,2623.00
2011.016,2934.00
2011.846,2998.00
2012.677,2731.00
2013.507,3147.00
2014.338,3038.00
2015.168,2717.00
2015.999,3320.00
2016.829,2770.00
2017.659,2987.00
2018.489,3336.00
2019.319,2615.00
2020.149,2997.00
2020.980,2801.00
2021.810,2575.00
2022.639,2692.00
2023.469,2699.00
2024.298,2490.00
2025.128,2419.00
2025.957,2370.00
2026.786,2252.00
2027.615,2431.00
2028.444,2632.00
2029.273,2814.00
2030.102,2385.00
2030.931,2644.00
2031.758,2903.00
2032.586,2568.00
2033.415,2660.00
2034.243,2255.00
2035.072,2037.00
2035.900,2542.00
2036.728,2380.00
2037.556,2436.00
2038.385,2430.00
2039.213,2227.00
2040.040,2232.00
2040.868,2176.00
2041.696,2261.00
2042.524,2264.00
2043.351,2447.00
2044.179,2245.00
2045.006,2041.00
