RamanScope Measure Spectrum Data V3.72

<< MEASURE CONDITION >>
Exposure Type,Aver
Exposure Time [sec],15
Exposure Count,4
Measure Time,2023/07/15 15:27:50
Data Name,""
Data Comment,""
Rayleigh Wave[nm],532.0

<< SAMPLE SPECTRUM >>
Wave[dcm-1],No140
146.591,477.50
147.626,545.50
148.664,634.00
149.699,721.50
150.737,823.75
151.772,953.75
152.809,1022.50
153.846,1147.25
154.881,1171.00
155.918,1180.75
156.953,1261.75
157.989,1338.50
159.026,1336.75
160.060,1366.25
161.096,1403.00
162.130,1441.75
163.167,1516.50
164.200,1490.75
165.236,1484.75
166.272,1549.50
167.305,1647.25
168.341,1600.50
169.374,1633.50
170.409,1675.25
171.445,1719.75
172.477,1723.00
173.512,1740.25
174.545,1737.25
175.580,1765.00
176.614,1779.00
177.647,1752.50
178.681,1824.00
179.713,1738.25
180.747,1720.50
181.781,1811.75
182.813,1782.00
183.847,1756.50
184.878,1748.00
185.912,1731.75
186.945,1777.50
187.976,1797.75
189.010,1833.75
190.043,1794.75
191.073,1867.00
192.106,1851.25
193.137,1891.00
194.170,1917.50
195.202,1919.75
196.232,1946.75
197.265,1998.75
198.297,2075.25
199.327,2074.50
200.359,2126.50
201.388,2158.75
202.420,2221.50
203.452,2289.00
204.481,2302.25
205.512,2428.25
206.544,2479.50
207.573,2556.50
208.604,2721.75
209.635,2785.00
210.663,2914.00
211.694,3061.00
212.725,3222.50
213.753,3425.25
214.783,3527.75
215.813,3724.25
216.841,3813.75
217.871,3954.50
218.899,3977.25
219.929,4051.75
220.959,3985.25
221.986,3886.00
223.016,3811.00
224.045,3629.00
225.072,3475.00
226.101,3363.50
227.130,3166.25
228.157,3052.50
229.185,2958.50
230.214,2826.00
231.241,2748.25
232.269,2636.00
233.297,2563.50
234.323,2533.50
235.351,2526.50
236.379,2494.00
237.407,2474.50
238.433,2374.50
239.460,2433.75
240.488,2415.75
241.513,2409.25
242.540,2429.50
243.568,2373.75
244.592,2392.00
245.619,2398.75
246.646,2392.00
247.671,2394.00
248.697,2428.75
249.724,2450.00
250.748,2405.00
251.774,2409.25
252.801,2442.75
253.827,2490.50
254.850,2526.25
255.876,2542.75
256.902,2567.75
257.925,2593.25
258.951,2604.25
259.976,2691.25
260.999,2718.25
262.024,2787.25
263.049,2805.75
264.074,2848.75
265.097,2915.00
266.122,2951.00
267.146,3072.00
268.168,3108.00
269.193,3202.75
270.217,3242.50
271.241,3223.75
272.263,3396.75
273.287,3314.50
274.311,3397.00
275.332,3430.25
276.356,3477.50
277.379,3484.25
278.402,3531.00
279.424,3485.00
280.447,3420.00
281.470,3418.25
282.492,3367.75
283.513,3378.75
284.536,3298.50
285.558,3247.50
286.581,3172.00
287.601,3107.75
288.623,3059.25
289.645,2979.25
290.665,2932.25
291.687,2857.75
292.709,2825.25
293.730,2709.75
294.750,2616.00
295.771,2624.25
296.792,2575.00
297.813,2487.25
298.832,2451.75
299.853,2442.50
300.874,2335.00
301.895,2254.25
302.913,2238.75
303.934,2206.00
304.954,2178.25
305.975,2161.75
306.993,2091.75
308.013,2098.00
309.033,2026.50
310.052,2045.75
311.072,2081.00
312.090,1973.50
313.109,1952.50
314.129,1905.25
315.148,1883.75
316.165,1906.75
317.184,1938.50
318.203,1876.50
319.222,1884.50
320.238,1851.50
321.257,1860.25
322.275,1849.50
323.294,1792.75
324.312,1796.50
325.328,1803.50
326.346,1817.75
327.364,1791.75
328.382,1781.25
329.397,1758.25
330.415,1817.50
331.432,1798.00
332.450,1796.50
333.467,1806.50
334.482,1739.50
335.499,1711.25
336.516,1815.50
337.533,1757.00
338.547,1763.25
339.564,1731.25
340.580,1746.75
341.597,1835.50
342.613,1751.25
343.627,1754.25
344.643,1738.00
345.659,1752.75
346.675,1729.50
347.690,1742.00
348.704,1760.50
349.719,1778.00
350.735,1743.50
351.750,1788.75
352.765,1758.25
353.778,1761.75
354.793,1779.50
355.808,1800.75
356.822,1798.25
357.837,1822.00
358.851,1780.75
359.864,1800.75
360.878,1811.25
361.892,1831.75
362.906,1830.75
363.920,1829.00
364.932,1834.50
365.945,1883.50
366.959,1841.50
367.972,1884.75
368.986,1892.25
369.999,1884.50
371.010,1898.00
372.023,1864.25
373.036,1928.00
374.049,1976.50
375.061,1951.75
376.072,1852.50
377.084,1918.75
378.097,1966.00
379.109,1998.75
380.121,1963.25
381.133,1977.25
382.143,1981.50
383.155,1989.25
384.166,1948.50
385.178,1998.25
386.189,1963.00
387.201,2014.25
388.212,1986.50
389.221,1977.50
390.232,1991.75
391.243,1982.00
392.254,1946.00
393.264,1980.50
394.275,1935.75
395.283,1947.00
396.294,1909.50
397.304,1909.50
398.314,1944.00
399.324,1939.00
400.334,1869.25
401.344,1865.50
402.351,1884.75
403.361,1836.75
404.370,1831.75
405.380,1836.50
406.389,1837.00
407.398,1816.25
408.407,1800.75
409.414,1800.50
410.423,1751.50
411.431,1779.75
412.440,1767.25
413.448,1713.00
414.457,1732.25
415.465,1712.00
416.471,1671.00
417.479,1626.25
418.487,1659.50
419.495,1647.25
420.503,1629.75
421.510,1627.00
422.518,1626.25
423.525,1624.75
424.530,1608.00
425.537,1606.00
426.544,1529.75
427.551,1590.25
428.558,1541.75
429.565,1596.00
430.571,1559.75
431.578,1574.25
432.582,1560.25
433.588,1596.50
434.595,1535.25
435.601,1544.25
436.607,1533.75
437.612,1515.50
438.618,1521.75
439.624,1541.00
440.627,1550.50
441.633,1549.75
442.638,1478.75
443.643,1541.00
444.648,1505.50
445.653,1530.50
446.658,1559.00
447.663,1484.75
448.667,1541.75
449.672,1505.00
450.674,1530.25
451.678,1528.50
452.682,1528.25
453.687,1519.00
454.690,1609.50
455.694,1530.50
456.698,1544.75
457.702,1530.25
458.705,1558.00
459.709,1495.50
460.710,1569.50
461.713,1556.25
462.716,1554.00
463.719,1572.25
464.722,1586.75
465.725,1575.50
466.727,1619.00
467.730,1557.00
468.732,1552.50
469.735,1550.00
470.737,1573.50
471.737,1585.50
472.739,1585.75
473.741,1572.75
474.742,1603.50
475.744,1531.50
476.746,1569.25
477.747,1571.75
478.748,1567.00
479.750,1590.75
480.751,1565.25
481.752,1627.25
482.753,1570.00
483.751,1597.75
484.752,1602.25
485.753,1600.50
486.753,1531.50
487.753,1557.25
488.754,1575.75
489.754,1562.25
490.754,1483.75
491.754,1553.25
492.754,1558.25
493.753,1524.75
494.753,1533.75
495.752,1539.25
496.752,1543.75
497.749,1528.00
498.748,1524.50
499.747,1515.75
500.746,1500.50
501.745,1510.75
502.744,1553.50
503.742,1521.50
504.741,1498.00
505.739,1458.25
506.737,1482.25
507.735,1523.50
508.734,1458.50
509.732,1454.50
510.729,1447.00
511.727,1477.00
512.725,1490.75
513.720,1501.75
514.718,1428.75
515.715,1482.50
516.712,1436.50
517.709,1439.00
518.706,1458.75
519.703,1460.75
520.700,1415.75
521.696,1474.50
522.693,1414.75
523.689,1470.25
524.686,1445.25
525.682,1434.25
526.678,1486.50
527.674,1382.25
528.670,1446.25
529.666,1414.00
530.661,1444.50
531.657,1453.50
532.652,1457.00
533.648,1473.00
534.641,1427.50
535.636,1429.50
536.631,1437.00
537.626,1463.25
538.621,1509.75
539.616,1487.25
540.610,1471.75
541.605,1458.25
542.599,1447.75
543.593,1456.00
544.587,1521.00
545.581,1450.50
546.575,1502.50
547.569,1458.75
548.563,1471.25
549.557,1495.25
550.550,1452.50
551.543,1476.75
552.537,1468.00
553.530,1506.25
554.523,1491.75
555.516,1492.50
556.509,1488.75
557.502,1522.25
558.494,1525.50
559.487,1577.25
560.479,1554.25
561.472,1532.50
562.464,1504.50
563.456,1490.00
564.448,1566.25
565.440,1598.75
566.432,1571.75
567.423,1529.50
568.415,1562.75
569.404,1573.25
570.396,1567.00
571.387,1574.75
572.378,1553.50
573.369,1601.75
574.360,1646.00
575.351,1625.50
576.341,1612.00
577.332,1592.50
578.323,1649.25
579.313,1648.25
580.303,1608.50
581.293,1653.50
582.283,1573.00
583.273,1613.00
584.263,1624.75
585.253,1687.25
586.243,1693.50
587.232,1646.75
588.222,1602.75
589.211,1615.25
590.200,1616.00
591.189,1617.50
592.178,1636.25
593.167,1634.75
594.156,1624.75
595.145,1621.25
596.133,1601.50
597.122,1595.75
598.110,1557.00
599.098,1592.00
600.086,1587.25
601.074,1563.50
602.062,1544.50
603.050,1563.50
604.038,1536.25
605.025,1494.00
606.013,1601.00
607.000,1568.25
607.987,1550.00
608.975,1545.25
609.962,1532.00
610.949,1542.50
611.936,1491.50
612.922,1512.75
613.909,1464.25
614.895,1477.50
615.882,1523.75
616.868,1456.50
617.854,1485.25
618.841,1484.00
619.826,1456.75
620.812,1467.25
621.798,1480.75
622.784,1466.75
623.769,1439.75
624.755,1449.00
625.740,1467.25
626.725,1435.25
627.711,1423.50
628.698,1410.00
629.683,1397.25
630.667,1388.50
631.652,1364.25
632.637,1433.25
633.621,1427.25
634.606,1426.25
635.590,1384.25
636.574,1405.75
637.558,1412.00
638.542,1365.00
639.526,1439.25
640.510,1376.75
641.493,1382.00
642.477,1367.50
643.460,1397.25
644.444,1416.25
645.427,1357.25
646.410,1429.50
647.393,1355.50
648.376,1367.00
649.359,1382.50
650.341,1372.25
651.324,1426.75
652.307,1326.00
653.289,1381.75
654.271,1383.00
655.253,1329.50
656.235,1365.00
657.217,1373.75
658.199,1356.75
659.181,1368.75
660.163,1342.50
661.144,1339.00
662.126,1347.75
663.107,1379.50
664.088,1329.25
665.069,1333.50
666.050,1316.50
667.033,1326.25
668.014,1330.75
668.995,1318.25
669.975,1273.00
670.956,1304.25
671.936,1288.25
672.916,1252.00
673.896,1271.25
674.876,1300.50
675.856,1279.25
676.836,1257.75
677.816,1259.25
678.795,1264.75
679.775,1265.25
680.754,1324.25
681.734,1260.00
682.713,1240.50
683.692,1258.00
684.671,1230.50
685.650,1186.50
686.629,1235.25
687.607,1236.00
688.586,1227.75
689.564,1173.25
690.543,1137.50
691.523,1216.00
692.501,1204.50
693.479,1196.25
694.457,1201.00
695.435,1153.25
696.413,1143.50
697.390,1154.50
698.368,1139.00
699.345,1135.50
700.322,1148.25
701.300,1174.75
702.277,1143.25
703.254,1176.50
704.231,1165.50
705.207,1144.50
706.184,1119.00
707.161,1081.00
708.137,1098.50
709.113,1085.50
710.090,1083.50
711.068,1114.75
712.044,1093.50
713.020,1079.75
713.996,1085.00
714.971,1089.00
715.947,1093.75
716.922,1027.50
717.898,1042.25
718.873,1058.75
719.848,1024.75
720.823,1049.25
721.798,1064.75
722.773,1032.75
723.748,1027.75
724.723,1022.50
725.697,1021.50
726.672,968.00
727.646,1064.00
728.622,976.00
729.596,1025.50
730.570,1025.50
731.544,1062.00
732.518,991.00
733.492,968.50
734.466,1010.50
735.439,990.75
736.413,989.50
737.386,1011.25
738.359,1023.25
739.332,1033.50
740.305,997.00
741.278,964.25
742.251,944.75
743.224,989.75
744.196,1003.50
745.171,1108.00
746.143,1313.00
747.115,993.75
748.087,970.25
749.059,943.50
750.031,954.75
751.003,994.75
751.975,959.00
752.947,993.75
753.918,994.25
754.890,912.50
755.861,966.25
756.832,924.25
757.803,962.00
758.774,1008.75
759.747,972.50
760.718,971.00
761.689,954.50
762.659,942.75
763.630,975.00
764.600,947.50
765.570,945.50
766.540,918.25
767.510,903.25
768.480,898.50
769.450,917.75
770.420,950.75
771.390,969.25
772.359,928.00
773.329,964.75
774.300,946.00
775.269,929.25
776.238,954.25
777.207,914.25
778.176,901.50
779.145,873.25
780.114,924.00
781.083,924.25
782.051,892.25
783.019,974.75
783.988,873.75
784.956,934.75
785.924,940.25
786.894,908.00
787.862,918.25
788.830,963.75
789.797,916.00
790.765,862.50
791.732,902.50
792.700,919.50
793.667,871.75
794.634,886.75
795.601,898.25
796.568,851.25
797.535,926.50
798.502,863.75
799.468,904.50
800.437,868.75
801.403,894.50
802.370,878.00
803.336,874.00
804.302,887.50
805.268,851.25
806.234,924.75
807.200,855.25
808.166,859.50
809.131,893.50
810.097,898.00
811.062,826.50
812.027,853.75
812.994,845.25
813.960,820.50
814.925,846.75
815.889,890.25
816.854,818.00
817.819,843.00
818.783,826.00
819.748,853.25
820.712,847.25
821.677,789.50
822.641,848.00
823.605,793.25
824.571,765.75
825.534,842.50
826.498,782.25
827.462,803.25
828.425,804.00
829.389,796.00
830.352,847.50
831.315,830.75
832.279,856.50
833.242,873.50
834.204,785.75
835.167,779.00
836.132,794.25
837.095,769.50
838.057,812.50
839.020,819.00
839.982,805.75
840.944,796.50
841.906,782.50
842.868,752.25
843.830,833.25
844.792,802.75
845.753,777.25
846.715,823.75
847.679,794.00
848.640,798.50
849.601,765.75
850.562,781.75
851.523,830.75
852.484,785.25
853.445,795.25
854.406,787.25
855.367,761.50
856.327,754.75
857.288,805.25
858.248,742.25
859.210,719.75
860.170,777.50
861.130,744.75
862.090,765.25
863.050,766.00
864.010,761.50
864.969,812.25
865.929,758.00
866.888,764.25
867.848,750.50
868.807,776.75
869.766,775.00
870.727,787.75
871.686,739.75
872.645,820.50
873.604,785.00
874.562,799.50
875.521,737.25
876.479,729.75
877.437,770.25
878.396,762.00
879.354,770.25
880.312,784.00
881.270,792.25
882.229,750.00
883.187,754.25
884.145,742.25
885.102,752.25
886.059,732.00
887.017,730.25
887.974,790.25
888.931,799.25
889.888,751.75
890.845,744.50
891.802,745.75
892.758,763.00
893.717,725.00
894.673,739.00
895.630,739.25
896.586,709.00
897.542,758.50
898.498,782.25
899.454,779.25
900.410,749.75
901.366,769.50
902.321,729.25
903.277,772.00
904.232,753.50
905.189,744.50
906.145,756.00
907.100,766.75
908.055,746.25
909.010,767.75
909.965,732.75
910.919,768.50
911.874,731.50
912.828,754.00
913.783,747.25
914.737,739.00
915.693,759.75
916.648,697.25
917.602,721.50
918.555,693.25
919.509,753.50
920.463,734.00
921.417,732.75
922.370,743.75
923.324,748.75
924.277,761.50
925.230,766.25
926.183,761.00
927.138,763.00
928.091,756.75
929.044,685.50
929.996,731.00
930.949,793.50
931.902,753.25
932.854,750.25
933.806,744.25
934.758,763.25
935.711,700.75
936.663,732.25
937.614,725.00
938.568,751.75
939.520,721.50
940.471,739.75
941.423,786.25
942.374,734.75
943.326,716.25
944.277,765.75
945.228,778.00
946.179,747.50
947.130,753.00
948.080,767.00
949.031,703.75
949.984,766.00
950.934,739.00
951.884,679.00
952.835,749.50
953.785,784.00
954.735,707.50
955.685,751.75
956.635,726.75
957.585,766.75
958.534,732.00
959.484,686.50
960.433,766.00
961.383,731.00
962.334,713.25
963.283,746.50
964.232,734.75
965.181,726.00
966.130,702.25
967.079,711.00
968.027,753.75
968.976,703.75
969.924,724.50
970.873,741.75
971.821,751.75
972.769,705.75
973.719,706.25
974.667,737.75
975.615,712.75
976.562,731.25
977.510,736.25
978.458,728.25
979.405,704.00
980.352,748.00
981.300,725.00
982.247,747.00
983.194,753.50
984.141,740.50
985.088,690.50
986.036,664.75
986.983,759.50
987.930,756.25
988.876,735.75
989.822,764.25
990.769,712.75
991.715,751.50
992.661,723.00
993.607,711.75
994.553,735.75
995.498,723.75
996.444,741.00
997.389,743.50
998.337,755.00
999.282,742.75
1000.227,732.75
1001.173,718.75
1002.118,727.50
1003.062,751.75
1004.007,715.75
1004.952,747.50
1005.897,713.25
1006.841,741.25
1007.786,751.00
1008.730,715.75
1009.674,748.50
1010.618,739.00
1011.564,723.00
1012.508,772.25
1013.452,764.25
1014.396,778.25
1015.339,716.75
1016.283,713.75
1017.226,727.50
1018.170,768.00
1019.113,721.00
1020.056,732.50
1020.999,698.00
1021.942,760.50
1022.885,687.25
1023.828,738.25
1024.770,758.75
1025.715,756.75
1026.657,772.50
1027.600,767.00
1028.542,756.75
1029.484,747.25
1030.426,801.25
1031.368,770.75
1032.310,740.00
1033.251,720.25
1034.193,737.75
1035.135,740.00
1036.076,776.00
1037.017,747.50
1037.959,728.25
1038.900,722.25
1039.843,730.25
1040.784,777.75
1041.725,798.75
1042.665,732.75
1043.606,789.25
1044.547,755.75
1045.487,733.75
1046.427,758.00
1047.368,749.00
1048.308,790.00
1049.248,744.25
1050.188,766.00
1051.128,780.50
1052.067,791.50
1053.007,785.25
1053.947,760.75
1054.886,756.75
1055.827,758.75
1056.766,827.00
1057.706,760.50
1058.645,819.25
1059.584,764.00
1060.522,734.00
1061.461,798.50
1062.400,755.25
1063.338,791.75
1064.277,789.75
1065.215,801.50
1066.154,772.50
1067.092,779.00
1068.030,784.75
1068.968,775.75
1069.906,774.50
1070.843,794.75
1071.781,805.75
1072.720,792.75
1073.658,817.75
1074.595,835.75
1075.533,790.75
1076.470,804.00
1077.407,803.00
1078.344,797.00
1079.281,803.25
1080.217,765.00
1081.154,837.50
1082.091,786.50
1083.027,765.00
1083.964,813.50
1084.900,758.00
1085.836,747.25
1086.772,752.25
1087.708,810.75
1088.644,794.75
1089.580,804.25
1090.515,763.25
1091.451,800.00
1092.388,745.50
1093.324,817.25
1094.259,813.75
1095.194,769.25
1096.129,777.50
1097.064,788.50
1097.999,780.00
1098.934,786.75
1099.869,798.00
1100.803,792.50
1101.738,761.25
1102.672,783.25
1103.607,773.00
1104.541,794.75
1105.475,827.25
1106.409,781.00
1107.343,757.25
1108.277,802.25
1109.210,806.75
1110.144,766.00
1111.078,798.50
1112.011,756.00
1112.944,809.25
1113.878,785.75
1114.811,777.50
1115.744,751.75
1116.678,740.50
1117.611,812.75
1118.544,735.50
1119.477,765.50
1120.409,786.75
1121.342,762.50
1122.274,790.75
1123.206,755.25
1124.138,728.50
1125.070,776.00
1126.002,753.50
1126.934,743.00
1127.866,781.75
1128.798,772.75
1129.729,765.50
1130.661,766.50
1131.592,712.50
1132.523,739.25
1133.454,762.00
1134.385,736.50
1135.317,770.25
1136.247,769.75
1137.178,710.75
1138.109,734.25
1139.039,725.50
1139.970,757.75
1140.900,782.00
1141.831,757.00
1142.761,739.25
1143.691,650.25
1144.621,738.00
1145.551,790.50
1146.480,749.50
1147.410,754.50
1148.340,747.50
1149.269,705.50
1150.199,745.50
1151.128,763.75
1152.057,749.25
1152.979,756.50
1153.898,717.25
1154.819,730.25
1155.739,740.25
1156.658,748.25
1157.579,732.25
1158.498,717.00
1159.419,760.00
1160.338,745.50
1161.256,758.25
1162.177,742.00
1163.095,738.25
1164.016,749.75
1164.934,732.50
1165.852,713.00
1166.772,757.50
1167.690,774.50
1168.610,733.00
1169.528,739.50
1170.446,736.00
1171.365,721.50
1172.283,743.00
1173.202,751.50
1174.120,722.25
1175.037,745.25
1175.956,722.50
1176.873,746.50
1177.792,775.50
1178.709,698.75
1179.626,733.75
1180.544,727.75
1181.461,737.25
1182.379,690.25
1183.296,753.25
1184.212,705.00
1185.130,740.75
1186.046,762.50
1186.962,748.25
1187.880,709.25
1188.796,750.50
1189.714,764.25
1190.629,742.75
1191.545,742.00
1192.462,729.75
1193.378,745.25
1194.295,764.00
1195.210,762.75
1196.125,757.75
1197.042,746.75
1197.957,744.00
1198.872,758.75
1199.788,741.75
1200.703,787.00
1201.619,741.00
1202.534,746.50
1203.448,789.75
1204.364,745.75
1205.278,781.75
1206.192,762.50
1207.108,735.25
1208.022,750.00
1208.938,747.00
1209.851,731.50
1210.765,789.25
1211.680,771.50
1212.594,735.25
1213.507,787.50
1214.422,795.50
1215.335,762.00
1216.248,782.75
1217.163,766.00
1218.076,803.25
1218.990,780.50
1219.903,765.25
1220.816,785.75
1221.730,784.25
1222.642,787.00
1223.554,765.25
1224.469,795.25
1225.380,818.00
1226.292,792.00
1227.206,748.50
1228.118,760.75
1229.032,807.00
1229.943,780.25
1230.855,777.75
1231.768,791.50
1232.679,829.25
1233.590,755.50
1234.503,766.00
1235.414,829.50
1236.325,765.00
1237.238,798.00
1238.149,816.50
1239.059,788.75
1239.972,783.50
1240.882,791.75
1241.793,810.75
1242.705,842.75
1243.615,813.50
1244.525,792.50
1245.437,811.25
1246.347,804.25
1247.259,828.25
1248.168,795.75
1249.078,809.75
1249.989,811.75
1250.899,802.00
1251.808,799.25
1252.719,835.00
1253.628,845.25
1254.537,820.25
1255.448,829.75
1256.357,875.25
1257.266,791.75
1258.176,831.75
1259.085,794.25
1259.993,811.75
1260.904,831.75
1261.812,820.00
1262.720,818.75
1263.630,835.00
1264.538,822.75
1265.446,855.00
1266.356,795.50
1267.263,805.25
1268.171,822.75
1269.080,806.25
1269.988,833.50
1270.895,833.50
1271.804,899.00
1272.711,809.25
1273.619,838.00
1274.527,792.75
1275.434,834.25
1276.341,835.75
1277.248,855.00
1278.156,838.50
1279.063,855.50
1279.969,873.75
1280.877,817.25
1281.783,807.75
1282.690,820.00
1283.598,805.50
1284.503,790.25
1285.409,820.75
1286.317,833.50
1287.223,806.50
1288.128,807.75
1289.036,842.00
1289.941,794.25
1290.846,813.50
1291.751,826.75
1292.658,797.75
1293.563,782.50
1294.468,804.75
1295.375,834.00
1296.280,817.00
1297.184,783.00
1298.091,813.75
1298.995,781.75
1299.900,827.00
1300.806,819.25
1301.710,801.25
1302.614,778.25
1303.518,768.00
1304.424,803.50
1305.327,813.25
1306.231,813.00
1307.137,766.25
1308.040,784.50
1308.943,774.50
1309.847,784.25
1310.752,749.75
1311.655,760.00
1312.558,753.00
1313.463,726.25
1314.366,742.75
1315.269,767.75
1316.171,727.25
1317.076,757.50
1317.978,775.25
1318.881,748.75
1319.785,754.50
1320.687,732.00
1321.589,718.50
1322.491,718.50
1323.395,725.25
1324.297,749.25
1325.198,700.75
1326.102,743.75
1327.004,726.25
1327.905,714.50
1328.806,704.25
1329.709,718.00
1330.611,722.00
1331.512,725.25
1332.413,657.75
1333.316,729.25
1334.216,708.25
1335.117,703.75
1336.020,716.00
1336.920,679.50
1337.821,705.50
1338.721,690.25
1339.623,681.00
1340.523,655.25
1341.423,668.50
1342.323,684.50
1343.225,644.75
1344.125,690.50
1345.025,644.00
1345.924,687.50
1346.826,683.25
1347.725,673.25
1348.624,694.75
1349.524,695.00
1350.425,679.75
1351.324,629.50
1352.223,679.00
1353.121,688.25
1354.022,627.75
1354.921,636.25
1355.819,638.50
1356.718,670.50
1357.618,632.00
1358.516,661.00
1359.415,615.00
1360.313,674.50
1361.213,650.25
1362.111,644.50
1363.008,658.75
1363.906,670.75
1364.806,626.50
1365.703,617.00
1366.601,619.25
1367.498,638.00
1368.397,616.00
1369.295,622.50
1370.192,610.75
1371.089,640.25
1371.987,641.50
1372.884,594.50
1373.781,630.75
1374.678,595.00
1375.574,611.25
1376.473,623.50
1377.369,600.75
1378.265,567.25
1379.161,583.00
1380.059,573.75
1380.955,602.25
1381.851,651.00
1382.747,599.75
1383.643,563.50
1384.540,633.00
1385.436,556.00
1386.331,607.75
1387.227,573.00
1388.124,561.00
1389.019,564.50
1389.914,595.00
1390.809,592.00
1391.704,544.50
1392.601,575.75
1393.495,622.75
1394.390,592.50
1395.285,554.75
1396.179,610.50
1397.075,563.50
1397.969,574.50
1398.864,571.50
1399.758,548.25
1400.652,597.75
1401.547,558.50
1402.441,530.50
1403.335,552.50
1404.229,598.00
1405.122,590.25
1406.017,541.00
1406.911,577.00
1407.804,547.75
1408.697,560.25
1409.590,544.00
1410.485,565.75
1411.378,571.75
1412.271,564.00
1413.163,549.75
1414.056,538.75
1414.949,526.25
1415.843,560.00
1416.735,526.75
1417.627,512.50
1418.520,549.00
1419.412,566.25
1420.306,523.00
1421.197,593.50
1422.089,503.00
1422.981,514.75
1423.873,516.00
1424.764,485.50
1425.657,518.25
1426.549,505.50
1427.440,522.75
1428.331,553.75
1429.222,505.50
1430.113,480.00
1431.006,521.50
1431.897,545.00
1432.787,555.75
1433.678,556.75
1434.568,550.50
1435.459,506.00
1436.351,562.50
1437.241,520.75
1438.131,504.00
1439.021,535.75
1439.911,486.25
1440.801,513.50
1441.693,524.00
1442.583,507.25
1443.472,525.00
1444.362,491.00
1445.251,534.50
1446.140,540.50
1447.030,533.00
1447.921,545.75
1448.810,468.00
1449.699,520.25
1450.588,534.50
1451.476,494.50
1452.365,501.25
1453.254,502.00
1454.144,522.00
1455.032,538.00
1455.921,470.25
1456.809,529.00
1457.697,541.00
1458.585,483.25
1459.473,507.25
1460.361,479.00
1461.251,496.00
1462.138,480.50
1463.026,470.00
1463.913,475.00
1464.801,524.25
1465.688,496.50
1466.575,537.00
1467.463,542.75
1468.351,461.00
1469.238,526.00
1470.125,496.50
1471.012,469.00
1471.899,478.25
1472.785,508.00
1473.672,502.50
1474.558,525.00
1475.446,448.00
1476.333,487.00
1477.219,520.00
1478.105,500.75
1478.991,461.00
1479.877,505.00
1480.762,510.50
1481.648,470.25
1482.534,496.00
1483.419,525.50
1484.307,490.25
1485.192,462.50
1486.077,491.50
1486.962,469.50
1487.847,448.50
1488.732,510.50
1489.617,478.75
1490.502,451.50
1491.387,444.50
1492.271,501.75
1493.156,488.50
1494.042,472.75
1494.927,456.75
1495.811,464.50
1496.695,450.75
1497.579,470.25
1498.463,467.50
1499.347,472.25
1500.231,513.50
1501.114,469.50
1501.998,423.25
1502.881,482.00
1503.765,431.75
1504.648,472.25
1505.533,495.50
1506.417,462.00
1507.300,495.25
1508.183,498.00
1509.066,454.50
1509.948,454.75
1510.831,482.50
1511.714,473.25
1512.596,514.25
1513.479,468.50
1514.361,433.00
1515.243,480.25
1516.125,476.75
1517.008,476.25
1517.890,454.75
1518.771,507.50
1519.655,450.00
1520.537,464.25
1521.419,465.25
1522.300,466.00
1523.182,480.75
1524.063,432.50
1524.944,448.00
1525.825,478.00
1526.707,472.75
1527.588,440.00
1528.468,454.50
1529.349,435.50
1530.230,439.50
1531.111,446.00
1531.991,480.75
1532.872,436.50
1533.752,447.75
1534.632,482.50
1535.513,500.50
1536.393,447.75
1537.273,467.25
1538.153,409.25
1539.032,439.50
1539.912,423.00
1540.792,454.75
1541.672,412.00
1542.551,455.75
1543.430,436.50
1544.310,449.50
1545.189,400.50
1546.068,420.50
1546.947,432.00
1547.826,400.50
1548.705,420.75
1549.584,442.50
1550.462,430.50
1551.341,408.25
1552.219,438.00
1553.098,457.00
1553.976,460.50
1554.854,466.50
1555.733,435.75
1556.611,433.50
1557.489,471.50
1558.367,436.50
1559.244,477.25
1560.122,425.25
1561.000,454.50
1561.877,417.75
1562.755,462.00
1563.632,445.00
1564.509,404.00
1565.386,437.50
1566.264,422.00
1567.141,478.50
1568.017,472.50
1568.894,432.00
1569.771,455.50
1570.648,479.25
1571.524,408.50
1572.401,435.00
1573.277,432.50
1574.153,416.50
1575.029,451.00
1575.906,404.50
1576.781,469.50
1577.657,449.25
1578.533,450.00
1579.409,446.50
1580.285,416.75
1581.160,486.25
1582.036,436.75
1582.911,443.25
1583.786,463.00
1584.662,431.25
1585.537,437.75
1586.412,401.00
1587.287,425.25
1588.160,426.25
1589.035,437.50
1589.909,434.25
1590.784,441.75
1591.658,449.00
1592.533,411.00
1593.407,433.25
1594.281,388.00
1595.155,419.50
1596.029,443.25
1596.903,436.50
1597.777,442.00
1598.651,439.25
1599.525,437.75
1600.398,450.00
1601.272,423.25
1602.144,468.00
1603.017,414.25
1603.890,423.00
1604.763,438.25
1605.636,427.75
1606.509,429.75
1607.382,434.00
1608.255,450.25
1609.128,384.00
1610.000,426.25
1610.873,436.75
1611.746,437.75
1612.616,462.00
1613.488,407.25
1614.361,424.25
1615.233,405.75
1616.105,418.25
1616.977,461.25
1617.849,431.50
1618.720,448.25
1619.592,435.25
1620.464,448.75
1621.333,482.00
1622.205,404.25
1623.076,379.00
1623.947,460.00
1624.818,397.00
1625.689,419.50
1626.560,406.25
1627.431,418.75
1628.302,394.25
1629.171,425.75
1630.042,424.00
1630.912,411.75
1631.782,435.00
1632.653,416.25
1633.523,464.00
1634.393,378.50
1635.263,396.00
1636.131,396.75
1637.001,410.75
1637.871,443.25
1638.741,425.50
1639.611,414.25
1640.480,380.00
1641.350,452.25
1642.219,411.00
1643.087,398.00
1643.956,448.00
1644.825,408.50
1645.694,381.00
1646.563,413.50
1647.432,424.50
1648.299,410.75
1649.167,444.25
1650.036,412.75
1650.904,374.00
1651.773,421.75
1652.641,432.00
1653.509,394.00
1654.376,404.00
1655.244,351.50
1656.112,412.00
1656.980,454.50
1657.847,387.25
1658.715,439.75
1659.581,415.75
1660.448,417.25
1661.316,399.50
1662.183,409.25
1663.051,389.50
1663.918,401.50
1664.783,444.75
1665.650,366.50
1666.517,356.00
1667.384,424.25
1668.251,404.50
1669.115,400.00
1669.982,417.50
1670.849,386.75
1671.715,412.75
1672.581,415.50
1673.446,397.50
1674.312,375.25
1675.178,447.00
1676.044,379.00
1676.910,378.25
1677.774,413.50
1678.639,404.00
1679.505,395.50
1680.370,347.25
1681.236,431.75
1682.099,345.75
1682.965,402.25
1683.830,389.00
1684.695,417.75
1685.560,411.25
1686.423,405.25
1687.288,402.25
1688.153,393.25
1689.017,385.00
1689.880,391.25
1690.745,382.25
1691.609,413.50
1692.473,429.00
1693.338,421.00
1694.200,415.00
1695.064,368.00
1695.928,384.75
1696.792,416.50
1697.654,431.50
1698.517,354.50
1699.381,352.00
1700.245,408.00
1701.106,404.50
1701.969,385.25
1702.833,413.75
1703.696,371.75
1704.557,367.50
1705.420,379.25
1706.283,409.00
1707.146,381.25
1708.007,377.00
1708.870,431.75
1709.732,362.00
1710.595,408.50
1711.455,381.00
1712.318,393.75
1713.180,389.00
1714.040,366.00
1714.902,406.25
1715.764,375.50
1716.626,392.00
1717.486,399.50
1718.348,376.50
1719.209,403.00
1720.071,366.50
1720.930,368.50
1721.792,365.00
1722.653,373.50
1723.512,398.75
1724.374,362.25
1725.234,345.25
1726.095,397.75
1726.954,351.00
1727.815,369.75
1728.676,403.50
1729.535,374.00
1730.395,397.00
1731.256,364.50
1732.114,383.00
1732.974,346.50
1733.834,412.75
1734.693,397.50
1735.553,389.50
1736.413,387.50
1737.272,420.00
1738.130,363.00
1738.990,397.50
1739.849,369.50
1740.707,352.00
1741.566,395.00
1742.426,387.00
1743.283,354.00
1744.142,407.50
1745.001,367.75
1745.858,403.75
1746.717,393.25
1747.576,380.50
1748.433,361.75
1749.292,368.00
1750.150,398.00
1751.007,380.75
1751.865,360.50
1752.723,380.00
1753.579,372.75
1754.438,399.50
1755.296,361.25
1756.152,353.75
1757.010,367.50
1757.865,417.25
1758.723,366.75
1759.581,350.50
1760.436,386.75
1761.294,358.25
1762.151,418.50
1763.006,349.25
1763.864,382.25
1764.721,367.50
1765.576,348.75
1766.433,368.50
1767.288,382.25
1768.144,371.00
1769.001,373.00
1769.856,409.50
1770.712,394.50
1771.568,385.00
1772.423,366.25
1773.279,393.00
1774.133,380.50
1774.989,369.50
1775.845,370.50
1776.699,415.25
1777.555,348.75
1778.409,377.50
1779.265,372.00
1780.120,356.50
1780.974,363.00
1781.829,382.75
1782.682,368.25
1783.538,366.50
1784.393,345.00
1785.246,404.50
1786.101,341.00
1786.954,383.25
1787.808,375.00
1788.661,370.75
1789.516,366.75
1790.370,380.00
1791.223,380.25
1792.077,375.25
1792.930,363.00
1793.784,389.00
1794.636,317.25
1795.490,371.00
1796.344,333.50
1797.196,332.25
1798.049,302.25
1798.901,399.25
1799.755,342.75
1800.606,369.25
1801.460,369.25
1802.311,419.25
1803.165,366.50
1804.018,363.50
1804.869,390.75
1805.722,371.50
1806.573,325.00
1807.426,387.75
1808.276,386.25
1809.129,326.00
1809.980,418.50
1810.832,349.50
1811.683,426.00
1812.535,360.25
1813.385,377.25
1814.237,403.00
1815.089,379.75
1815.940,351.50
1816.791,406.00
1817.641,372.25
1818.493,342.25
1819.343,332.75
1820.194,367.00
1821.044,324.50
1821.895,358.00
1822.745,387.25
1823.596,336.25
1824.445,391.50
1825.296,364.25
1826.145,378.50
1826.996,322.00
1827.845,368.25
1828.695,375.75
1829.544,376.75
1830.395,381.75
1831.243,341.25
1832.094,375.75
1832.942,342.25
1833.792,401.00
1834.640,375.50
1835.490,356.75
1836.338,367.25
1837.186,385.00
1838.036,351.75
1838.884,391.50
1839.733,380.75
1840.581,346.00
1841.430,329.50
1842.278,308.75
1843.127,350.50
1843.974,339.75
1844.823,371.00
1845.671,375.50
1846.519,365.00
1847.366,373.50
1848.213,345.00
1849.062,321.25
1849.909,369.25
1850.757,352.75
1851.604,361.50
1852.452,346.50
1853.298,379.00
1854.146,375.25
1854.993,367.50
1855.839,397.50
1856.687,364.50
1857.532,366.25
1858.380,386.00
1859.226,332.75
1860.073,357.25
1860.919,350.25
1861.765,341.25
1862.612,460.25
1863.457,369.50
1864.304,341.25
1865.150,343.00
1865.995,349.50
1866.842,344.75
1867.686,384.50
1868.533,376.00
1869.378,389.25
1870.223,343.25
1871.069,413.75
1871.914,383.50
1872.760,382.75
1873.604,346.25
1874.448,353.50
1875.294,350.00
1876.139,324.25
1876.984,363.00
1877.828,328.00
1878.672,346.00
1879.518,350.50
1880.361,365.25
1881.205,343.25
1882.050,343.75
1882.894,388.50
1883.739,378.50
1884.582,387.25
1885.425,344.25
1886.270,358.00
1887.113,344.25
1887.956,373.50
1888.801,370.50
1889.644,370.25
1890.486,317.25
1891.331,362.25
1892.173,392.50
1893.017,376.75
1893.860,413.00
1894.702,335.75
1895.546,371.25
1896.388,368.50
1897.230,351.00
1898.074,370.25
1898.916,395.50
1899.757,384.00
1900.601,359.75
1901.443,344.75
1902.284,324.75
1903.125,363.50
1903.969,377.75
1904.810,358.75
1905.651,345.25
1906.494,341.50
1907.335,396.25
1908.176,355.00
1909.018,359.00
1909.859,340.25
1910.700,362.25
1911.542,389.75
1912.383,326.50
1913.223,353.25
1914.064,367.50
1914.906,367.00
1915.746,345.00
1916.586,329.25
1917.428,371.00
1918.268,322.50
1919.107,362.50
1919.947,365.50
1920.789,386.00
1921.628,341.25
1922.468,400.25
1923.309,354.75
1924.148,339.75
1924.988,345.00
1925.827,367.00
1926.667,380.00
1927.507,396.50
1928.345,389.25
1929.184,371.50
1930.025,324.50
1930.864,364.50
1931.702,347.75
1932.541,331.25
1933.381,344.50
1934.219,346.00
1935.057,334.25
1935.896,322.50
1936.735,336.00
1937.573,331.50
1938.411,339.50
1939.249,391.00
1940.089,345.00
1940.927,384.00
1941.764,332.50
1942.602,343.25
1943.439,380.75
1944.278,345.75
1945.115,360.50
1945.953,358.25
1946.790,360.75
1947.628,367.00
1948.465,354.25
1949.302,345.50
1950.139,409.50
1950.976,387.25
1951.814,343.00
1952.651,371.75
1953.487,403.50
1954.323,303.50
1955.160,363.25
1955.998,313.25
1956.834,357.00
1957.670,322.25
1958.506,357.75
1959.342,334.00
1960.177,313.25
1961.015,375.75
1961.850,381.00
1962.686,340.75
1963.521,350.00
1964.357,398.25
1965.192,356.00
1966.029,368.50
1966.864,374.00
1967.699,361.25
1968.534,374.00
1969.369,387.25
1970.204,336.25
1971.040,333.50
1971.875,310.50
1972.709,356.75
1973.544,390.75
1974.378,354.00
1975.212,335.25
1976.047,365.50
1976.882,373.25
1977.716,353.75
1978.550,325.25
1979.384,323.00
1980.218,373.25
1981.052,311.00
1981.885,377.25
1982.719,336.25
1983.554,319.25
1984.388,398.75
1985.221,379.50
1986.054,372.25
1986.887,343.25
1987.720,321.00
1988.553,339.00
1989.386,323.25
1990.219,335.75
1991.053,333.25
1991.886,335.25
1992.719,356.75
1993.551,340.00
1994.383,356.50
1995.216,374.75
1996.048,339.25
1996.880,355.00
1997.712,338.50
1998.544,364.50
1999.376,320.75
2000.208,366.00
2001.040,350.75
2001.873,366.25
2002.705,356.75
2003.536,347.50
2004.367,344.50
2005.199,340.00
2006.030,342.00
2006.861,371.25
2007.692,349.75
2008.523,339.50
2009.354,335.75
2010.185,346.50
2011.016,330.75
2011.846,347.00
2012.677,358.25
2013.507,338.00
2014.338,430.50
2015.168,355.75
2015.999,351.25
2016.829,357.25
2017.659,366.25
2018.489,365.25
2019.319,351.75
2020.149,349.50
2020.980,358.75
2021.810,345.00
2022.639,349.75
2023.469,365.00
2024.298,381.50
2025.128,391.75
2025.957,367.00
2026.786,345.00
2027.615,373.00
2028.444,357.75
2029.273,376.00
2030.102,367.25
2030.931,333.25
2031.758,381.75
2032.586,375.75
2033.415,378.50
2034.243,384.25
2035.072,377.25
2035.900,364.75
2036.728,353.50
2037.556,352.50
2038.385,339.00
2039.213,348.25
2040.040,361.25
2040.868,367.50
2041.696,355.50
2042.524,349.75
2043.351,415.75
2044.179,355.50
2045.006,380.75
2045.006,380.75

Max Intensity Wave.,219.929
Max Intensity Data,4051.75
Min Intensity Wave.,1798.049
Min Intensity Data,302.25
FWHM Wave.,402.298
FWHM Value,0.25
Pressure Wave.,746.037
Pressure Value [GPa],165.83967
G/D Ratio,0.59404
G/D Gband Wave.,1581.234
G/D Gband Intensity,486.67
G/D Dband Wave.,1300.806
G/D Dband Intensity,819.25

<< BACKGROUND SPECTRUM >>
Wave[dcm-1],No140
146.591,2326.00
147.626,2171.00
148.664,2111.00
149.699,2619.00
150.737,2341.00
151.772,2449.00
152.809,2438.00
153.846,2322.00
154.881,2466.00
155.918,2038.00
156.953,2362.00
157.989,2676.00
159.026,2524.00
160.060,2720.00
161.096,2964.00
162.130,2605.00
163.167,2644.00
164.200,2521.00
165.236,2781.00
166.272,2753.00
167.305,2331.00
168.341,2645.00
169.374,2891.00
170.409,2891.00
171.445,2786.00
172.477,2602.00
173.512,2467.00
174.545,2782.00
175.580,2966.00
176.614,3137.00
177.647,2936.00
178.681,3139.00
179.713,3488.00
180.747,2937.00
181.781,2758.00
182.813,3061.00
183.847,3202.00
184.878,2817.00
185.912,3114.00
186.945,3225.00
187.976,3163.00
189.010,2773.00
190.043,2951.00
191.073,3005.00
192.106,2807.00
193.137,3295.00
194.170,2627.00
195.202,3007.00
196.232,2783.00
197.265,3074.00
198.297,3134.00
199.327,2859.00
200.359,3023.00
201.388,3439.00
202.420,2985.00
203.452,3204.00
204.481,2791.00
205.512,3406.00
206.544,3182.00
207.573,3162.00
208.604,3472.00
209.635,3651.00
210.663,3076.00
211.694,3053.00
212.725,2937.00
213.753,2876.00
214.783,3503.00
215.813,3333.00
216.841,3090.00
217.871,3215.00
218.899,3013.00
219.929,3166.00
220.959,2959.00
221.986,3249.00
223.016,2823.00
224.045,3242.00
225.072,3205.00
226.101,3275.00
227.130,3370.00
228.157,2927.00
229.185,2396.00
230.214,3302.00
231.241,2894.00
232.269,2521.00
233.297,2799.00
234.323,3349.00
235.351,2897.00
236.379,3176.00
237.407,2815.00
238.433,3043.00
239.460,3195.00
240.488,3183.00
241.513,3277.00
242.540,3162.00
243.568,3331.00
244.592,3311.00
245.619,3319.00
246.646,3031.00
247.671,3049.00
248.697,2895.00
249.724,3102.00
250.748,3107.00
251.774,3123.00
252.801,3415.00
253.827,3211.00
254.850,3184.00
255.876,2790.00
256.902,3258.00
257.925,3074.00
258.951,2842.00
259.976,2832.00
260.999,3192.00
262.024,2865.00
263.049,3792.00
264.074,3212.00
265.097,3105.00
266.122,3184.00
267.146,3134.00
268.168,3324.00
269.193,2940.00
270.217,3338.00
271.241,2832.00
272.263,2904.00
273.287,3268.00
274.311,2904.00
275.332,3405.00
276.356,2936.00
277.379,3156.00
278.402,3165.00
279.424,3012.00
280.447,2983.00
281.470,2828.00
282.492,3181.00
283.513,2974.00
284.536,3229.00
285.558,3218.00
286.581,3197.00
287.601,2939.00
288.623,2877.00
289.645,3182.00
290.665,3213.00
291.687,3246.00
292.709,3187.00
293.730,3506.00
294.750,3033.00
295.771,2830.00
296.792,3181.00
297.813,3014.00
298.832,3133.00
299.853,2790.00
300.874,3092.00
301.895,3090.00
302.913,3077.00
303.934,3358.00
304.954,3133.00
305.975,3265.00
306.993,2817.00
308.013,3183.00
309.033,3112.00
310.052,3015.00
311.072,2918.00
312.090,3146.00
313.109,3359.00
314.129,3528.00
315.148,3127.00
316.165,3161.00
317.184,3313.00
318.203,2831.00
319.222,2824.00
320.238,3219.00
321.257,2902.00
322.275,2770.00
323.294,3090.00
324.312,3264.00
325.328,3375.00
326.346,3381.00
327.364,3341.00
328.382,3253.00
329.397,3236.00
330.415,3327.00
331.432,3323.00
332.450,3350.00
333.467,3543.00
334.482,2692.00
335.499,3510.00
336.516,2922.00
337.533,2661.00
338.547,2926.00
339.564,2945.00
340.580,3185.00
341.597,3024.00
342.613,3571.00
343.627,3073.00
344.643,3127.00
345.659,3207.00
346.675,3104.00
347.690,2998.00
348.704,3174.00
349.719,2939.00
350.735,2878.00
351.750,3268.00
352.765,3109.00
353.778,3068.00
354.793,3259.00
355.808,2901.00
356.822,3268.00
357.837,2718.00
358.851,3361.00
359.864,3047.00
360.878,2827.00
361.892,3048.00
362.906,3249.00
363.920,2666.00
364.932,3218.00
365.945,3155.00
366.959,3073.00
367.972,3006.00
368.986,2777.00
369.999,3473.00
371.010,2918.00
372.023,3498.00
373.036,3020.00
374.049,3443.00
375.061,3154.00
376.072,3113.00
377.084,2988.00
378.097,2760.00
379.109,3270.00
380.121,3100.00
381.133,2770.00
382.143,3241.00
383.155,2801.00
384.166,3032.00
385.178,3185.00
386.189,3313.00
387.201,2807.00
388.212,3019.00
389.221,3012.00
390.232,3118.00
391.243,2999.00
392.254,3150.00
393.264,2911.00
394.275,3357.00
395.283,3268.00
396.294,3758.00
397.304,3576.00
398.314,3191.00
399.324,3098.00
400.334,2741.00
401.344,3233.00
402.351,2729.00
403.361,3314.00
404.370,3056.00
405.380,2986.00
406.389,3411.00
407.398,3206.00
408.407,3172.00
409.414,3220.00
410.423,3396.00
411.431,2822.00
412.440,2720.00
413.448,3444.00
414.457,2937.00
415.465,2897.00
416.471,2972.00
417.479,3148.00
418.487,2881.00
419.495,3410.00
420.503,3215.00
421.510,2672.00
422.518,3245.00
423.525,3243.00
424.530,3489.00
425.537,2959.00
426.544,3361.00
427.551,2927.00
428.558,3706.00
429.565,3542.00
430.571,2954.00
431.578,2962.00
432.582,2967.00
433.588,3009.00
434.595,2673.00
435.601,3412.00
436.607,3348.00
437.612,2850.00
438.618,3439.00
439.624,3022.00
440.627,3012.00
441.633,3204.00
442.638,3741.00
443.643,3162.00
444.648,3101.00
445.653,3285.00
446.658,2953.00
447.663,3159.00
448.667,2941.00
449.672,3031.00
450.674,3043.00
451.678,2775.00
452.682,2967.00
453.687,2942.00
454.690,3662.00
455.694,3386.00
456.698,2623.00
457.702,2750.00
458.705,2872.00
459.709,2921.00
460.710,2945.00
461.713,3123.00
462.716,3152.00
463.719,3089.00
464.722,3290.00
465.725,3055.00
466.727,2874.00
467.730,3136.00
468.732,2862.00
469.735,3372.00
470.737,3002.00
471.737,2992.00
472.739,2972.00
473.741,2888.00
474.742,3152.00
475.744,3208.00
476.746,3132.00
477.747,3056.00
478.748,3269.00
479.750,3005.00
480.751,3105.00
481.752,3813.00
482.753,3184.00
483.751,3622.00
484.752,2683.00
485.753,3022.00
486.753,2970.00
487.753,3076.00
488.754,3512.00
489.754,2795.00
490.754,3464.00
491.754,3201.00
492.754,2764.00
493.753,3129.00
494.753,2974.00
495.752,3397.00
496.752,3110.00
497.749,3089.00
498.748,2942.00
499.747,3493.00
500.746,3194.00
501.745,2861.00
502.744,2810.00
503.742,3404.00
504.741,3035.00
505.739,2588.00
506.737,2990.00
507.735,3212.00
508.734,3497.00
509.732,3242.00
510.729,3445.00
511.727,2968.00
512.725,2977.00
513.720,2814.00
514.718,3368.00
515.715,2726.00
516.712,2720.00
517.709,3071.00
518.706,2992.00
519.703,3121.00
520.700,3289.00
521.696,3433.00
522.693,3027.00
523.689,2928.00
524.686,3243.00
525.682,2870.00
526.678,3542.00
527.674,3042.00
528.670,2669.00
529.666,3622.00
530.661,3557.00
531.657,3236.00
532.652,3257.00
533.648,3087.00
534.641,3317.00
535.636,3163.00
536.631,3200.00
537.626,3259.00
538.621,2806.00
539.616,2659.00
540.610,2602.00
541.605,3105.00
542.599,3147.00
543.593,3081.00
544.587,3971.00
545.581,2957.00
546.575,3103.00
547.569,3131.00
548.563,2802.00
549.557,2723.00
550.550,2866.00
551.543,2835.00
552.537,3246.00
553.530,2848.00
554.523,2842.00
555.516,3212.00
556.509,3043.00
557.502,2716.00
558.494,3264.00
559.487,2945.00
560.479,3252.00
561.472,3315.00
562.464,3253.00
563.456,3433.00
564.448,3003.00
565.440,3060.00
566.432,3447.00
567.423,2971.00
568.415,2974.00
569.404,3203.00
570.396,2901.00
571.387,3226.00
572.378,3131.00
573.369,4064.00
574.360,3786.00
575.351,3058.00
576.341,2924.00
577.332,2959.00
578.323,2729.00
579.313,2957.00
580.303,3348.00
581.293,3193.00
582.283,3118.00
583.273,3219.00
584.263,3103.00
585.253,3165.00
586.243,3223.00
587.232,2709.00
588.222,3067.00
589.211,3267.00
590.200,3158.00
591.189,3043.00
592.178,3031.00
593.167,3499.00
594.156,3351.00
595.145,2929.00
596.133,3546.00
597.122,3199.00
598.110,3286.00
599.098,3135.00
600.086,3086.00
601.074,3293.00
602.062,2931.00
603.050,2792.00
604.038,3211.00
605.025,2912.00
606.013,3250.00
607.000,3466.00
607.987,3092.00
608.975,3138.00
609.962,2844.00
610.949,3220.00
611.936,3384.00
612.922,3236.00
613.909,2808.00
614.895,3481.00
615.882,2896.00
616.868,3100.00
617.854,2809.00
618.841,3120.00
619.826,3186.00
620.812,3056.00
621.798,2872.00
622.784,3251.00
623.769,3168.00
624.755,2769.00
625.740,3141.00
626.725,2788.00
627.711,2918.00
628.698,3165.00
629.683,2903.00
630.667,3271.00
631.652,2872.00
632.637,3024.00
633.621,3250.00
634.606,2991.00
635.590,3211.00
636.574,3021.00
637.558,3148.00
638.542,3128.00
639.526,2867.00
640.510,2683.00
641.493,3135.00
642.477,3081.00
643.460,2752.00
644.444,3294.00
645.427,3374.00
646.410,2699.00
647.393,3054.00
648.376,3157.00
649.359,2985.00
650.341,3160.00
651.324,3142.00
652.307,3152.00
653.289,3022.00
654.271,2922.00
655.253,3004.00
656.235,3201.00
657.217,3317.00
658.199,2717.00
659.181,2833.00
660.163,3089.00
661.144,2947.00
662.126,2962.00
663.107,2846.00
664.088,4859.00
665.069,3314.00
666.050,2914.00
667.033,2769.00
668.014,3125.00
668.995,2655.00
669.975,3108.00
670.956,3081.00
671.936,3226.00
672.916,3050.00
673.896,3199.00
674.876,2997.00
675.856,2923.00
676.836,2816.00
677.816,2376.00
678.795,2914.00
679.775,2747.00
680.754,3042.00
681.734,3244.00
682.713,3225.00
683.692,2820.00
684.671,2714.00
685.650,2885.00
686.629,2933.00
687.607,2799.00
688.586,2845.00
689.564,2960.00
690.543,3386.00
691.523,2423.00
692.501,2894.00
693.479,3006.00
694.457,2844.00
695.435,2952.00
696.413,2755.00
697.390,2569.00
698.368,2748.00
699.345,3177.00
700.322,3009.00
701.300,3155.00
702.277,3102.00
703.254,3300.00
704.231,2591.00
705.207,3019.00
706.184,2851.00
707.161,2761.00
708.137,2912.00
709.113,2874.00
710.090,2875.00
711.068,2642.00
712.044,2682.00
713.020,2969.00
713.996,2681.00
714.971,2879.00
715.947,2881.00
716.922,2884.00
717.898,2794.00
718.873,2934.00
719.848,2819.00
720.823,2770.00
721.798,3048.00
722.773,2812.00
723.748,2604.00
724.723,3082.00
725.697,2892.00
726.672,2857.00
727.646,2541.00
728.622,3108.00
729.596,2665.00
730.570,2793.00
731.544,3114.00
732.518,3358.00
733.492,2904.00
734.466,2954.00
735.439,3071.00
736.413,3181.00
737.386,2504.00
738.359,2461.00
739.332,2589.00
740.305,2906.00
741.278,3418.00
742.251,3020.00
743.224,2807.00
744.196,2610.00
745.171,3229.00
746.143,3128.00
747.115,2837.00
748.087,2782.00
749.059,3173.00
750.031,2978.00
751.003,3736.00
751.975,3347.00
752.947,2741.00
753.918,3134.00
754.890,2673.00
755.861,2808.00
756.832,3155.00
757.803,2894.00
758.774,2865.00
759.747,2655.00
760.718,3256.00
761.689,2778.00
762.659,2685.00
763.630,3210.00
764.600,2611.00
765.570,3108.00
766.540,3229.00
767.510,3027.00
768.480,3173.00
769.450,2779.00
770.420,2872.00
771.390,2675.00
772.359,2814.00
773.329,2714.00
774.300,2566.00
775.269,2833.00
776.238,3050.00
777.207,3248.00
778.176,2584.00
779.145,2908.00
780.114,2723.00
781.083,2632.00
782.051,2829.00
783.019,2713.00
783.988,3188.00
784.956,2902.00
785.924,3016.00
786.894,2942.00
787.862,2759.00
788.830,3168.00
789.797,2665.00
790.765,2697.00
791.732,2836.00
792.700,2707.00
793.667,2669.00
794.634,2839.00
795.601,2799.00
796.568,2896.00
797.535,2882.00
798.502,3534.00
799.468,2966.00
800.437,2475.00
801.403,2705.00
802.370,3377.00
803.336,3052.00
804.302,2905.00
805.268,2514.00
806.234,2582.00
807.200,2799.00
808.166,2829.00
809.131,2611.00
810.097,3044.00
811.062,3760.00
812.027,3079.00
812.994,2671.00
813.960,2694.00
814.925,2997.00
815.889,2540.00
816.854,3118.00
817.819,2723.00
818.783,2804.00
819.748,3154.00
820.712,2796.00
821.677,2713.00
822.641,2779.00
823.605,2813.00
824.571,3273.00
825.534,2809.00
826.498,2763.00
827.462,2878.00
828.425,2687.00
829.389,3138.00
830.352,2851.00
831.315,2979.00
832.279,2520.00
833.242,2783.00
834.204,2736.00
835.167,2743.00
836.132,3135.00
837.095,2620.00
838.057,2738.00
839.020,2861.00
839.982,2895.00
840.944,2731.00
841.906,2693.00
842.868,3088.00
843.830,2594.00
844.792,3134.00
845.753,2750.00
846.715,2474.00
847.679,2660.00
848.640,2672.00
849.601,2800.00
850.562,3320.00
851.523,2733.00
852.484,2548.00
853.445,3061.00
854.406,2769.00
855.367,2796.00
856.327,3130.00
857.288,2545.00
858.248,2771.00
859.210,2790.00
860.170,2589.00
861.130,3140.00
862.090,2475.00
863.050,2687.00
864.010,2748.00
864.969,2963.00
865.929,2685.00
866.888,2599.00
867.848,2910.00
868.807,2712.00
869.766,2910.00
870.727,2775.00
871.686,3075.00
872.645,3037.00
873.604,3348.00
874.562,2808.00
875.521,2887.00
876.479,3459.00
877.437,2666.00
878.396,2637.00
879.354,3256.00
880.312,2651.00
881.270,2703.00
882.229,3200.00
883.187,2678.00
884.145,2737.00
885.102,3019.00
886.059,2930.00
887.017,2961.00
887.974,2988.00
888.931,3086.00
889.888,2579.00
890.845,2488.00
891.802,2407.00
892.758,2704.00
893.717,2513.00
894.673,2631.00
895.630,2688.00
896.586,2983.00
897.542,2732.00
898.498,2571.00
899.454,2895.00
900.410,2732.00
901.366,2726.00
902.321,3849.00
903.277,2735.00
904.232,2798.00
905.189,2525.00
906.145,2704.00
907.100,2263.00
908.055,2779.00
909.010,2988.00
909.965,2410.00
910.919,2853.00
911.874,2635.00
912.828,2827.00
913.783,2845.00
914.737,2400.00
915.693,2827.00
916.648,2994.00
917.602,3030.00
918.555,2887.00
919.509,2905.00
920.463,2826.00
921.417,2840.00
922.370,2617.00
923.324,2750.00
924.277,2719.00
925.230,2812.00
926.183,2440.00
927.138,2739.00
928.091,3001.00
929.044,2926.00
929.996,2728.00
930.949,2685.00
931.902,2886.00
932.854,2903.00
933.806,2648.00
934.758,3020.00
935.711,3091.00
936.663,2856.00
937.614,2882.00
938.568,2816.00
939.520,2464.00
940.471,2755.00
941.423,2805.00
942.374,2944.00
943.326,2829.00
944.277,2640.00
945.228,2863.00
946.179,2739.00
947.130,3093.00
948.080,2679.00
949.031,2656.00
949.984,2718.00
950.934,2775.00
951.884,2566.00
952.835,2747.00
953.785,2764.00
954.735,2664.00
955.685,2378.00
956.635,2684.00
957.585,2663.00
958.534,2685.00
959.484,2832.00
960.433,2628.00
961.383,2524.00
962.334,3071.00
963.283,2831.00
964.232,2924.00
965.181,2785.00
966.130,2864.00
967.079,2718.00
968.027,2770.00
968.976,2816.00
969.924,2662.00
970.873,2852.00
971.821,2772.00
972.769,3005.00
973.719,2913.00
974.667,2512.00
975.615,2808.00
976.562,2781.00
977.510,2455.00
978.458,2691.00
979.405,2916.00
980.352,2804.00
981.300,3047.00
982.247,2878.00
983.194,2539.00
984.141,2696.00
985.088,2845.00
986.036,2895.00
986.983,3068.00
987.930,3146.00
988.876,2397.00
989.822,2999.00
990.769,2627.00
991.715,2652.00
992.661,2488.00
993.607,2858.00
994.553,3379.00
995.498,2659.00
996.444,2328.00
997.389,2825.00
998.337,2592.00
999.282,2943.00
1000.227,2707.00
1001.173,2764.00
1002.118,2507.00
1003.062,2964.00
1004.007,2755.00
1004.952,3035.00
1005.897,3013.00
1006.841,2763.00
1007.786,2496.00
1008.730,2499.00
1009.674,3211.00
1010.618,2691.00
1011.564,2570.00
1012.508,2433.00
1013.452,2963.00
1014.396,2750.00
1015.339,2682.00
1016.283,2768.00
1017.226,2807.00
1018.170,2742.00
1019.113,2976.00
1020.056,2768.00
1020.999,2824.00
1021.942,2631.00
1022.885,2944.00
1023.828,3064.00
1024.770,2552.00
1025.715,2788.00
1026.657,2735.00
1027.600,2792.00
1028.542,2972.00
1029.484,2809.00
1030.426,2860.00
1031.368,2843.00
1032.310,2653.00
1033.251,2608.00
1034.193,2771.00
1035.135,2556.00
1036.076,2666.00
1037.017,2579.00
1037.959,2921.00
1038.900,2847.00
1039.843,2868.00
1040.784,2793.00
1041.725,2822.00
1042.665,2695.00
1043.606,2790.00
1044.547,2801.00
1045.487,2427.00
1046.427,2713.00
1047.368,2846.00
1048.308,2276.00
1049.248,2586.00
1050.188,2770.00
1051.128,2651.00
1052.067,2705.00
1053.007,2460.00
1053.947,2444.00
1054.886,2641.00
1055.827,2542.00
1056.766,2991.00
1057.706,2485.00
1058.645,2681.00
1059.584,2810.00
1060.522,3061.00
1061.461,2491.00
1062.400,2534.00
1063.338,2678.00
1064.277,2549.00
1065.215,2547.00
1066.154,2450.00
1067.092,2644.00
1068.030,2681.00
1068.968,2914.00
1069.906,3070.00
1070.843,3012.00
1071.781,2793.00
1072.720,2875.00
1073.658,2857.00
1074.595,2613.00
1075.533,2625.00
1076.470,2630.00
1077.407,3050.00
1078.344,2815.00
1079.281,2855.00
1080.217,2374.00
1081.154,2701.00
1082.091,2789.00
1083.027,2507.00
1083.964,2979.00
1084.900,2641.00
1085.836,2698.00
1086.772,2950.00
1087.708,2507.00
1088.644,2874.00
1089.580,2743.00
1090.515,2816.00
1091.451,2640.00
1092.388,2810.00
1093.324,2481.00
1094.259,3311.00
1095.194,2816.00
1096.129,2677.00
1097.064,2613.00
1097.999,2878.00
1098.934,2579.00
1099.869,2584.00
1100.803,2767.00
1101.738,2783.00
1102.672,2444.00
1103.607,2878.00
1104.541,2601.00
1105.475,2570.00
1106.409,2474.00
1107.343,2673.00
1108.277,2460.00
1109.210,2731.00
1110.144,2740.00
1111.078,2716.00
1112.011,2522.00
1112.944,2808.00
1113.878,2767.00
1114.811,2205.00
1115.744,2645.00
1116.678,2377.00
1117.611,2597.00
1118.544,2666.00
1119.477,2819.00
1120.409,2619.00
1121.342,3191.00
1122.274,2795.00
1123.206,4276.00
1124.138,2763.00
1125.070,3035.00
1126.002,2911.00
1126.934,2330.00
1127.866,2609.00
1128.798,2370.00
1129.729,2407.00
1130.661,2691.00
1131.592,2653.00
1132.523,2823.00
1133.454,2820.00
1134.385,2350.00
1135.317,2686.00
1136.247,2627.00
1137.178,2950.00
1138.109,2416.00
1139.039,3069.00
1139.970,2876.00
1140.900,2582.00
1141.831,2376.00
1142.761,2260.00
1143.691,2918.00
1144.621,2684.00
1145.551,2716.00
1146.480,2745.00
1147.410,2908.00
1148.340,2332.00
1149.269,2453.00
1150.199,2641.00
1151.128,3090.00
1152.057,2480.00
1152.979,2605.00
1153.898,2678.00
1154.819,2782.00
1155.739,2701.00
1156.658,2621.00
1157.579,2727.00
1158.498,2704.00
1159.419,2213.00
1160.338,2714.00
1161.256,2731.00
1162.177,2527.00
1163.095,2653.00
1164.016,2746.00
1164.934,2948.00
1165.852,2910.00
1166.772,2659.00
1167.690,2691.00
1168.610,2761.00
1169.528,2697.00
1170.446,2232.00
1171.365,2618.00
1172.283,2555.00
1173.202,2682.00
1174.120,2731.00
1175.037,2544.00
1175.956,2508.00
1176.873,2550.00
1177.792,2549.00
1178.709,3210.00
1179.626,2580.00
1180.544,2929.00
1181.461,2545.00
1182.379,2834.00
1183.296,2668.00
1184.212,2365.00
1185.130,2522.00
1186.046,3010.00
1186.962,2688.00
1187.880,2977.00
1188.796,2727.00
1189.714,2468.00
1190.629,2821.00
1191.545,2761.00
1192.462,2622.00
1193.378,2638.00
1194.295,2384.00
1195.210,2690.00
1196.125,2815.00
1197.042,2760.00
1197.957,2685.00
1198.872,2544.00
1199.788,2585.00
1200.703,2987.00
1201.619,2729.00
1202.534,2554.00
1203.448,2757.00
1204.364,2643.00
1205.278,2319.00
1206.192,2750.00
1207.108,3213.00
1208.022,3062.00
1208.938,2531.00
1209.851,2854.00
1210.765,2912.00
1211.680,2583.00
1212.594,2485.00
1213.507,2630.00
1214.422,3057.00
1215.335,2828.00
1216.248,2595.00
1217.163,2718.00
1218.076,3265.00
1218.990,2783.00
1219.903,2465.00
1220.816,2503.00
1221.730,2644.00
1222.642,2539.00
1223.554,2623.00
1224.469,2762.00
1225.380,2594.00
1226.292,2317.00
1227.206,2854.00
1228.118,3038.00
1229.032,2292.00
1229.943,2544.00
1230.855,2639.00
1231.768,2432.00
1232.679,2721.00
1233.590,2712.00
1234.503,2948.00
1235.414,2519.00
1236.325,2593.00
1237.238,2750.00
1238.149,2772.00
1239.059,2509.00
1239.972,2867.00
1240.882,2502.00
1241.793,2813.00
1242.705,3013.00
1243.615,2630.00
1244.525,2770.00
1245.437,2257.00
1246.347,2730.00
1247.259,2835.00
1248.168,3128.00
1249.078,2936.00
1249.989,2978.00
1250.899,2493.00
1251.808,2547.00
1252.719,2593.00
1253.628,2537.00
1254.537,3088.00
1255.448,2511.00
1256.357,2474.00
1257.266,2707.00
1258.176,2395.00
1259.085,2420.00
1259.993,2518.00
1260.904,2528.00
1261.812,2506.00
1262.720,3230.00
1263.630,2837.00
1264.538,2508.00
1265.446,2776.00
1266.356,2696.00
1267.263,2993.00
1268.171,2482.00
1269.080,2757.00
1269.988,2849.00
1270.895,2585.00
1271.804,2574.00
1272.711,2884.00
1273.619,2799.00
1274.527,2514.00
1275.434,2814.00
1276.341,2481.00
1277.248,2681.00
1278.156,2950.00
1279.063,2516.00
1279.969,2741.00
1280.877,3590.00
1281.783,2891.00
1282.690,2768.00
1283.598,2665.00
1284.503,2550.00
1285.409,2509.00
1286.317,3051.00
1287.223,3109.00
1288.128,2754.00
1289.036,2556.00
1289.941,2631.00
1290.846,2695.00
1291.751,2498.00
1292.658,2613.00
1293.563,3141.00
1294.468,2703.00
1295.375,2810.00
1296.280,2905.00
1297.184,3422.00
1298.091,2779.00
1298.995,2851.00
1299.900,3052.00
1300.806,2574.00
1301.710,2396.00
1302.614,2270.00
1303.518,2955.00
1304.424,2608.00
1305.327,2861.00
1306.231,2657.00
1307.137,2841.00
1308.040,2735.00
1308.943,2713.00
1309.847,2871.00
1310.752,2898.00
1311.655,2346.00
1312.558,2463.00
1313.463,2650.00
1314.366,2583.00
1315.269,2725.00
1316.171,2704.00
1317.076,2563.00
1317.978,2460.00
1318.881,2278.00
1319.785,2514.00
1320.687,2552.00
1321.589,2290.00
1322.491,2533.00
1323.395,2753.00
1324.297,3217.00
1325.198,2824.00
1326.102,2473.00
1327.004,2498.00
1327.905,3110.00
1328.806,2635.00
1329.709,2732.00
1330.611,2606.00
1331.512,2497.00
1332.413,3148.00
1333.316,2719.00
1334.216,2844.00
1335.117,2436.00
1336.020,2722.00
1336.920,2680.00
1337.821,2522.00
1338.721,2957.00
1339.623,2744.00
1340.523,2661.00
1341.423,2560.00
1342.323,2969.00
1343.225,2802.00
1344.125,2505.00
1345.025,2579.00
1345.924,2332.00
1346.826,3043.00
1347.725,3088.00
1348.624,2922.00
1349.524,2526.00
1350.425,2621.00
1351.324,2822.00
1352.223,2849.00
1353.121,2632.00
1354.022,2904.00
1354.921,3118.00
1355.819,2816.00
1356.718,2715.00
1357.618,2429.00
1358.516,2793.00
1359.415,3092.00
1360.313,2760.00
1361.213,2627.00
1362.111,2955.00
1363.008,3322.00
1363.906,2636.00
1364.806,2697.00
1365.703,2791.00
1366.601,2510.00
1367.498,2497.00
1368.397,2880.00
1369.295,2730.00
1370.192,2510.00
1371.089,2757.00
1371.987,2643.00
1372.884,2936.00
1373.781,2456.00
1374.678,2709.00
1375.574,2499.00
1376.473,2791.00
1377.369,2912.00
1378.265,2564.00
1379.161,2663.00
1380.059,2402.00
1380.955,2802.00
1381.851,2388.00
1382.747,2561.00
1383.643,2638.00
1384.540,2432.00
1385.436,2608.00
1386.331,2725.00
1387.227,2842.00
1388.124,2828.00
1389.019,2508.00
1389.914,2652.00
1390.809,2319.00
1391.704,3125.00
1392.601,2597.00
1393.495,2937.00
1394.390,2829.00
1395.285,2950.00
1396.179,2758.00
1397.075,2663.00
1397.969,2730.00
1398.864,2386.00
1399.758,2652.00
1400.652,2689.00
1401.547,2502.00
1402.441,2473.00
1403.335,3052.00
1404.229,2817.00
1405.122,2743.00
1406.017,2677.00
1406.911,2838.00
1407.804,3096.00
1408.697,2667.00
1409.590,2515.00
1410.485,2851.00
1411.378,2720.00
1412.271,2356.00
1413.163,2755.00
1414.056,2862.00
1414.949,3082.00
1415.843,2725.00
1416.735,2648.00
1417.627,2735.00
1418.520,2656.00
1419.412,2896.00
1420.306,2858.00
1421.197,2945.00
1422.089,2943.00
1422.981,3184.00
1423.873,2880.00
1424.764,2861.00
1425.657,2731.00
1426.549,2850.00
1427.440,2893.00
1428.331,2585.00
1429.222,2407.00
1430.113,2790.00
1431.006,2877.00
1431.897,2603.00
1432.787,2698.00
1433.678,2610.00
1434.568,2504.00
1435.459,2942.00
1436.351,2867.00
1437.241,2829.00
1438.131,2856.00
1439.021,2440.00
1439.911,2693.00
1440.801,2783.00
1441.693,2927.00
1442.583,2728.00
1443.472,2689.00
1444.362,2839.00
1445.251,2639.00
1446.140,2602.00
1447.030,2885.00
1447.921,2863.00
1448.810,2551.00
1449.699,3059.00
1450.588,2705.00
1451.476,2611.00
1452.365,2818.00
1453.254,2607.00
1454.144,2563.00
1455.032,2823.00
1455.921,2442.00
1456.809,2956.00
1457.697,2482.00
1458.585,2662.00
1459.473,2642.00
1460.361,2557.00
1461.251,2773.00
1462.138,2784.00
1463.026,2677.00
1463.913,2965.00
1464.801,2603.00
1465.688,2803.00
1466.575,2693.00
1467.463,3119.00
1468.351,2590.00
1469.238,2635.00
1470.125,2303.00
1471.012,2778.00
1471.899,2827.00
1472.785,2521.00
1473.672,2706.00
1474.558,2906.00
1475.446,2869.00
1476.333,2874.00
1477.219,2486.00
1478.105,2648.00
1478.991,2693.00
1479.877,2999.00
1480.762,2677.00
1481.648,2576.00
1482.534,2825.00
1483.419,2731.00
1484.307,2827.00
1485.192,2699.00
1486.077,2549.00
1486.962,2559.00
1487.847,2471.00
1488.732,2539.00
1489.617,2711.00
1490.502,3002.00
1491.387,2875.00
1492.271,2515.00
1493.156,2543.00
1494.042,2527.00
1494.927,2937.00
1495.811,2606.00
1496.695,2890.00
1497.579,3011.00
1498.463,2715.00
1499.347,2751.00
1500.231,2708.00
1501.114,2765.00
1501.998,3023.00
1502.881,2742.00
1503.765,3034.00
1504.648,3137.00
1505.533,2790.00
1506.417,2734.00
1507.300,2657.00
1508.183,2764.00
1509.066,2194.00
1509.948,2977.00
1510.831,3052.00
1511.714,2498.00
1512.596,2824.00
1513.479,2952.00
1514.361,2930.00
1515.243,2724.00
1516.125,2872.00
1517.008,2976.00
1517.890,2689.00
1518.771,2717.00
1519.655,2940.00
1520.537,2649.00
1521.419,2533.00
1522.300,2751.00
1523.182,2847.00
1524.063,2893.00
1524.944,3042.00
1525.825,2902.00
1526.707,2511.00
1527.588,2531.00
1528.468,2807.00
1529.349,2393.00
1530.230,2660.00
1531.111,2890.00
1531.991,2751.00
1532.872,2455.00
1533.752,2695.00
1534.632,2552.00
1535.513,2524.00
1536.393,2890.00
1537.273,3035.00
1538.153,3431.00
1539.032,2469.00
1539.912,2737.00
1540.792,2729.00
1541.672,2782.00
1542.551,2815.00
1543.430,3351.00
1544.310,2754.00
1545.189,2651.00
1546.068,3173.00
1546.947,2855.00
1547.826,3078.00
1548.705,2733.00
1549.584,2955.00
1550.462,2694.00
1551.341,2899.00
1552.219,2800.00
1553.098,2843.00
1553.976,2923.00
1554.854,3128.00
1555.733,2951.00
1556.611,2656.00
1557.489,2515.00
1558.367,2734.00
1559.244,2864.00
1560.122,2731.00
1561.000,2796.00
1561.877,3054.00
1562.755,2585.00
1563.632,2685.00
1564.509,3030.00
1565.386,3109.00
1566.264,2516.00
1567.141,2306.00
1568.017,2863.00
1568.894,2728.00
1569.771,2771.00
1570.648,2813.00
1571.524,2756.00
1572.401,2474.00
1573.277,2501.00
1574.153,2795.00
1575.029,2578.00
1575.906,3493.00
1576.781,2892.00
1577.657,2650.00
1578.533,2966.00
1579.409,2344.00
1580.285,2711.00
1581.160,3101.00
1582.036,2920.00
1582.911,2552.00
1583.786,3080.00
1584.662,2518.00
1585.537,2690.00
1586.412,2809.00
1587.287,2588.00
1588.160,2905.00
1589.035,2380.00
1589.909,2752.00
1590.784,2694.00
1591.658,2520.00
1592.533,2810.00
1593.407,2741.00
1594.281,2637.00
1595.155,3136.00
1596.029,2633.00
1596.903,2680.00
1597.777,2630.00
1598.651,2978.00
1599.525,2429.00
1600.398,2755.00
1601.272,2697.00
1602.144,3273.00
1603.017,2709.00
1603.890,2982.00
1604.763,2810.00
1605.636,2870.00
1606.509,2427.00
1607.382,2587.00
1608.255,2808.00
1609.128,2980.00
1610.000,2701.00
1610.873,2423.00
1611.746,2623.00
1612.616,2648.00
1613.488,2324.00
1614.361,2734.00
1615.233,2678.00
1616.105,2958.00
1616.977,2617.00
1617.849,2564.00
1618.720,3041.00
1619.592,3032.00
1620.464,2809.00
1621.333,3155.00
1622.205,2764.00
1623.076,2747.00
1623.947,2689.00
1624.818,3002.00
1625.689,2858.00
1626.560,2628.00
1627.431,2795.00
1628.302,3178.00
1629.171,2860.00
1630.042,3036.00
1630.912,3425.00
1631.782,3310.00
1632.653,2540.00
1633.523,2865.00
1634.393,3037.00
1635.263,2619.00
1636.131,2732.00
1637.001,2660.00
1637.871,2334.00
1638.741,2346.00
1639.611,2475.00
1640.480,2880.00
1641.350,2561.00
1642.219,2573.00
1643.087,2232.00
1643.956,3122.00
1644.825,3001.00
1645.694,2998.00
1646.563,2903.00
1647.432,2800.00
1648.299,2757.00
1649.167,2847.00
1650.036,2549.00
1650.904,2910.00
1651.773,2964.00
1652.641,2743.00
1653.509,2947.00
1654.376,2619.00
1655.244,2793.00
1656.112,2785.00
1656.980,2707.00
1657.847,2618.00
1658.715,2894.00
1659.581,2654.00
1660.448,2967.00
1661.316,2258.00
1662.183,2781.00
1663.051,2797.00
1663.918,2776.00
1664.783,2738.00
1665.650,2856.00
1666.517,2934.00
1667.384,2739.00
1668.251,2796.00
1669.115,2993.00
1669.982,2705.00
1670.849,3048.00
1671.715,2695.00
1672.581,2884.00
1673.446,2883.00
1674.312,2807.00
1675.178,3132.00
1676.044,2867.00
1676.910,2849.00
1677.774,2770.00
1678.639,2399.00
1679.505,2748.00
1680.370,2951.00
1681.236,3378.00
1682.099,2756.00
1682.965,2758.00
1683.830,2364.00
1684.695,2538.00
1685.560,2665.00
1686.423,2893.00
1687.288,2865.00
1688.153,2808.00
1689.017,2693.00
1689.880,2826.00
1690.745,2902.00
1691.609,2555.00
1692.473,2881.00
1693.338,2958.00
1694.200,3012.00
1695.064,2797.00
1695.928,2670.00
1696.792,2759.00
1697.654,3209.00
1698.517,2812.00
1699.381,2514.00
1700.245,2409.00
1701.106,3047.00
1701.969,2654.00
1702.833,2884.00
1703.696,2656.00
1704.557,2751.00
1705.420,2619.00
1706.283,2745.00
1707.146,2917.00
1708.007,2553.00
1708.870,2523.00
1709.732,2426.00
1710.595,2627.00
1711.455,2514.00
1712.318,2663.00
1713.180,3023.00
1714.040,2812.00
1714.902,2926.00
1715.764,2756.00
1716.626,2542.00
1717.486,2723.00
1718.348,3024.00
1719.209,4944.00
1720.071,2412.00
1720.930,2509.00
1721.792,2606.00
1722.653,2592.00
1723.512,2636.00
1724.374,2725.00
1725.234,2835.00
1726.095,2764.00
1726.954,2781.00
1727.815,2889.00
1728.676,2686.00
1729.535,2995.00
1730.395,2701.00
1731.256,2687.00
1732.114,2807.00
1732.974,2260.00
1733.834,3111.00
1734.693,2903.00
1735.553,2803.00
1736.413,3182.00
1737.272,2616.00
1738.130,2710.00
1738.990,2822.00
1739.849,2655.00
1740.707,3801.00
1741.566,2773.00
1742.426,2789.00
1743.283,3200.00
1744.142,2618.00
1745.001,2438.00
1745.858,2926.00
1746.717,2822.00
1747.576,2857.00
1748.433,2932.00
1749.292,3356.00
1750.150,3400.00
1751.007,2956.00
1751.865,2986.00
1752.723,2780.00
1753.579,2672.00
1754.438,2985.00
1755.296,3004.00
1756.152,2316.00
1757.010,2449.00
1757.865,2933.00
1758.723,2419.00
1759.581,3124.00
1760.436,2728.00
1761.294,3131.00
1762.151,2722.00
1763.006,2702.00
1763.864,2401.00
1764.721,2985.00
1765.576,2827.00
1766.433,2936.00
1767.288,2648.00
1768.144,2834.00
1769.001,2722.00
1769.856,2831.00
1770.712,2957.00
1771.568,2537.00
1772.423,2680.00
1773.279,2644.00
1774.133,2654.00
1774.989,3155.00
1775.845,3182.00
1776.699,2965.00
1777.555,2768.00
1778.409,3312.00
1779.265,2715.00
1780.120,2736.00
1780.974,2751.00
1781.829,2364.00
1782.682,2812.00
1783.538,2586.00
1784.393,2829.00
1785.246,2622.00
1786.101,2900.00
1786.954,2881.00
1787.808,2965.00
1788.661,2507.00
1789.516,2680.00
1790.370,2700.00
1791.223,2963.00
1792.077,2750.00
1792.930,2838.00
1793.784,2632.00
1794.636,2833.00
1795.490,2723.00
1796.344,2816.00
1797.196,2772.00
1798.049,2977.00
1798.901,2631.00
1799.755,3019.00
1800.606,2557.00
1801.460,3308.00
1802.311,3055.00
1803.165,3186.00
1804.018,3147.00
1804.869,2818.00
1805.722,3232.00
1806.573,2830.00
1807.426,2589.00
1808.276,2726.00
1809.129,2696.00
1809.980,2949.00
1810.832,3057.00
1811.683,2647.00
1812.535,3133.00
1813.385,2700.00
1814.237,3022.00
1815.089,2818.00
1815.940,3054.00
1816.791,2694.00
1817.641,2621.00
1818.493,2929.00
1819.343,2860.00
1820.194,2649.00
1821.044,2909.00
1821.895,3010.00
1822.745,2470.00
1823.596,2697.00
1824.445,3179.00
1825.296,2874.00
1826.145,2720.00
1826.996,3004.00
1827.845,2803.00
1828.695,2830.00
1829.544,2769.00
1830.395,2816.00
1831.243,2712.00
1832.094,2495.00
1832.942,3400.00
1833.792,2854.00
1834.640,2840.00
1835.490,2785.00
1836.338,2835.00
1837.186,2653.00
1838.036,2636.00
1838.884,2753.00
1839.733,3091.00
1840.581,2999.00
1841.430,2947.00
1842.278,3173.00
1843.127,2674.00
1843.974,2478.00
1844.823,3219.00
1845.671,2938.00
1846.519,2799.00
1847.366,2824.00
1848.213,2433.00
1849.062,2647.00
1849.909,2505.00
1850.757,3475.00
1851.604,2892.00
1852.452,2706.00
1853.298,2967.00
1854.146,2827.00
1854.993,2819.00
1855.839,3288.00
1856.687,2901.00
1857.532,2911.00
1858.380,2754.00
1859.226,2886.00
1860.073,2897.00
1860.919,2618.00
1861.765,2702.00
1862.612,3005.00
1863.457,2984.00
1864.304,2735.00
1865.150,2900.00
1865.995,2764.00
1866.842,2910.00
1867.686,3004.00
1868.533,2827.00
1869.378,2804.00
1870.223,2824.00
1871.069,2645.00
1871.914,2792.00
1872.760,2751.00
1873.604,2580.00
1874.448,2920.00
1875.294,2955.00
1876.139,2680.00
1876.984,2907.00
1877.828,2465.00
1878.672,2296.00
1879.518,2662.00
1880.361,2960.00
1881.205,2966.00
1882.050,2619.00
1882.894,3273.00
1883.739,2620.00
1884.582,2524.00
1885.425,2605.00
1886.270,3063.00
1887.113,2555.00
1887.956,2884.00
1888.801,2820.00
1889.644,2595.00
1890.486,2399.00
1891.331,2699.00
1892.173,2809.00
1893.017,2836.00
1893.860,3051.00
1894.702,3106.00
1895.546,2799.00
1896.388,3463.00
1897.230,3149.00
1898.074,2683.00
1898.916,2545.00
1899.757,2590.00
1900.601,3482.00
1901.443,3110.00
1902.284,3135.00
1903.125,3262.00
1903.969,2992.00
1904.810,3044.00
1905.651,2905.00
1906.494,3146.00
1907.335,3240.00
1908.176,2909.00
1909.018,2885.00
1909.859,2783.00
1910.700,2649.00
1911.542,3317.00
1912.383,2891.00
1913.223,2399.00
1914.064,2930.00
1914.906,3067.00
1915.746,3154.00
1916.586,3310.00
1917.428,2783.00
1918.268,2848.00
1919.107,2670.00
1919.947,2545.00
1920.789,2717.00
1921.628,3063.00
1922.468,2772.00
1923.309,2649.00
1924.148,3138.00
1924.988,2883.00
1925.827,2766.00
1926.667,2664.00
1927.507,2814.00
1928.345,2585.00
1929.184,2934.00
1930.025,2636.00
1930.864,3041.00
1931.702,3132.00
1932.541,2730.00
1933.381,2969.00
1934.219,2952.00
1935.057,3115.00
1935.896,2549.00
1936.735,2773.00
1937.573,2718.00
1938.411,2617.00
1939.249,2942.00
1940.089,2675.00
1940.927,3043.00
1941.764,3096.00
1942.602,2739.00
1943.439,2692.00
1944.278,2790.00
1945.115,2734.00
1945.953,2552.00
1946.790,2875.00
1947.628,3157.00
1948.465,2945.00
1949.302,2957.00
1950.139,2888.00
1950.976,2670.00
1951.814,2979.00
1952.651,2851.00
1953.487,2551.00
1954.323,3105.00
1955.160,2772.00
1955.998,3199.00
1956.834,2787.00
1957.670,2890.00
1958.506,3042.00
1959.342,2917.00
1960.177,2883.00
1961.015,2934.00
1961.850,2841.00
1962.686,2872.00
1963.521,2854.00
1964.357,3070.00
1965.192,2589.00
1966.029,2951.00
1966.864,2721.00
1967.699,3049.00
1968.534,2849.00
1969.369,3067.00
1970.204,2791.00
1971.040,2862.00
1971.875,2794.00
1972.709,2855.00
1973.544,2614.00
1974.378,2710.00
1975.212,2929.00
1976.047,2689.00
1976.882,2678.00
1977.716,3221.00
1978.550,2544.00
1979.384,2779.00
1980.218,2755.00
1981.052,2776.00
1981.885,2826.00
1982.719,2833.00
1983.554,2999.00
1984.388,3099.00
1985.221,2876.00
1986.054,3049.00
1986.887,2883.00
1987.720,2666.00
1988.553,3155.00
1989.386,2941.00
1990.219,2958.00
1991.053,3155.00
1991.886,2696.00
1992.719,3019.00
1993.551,2339.00
1994.383,2961.00
1995.216,2722.00
1996.048,2525.00
1996.880,3007.00
1997.712,2699.00
1998.544,2807.00
1999.376,2916.00
2000.208,3095.00
2001.040,3263.00
2001.873,2627.00
2002.705,2634.00
2003.536,2873.00
2004.367,2883.00
2005.199,2874.00
2006.030,2698.00
2006.861,2633.00
2007.692,2842.00
2008.523,2671.00
2009.354,2881.00
2010.185,2636.00
2011.016,3006.00
2011.846,3061.00
2012.677,2763.00
2013.507,3190.00
2014.338,3009.00
2015.168,2753.00
2015.999,3347.00
2016.829,2775.00
2017.659,3053.00
2018.489,3363.00
2019.319,2651.00
2020.149,3006.00
2020.980,2859.00
2021.810,2619.00
2022.639,2718.00
2023.469,2682.00
2024.298,2485.00
2025.128,2406.00
2025.957,2423.00
2026.786,2284.00
2027.615,2444.00
2028.444,2658.00
2029.273,2828.00
2030.102,2438.00
2030.931,2677.00
2031.758,2949.00
2032.586,2604.00
2033.415,2681.00
2034.243,2256.00
2035.072,2058.00
2035.900,2571.00
2036.728,2404.00
2037.556,2418.00
2038.385,2449.00
2039.213,2260.00
2040.040,2242.00
2040.868,2212.00
2041.696,2272.00
2042.524,2290.00
2043.351,2445.00
2044.179,2261.00
2045.006,2044.00
