RamanScope Measure Spectrum Data V3.72

<< MEASURE CONDITION >>
Exposure Type,Aver
Exposure Time [sec],15
Exposure Count,4
Measure Time,2023/07/15 15:21:36
Data Name,""
Data Comment,""
Rayleigh Wave[nm],532.0

<< SAMPLE SPECTRUM >>
Wave[dcm-1],No136
146.591,413.75
147.626,480.75
148.664,613.25
149.699,708.50
150.737,784.50
151.772,890.25
152.809,908.00
153.846,1034.75
154.881,1086.75
155.918,1173.75
156.953,1219.75
157.989,1293.50
159.026,1278.75
160.060,1369.00
161.096,1348.75
162.130,1381.25
163.167,1424.50
164.200,1422.50
165.236,1466.75
166.272,1473.75
167.305,1506.00
168.341,1514.00
169.374,1561.75
170.409,1589.75
171.445,1615.00
172.477,1655.00
173.512,1663.50
174.545,1670.75
175.580,1724.50
176.614,1702.00
177.647,1772.00
178.681,1784.50
179.713,1722.25
180.747,1788.25
181.781,1791.75
182.813,1783.50
183.847,1803.25
184.878,1766.50
185.912,1818.00
186.945,1851.00
187.976,1815.25
189.010,1845.50
190.043,1896.50
191.073,1952.50
192.106,1943.25
193.137,1984.50
194.170,2061.50
195.202,2128.00
196.232,2119.75
197.265,2195.50
198.297,2240.00
199.327,2271.75
200.359,2406.25
201.388,2424.50
202.420,2583.25
203.452,2678.75
204.481,2718.00
205.512,2938.00
206.544,3072.00
207.573,3267.25
208.604,3404.00
209.635,3632.75
210.663,3880.25
211.694,4153.00
212.725,4382.25
213.753,4698.50
214.783,4927.50
215.813,5149.25
216.841,5355.50
217.871,5419.25
218.899,5499.25
219.929,5452.50
220.959,5392.75
221.986,5195.50
223.016,4960.00
224.045,4686.25
225.072,4444.75
226.101,4189.25
227.130,3960.75
228.157,3688.50
229.185,3580.00
230.214,3395.75
231.241,3262.00
232.269,3098.00
233.297,3022.50
234.323,2957.00
235.351,2919.25
236.379,2805.75
237.407,2761.00
238.433,2704.50
239.460,2681.25
240.488,2620.50
241.513,2660.75
242.540,2653.75
243.568,2668.25
244.592,2632.00
245.619,2651.25
246.646,2619.50
247.671,2640.50
248.697,2642.25
249.724,2638.75
250.748,2721.75
251.774,2690.00
252.801,2735.00
253.827,2777.25
254.850,2764.00
255.876,2795.75
256.902,2887.25
257.925,2867.00
258.951,2905.25
259.976,2989.75
260.999,3053.75
262.024,3157.00
263.049,3193.75
264.074,3241.75
265.097,3338.25
266.122,3385.75
267.146,3462.50
268.168,3521.00
269.193,3628.00
270.217,3681.00
271.241,3731.75
272.263,3762.50
273.287,3798.50
274.311,3906.00
275.332,3951.75
276.356,3942.75
277.379,3943.00
278.402,3989.75
279.424,3906.50
280.447,3872.00
281.470,3858.00
282.492,3804.75
283.513,3721.00
284.536,3628.25
285.558,3555.50
286.581,3532.75
287.601,3375.75
288.623,3349.75
289.645,3307.00
290.665,3166.50
291.687,3165.00
292.709,3063.00
293.730,2965.50
294.750,2900.50
295.771,2811.50
296.792,2786.75
297.813,2642.50
298.832,2590.50
299.853,2500.25
300.874,2423.25
301.895,2411.75
302.913,2286.75
303.934,2347.50
304.954,2277.75
305.975,2302.75
306.993,2151.00
308.013,2151.00
309.033,2027.25
310.052,2007.75
311.072,2018.00
312.090,2045.50
313.109,2011.50
314.129,1959.25
315.148,1889.00
316.165,1908.00
317.184,1866.75
318.203,1884.50
319.222,1839.50
320.238,1803.25
321.257,1832.50
322.275,1842.25
323.294,1789.75
324.312,1755.00
325.328,1721.50
326.346,1734.50
327.364,1782.75
328.382,1725.75
329.397,1748.00
330.415,1736.50
331.432,1719.50
332.450,1733.00
333.467,1703.00
334.482,1686.25
335.499,1713.25
336.516,1691.00
337.533,1667.25
338.547,1646.75
339.564,1706.75
340.580,1709.25
341.597,1678.25
342.613,1654.00
343.627,1652.75
344.643,1701.75
345.659,1666.75
346.675,1640.25
347.690,1681.50
348.704,1638.50
349.719,1691.25
350.735,1663.00
351.750,1680.00
352.765,1666.50
353.778,1698.25
354.793,1669.00
355.808,1652.00
356.822,1683.75
357.837,1682.50
358.851,1723.00
359.864,1725.50
360.878,1741.25
361.892,1777.00
362.906,1743.25
363.920,1773.50
364.932,1741.75
365.945,1747.00
366.959,1757.75
367.972,1759.25
368.986,1810.25
369.999,1784.00
371.010,1787.00
372.023,1825.50
373.036,1833.50
374.049,1843.50
375.061,1856.25
376.072,1870.50
377.084,1889.50
378.097,1881.75
379.109,1911.25
380.121,1875.50
381.133,1917.25
382.143,1899.50
383.155,1888.00
384.166,1941.75
385.178,1904.50
386.189,1935.75
387.201,1938.75
388.212,1904.25
389.221,1965.75
390.232,1930.50
391.243,1857.75
392.254,1886.00
393.264,1898.75
394.275,1868.50
395.283,1889.50
396.294,1815.25
397.304,1750.00
398.314,1843.00
399.324,1837.75
400.334,1794.75
401.344,1777.00
402.351,1781.25
403.361,1776.50
404.370,1670.75
405.380,1720.75
406.389,1722.25
407.398,1683.75
408.407,1655.25
409.414,1621.00
410.423,1640.25
411.431,1626.00
412.440,1602.75
413.448,1585.00
414.457,1611.75
415.465,1600.25
416.471,1547.25
417.479,1590.25
418.487,1509.00
419.495,1514.75
420.503,1541.75
421.510,1518.75
422.518,1550.25
423.525,1467.75
424.530,1488.50
425.537,1499.00
426.544,1468.75
427.551,1498.25
428.558,1449.00
429.565,1466.50
430.571,1507.00
431.578,1437.25
432.582,1451.75
433.588,1457.75
434.595,1432.75
435.601,1448.50
436.607,1464.25
437.612,1458.00
438.618,1443.50
439.624,1427.00
440.627,1431.25
441.633,1446.75
442.638,1412.75
443.643,1410.75
444.648,1453.00
445.653,1483.00
446.658,1486.00
447.663,1435.25
448.667,1461.25
449.672,1449.50
450.674,1430.75
451.678,1456.50
452.682,1482.75
453.687,1446.75
454.690,1433.00
455.694,1480.25
456.698,1495.00
457.702,1510.25
458.705,1471.00
459.709,1492.25
460.710,1478.75
461.713,1518.25
462.716,1501.25
463.719,1495.25
464.722,1468.75
465.725,1452.50
466.727,1471.00
467.730,1507.00
468.732,1533.75
469.735,1524.00
470.737,1539.50
471.737,1501.75
472.739,1490.75
473.741,1524.75
474.742,1489.75
475.744,1543.50
476.746,1564.25
477.747,1553.00
478.748,1507.25
479.750,1509.75
480.751,1591.25
481.752,1566.75
482.753,1573.00
483.751,1565.75
484.752,1561.00
485.753,1533.25
486.753,1563.00
487.753,1541.75
488.754,1517.50
489.754,1550.75
490.754,1532.75
491.754,1519.50
492.754,1566.25
493.753,1502.50
494.753,1534.50
495.752,1534.75
496.752,1510.75
497.749,1512.75
498.748,1482.00
499.747,1502.00
500.746,1497.75
501.745,1471.25
502.744,1473.00
503.742,1479.50
504.741,1469.00
505.739,1451.25
506.737,1481.25
507.735,1469.00
508.734,1457.00
509.732,1466.75
510.729,1448.25
511.727,1506.00
512.725,1460.50
513.720,1432.25
514.718,1456.25
515.715,1485.75
516.712,1445.75
517.709,1445.50
518.706,1468.75
519.703,1435.75
520.700,1438.25
521.696,1430.00
522.693,1418.50
523.689,1448.25
524.686,1444.00
525.682,1441.25
526.678,1447.50
527.674,1458.50
528.670,1463.25
529.666,1461.50
530.661,1428.25
531.657,1472.50
532.652,1464.50
533.648,1501.75
534.641,1411.25
535.636,1442.25
536.631,1454.75
537.626,1467.75
538.621,1461.00
539.616,1477.00
540.610,1428.00
541.605,1434.25
542.599,1461.50
543.593,1418.25
544.587,1472.50
545.581,1457.75
546.575,1479.75
547.569,1457.50
548.563,1478.50
549.557,1432.25
550.550,1499.75
551.543,1476.00
552.537,1502.25
553.530,1476.00
554.523,1474.50
555.516,1481.50
556.509,1471.50
557.502,1517.00
558.494,1502.75
559.487,1528.25
560.479,1524.25
561.472,1417.50
562.464,1526.50
563.456,1460.25
564.448,1526.00
565.440,1510.50
566.432,1504.50
567.423,1527.50
568.415,1540.75
569.404,1544.50
570.396,1532.25
571.387,1543.50
572.378,1500.00
573.369,1527.75
574.360,1556.25
575.351,1611.25
576.341,1572.25
577.332,1606.50
578.323,1574.75
579.313,1593.25
580.303,1601.00
581.293,1614.25
582.283,1570.75
583.273,1570.75
584.263,1593.00
585.253,1631.50
586.243,1595.25
587.232,1569.00
588.222,1551.25
589.211,1603.25
590.200,1547.50
591.189,1578.75
592.178,1550.75
593.167,1579.25
594.156,1537.75
595.145,1540.50
596.133,1554.75
597.122,1605.25
598.110,1558.25
599.098,1478.00
600.086,1518.50
601.074,1533.50
602.062,1494.50
603.050,1498.75
604.038,1493.25
605.025,1474.50
606.013,1511.50
607.000,1477.50
607.987,1474.25
608.975,1413.00
609.962,1471.50
610.949,1473.50
611.936,1404.00
612.922,1426.25
613.909,1432.75
614.895,1388.50
615.882,1412.00
616.868,1467.50
617.854,1415.25
618.841,1429.25
619.826,1334.50
620.812,1362.50
621.798,1405.00
622.784,1359.25
623.769,1365.00
624.755,1394.50
625.740,1348.25
626.725,1386.50
627.711,1390.75
628.698,1311.50
629.683,1326.50
630.667,1281.75
631.652,1325.50
632.637,1319.25
633.621,1301.25
634.606,1312.00
635.590,1304.75
636.574,1283.75
637.558,1298.25
638.542,1289.50
639.526,1292.75
640.510,1300.75
641.493,1286.00
642.477,1316.00
643.460,1266.50
644.444,1245.00
645.427,1246.00
646.410,1259.50
647.393,1309.25
648.376,1257.00
649.359,1212.00
650.341,1227.50
651.324,1251.50
652.307,1247.25
653.289,1270.50
654.271,1169.50
655.253,1219.50
656.235,1195.00
657.217,1234.75
658.199,1184.25
659.181,1196.00
660.163,1204.50
661.144,1163.50
662.126,1182.25
663.107,1203.00
664.088,1182.75
665.069,1210.00
666.050,1144.00
667.033,1177.75
668.014,1141.50
668.995,1216.00
669.975,1137.75
670.956,1169.00
671.936,1217.25
672.916,1174.25
673.896,1172.00
674.876,1149.25
675.856,1128.75
676.836,1121.25
677.816,1133.25
678.795,1156.75
679.775,1102.75
680.754,1099.25
681.734,1112.00
682.713,1098.00
683.692,1115.25
684.671,1119.50
685.650,1081.00
686.629,1102.50
687.607,1091.50
688.586,1078.25
689.564,1114.50
690.543,1081.50
691.523,1099.00
692.501,1086.50
693.479,1016.00
694.457,1059.25
695.435,1065.50
696.413,1052.25
697.390,1062.00
698.368,1038.50
699.345,1065.00
700.322,1053.75
701.300,1049.75
702.277,1071.25
703.254,1038.50
704.231,1011.50
705.207,1016.00
706.184,1028.00
707.161,1032.50
708.137,1023.25
709.113,1013.50
710.090,1058.50
711.068,1055.25
712.044,1021.50
713.020,998.25
713.996,991.75
714.971,1018.50
715.947,1006.75
716.922,1007.75
717.898,985.50
718.873,1014.00
719.848,1035.25
720.823,1007.25
721.798,989.00
722.773,1045.75
723.748,964.25
724.723,1001.75
725.697,1023.50
726.672,997.00
727.646,1001.25
728.622,1019.00
729.596,1002.00
730.570,1030.25
731.544,967.50
732.518,958.25
733.492,972.25
734.466,990.50
735.439,984.50
736.413,998.75
737.386,940.75
738.359,941.75
739.332,1055.25
740.305,940.50
741.278,962.00
742.251,953.25
743.224,958.50
744.196,946.25
745.171,987.50
746.143,931.50
747.115,967.50
748.087,966.25
749.059,960.25
750.031,937.00
751.003,938.25
751.975,931.50
752.947,998.00
753.918,959.25
754.890,963.25
755.861,956.50
756.832,973.50
757.803,950.00
758.774,964.00
759.747,974.00
760.718,924.75
761.689,898.25
762.659,987.75
763.630,925.50
764.600,922.25
765.570,902.25
766.540,954.75
767.510,979.75
768.480,961.50
769.450,916.25
770.420,967.75
771.390,956.00
772.359,891.00
773.329,892.50
774.300,932.00
775.269,927.25
776.238,899.50
777.207,953.50
778.176,897.50
779.145,875.75
780.114,879.00
781.083,898.50
782.051,897.75
783.019,916.50
783.988,861.00
784.956,893.50
785.924,876.25
786.894,942.25
787.862,933.00
788.830,873.50
789.797,851.00
790.765,900.25
791.732,908.75
792.700,912.50
793.667,904.50
794.634,921.50
795.601,901.50
796.568,888.00
797.535,883.50
798.502,895.50
799.468,905.75
800.437,906.00
801.403,860.50
802.370,880.75
803.336,877.25
804.302,896.00
805.268,886.75
806.234,853.00
807.200,884.00
808.166,873.25
809.131,922.50
810.097,882.25
811.062,878.00
812.027,898.50
812.994,861.25
813.960,901.00
814.925,903.25
815.889,824.00
816.854,860.50
817.819,826.75
818.783,875.50
819.748,877.00
820.712,852.75
821.677,849.50
822.641,856.50
823.605,866.50
824.571,827.50
825.534,841.00
826.498,859.25
827.462,839.75
828.425,882.50
829.389,838.00
830.352,852.25
831.315,859.50
832.279,813.75
833.242,832.25
834.204,797.75
835.167,855.75
836.132,850.75
837.095,862.00
838.057,842.75
839.020,862.00
839.982,871.00
840.944,817.75
841.906,862.75
842.868,854.00
843.830,802.25
844.792,853.00
845.753,825.00
846.715,815.25
847.679,808.50
848.640,841.00
849.601,828.75
850.562,879.75
851.523,867.25
852.484,818.75
853.445,787.25
854.406,826.00
855.367,837.25
856.327,880.00
857.288,831.75
858.248,861.00
859.210,855.25
860.170,854.00
861.130,879.50
862.090,807.00
863.050,846.00
864.010,846.00
864.969,826.25
865.929,802.25
866.888,844.50
867.848,804.00
868.807,803.25
869.766,792.00
870.727,807.25
871.686,799.25
872.645,815.00
873.604,840.00
874.562,818.50
875.521,781.25
876.479,798.75
877.437,788.75
878.396,814.25
879.354,832.50
880.312,828.75
881.270,778.00
882.229,801.50
883.187,823.00
884.145,848.00
885.102,831.00
886.059,796.50
887.017,769.00
887.974,816.50
888.931,802.25
889.888,804.25
890.845,795.00
891.802,760.25
892.758,798.00
893.717,812.00
894.673,789.00
895.630,802.25
896.586,797.00
897.542,798.50
898.498,794.75
899.454,816.75
900.410,822.25
901.366,822.50
902.321,802.00
903.277,777.25
904.232,791.25
905.189,789.00
906.145,813.25
907.100,791.25
908.055,747.00
909.010,765.25
909.965,785.75
910.919,820.00
911.874,761.75
912.828,761.50
913.783,786.25
914.737,829.75
915.693,838.75
916.648,771.25
917.602,839.75
918.555,781.25
919.509,769.00
920.463,823.75
921.417,742.75
922.370,813.25
923.324,800.00
924.277,841.50
925.230,813.75
926.183,770.00
927.138,767.25
928.091,770.50
929.044,797.00
929.996,822.00
930.949,813.25
931.902,802.00
932.854,786.25
933.806,782.00
934.758,817.00
935.711,768.00
936.663,738.50
937.614,745.75
938.568,780.25
939.520,785.75
940.471,787.00
941.423,830.50
942.374,806.00
943.326,789.00
944.277,793.75
945.228,761.25
946.179,747.25
947.130,758.75
948.080,760.75
949.031,758.00
949.984,784.25
950.934,765.00
951.884,748.00
952.835,805.75
953.785,765.50
954.735,806.25
955.685,797.75
956.635,783.75
957.585,775.75
958.534,806.25
959.484,788.75
960.433,780.25
961.383,772.00
962.334,779.00
963.283,766.00
964.232,760.00
965.181,755.00
966.130,752.00
967.079,777.00
968.027,755.75
968.976,821.25
969.924,768.75
970.873,721.50
971.821,324.50
972.769,-563.75
973.719,-777.25
974.667,120.00
975.615,672.75
976.562,762.50
977.510,767.50
978.458,799.00
979.405,764.25
980.352,756.75
981.300,743.25
982.247,750.50
983.194,800.50
984.141,787.50
985.088,785.50
986.036,793.00
986.983,742.50
987.930,753.50
988.876,767.50
989.822,765.50
990.769,744.50
991.715,787.75
992.661,788.75
993.607,791.25
994.553,798.75
995.498,768.25
996.444,793.00
997.389,811.00
998.337,783.25
999.282,772.25
1000.227,790.00
1001.173,835.25
1002.118,764.25
1003.062,799.25
1004.007,807.00
1004.952,756.50
1005.897,763.75
1006.841,760.50
1007.786,757.00
1008.730,824.25
1009.674,758.50
1010.618,779.50
1011.564,801.25
1012.508,758.50
1013.452,831.00
1014.396,768.75
1015.339,793.75
1016.283,809.75
1017.226,796.00
1018.170,800.50
1019.113,815.50
1020.056,760.00
1020.999,781.50
1021.942,819.75
1022.885,795.25
1023.828,787.50
1024.770,798.00
1025.715,821.50
1026.657,785.25
1027.600,818.00
1028.542,790.00
1029.484,816.50
1030.426,783.50
1031.368,820.00
1032.310,787.75
1033.251,752.50
1034.193,805.50
1035.135,791.50
1036.076,797.50
1037.017,802.50
1037.959,793.75
1038.900,780.75
1039.843,785.25
1040.784,855.25
1041.725,843.75
1042.665,809.75
1043.606,794.25
1044.547,794.75
1045.487,776.00
1046.427,763.00
1047.368,795.25
1048.308,816.00
1049.248,809.00
1050.188,825.50
1051.128,811.50
1052.067,792.00
1053.007,819.50
1053.947,842.50
1054.886,789.50
1055.827,829.75
1056.766,848.50
1057.706,803.50
1058.645,844.25
1059.584,849.50
1060.522,816.00
1061.461,791.50
1062.400,821.25
1063.338,850.75
1064.277,810.75
1065.215,805.50
1066.154,795.50
1067.092,834.00
1068.030,803.25
1068.968,820.00
1069.906,840.50
1070.843,820.00
1071.781,825.50
1072.720,832.00
1073.658,826.50
1074.595,849.50
1075.533,837.50
1076.470,833.50
1077.407,856.00
1078.344,853.50
1079.281,811.75
1080.217,837.50
1081.154,827.00
1082.091,832.50
1083.027,834.50
1083.964,812.00
1084.900,843.00
1085.836,781.25
1086.772,873.25
1087.708,829.75
1088.644,818.25
1089.580,843.25
1090.515,892.25
1091.451,853.00
1092.388,855.25
1093.324,869.25
1094.259,832.00
1095.194,876.25
1096.129,805.25
1097.064,817.50
1097.999,825.25
1098.934,836.75
1099.869,836.00
1100.803,847.75
1101.738,819.75
1102.672,815.75
1103.607,868.75
1104.541,786.75
1105.475,828.75
1106.409,836.75
1107.343,844.25
1108.277,813.75
1109.210,796.50
1110.144,821.50
1111.078,834.00
1112.011,821.75
1112.944,789.25
1113.878,841.75
1114.811,834.75
1115.744,809.50
1116.678,862.00
1117.611,799.75
1118.544,833.75
1119.477,835.25
1120.409,786.75
1121.342,829.50
1122.274,812.00
1123.206,971.25
1124.138,854.25
1125.070,815.75
1126.002,846.50
1126.934,830.00
1127.866,783.00
1128.798,797.25
1129.729,788.25
1130.661,802.75
1131.592,786.50
1132.523,786.75
1133.454,845.75
1134.385,844.00
1135.317,801.00
1136.247,834.50
1137.178,818.75
1138.109,767.25
1139.039,880.00
1139.970,812.25
1140.900,843.50
1141.831,822.25
1142.761,803.00
1143.691,806.25
1144.621,846.75
1145.551,812.00
1146.480,821.50
1147.410,784.50
1148.340,781.25
1149.269,787.00
1150.199,838.50
1151.128,817.25
1152.057,791.75
1152.979,794.75
1153.898,817.50
1154.819,834.25
1155.739,759.00
1156.658,815.25
1157.579,817.75
1158.498,818.00
1159.419,790.75
1160.338,777.50
1161.256,813.25
1162.177,779.25
1163.095,808.75
1164.016,816.75
1164.934,830.50
1165.852,847.75
1166.772,810.00
1167.690,849.25
1168.610,813.25
1169.528,826.50
1170.446,825.25
1171.365,840.50
1172.283,847.00
1173.202,833.75
1174.120,820.75
1175.037,874.25
1175.956,816.00
1176.873,867.25
1177.792,820.00
1178.709,871.00
1179.626,806.50
1180.544,826.25
1181.461,811.00
1182.379,795.75
1183.296,811.25
1184.212,814.75
1185.130,817.50
1186.046,768.50
1186.962,847.00
1187.880,804.00
1188.796,831.75
1189.714,823.50
1190.629,864.25
1191.545,841.50
1192.462,801.50
1193.378,846.00
1194.295,811.50
1195.210,847.00
1196.125,849.25
1197.042,845.75
1197.957,839.25
1198.872,841.25
1199.788,829.50
1200.703,856.25
1201.619,858.75
1202.534,859.00
1203.448,873.00
1204.364,865.25
1205.278,857.75
1206.192,870.75
1207.108,862.00
1208.022,876.25
1208.938,864.25
1209.851,866.00
1210.765,859.25
1211.680,852.50
1212.594,841.00
1213.507,851.50
1214.422,887.50
1215.335,899.00
1216.248,847.50
1217.163,899.50
1218.076,876.50
1218.990,889.75
1219.903,921.25
1220.816,859.25
1221.730,871.50
1222.642,874.75
1223.554,886.00
1224.469,858.75
1225.380,893.25
1226.292,904.00
1227.206,872.00
1228.118,945.50
1229.032,903.75
1229.943,917.00
1230.855,921.75
1231.768,915.50
1232.679,890.50
1233.590,902.50
1234.503,917.50
1235.414,911.00
1236.325,879.00
1237.238,903.00
1238.149,885.50
1239.059,913.50
1239.972,898.50
1240.882,910.50
1241.793,966.75
1242.705,925.25
1243.615,957.75
1244.525,929.25
1245.437,917.00
1246.347,910.75
1247.259,954.00
1248.168,951.75
1249.078,936.75
1249.989,956.50
1250.899,922.25
1251.808,935.50
1252.719,923.00
1253.628,911.00
1254.537,933.50
1255.448,915.50
1256.357,945.50
1257.266,962.50
1258.176,897.50
1259.085,944.50
1259.993,939.50
1260.904,983.50
1261.812,930.50
1262.720,967.00
1263.630,909.00
1264.538,962.25
1265.446,932.75
1266.356,977.75
1267.263,960.50
1268.171,966.25
1269.080,988.00
1269.988,934.00
1270.895,951.00
1271.804,941.75
1272.711,970.50
1273.619,969.25
1274.527,965.25
1275.434,967.50
1276.341,929.25
1277.248,914.75
1278.156,935.00
1279.063,961.75
1279.969,929.75
1280.877,954.00
1281.783,912.75
1282.690,972.25
1283.598,944.00
1284.503,935.25
1285.409,933.75
1286.317,899.00
1287.223,923.50
1288.128,930.50
1289.036,893.75
1289.941,901.00
1290.846,908.25
1291.751,925.25
1292.658,892.50
1293.563,872.75
1294.468,945.50
1295.375,921.00
1296.280,912.00
1297.184,890.25
1298.091,889.50
1298.995,914.75
1299.900,910.00
1300.806,893.50
1301.710,881.50
1302.614,907.25
1303.518,890.00
1304.424,877.75
1305.327,877.50
1306.231,862.00
1307.137,889.00
1308.040,838.75
1308.943,882.00
1309.847,871.50
1310.752,880.75
1311.655,836.75
1312.558,852.00
1313.463,857.00
1314.366,836.50
1315.269,870.00
1316.171,838.25
1317.076,859.00
1317.978,813.50
1318.881,841.75
1319.785,852.25
1320.687,805.00
1321.589,799.00
1322.491,823.75
1323.395,815.00
1324.297,838.50
1325.198,807.50
1326.102,808.50
1327.004,829.75
1327.905,793.00
1328.806,812.50
1329.709,795.25
1330.611,772.25
1331.512,824.00
1332.413,747.75
1333.316,814.50
1334.216,759.75
1335.117,776.25
1336.020,799.50
1336.920,800.25
1337.821,774.75
1338.721,751.25
1339.623,758.25
1340.523,738.75
1341.423,745.00
1342.323,773.00
1343.225,732.25
1344.125,770.00
1345.025,775.75
1345.924,747.75
1346.826,761.50
1347.725,709.25
1348.624,720.75
1349.524,743.75
1350.425,757.75
1351.324,780.75
1352.223,770.00
1353.121,755.00
1354.022,731.25
1354.921,675.75
1355.819,723.50
1356.718,760.50
1357.618,699.50
1358.516,698.00
1359.415,710.25
1360.313,716.75
1361.213,678.25
1362.111,683.50
1363.008,718.50
1363.906,691.25
1364.806,718.00
1365.703,737.75
1366.601,707.25
1367.498,741.25
1368.397,667.50
1369.295,694.25
1370.192,681.00
1371.089,755.75
1371.987,659.50
1372.884,690.75
1373.781,688.00
1374.678,706.50
1375.574,666.75
1376.473,677.75
1377.369,657.25
1378.265,738.75
1379.161,723.75
1380.059,636.25
1380.955,676.25
1381.851,642.50
1382.747,650.00
1383.643,712.00
1384.540,655.00
1385.436,668.00
1386.331,648.75
1387.227,648.50
1388.124,629.75
1389.019,670.50
1389.914,625.25
1390.809,639.75
1391.704,648.25
1392.601,659.75
1393.495,648.50
1394.390,625.75
1395.285,624.00
1396.179,623.00
1397.075,627.25
1397.969,578.25
1398.864,669.75
1399.758,643.00
1400.652,610.50
1401.547,649.50
1402.441,605.25
1403.335,608.25
1404.229,623.00
1405.122,632.75
1406.017,646.25
1406.911,631.00
1407.804,633.75
1408.697,608.50
1409.590,625.00
1410.485,616.00
1411.378,631.50
1412.271,641.75
1413.163,601.75
1414.056,677.25
1414.949,593.50
1415.843,583.25
1416.735,632.00
1417.627,609.00
1418.520,571.75
1419.412,564.75
1420.306,594.25
1421.197,610.50
1422.089,612.75
1422.981,586.25
1423.873,634.00
1424.764,600.00
1425.657,611.00
1426.549,599.00
1427.440,605.75
1428.331,613.25
1429.222,623.50
1430.113,598.00
1431.006,601.75
1431.897,593.50
1432.787,591.00
1433.678,572.25
1434.568,604.25
1435.459,579.75
1436.351,606.50
1437.241,558.25
1438.131,637.00
1439.021,598.00
1439.911,597.75
1440.801,575.75
1441.693,520.25
1442.583,584.50
1443.472,549.75
1444.362,575.00
1445.251,577.25
1446.140,591.75
1447.030,559.50
1447.921,605.25
1448.810,583.25
1449.699,602.75
1450.588,592.00
1451.476,593.75
1452.365,560.75
1453.254,603.75
1454.144,560.25
1455.032,548.25
1455.921,620.00
1456.809,583.00
1457.697,570.00
1458.585,571.00
1459.473,577.25
1460.361,578.50
1461.251,533.50
1462.138,556.50
1463.026,568.25
1463.913,570.25
1464.801,571.50
1465.688,600.50
1466.575,550.25
1467.463,596.25
1468.351,552.75
1469.238,572.25
1470.125,551.50
1471.012,543.00
1471.899,551.00
1472.785,545.50
1473.672,553.75
1474.558,557.25
1475.446,544.75
1476.333,578.50
1477.219,547.50
1478.105,544.25
1478.991,530.00
1479.877,540.00
1480.762,535.25
1481.648,533.75
1482.534,547.50
1483.419,572.75
1484.307,550.25
1485.192,533.25
1486.077,546.00
1486.962,539.25
1487.847,550.75
1488.732,560.25
1489.617,535.50
1490.502,579.50
1491.387,561.50
1492.271,513.00
1493.156,541.50
1494.042,554.50
1494.927,521.50
1495.811,543.25
1496.695,550.75
1497.579,567.75
1498.463,523.75
1499.347,545.25
1500.231,563.00
1501.114,509.75
1501.998,532.75
1502.881,556.75
1503.765,533.00
1504.648,602.75
1505.533,517.00
1506.417,557.75
1507.300,528.00
1508.183,541.50
1509.066,543.00
1509.948,554.75
1510.831,510.75
1511.714,534.50
1512.596,535.75
1513.479,525.75
1514.361,513.00
1515.243,547.25
1516.125,525.75
1517.008,514.00
1517.890,498.00
1518.771,522.50
1519.655,564.75
1520.537,534.25
1521.419,540.75
1522.300,551.25
1523.182,521.50
1524.063,547.50
1524.944,542.00
1525.825,554.00
1526.707,520.75
1527.588,514.50
1528.468,543.75
1529.349,496.25
1530.230,519.00
1531.111,501.25
1531.991,565.50
1532.872,512.25
1533.752,549.75
1534.632,518.75
1535.513,516.50
1536.393,537.75
1537.273,509.00
1538.153,534.25
1539.032,502.75
1539.912,478.00
1540.792,511.25
1541.672,519.50
1542.551,519.75
1543.430,493.00
1544.310,531.25
1545.189,440.25
1546.068,559.50
1546.947,531.75
1547.826,568.25
1548.705,470.25
1549.584,520.25
1550.462,510.50
1551.341,507.00
1552.219,473.75
1553.098,513.75
1553.976,514.50
1554.854,543.50
1555.733,505.00
1556.611,516.25
1557.489,502.00
1558.367,532.75
1559.244,509.75
1560.122,503.25
1561.000,467.00
1561.877,528.25
1562.755,505.00
1563.632,471.50
1564.509,488.00
1565.386,527.50
1566.264,483.25
1567.141,537.75
1568.017,542.50
1568.894,485.50
1569.771,500.50
1570.648,499.25
1571.524,541.25
1572.401,476.50
1573.277,531.25
1574.153,524.50
1575.029,530.75
1575.906,534.75
1576.781,480.00
1577.657,491.75
1578.533,534.50
1579.409,524.00
1580.285,495.00
1581.160,480.75
1582.036,507.25
1582.911,523.00
1583.786,505.50
1584.662,501.75
1585.537,470.50
1586.412,504.00
1587.287,520.25
1588.160,485.25
1589.035,512.75
1589.909,493.25
1590.784,500.75
1591.658,483.25
1592.533,507.00
1593.407,506.00
1594.281,546.25
1595.155,520.25
1596.029,504.00
1596.903,497.50
1597.777,472.50
1598.651,475.00
1599.525,515.25
1600.398,480.50
1601.272,502.50
1602.144,509.75
1603.017,508.75
1603.890,521.75
1604.763,510.75
1605.636,533.75
1606.509,489.50
1607.382,480.75
1608.255,486.75
1609.128,454.25
1610.000,479.00
1610.873,477.00
1611.746,526.00
1612.616,483.75
1613.488,520.25
1614.361,502.00
1615.233,478.75
1616.105,509.50
1616.977,499.25
1617.849,512.25
1618.720,459.00
1619.592,456.75
1620.464,506.75
1621.333,475.75
1622.205,520.25
1623.076,522.25
1623.947,504.00
1624.818,532.00
1625.689,494.00
1626.560,484.75
1627.431,475.75
1628.302,485.50
1629.171,514.50
1630.042,496.00
1630.912,482.25
1631.782,517.00
1632.653,514.00
1633.523,483.25
1634.393,495.25
1635.263,499.25
1636.131,528.25
1637.001,486.00
1637.871,491.25
1638.741,468.50
1639.611,516.75
1640.480,516.75
1641.350,500.75
1642.219,491.00
1643.087,444.00
1643.956,481.00
1644.825,505.75
1645.694,511.00
1646.563,451.50
1647.432,515.75
1648.299,475.75
1649.167,510.25
1650.036,516.75
1650.904,431.75
1651.773,478.25
1652.641,501.50
1653.509,483.25
1654.376,460.25
1655.244,469.75
1656.112,511.50
1656.980,497.50
1657.847,522.50
1658.715,503.50
1659.581,531.25
1660.448,485.00
1661.316,511.25
1662.183,458.50
1663.051,518.25
1663.918,444.25
1664.783,481.50
1665.650,489.75
1666.517,512.50
1667.384,496.00
1668.251,462.25
1669.115,482.75
1669.982,477.25
1670.849,463.50
1671.715,472.50
1672.581,477.00
1673.446,472.25
1674.312,476.00
1675.178,479.25
1676.044,468.50
1676.910,460.75
1677.774,465.25
1678.639,460.50
1679.505,495.25
1680.370,445.75
1681.236,457.25
1682.099,520.75
1682.965,495.00
1683.830,470.25
1684.695,490.00
1685.560,448.75
1686.423,522.25
1687.288,472.75
1688.153,424.25
1689.017,460.75
1689.880,457.50
1690.745,466.00
1691.609,471.50
1692.473,503.00
1693.338,510.50
1694.200,463.50
1695.064,478.75
1695.928,500.50
1696.792,500.75
1697.654,515.75
1698.517,464.25
1699.381,505.00
1700.245,504.75
1701.106,494.00
1701.969,480.25
1702.833,478.00
1703.696,479.75
1704.557,498.75
1705.420,495.25
1706.283,483.75
1707.146,485.00
1708.007,518.00
1708.870,482.00
1709.732,462.25
1710.595,475.25
1711.455,466.50
1712.318,454.75
1713.180,497.75
1714.040,492.50
1714.902,407.25
1715.764,504.25
1716.626,469.75
1717.486,501.25
1718.348,466.50
1719.209,464.00
1720.071,463.00
1720.930,433.50
1721.792,465.25
1722.653,468.50
1723.512,479.25
1724.374,496.25
1725.234,446.25
1726.095,459.50
1726.954,453.00
1727.815,484.50
1728.676,489.50
1729.535,439.00
1730.395,455.50
1731.256,468.75
1732.114,462.75
1732.974,493.00
1733.834,442.50
1734.693,513.50
1735.553,436.50
1736.413,483.25
1737.272,459.75
1738.130,480.75
1738.990,479.00
1739.849,511.75
1740.707,450.75
1741.566,456.00
1742.426,490.75
1743.283,462.50
1744.142,482.00
1745.001,462.00
1745.858,499.25
1746.717,455.75
1747.576,474.50
1748.433,484.25
1749.292,497.25
1750.150,482.00
1751.007,450.75
1751.865,456.25
1752.723,465.25
1753.579,418.00
1754.438,490.25
1755.296,470.75
1756.152,444.50
1757.010,436.25
1757.865,502.50
1758.723,479.75
1759.581,456.00
1760.436,479.50
1761.294,407.00
1762.151,505.75
1763.006,465.50
1763.864,472.75
1764.721,495.75
1765.576,455.50
1766.433,448.75
1767.288,466.50
1768.144,459.75
1769.001,471.25
1769.856,472.75
1770.712,467.00
1771.568,480.25
1772.423,492.00
1773.279,501.25
1774.133,465.00
1774.989,446.50
1775.845,484.00
1776.699,449.75
1777.555,471.00
1778.409,485.25
1779.265,472.75
1780.120,482.75
1780.974,476.25
1781.829,439.75
1782.682,471.75
1783.538,512.50
1784.393,456.25
1785.246,463.50
1786.101,472.25
1786.954,474.75
1787.808,468.75
1788.661,485.75
1789.516,426.50
1790.370,468.00
1791.223,493.00
1792.077,471.00
1792.930,505.75
1793.784,452.50
1794.636,444.75
1795.490,510.25
1796.344,491.50
1797.196,435.25
1798.049,447.50
1798.901,436.00
1799.755,489.00
1800.606,465.75
1801.460,453.75
1802.311,505.75
1803.165,439.50
1804.018,487.50
1804.869,487.25
1805.722,457.25
1806.573,465.00
1807.426,453.50
1808.276,502.00
1809.129,474.25
1809.980,487.25
1810.832,431.50
1811.683,448.25
1812.535,471.75
1813.385,473.00
1814.237,471.00
1815.089,472.75
1815.940,415.75
1816.791,492.25
1817.641,475.25
1818.493,450.00
1819.343,499.25
1820.194,475.75
1821.044,464.00
1821.895,443.00
1822.745,485.50
1823.596,468.75
1824.445,461.00
1825.296,454.00
1826.145,488.50
1826.996,509.25
1827.845,426.00
1828.695,500.50
1829.544,480.75
1830.395,462.75
1831.243,446.25
1832.094,462.75
1832.942,439.50
1833.792,485.50
1834.640,476.25
1835.490,527.00
1836.338,465.25
1837.186,484.50
1838.036,497.25
1838.884,498.00
1839.733,470.50
1840.581,509.50
1841.430,447.25
1842.278,454.50
1843.127,471.50
1843.974,441.25
1844.823,500.25
1845.671,451.00
1846.519,469.25
1847.366,476.75
1848.213,490.75
1849.062,456.25
1849.909,451.75
1850.757,451.00
1851.604,475.00
1852.452,510.00
1853.298,483.25
1854.146,491.50
1854.993,475.50
1855.839,492.00
1856.687,486.50
1857.532,488.75
1858.380,478.50
1859.226,488.25
1860.073,464.25
1860.919,481.00
1861.765,512.25
1862.612,444.00
1863.457,471.50
1864.304,417.75
1865.150,473.25
1865.995,448.25
1866.842,458.25
1867.686,432.00
1868.533,497.00
1869.378,464.00
1870.223,460.25
1871.069,449.75
1871.914,484.00
1872.760,470.75
1873.604,472.75
1874.448,452.75
1875.294,480.75
1876.139,471.25
1876.984,499.75
1877.828,445.75
1878.672,466.50
1879.518,429.25
1880.361,459.00
1881.205,469.75
1882.050,490.75
1882.894,455.75
1883.739,467.75
1884.582,456.75
1885.425,482.50
1886.270,447.00
1887.113,514.00
1887.956,483.25
1888.801,466.00
1889.644,483.50
1890.486,463.75
1891.331,486.75
1892.173,498.75
1893.017,477.25
1893.860,520.50
1894.702,470.00
1895.546,498.00
1896.388,533.75
1897.230,489.75
1898.074,429.25
1898.916,461.00
1899.757,456.25
1900.601,448.50
1901.443,477.00
1902.284,478.00
1903.125,464.75
1903.969,467.25
1904.810,500.25
1905.651,476.00
1906.494,431.25
1907.335,445.25
1908.176,457.00
1909.018,412.00
1909.859,502.25
1910.700,480.00
1911.542,448.25
1912.383,459.50
1913.223,477.25
1914.064,427.00
1914.906,394.00
1915.746,469.25
1916.586,456.50
1917.428,481.25
1918.268,436.50
1919.107,455.25
1919.947,457.25
1920.789,470.75
1921.628,499.25
1922.468,507.75
1923.309,475.25
1924.148,458.00
1924.988,498.50
1925.827,475.50
1926.667,500.00
1927.507,491.75
1928.345,409.25
1929.184,446.00
1930.025,472.75
1930.864,448.50
1931.702,450.00
1932.541,466.00
1933.381,482.50
1934.219,507.75
1935.057,452.50
1935.896,476.50
1936.735,491.00
1937.573,450.00
1938.411,494.25
1939.249,475.50
1940.089,438.75
1940.927,478.50
1941.764,426.75
1942.602,455.50
1943.439,457.25
1944.278,511.50
1945.115,499.50
1945.953,478.75
1946.790,490.00
1947.628,491.50
1948.465,478.50
1949.302,472.75
1950.139,435.50
1950.976,444.25
1951.814,487.75
1952.651,476.50
1953.487,493.25
1954.323,482.75
1955.160,499.75
1955.998,488.25
1956.834,437.25
1957.670,455.25
1958.506,450.75
1959.342,543.00
1960.177,479.75
1961.015,482.00
1961.850,398.00
1962.686,434.00
1963.521,475.50
1964.357,462.75
1965.192,493.50
1966.029,398.50
1966.864,444.50
1967.699,448.50
1968.534,446.00
1969.369,436.50
1970.204,485.25
1971.040,473.50
1971.875,468.75
1972.709,436.50
1973.544,505.50
1974.378,478.00
1975.212,403.25
1976.047,477.25
1976.882,473.75
1977.716,456.00
1978.550,493.50
1979.384,450.00
1980.218,453.00
1981.052,492.75
1981.885,464.50
1982.719,453.50
1983.554,457.25
1984.388,521.50
1985.221,477.75
1986.054,461.25
1986.887,461.50
1987.720,493.25
1988.553,473.75
1989.386,481.00
1990.219,474.25
1991.053,493.00
1991.886,470.00
1992.719,469.00
1993.551,456.50
1994.383,482.00
1995.216,472.50
1996.048,456.25
1996.880,494.75
1997.712,471.75
1998.544,503.25
1999.376,460.25
2000.208,434.25
2001.040,490.75
2001.873,454.00
2002.705,463.75
2003.536,515.75
2004.367,444.25
2005.199,439.25
2006.030,476.50
2006.861,485.00
2007.692,458.25
2008.523,457.75
2009.354,490.25
2010.185,497.75
2011.016,460.50
2011.846,478.75
2012.677,494.75
2013.507,484.50
2014.338,479.75
2015.168,419.25
2015.999,479.00
2016.829,434.50
2017.659,524.50
2018.489,502.75
2019.319,498.75
2020.149,455.25
2020.980,507.50
2021.810,480.50
2022.639,447.75
2023.469,474.75
2024.298,479.25
2025.128,478.50
2025.957,480.50
2026.786,485.75
2027.615,468.00
2028.444,496.25
2029.273,491.00
2030.102,495.75
2030.931,469.00
2031.758,485.50
2032.586,534.00
2033.415,470.25
2034.243,490.00
2035.072,472.25
2035.900,510.50
2036.728,511.50
2037.556,500.75
2038.385,527.50
2039.213,516.25
2040.040,517.50
2040.868,482.75
2041.696,473.25
2042.524,494.00
2043.351,519.00
2044.179,495.00
2045.006,525.25
2045.006,525.25

Max Intensity Wave.,218.899
Max Intensity Data,5499.25
Min Intensity Wave.,973.719
Min Intensity Data,-777.25
FWHM Wave.,399.150
FWHM Value,2.80
Pressure Wave.,684.671
Pressure Value [GPa],-24.91530
G/D Ratio,0.63007
G/D Gband Wave.,1547.625
G/D Gband Intensity,571.77
G/D Dband Wave.,1302.703
G/D Dband Intensity,907.46

<< BACKGROUND SPECTRUM >>
Wave[dcm-1],No136
146.591,2365.00
147.626,2218.00
148.664,2120.00
149.699,2618.00
150.737,2329.00
151.772,2475.00
152.809,2505.00
153.846,2377.00
154.881,2508.00
155.918,2042.00
156.953,2359.00
157.989,2674.00
159.026,2542.00
160.060,2709.00
161.096,2961.00
162.130,2607.00
163.167,2645.00
164.200,2576.00
165.236,2759.00
166.272,2795.00
167.305,2351.00
168.341,2643.00
169.374,2900.00
170.409,2895.00
171.445,2814.00
172.477,2614.00
173.512,2502.00
174.545,2793.00
175.580,2983.00
176.614,3184.00
177.647,2901.00
178.681,3149.00
179.713,3482.00
180.747,2918.00
181.781,2816.00
182.813,3118.00
183.847,3195.00
184.878,2825.00
185.912,3088.00
186.945,3233.00
187.976,3213.00
189.010,2818.00
190.043,2958.00
191.073,3013.00
192.106,2834.00
193.137,3322.00
194.170,2625.00
195.202,3001.00
196.232,2806.00
197.265,3096.00
198.297,3180.00
199.327,2883.00
200.359,3050.00
201.388,3464.00
202.420,3000.00
203.452,3200.00
204.481,2822.00
205.512,3433.00
206.544,3185.00
207.573,3145.00
208.604,3552.00
209.635,3665.00
210.663,3075.00
211.694,3083.00
212.725,2959.00
213.753,2893.00
214.783,3522.00
215.813,3378.00
216.841,3111.00
217.871,3287.00
218.899,3015.00
219.929,3257.00
220.959,2985.00
221.986,3258.00
223.016,2850.00
224.045,3290.00
225.072,3230.00
226.101,3327.00
227.130,3349.00
228.157,2957.00
229.185,2420.00
230.214,3296.00
231.241,2903.00
232.269,2550.00
233.297,2770.00
234.323,3348.00
235.351,2908.00
236.379,3198.00
237.407,2856.00
238.433,3056.00
239.460,3216.00
240.488,3241.00
241.513,3305.00
242.540,3220.00
243.568,3293.00
244.592,3357.00
245.619,3294.00
246.646,3031.00
247.671,3056.00
248.697,2915.00
249.724,3122.00
250.748,3097.00
251.774,3115.00
252.801,3388.00
253.827,3199.00
254.850,3192.00
255.876,2795.00
256.902,3223.00
257.925,3069.00
258.951,2834.00
259.976,2864.00
260.999,3206.00
262.024,2867.00
263.049,3751.00
264.074,3217.00
265.097,3108.00
266.122,3153.00
267.146,3135.00
268.168,3339.00
269.193,2919.00
270.217,3325.00
271.241,2794.00
272.263,3019.00
273.287,3286.00
274.311,2866.00
275.332,3402.00
276.356,2968.00
277.379,3166.00
278.402,3205.00
279.424,3036.00
280.447,3005.00
281.470,2805.00
282.492,3216.00
283.513,3003.00
284.536,3284.00
285.558,3295.00
286.581,3218.00
287.601,2976.00
288.623,2927.00
289.645,3144.00
290.665,3239.00
291.687,3209.00
292.709,3200.00
293.730,3515.00
294.750,2993.00
295.771,2858.00
296.792,3154.00
297.813,3037.00
298.832,3143.00
299.853,2867.00
300.874,3120.00
301.895,3092.00
302.913,3130.00
303.934,3358.00
304.954,3115.00
305.975,3240.00
306.993,2840.00
308.013,3216.00
309.033,3168.00
310.052,3059.00
311.072,2980.00
312.090,3129.00
313.109,3360.00
314.129,3540.00
315.148,3150.00
316.165,3180.00
317.184,3370.00
318.203,2825.00
319.222,2864.00
320.238,3248.00
321.257,2932.00
322.275,2757.00
323.294,3050.00
324.312,3292.00
325.328,3409.00
326.346,3433.00
327.364,3347.00
328.382,3276.00
329.397,3212.00
330.415,3363.00
331.432,3323.00
332.450,3355.00
333.467,3564.00
334.482,2688.00
335.499,3455.00
336.516,2995.00
337.533,2678.00
338.547,2988.00
339.564,2920.00
340.580,3159.00
341.597,3067.00
342.613,3601.00
343.627,3101.00
344.643,3124.00
345.659,3218.00
346.675,3118.00
347.690,2994.00
348.704,3211.00
349.719,2957.00
350.735,2856.00
351.750,3297.00
352.765,3105.00
353.778,3079.00
354.793,3262.00
355.808,2965.00
356.822,3299.00
357.837,2782.00
358.851,3346.00
359.864,3040.00
360.878,2810.00
361.892,3038.00
362.906,3297.00
363.920,2649.00
364.932,3213.00
365.945,3193.00
366.959,3113.00
367.972,3051.00
368.986,2787.00
369.999,3494.00
371.010,2962.00
372.023,3482.00
373.036,3047.00
374.049,3518.00
375.061,3188.00
376.072,3072.00
377.084,2952.00
378.097,2754.00
379.109,3276.00
380.121,3089.00
381.133,2748.00
382.143,3256.00
383.155,2844.00
384.166,2989.00
385.178,3207.00
386.189,3301.00
387.201,2808.00
388.212,3049.00
389.221,3007.00
390.232,3098.00
391.243,3047.00
392.254,3153.00
393.264,2926.00
394.275,3323.00
395.283,3272.00
396.294,3775.00
397.304,3638.00
398.314,3192.00
399.324,3138.00
400.334,2725.00
401.344,3275.00
402.351,2757.00
403.361,3312.00
404.370,3108.00
405.380,3007.00
406.389,3447.00
407.398,3243.00
408.407,3224.00
409.414,3281.00
410.423,3443.00
411.431,2842.00
412.440,2766.00
413.448,3473.00
414.457,2954.00
415.465,2903.00
416.471,2969.00
417.479,3100.00
418.487,2938.00
419.495,3449.00
420.503,3227.00
421.510,2702.00
422.518,3228.00
423.525,3316.00
424.530,3551.00
425.537,2978.00
426.544,3340.00
427.551,2949.00
428.558,3737.00
429.565,3543.00
430.571,2945.00
431.578,3017.00
432.582,2995.00
433.588,3066.00
434.595,2699.00
435.601,3415.00
436.607,3351.00
437.612,2850.00
438.618,3433.00
439.624,3070.00
440.627,3054.00
441.633,3223.00
442.638,3749.00
443.643,3239.00
444.648,3133.00
445.653,3257.00
446.658,2962.00
447.663,3118.00
448.667,2958.00
449.672,3038.00
450.674,3091.00
451.678,2813.00
452.682,2932.00
453.687,2945.00
454.690,3745.00
455.694,3402.00
456.698,2615.00
457.702,2737.00
458.705,2879.00
459.709,2899.00
460.710,2981.00
461.713,3107.00
462.716,3154.00
463.719,3099.00
464.722,3322.00
465.725,3095.00
466.727,2951.00
467.730,3132.00
468.732,2867.00
469.735,3397.00
470.737,3014.00
471.737,3014.00
472.739,3020.00
473.741,2919.00
474.742,3203.00
475.744,3200.00
476.746,3101.00
477.747,3064.00
478.748,3290.00
479.750,3055.00
480.751,3085.00
481.752,3838.00
482.753,3165.00
483.751,3673.00
484.752,2682.00
485.753,3071.00
486.753,2941.00
487.753,3075.00
488.754,3531.00
489.754,2776.00
490.754,3423.00
491.754,3215.00
492.754,2759.00
493.753,3131.00
494.753,2993.00
495.752,3394.00
496.752,3138.00
497.749,3090.00
498.748,2978.00
499.747,3490.00
500.746,3205.00
501.745,2876.00
502.744,2845.00
503.742,3448.00
504.741,3044.00
505.739,2591.00
506.737,2977.00
507.735,3258.00
508.734,3485.00
509.732,3244.00
510.729,3450.00
511.727,2943.00
512.725,3004.00
513.720,2886.00
514.718,3372.00
515.715,2744.00
516.712,2718.00
517.709,3084.00
518.706,2976.00
519.703,3140.00
520.700,3321.00
521.696,3469.00
522.693,3013.00
523.689,2920.00
524.686,3268.00
525.682,2887.00
526.678,3571.00
527.674,3010.00
528.670,2668.00
529.666,3588.00
530.661,3578.00
531.657,3210.00
532.652,3241.00
533.648,3076.00
534.641,3357.00
535.636,3164.00
536.631,3196.00
537.626,3266.00
538.621,2817.00
539.616,2667.00
540.610,2617.00
541.605,3120.00
542.599,3152.00
543.593,3122.00
544.587,4027.00
545.581,2954.00
546.575,3124.00
547.569,3121.00
548.563,2753.00
549.557,2779.00
550.550,2857.00
551.543,2817.00
552.537,3242.00
553.530,2862.00
554.523,2866.00
555.516,3219.00
556.509,3051.00
557.502,2700.00
558.494,3276.00
559.487,2977.00
560.479,3271.00
561.472,3423.00
562.464,3236.00
563.456,3441.00
564.448,3039.00
565.440,3102.00
566.432,3506.00
567.423,2972.00
568.415,2963.00
569.404,3226.00
570.396,2917.00
571.387,3204.00
572.378,3152.00
573.369,4107.00
574.360,3816.00
575.351,3018.00
576.341,2941.00
577.332,2941.00
578.323,2771.00
579.313,2984.00
580.303,3345.00
581.293,3239.00
582.283,3107.00
583.273,3246.00
584.263,3097.00
585.253,3183.00
586.243,3282.00
587.232,2750.00
588.222,3069.00
589.211,3254.00
590.200,3195.00
591.189,3048.00
592.178,3081.00
593.167,3535.00
594.156,3377.00
595.145,2979.00
596.133,3556.00
597.122,3166.00
598.110,3283.00
599.098,3207.00
600.086,3079.00
601.074,3261.00
602.062,2957.00
603.050,2823.00
604.038,3210.00
605.025,2903.00
606.013,3287.00
607.000,3486.00
607.987,3110.00
608.975,3193.00
609.962,2862.00
610.949,3207.00
611.936,3368.00
612.922,3272.00
613.909,2794.00
614.895,3484.00
615.882,2903.00
616.868,3048.00
617.854,2852.00
618.841,3065.00
619.826,3236.00
620.812,3127.00
621.798,2868.00
622.784,3296.00
623.769,3199.00
624.755,2784.00
625.740,3178.00
626.725,2749.00
627.711,2920.00
628.698,3191.00
629.683,2905.00
630.667,3288.00
631.652,2842.00
632.637,3028.00
633.621,3270.00
634.606,3011.00
635.590,3216.00
636.574,3045.00
637.558,3180.00
638.542,3137.00
639.526,2902.00
640.510,2692.00
641.493,3146.00
642.477,3029.00
643.460,2774.00
644.444,3345.00
645.427,3373.00
646.410,2729.00
647.393,3010.00
648.376,3141.00
649.359,2998.00
650.341,3171.00
651.324,3183.00
652.307,3125.00
653.289,2983.00
654.271,2973.00
655.253,2982.00
656.235,3206.00
657.217,3318.00
658.199,2759.00
659.181,2810.00
660.163,3093.00
661.144,2961.00
662.126,2953.00
663.107,2867.00
664.088,4836.00
665.069,3314.00
666.050,2946.00
667.033,2798.00
668.014,3155.00
668.995,2612.00
669.975,3104.00
670.956,3085.00
671.936,3165.00
672.916,3014.00
673.896,3184.00
674.876,3001.00
675.856,2942.00
676.836,2854.00
677.816,2381.00
678.795,2892.00
679.775,2775.00
680.754,3112.00
681.734,3245.00
682.713,3267.00
683.692,2845.00
684.671,2711.00
685.650,2841.00
686.629,2935.00
687.607,2847.00
688.586,2866.00
689.564,2922.00
690.543,3338.00
691.523,2435.00
692.501,2910.00
693.479,3053.00
694.457,2896.00
695.435,2948.00
696.413,2771.00
697.390,2561.00
698.368,2775.00
699.345,3173.00
700.322,3008.00
701.300,3170.00
702.277,3091.00
703.254,3359.00
704.231,2658.00
705.207,3068.00
706.184,2869.00
707.161,2738.00
708.137,2926.00
709.113,2877.00
710.090,2856.00
711.068,2650.00
712.044,2685.00
713.020,2985.00
713.996,2707.00
714.971,2896.00
715.947,2917.00
716.922,2914.00
717.898,2830.00
718.873,2970.00
719.848,2785.00
720.823,2778.00
721.798,3076.00
722.773,2813.00
723.748,2628.00
724.723,3123.00
725.697,2900.00
726.672,2844.00
727.646,2579.00
728.622,3069.00
729.596,2671.00
730.570,2765.00
731.544,3164.00
732.518,3378.00
733.492,2907.00
734.466,2939.00
735.439,3059.00
736.413,3181.00
737.386,2565.00
738.359,2507.00
739.332,2554.00
740.305,2967.00
741.278,3390.00
742.251,3007.00
743.224,2814.00
744.196,2632.00
745.171,3226.00
746.143,3153.00
747.115,2850.00
748.087,2789.00
749.059,3189.00
750.031,2977.00
751.003,3782.00
751.975,3369.00
752.947,2731.00
753.918,3170.00
754.890,2643.00
755.861,2836.00
756.832,3123.00
757.803,2907.00
758.774,2912.00
759.747,2635.00
760.718,3321.00
761.689,2842.00
762.659,2639.00
763.630,3260.00
764.600,2650.00
765.570,3170.00
766.540,3196.00
767.510,2983.00
768.480,3077.00
769.450,2801.00
770.420,2885.00
771.390,2684.00
772.359,2863.00
773.329,2763.00
774.300,2590.00
775.269,2838.00
776.238,3073.00
777.207,3242.00
778.176,2603.00
779.145,2893.00
780.114,2785.00
781.083,2643.00
782.051,2837.00
783.019,2738.00
783.988,3203.00
784.956,2923.00
785.924,3095.00
786.894,2943.00
787.862,2748.00
788.830,3246.00
789.797,2726.00
790.765,2671.00
791.732,2842.00
792.700,2716.00
793.667,2657.00
794.634,2832.00
795.601,2819.00
796.568,2861.00
797.535,2912.00
798.502,3534.00
799.468,2984.00
800.437,2454.00
801.403,2739.00
802.370,3392.00
803.336,3064.00
804.302,2949.00
805.268,2516.00
806.234,2642.00
807.200,2792.00
808.166,2860.00
809.131,2618.00
810.097,3064.00
811.062,3752.00
812.027,3069.00
812.994,2653.00
813.960,2661.00
814.925,3001.00
815.889,2608.00
816.854,3098.00
817.819,2727.00
818.783,2791.00
819.748,3142.00
820.712,2829.00
821.677,2692.00
822.641,2775.00
823.605,2782.00
824.571,3221.00
825.534,2855.00
826.498,2745.00
827.462,2870.00
828.425,2657.00
829.389,3142.00
830.352,2907.00
831.315,3002.00
832.279,2597.00
833.242,2842.00
834.204,2773.00
835.167,2718.00
836.132,3128.00
837.095,2571.00
838.057,2760.00
839.020,2850.00
839.982,2904.00
840.944,2765.00
841.906,2682.00
842.868,3024.00
843.830,2640.00
844.792,3112.00
845.753,2787.00
846.715,2532.00
847.679,2685.00
848.640,2689.00
849.601,2828.00
850.562,3311.00
851.523,2744.00
852.484,2558.00
853.445,3102.00
854.406,2764.00
855.367,2803.00
856.327,3076.00
857.288,2541.00
858.248,2705.00
859.210,2741.00
860.170,2566.00
861.130,3073.00
862.090,2486.00
863.050,2663.00
864.010,2734.00
864.969,2976.00
865.929,2650.00
866.888,2557.00
867.848,2895.00
868.807,2741.00
869.766,2957.00
870.727,2804.00
871.686,3095.00
872.645,3075.00
873.604,3379.00
874.562,2823.00
875.521,2896.00
876.479,3454.00
877.437,2698.00
878.396,2647.00
879.354,3230.00
880.312,2661.00
881.270,2745.00
882.229,3192.00
883.187,2675.00
884.145,2708.00
885.102,2982.00
886.059,2910.00
887.017,2988.00
887.974,3015.00
888.931,3141.00
889.888,2561.00
890.845,2477.00
891.802,2433.00
892.758,2711.00
893.717,2495.00
894.673,2638.00
895.630,2691.00
896.586,2959.00
897.542,2750.00
898.498,2595.00
899.454,2920.00
900.410,2711.00
901.366,2722.00
902.321,3856.00
903.277,2778.00
904.232,2804.00
905.189,2558.00
906.145,2701.00
907.100,2276.00
908.055,2841.00
909.010,3016.00
909.965,2413.00
910.919,2862.00
911.874,2652.00
912.828,2871.00
913.783,2856.00
914.737,2358.00
915.693,2805.00
916.648,2968.00
917.602,2990.00
918.555,2856.00
919.509,2936.00
920.463,2794.00
921.417,2901.00
922.370,2616.00
923.324,2737.00
924.277,2701.00
925.230,2805.00
926.183,2474.00
927.138,2780.00
928.091,3046.00
929.044,2879.00
929.996,2678.00
930.949,2681.00
931.902,2889.00
932.854,2917.00
933.806,2659.00
934.758,3028.00
935.711,3098.00
936.663,2887.00
937.614,2887.00
938.568,2823.00
939.520,2453.00
940.471,2764.00
941.423,2806.00
942.374,2938.00
943.326,2819.00
944.277,2655.00
945.228,2920.00
946.179,2780.00
947.130,3169.00
948.080,2726.00
949.031,2646.00
949.984,2716.00
950.934,2785.00
951.884,2559.00
952.835,2768.00
953.785,2820.00
954.735,2641.00
955.685,2390.00
956.635,2690.00
957.585,2713.00
958.534,2665.00
959.484,2803.00
960.433,2657.00
961.383,2525.00
962.334,3043.00
963.283,2843.00
964.232,2934.00
965.181,2798.00
966.130,2874.00
967.079,2674.00
968.027,2826.00
968.976,2749.00
969.924,2697.00
970.873,2940.00
971.821,3268.00
972.769,4340.00
973.719,4503.00
974.667,3186.00
975.615,2904.00
976.562,2808.00
977.510,2493.00
978.458,2662.00
979.405,2917.00
980.352,2856.00
981.300,3088.00
982.247,2895.00
983.194,2596.00
984.141,2678.00
985.088,2809.00
986.036,2820.00
986.983,3126.00
987.930,3208.00
988.876,2425.00
989.822,3039.00
990.769,2637.00
991.715,2656.00
992.661,2493.00
993.607,2871.00
994.553,3355.00
995.498,2658.00
996.444,2344.00
997.389,2827.00
998.337,2587.00
999.282,2951.00
1000.227,2708.00
1001.173,2729.00
1002.118,2510.00
1003.062,2962.00
1004.007,2734.00
1004.952,3093.00
1005.897,3022.00
1006.841,2797.00
1007.786,2524.00
1008.730,2468.00
1009.674,3278.00
1010.618,2713.00
1011.564,2555.00
1012.508,2488.00
1013.452,2973.00
1014.396,2809.00
1015.339,2675.00
1016.283,2727.00
1017.226,2805.00
1018.170,2763.00
1019.113,2942.00
1020.056,2822.00
1020.999,2795.00
1021.942,2622.00
1022.885,2910.00
1023.828,3076.00
1024.770,2576.00
1025.715,2791.00
1026.657,2773.00
1027.600,2805.00
1028.542,2989.00
1029.484,2800.00
1030.426,2919.00
1031.368,2830.00
1032.310,2651.00
1033.251,2606.00
1034.193,2740.00
1035.135,2559.00
1036.076,2689.00
1037.017,2590.00
1037.959,2913.00
1038.900,2873.00
1039.843,2866.00
1040.784,2767.00
1041.725,2837.00
1042.665,2695.00
1043.606,2834.00
1044.547,2809.00
1045.487,2438.00
1046.427,2763.00
1047.368,2834.00
1048.308,2281.00
1049.248,2607.00
1050.188,2748.00
1051.128,2663.00
1052.067,2749.00
1053.007,2471.00
1053.947,2427.00
1054.886,2652.00
1055.827,2519.00
1056.766,3018.00
1057.706,2503.00
1058.645,2711.00
1059.584,2792.00
1060.522,3054.00
1061.461,2529.00
1062.400,2542.00
1063.338,2675.00
1064.277,2569.00
1065.215,2576.00
1066.154,2479.00
1067.092,2656.00
1068.030,2734.00
1068.968,2954.00
1069.906,3076.00
1070.843,3019.00
1071.781,2820.00
1072.720,2872.00
1073.658,2888.00
1074.595,2644.00
1075.533,2614.00
1076.470,2640.00
1077.407,3052.00
1078.344,2809.00
1079.281,2880.00
1080.217,2353.00
1081.154,2737.00
1082.091,2812.00
1083.027,2506.00
1083.964,3024.00
1084.900,2622.00
1085.836,2703.00
1086.772,2912.00
1087.708,2540.00
1088.644,2896.00
1089.580,2740.00
1090.515,2767.00
1091.451,2657.00
1092.388,2765.00
1093.324,2484.00
1094.259,3305.00
1095.194,2790.00
1096.129,2695.00
1097.064,2650.00
1097.999,2897.00
1098.934,2594.00
1099.869,2601.00
1100.803,2782.00
1101.738,2768.00
1102.672,2474.00
1103.607,2856.00
1104.541,2646.00
1105.475,2605.00
1106.409,2473.00
1107.343,2669.00
1108.277,2512.00
1109.210,2789.00
1110.144,2746.00
1111.078,2739.00
1112.011,2514.00
1112.944,2889.00
1113.878,2747.00
1114.811,2220.00
1115.744,2675.00
1116.678,2336.00
1117.611,2654.00
1118.544,2646.00
1119.477,2824.00
1120.409,2631.00
1121.342,3204.00
1122.274,2813.00
1123.206,3181.00
1124.138,2725.00
1125.070,3082.00
1126.002,2900.00
1126.934,2334.00
1127.866,2659.00
1128.798,2402.00
1129.729,2444.00
1130.661,2725.00
1131.592,2661.00
1132.523,2826.00
1133.454,2820.00
1134.385,2321.00
1135.317,2715.00
1136.247,2618.00
1137.178,2929.00
1138.109,2460.00
1139.039,3018.00
1139.970,2910.00
1140.900,2609.00
1141.831,2407.00
1142.761,2277.00
1143.691,3249.00
1144.621,2680.00
1145.551,2759.00
1146.480,2747.00
1147.410,2934.00
1148.340,2374.00
1149.269,2448.00
1150.199,2619.00
1151.128,3110.00
1152.057,2505.00
1152.979,2648.00
1153.898,2680.00
1154.819,2771.00
1155.739,2737.00
1156.658,2615.00
1157.579,2753.00
1158.498,2693.00
1159.419,2254.00
1160.338,2763.00
1161.256,2754.00
1162.177,2567.00
1163.095,2698.00
1164.016,2760.00
1164.934,2951.00
1165.852,2860.00
1166.772,2690.00
1167.690,2684.00
1168.610,2780.00
1169.528,2702.00
1170.446,2225.00
1171.365,2597.00
1172.283,2549.00
1173.202,2677.00
1174.120,2736.00
1175.037,2523.00
1175.956,2518.00
1176.873,2539.00
1177.792,2599.00
1178.709,3136.00
1179.626,2611.00
1180.544,2933.00
1181.461,2582.00
1182.379,2798.00
1183.296,2689.00
1184.212,2347.00
1185.130,2538.00
1186.046,3088.00
1186.962,2692.00
1187.880,3002.00
1188.796,2755.00
1189.714,2481.00
1190.629,2805.00
1191.545,2768.00
1192.462,2656.00
1193.378,2631.00
1194.295,2410.00
1195.210,2706.00
1196.125,2845.00
1197.042,2789.00
1197.957,2698.00
1198.872,2584.00
1199.788,2605.00
1200.703,3034.00
1201.619,2703.00
1202.534,2553.00
1203.448,2760.00
1204.364,2638.00
1205.278,2360.00
1206.192,2734.00
1207.108,3194.00
1208.022,3049.00
1208.938,2541.00
1209.851,2845.00
1210.765,2932.00
1211.680,2609.00
1212.594,2491.00
1213.507,2662.00
1214.422,3102.00
1215.335,2796.00
1216.248,2646.00
1217.163,2707.00
1218.076,3309.00
1218.990,2804.00
1219.903,2445.00
1220.816,2540.00
1221.730,2655.00
1222.642,2583.00
1223.554,2617.00
1224.469,2819.00
1225.380,2637.00
1226.292,2342.00
1227.206,2866.00
1228.118,2962.00
1229.032,2311.00
1229.943,2559.00
1230.855,2608.00
1231.768,2409.00
1232.679,2813.00
1233.590,2671.00
1234.503,2915.00
1235.414,2533.00
1236.325,2594.00
1237.238,2778.00
1238.149,2818.00
1239.059,2491.00
1239.972,2902.00
1240.882,2508.00
1241.793,2772.00
1242.705,3024.00
1243.615,2619.00
1244.525,2788.00
1245.437,2268.00
1246.347,2745.00
1247.259,2856.00
1248.168,3138.00
1249.078,2932.00
1249.989,2953.00
1250.899,2519.00
1251.808,2556.00
1252.719,2625.00
1253.628,2576.00
1254.537,3094.00
1255.448,2539.00
1256.357,2524.00
1257.266,2690.00
1258.176,2445.00
1259.085,2389.00
1259.993,2511.00
1260.904,2520.00
1261.812,2517.00
1262.720,3242.00
1263.630,2895.00
1264.538,2506.00
1265.446,2817.00
1266.356,2651.00
1267.263,2977.00
1268.171,2466.00
1269.080,2737.00
1269.988,2886.00
1270.895,2611.00
1271.804,2642.00
1272.711,2872.00
1273.619,2831.00
1274.527,2505.00
1275.434,2810.00
1276.341,2500.00
1277.248,2748.00
1278.156,3002.00
1279.063,2519.00
1279.969,2801.00
1280.877,3584.00
1281.783,2929.00
1282.690,2753.00
1283.598,2663.00
1284.503,2551.00
1285.409,2520.00
1286.317,3103.00
1287.223,3098.00
1288.128,2754.00
1289.036,2603.00
1289.941,2652.00
1290.846,2719.00
1291.751,2541.00
1292.658,2621.00
1293.563,3179.00
1294.468,2688.00
1295.375,2834.00
1296.280,2947.00
1297.184,3442.00
1298.091,2799.00
1298.995,2852.00
1299.900,3081.00
1300.806,2594.00
1301.710,2448.00
1302.614,2255.00
1303.518,2961.00
1304.424,2638.00
1305.327,2901.00
1306.231,2693.00
1307.137,2842.00
1308.040,2758.00
1308.943,2701.00
1309.847,2891.00
1310.752,2871.00
1311.655,2377.00
1312.558,2484.00
1313.463,2615.00
1314.366,2587.00
1315.269,2726.00
1316.171,2663.00
1317.076,2568.00
1317.978,2503.00
1318.881,2299.00
1319.785,2545.00
1320.687,2571.00
1321.589,2316.00
1322.491,2531.00
1323.395,2794.00
1324.297,3251.00
1325.198,2847.00
1326.102,2508.00
1327.004,2482.00
1327.905,3101.00
1328.806,2662.00
1329.709,2751.00
1330.611,2644.00
1331.512,2484.00
1332.413,3179.00
1333.316,2748.00
1334.216,2890.00
1335.117,2436.00
1336.020,2728.00
1336.920,2686.00
1337.821,2561.00
1338.721,2956.00
1339.623,2761.00
1340.523,2669.00
1341.423,2588.00
1342.323,2975.00
1343.225,2793.00
1344.125,2511.00
1345.025,2563.00
1345.924,2348.00
1346.826,3035.00
1347.725,3127.00
1348.624,2931.00
1349.524,2542.00
1350.425,2637.00
1351.324,2754.00
1352.223,2842.00
1353.121,2662.00
1354.022,2889.00
1354.921,3158.00
1355.819,2817.00
1356.718,2708.00
1357.618,2453.00
1358.516,2826.00
1359.415,3089.00
1360.313,2791.00
1361.213,2661.00
1362.111,3011.00
1363.008,3357.00
1363.906,2690.00
1364.806,2699.00
1365.703,2751.00
1366.601,2522.00
1367.498,2479.00
1368.397,2912.00
1369.295,2758.00
1370.192,2519.00
1371.089,2740.00
1371.987,2691.00
1372.884,2921.00
1373.781,2485.00
1374.678,2682.00
1375.574,2532.00
1376.473,2831.00
1377.369,2931.00
1378.265,2482.00
1379.161,2612.00
1380.059,2409.00
1380.955,2815.00
1381.851,2482.00
1382.747,2581.00
1383.643,2581.00
1384.540,2486.00
1385.436,2583.00
1386.331,2752.00
1387.227,2854.00
1388.124,2811.00
1389.019,2493.00
1389.914,2714.00
1390.809,2348.00
1391.704,3120.00
1392.601,2606.00
1393.495,2967.00
1394.390,2852.00
1395.285,2936.00
1396.179,2789.00
1397.075,2677.00
1397.969,2807.00
1398.864,2353.00
1399.758,2621.00
1400.652,2738.00
1401.547,2514.00
1402.441,2491.00
1403.335,3058.00
1404.229,2859.00
1405.122,2793.00
1406.017,2668.00
1406.911,2822.00
1407.804,3093.00
1408.697,2679.00
1409.590,2519.00
1410.485,2869.00
1411.378,2753.00
1412.271,2358.00
1413.163,2766.00
1414.056,2826.00
1414.949,3107.00
1415.843,2758.00
1416.735,2649.00
1417.627,2724.00
1418.520,2672.00
1419.412,2967.00
1420.306,2884.00
1421.197,2990.00
1422.089,2929.00
1422.981,3201.00
1423.873,2879.00
1424.764,2821.00
1425.657,2720.00
1426.549,2855.00
1427.440,2899.00
1428.331,2587.00
1429.222,2382.00
1430.113,2765.00
1431.006,2891.00
1431.897,2646.00
1432.787,2735.00
1433.678,2653.00
1434.568,2511.00
1435.459,2930.00
1436.351,2880.00
1437.241,2879.00
1438.131,2823.00
1439.021,2458.00
1439.911,2652.00
1440.801,2756.00
1441.693,2994.00
1442.583,2735.00
1443.472,2741.00
1444.362,2836.00
1445.251,2669.00
1446.140,2633.00
1447.030,2926.00
1447.921,2914.00
1448.810,2549.00
1449.699,3066.00
1450.588,2730.00
1451.476,2604.00
1452.365,2840.00
1453.254,2590.00
1454.144,2597.00
1455.032,2860.00
1455.921,2400.00
1456.809,2993.00
1457.697,2517.00
1458.585,2667.00
1459.473,2657.00
1460.361,2545.00
1461.251,2806.00
1462.138,2814.00
1463.026,2690.00
1463.913,2963.00
1464.801,2622.00
1465.688,2804.00
1466.575,2756.00
1467.463,3164.00
1468.351,2586.00
1469.238,2677.00
1470.125,2333.00
1471.012,2764.00
1471.899,2824.00
1472.785,2548.00
1473.672,2715.00
1474.558,2943.00
1475.446,2873.00
1476.333,2857.00
1477.219,2536.00
1478.105,2702.00
1478.991,2691.00
1479.877,3038.00
1480.762,2714.00
1481.648,2601.00
1482.534,2860.00
1483.419,2791.00
1484.307,2856.00
1485.192,2705.00
1486.077,2559.00
1486.962,2593.00
1487.847,2450.00
1488.732,2564.00
1489.617,2726.00
1490.502,2959.00
1491.387,2842.00
1492.271,2584.00
1493.156,2576.00
1494.042,2505.00
1494.927,2959.00
1495.811,2608.00
1496.695,2857.00
1497.579,3001.00
1498.463,2730.00
1499.347,2754.00
1500.231,2732.00
1501.114,2810.00
1501.998,3015.00
1502.881,2749.00
1503.765,3012.00
1504.648,3084.00
1505.533,2857.00
1506.417,2699.00
1507.300,2690.00
1508.183,2785.00
1509.066,2193.00
1509.948,2971.00
1510.831,3102.00
1511.714,2500.00
1512.596,2859.00
1513.479,2979.00
1514.361,2935.00
1515.243,2740.00
1516.125,2881.00
1517.008,3003.00
1517.890,2711.00
1518.771,2767.00
1519.655,2909.00
1520.537,2674.00
1521.419,2542.00
1522.300,2746.00
1523.182,2867.00
1524.063,2862.00
1524.944,3024.00
1525.825,2896.00
1526.707,2537.00
1527.588,2522.00
1528.468,2800.00
1529.349,2416.00
1530.230,2660.00
1531.111,2922.00
1531.991,2744.00
1532.872,2449.00
1533.752,2665.00
1534.632,2580.00
1535.513,2585.00
1536.393,2889.00
1537.273,3063.00
1538.153,3383.00
1539.032,2473.00
1539.912,2743.00
1540.792,2731.00
1541.672,2767.00
1542.551,2842.00
1543.430,3374.00
1544.310,2742.00
1545.189,2690.00
1546.068,3131.00
1546.947,2817.00
1547.826,3005.00
1548.705,2737.00
1549.584,2968.00
1550.462,2674.00
1551.341,2926.00
1552.219,2823.00
1553.098,2859.00
1553.976,2929.00
1554.854,3113.00
1555.733,2985.00
1556.611,2650.00
1557.489,2543.00
1558.367,2723.00
1559.244,2906.00
1560.122,2731.00
1561.000,2845.00
1561.877,3006.00
1562.755,2615.00
1563.632,2725.00
1564.509,3007.00
1565.386,3082.00
1566.264,2520.00
1567.141,2318.00
1568.017,2850.00
1568.894,2722.00
1569.771,2804.00
1570.648,2840.00
1571.524,2745.00
1572.401,2489.00
1573.277,2501.00
1574.153,2781.00
1575.029,2597.00
1575.906,3459.00
1576.781,2931.00
1577.657,2687.00
1578.533,2970.00
1579.409,2371.00
1580.285,2699.00
1581.160,3191.00
1582.036,2927.00
1582.911,2541.00
1583.786,3082.00
1584.662,2551.00
1585.537,2731.00
1586.412,2802.00
1587.287,2570.00
1588.160,2928.00
1589.035,2391.00
1589.909,2759.00
1590.784,2717.00
1591.658,2556.00
1592.533,2800.00
1593.407,2759.00
1594.281,2582.00
1595.155,3130.00
1596.029,2645.00
1596.903,2684.00
1597.777,2674.00
1598.651,3017.00
1599.525,2432.00
1600.398,2783.00
1601.272,2713.00
1602.144,3288.00
1603.017,2699.00
1603.890,2969.00
1604.763,2834.00
1605.636,2842.00
1606.509,2445.00
1607.382,2602.00
1608.255,2843.00
1609.128,2968.00
1610.000,2717.00
1610.873,2439.00
1611.746,2612.00
1612.616,2699.00
1613.488,2308.00
1614.361,2747.00
1615.233,2699.00
1616.105,2957.00
1616.977,2658.00
1617.849,2561.00
1618.720,3102.00
1619.592,3099.00
1620.464,2811.00
1621.333,3229.00
1622.205,2719.00
1623.076,2705.00
1623.947,2730.00
1624.818,2967.00
1625.689,2887.00
1626.560,2651.00
1627.431,2818.00
1628.302,3173.00
1629.171,2882.00
1630.042,3070.00
1630.912,3430.00
1631.782,3336.00
1632.653,2554.00
1633.523,2917.00
1634.393,3008.00
1635.263,2593.00
1636.131,2721.00
1637.001,2680.00
1637.871,2367.00
1638.741,2400.00
1639.611,2466.00
1640.480,2830.00
1641.350,2616.00
1642.219,2578.00
1643.087,2272.00
1643.956,3184.00
1644.825,3004.00
1645.694,2953.00
1646.563,2956.00
1647.432,2776.00
1648.299,2773.00
1649.167,2869.00
1650.036,2550.00
1650.904,2924.00
1651.773,2976.00
1652.641,2755.00
1653.509,2943.00
1654.376,2645.00
1655.244,2801.00
1656.112,2776.00
1656.980,2759.00
1657.847,2583.00
1658.715,2911.00
1659.581,2619.00
1660.448,2988.00
1661.316,2242.00
1662.183,2806.00
1663.051,2763.00
1663.918,2803.00
1664.783,2769.00
1665.650,2828.00
1666.517,2892.00
1667.384,2763.00
1668.251,2819.00
1669.115,2983.00
1669.982,2725.00
1670.849,3049.00
1671.715,2750.00
1672.581,2898.00
1673.446,2870.00
1674.312,2798.00
1675.178,3178.00
1676.044,2868.00
1676.910,2852.00
1677.774,2809.00
1678.639,2428.00
1679.505,2740.00
1680.370,2953.00
1681.236,3420.00
1682.099,2675.00
1682.965,2784.00
1683.830,2373.00
1684.695,2563.00
1685.560,2716.00
1686.423,2859.00
1687.288,2888.00
1688.153,2831.00
1689.017,2711.00
1689.880,2844.00
1690.745,2911.00
1691.609,2581.00
1692.473,2902.00
1693.338,2958.00
1694.200,3028.00
1695.064,2775.00
1695.928,2655.00
1696.792,2757.00
1697.654,3228.00
1698.517,2804.00
1699.381,2491.00
1700.245,2391.00
1701.106,3051.00
1701.969,2641.00
1702.833,2904.00
1703.696,2663.00
1704.557,2742.00
1705.420,2598.00
1706.283,2783.00
1707.146,2909.00
1708.007,2530.00
1708.870,2560.00
1709.732,2441.00
1710.595,2662.00
1711.455,2527.00
1712.318,2705.00
1713.180,3008.00
1714.040,2790.00
1714.902,3000.00
1715.764,2759.00
1716.626,2554.00
1717.486,2720.00
1718.348,3037.00
1719.209,4169.00
1720.071,2427.00
1720.930,2549.00
1721.792,2605.00
1722.653,2595.00
1723.512,2667.00
1724.374,2710.00
1725.234,2843.00
1726.095,2814.00
1726.954,2771.00
1727.815,2883.00
1728.676,2732.00
1729.535,3034.00
1730.395,2752.00
1731.256,2678.00
1732.114,2831.00
1732.974,2208.00
1733.834,3172.00
1734.693,2912.00
1735.553,2805.00
1736.413,3187.00
1737.272,2660.00
1738.130,2696.00
1738.990,2856.00
1739.849,2626.00
1740.707,3786.00
1741.566,2820.00
1742.426,2804.00
1743.283,3172.00
1744.142,2664.00
1745.001,2452.00
1745.858,2945.00
1746.717,2864.00
1747.576,2869.00
1748.433,2909.00
1749.292,3336.00
1750.150,3390.00
1751.007,3000.00
1751.865,2999.00
1752.723,2787.00
1753.579,2740.00
1754.438,2996.00
1755.296,3012.00
1756.152,2323.00
1757.010,2478.00
1757.865,2960.00
1758.723,2432.00
1759.581,3133.00
1760.436,2739.00
1761.294,3197.00
1762.151,2736.00
1763.006,2696.00
1763.864,2430.00
1764.721,2971.00
1765.576,2795.00
1766.433,2949.00
1767.288,2669.00
1768.144,2836.00
1769.001,2723.00
1769.856,2879.00
1770.712,2991.00
1771.568,2558.00
1772.423,2668.00
1773.279,2651.00
1774.133,2682.00
1774.989,3215.00
1775.845,3152.00
1776.699,3041.00
1777.555,2763.00
1778.409,3305.00
1779.265,2714.00
1780.120,2724.00
1780.974,2743.00
1781.829,2394.00
1782.682,2858.00
1783.538,2560.00
1784.393,2817.00
1785.246,2667.00
1786.101,2884.00
1786.954,2917.00
1787.808,3005.00
1788.661,2494.00
1789.516,2730.00
1790.370,2725.00
1791.223,2954.00
1792.077,2770.00
1792.930,2840.00
1793.784,2653.00
1794.636,2822.00
1795.490,2721.00
1796.344,2777.00
1797.196,2777.00
1798.049,2947.00
1798.901,2685.00
1799.755,3007.00
1800.606,2566.00
1801.460,3330.00
1802.311,3067.00
1803.165,3211.00
1804.018,3115.00
1804.869,2848.00
1805.722,3269.00
1806.573,2843.00
1807.426,2615.00
1808.276,2731.00
1809.129,2657.00
1809.980,2990.00
1810.832,3086.00
1811.683,2723.00
1812.535,3127.00
1813.385,2699.00
1814.237,3052.00
1815.089,2821.00
1815.940,3094.00
1816.791,2702.00
1817.641,2631.00
1818.493,2960.00
1819.343,2830.00
1820.194,2649.00
1821.044,2892.00
1821.895,3027.00
1822.745,2484.00
1823.596,2700.00
1824.445,3195.00
1825.296,2892.00
1826.145,2727.00
1826.996,2949.00
1827.845,2860.00
1828.695,2803.00
1829.544,2789.00
1830.395,2818.00
1831.243,2738.00
1832.094,2524.00
1832.942,3426.00
1833.792,2898.00
1834.640,2860.00
1835.490,2757.00
1836.338,2860.00
1837.186,2665.00
1838.036,2632.00
1838.884,2764.00
1839.733,3110.00
1840.581,2937.00
1841.430,2950.00
1842.278,3157.00
1843.127,2681.00
1843.974,2493.00
1844.823,3198.00
1845.671,2965.00
1846.519,2798.00
1847.366,2862.00
1848.213,2403.00
1849.062,2625.00
1849.909,2522.00
1850.757,3473.00
1851.604,2900.00
1852.452,2667.00
1853.298,2958.00
1854.146,2829.00
1854.993,2814.00
1855.839,3309.00
1856.687,2883.00
1857.532,2921.00
1858.380,2783.00
1859.226,2872.00
1860.073,2926.00
1860.919,2598.00
1861.765,2654.00
1862.612,3079.00
1863.457,3008.00
1864.304,2772.00
1865.150,2905.00
1865.995,2777.00
1866.842,2918.00
1867.686,3076.00
1868.533,2844.00
1869.378,2862.00
1870.223,2814.00
1871.069,2709.00
1871.914,2824.00
1872.760,2785.00
1873.604,2581.00
1874.448,2953.00
1875.294,2959.00
1876.139,2660.00
1876.984,2915.00
1877.828,2447.00
1878.672,2298.00
1879.518,2703.00
1880.361,2984.00
1881.205,2971.00
1882.050,2586.00
1882.894,3329.00
1883.739,2659.00
1884.582,2553.00
1885.425,2602.00
1886.270,3065.00
1887.113,2503.00
1887.956,2903.00
1888.801,2854.00
1889.644,2596.00
1890.486,2386.00
1891.331,2719.00
1892.173,2818.00
1893.017,2885.00
1893.860,3053.00
1894.702,3116.00
1895.546,2807.00
1896.388,3461.00
1897.230,3155.00
1898.074,2723.00
1898.916,2593.00
1899.757,2646.00
1900.601,3503.00
1901.443,3094.00
1902.284,3114.00
1903.125,3294.00
1903.969,3000.00
1904.810,3014.00
1905.651,2896.00
1906.494,3165.00
1907.335,3284.00
1908.176,2944.00
1909.018,2921.00
1909.859,2749.00
1910.700,2655.00
1911.542,3364.00
1912.383,2897.00
1913.223,2414.00
1914.064,2982.00
1914.906,3131.00
1915.746,3141.00
1916.586,3318.00
1917.428,2769.00
1918.268,2861.00
1919.107,2710.00
1919.947,2563.00
1920.789,2736.00
1921.628,3030.00
1922.468,2778.00
1923.309,2657.00
1924.148,3135.00
1924.988,2885.00
1925.827,2776.00
1926.667,2664.00
1927.507,2843.00
1928.345,2687.00
1929.184,2983.00
1930.025,2621.00
1930.864,3109.00
1931.702,3135.00
1932.541,2722.00
1933.381,2939.00
1934.219,2914.00
1935.057,3127.00
1935.896,2507.00
1936.735,2768.00
1937.573,2734.00
1938.411,2585.00
1939.249,2966.00
1940.089,2723.00
1940.927,3049.00
1941.764,3141.00
1942.602,2746.00
1943.439,2720.00
1944.278,2755.00
1945.115,2726.00
1945.953,2538.00
1946.790,2892.00
1947.628,3153.00
1948.465,2926.00
1949.302,2968.00
1950.139,2993.00
1950.976,2712.00
1951.814,3002.00
1952.651,2873.00
1953.487,2577.00
1954.323,3070.00
1955.160,2752.00
1955.998,3185.00
1956.834,2830.00
1957.670,2895.00
1958.506,3068.00
1959.342,2856.00
1960.177,2862.00
1961.015,2968.00
1961.850,2902.00
1962.686,2888.00
1963.521,2857.00
1964.357,3125.00
1965.192,2588.00
1966.029,3036.00
1966.864,2772.00
1967.699,3079.00
1968.534,2898.00
1969.369,3157.00
1970.204,2780.00
1971.040,2876.00
1971.875,2762.00
1972.709,2897.00
1973.544,2614.00
1974.378,2712.00
1975.212,2988.00
1976.047,2705.00
1976.882,2678.00
1977.716,3249.00
1978.550,2509.00
1979.384,2789.00
1980.218,2802.00
1981.052,2736.00
1981.885,2874.00
1982.719,2843.00
1983.554,2979.00
1984.388,3112.00
1985.221,2917.00
1986.054,3080.00
1986.887,2891.00
1987.720,2642.00
1988.553,3132.00
1989.386,2930.00
1990.219,2944.00
1991.053,3135.00
1991.886,2693.00
1992.719,3045.00
1993.551,2337.00
1994.383,2964.00
1995.216,2770.00
1996.048,2534.00
1996.880,2986.00
1997.712,2707.00
1998.544,2808.00
1999.376,2916.00
2000.208,3173.00
2001.040,3265.00
2001.873,2671.00
2002.705,2668.00
2003.536,2861.00
2004.367,2899.00
2005.199,2919.00
2006.030,2711.00
2006.861,2632.00
2007.692,2851.00
2008.523,2694.00
2009.354,2851.00
2010.185,2618.00
2011.016,3021.00
2011.846,3063.00
2012.677,2748.00
2013.507,3179.00
2014.338,3089.00
2015.168,2799.00
2015.999,3366.00
2016.829,2816.00
2017.659,3030.00
2018.489,3370.00
2019.319,2619.00
2020.149,3049.00
2020.980,2868.00
2021.810,2645.00
2022.639,2741.00
2023.469,2731.00
2024.298,2523.00
2025.128,2441.00
2025.957,2427.00
2026.786,2267.00
2027.615,2482.00
2028.444,2683.00
2029.273,2854.00
2030.102,2442.00
2030.931,2674.00
2031.758,2984.00
2032.586,2594.00
2033.415,2729.00
2034.243,2304.00
2035.072,2100.00
2035.900,2557.00
2036.728,2397.00
2037.556,2415.00
2038.385,2424.00
2039.213,2248.00
2040.040,2227.00
2040.868,2226.00
2041.696,2295.00
2042.524,2277.00
2043.351,2492.00
2044.179,2271.00
2045.006,2049.00
