RamanScope Measure Spectrum Data V3.72

<< MEASURE CONDITION >>
Exposure Type,Aver
Exposure Time [sec],15
Exposure Count,4
Measure Time,2023/07/15 16:15:08
Data Name,""
Data Comment,""
Rayleigh Wave[nm],532.0

<< SAMPLE SPECTRUM >>
Wave[dcm-1],No163
146.591,986.00
147.626,1131.50
148.664,1351.00
149.699,1528.75
150.737,1744.25
151.772,1905.50
152.809,2058.25
153.846,2201.50
154.881,2359.50
155.918,2488.00
156.953,2601.25
157.989,2646.00
159.026,2740.50
160.060,2790.75
161.096,2893.75
162.130,2892.00
163.167,3023.50
164.200,2978.75
165.236,3018.00
166.272,3069.00
167.305,3159.00
168.341,3196.75
169.374,3272.00
170.409,3327.50
171.445,3313.00
172.477,3396.00
173.512,3456.00
174.545,3489.00
175.580,3457.25
176.614,3510.75
177.647,3553.50
178.681,3506.00
179.713,3541.75
180.747,3512.00
181.781,3510.00
182.813,3520.00
183.847,3500.50
184.878,3499.00
185.912,3442.25
186.945,3481.75
187.976,3501.00
189.010,3584.25
190.043,3535.50
191.073,3563.00
192.106,3609.25
193.137,3703.50
194.170,3675.75
195.202,3716.75
196.232,3726.50
197.265,3847.75
198.297,3889.25
199.327,3939.00
200.359,4033.75
201.388,4070.50
202.420,4151.25
203.452,4228.75
204.481,4257.50
205.512,4392.50
206.544,4502.75
207.573,4632.50
208.604,4698.50
209.635,4836.25
210.663,4958.50
211.694,5082.25
212.725,5238.50
213.753,5333.50
214.783,5412.00
215.813,5520.50
216.841,5523.50
217.871,5587.75
218.899,5548.50
219.929,5522.75
220.959,5460.00
221.986,5393.00
223.016,5248.50
224.045,5146.25
225.072,5052.00
226.101,4996.75
227.130,4807.25
228.157,4688.75
229.185,4621.00
230.214,4608.25
231.241,4519.25
232.269,4420.75
233.297,4403.75
234.323,4366.25
235.351,4326.00
236.379,4314.75
237.407,4325.50
238.433,4250.00
239.460,4274.75
240.488,4325.50
241.513,4305.00
242.540,4396.75
243.568,4398.25
244.592,4439.50
245.619,4420.00
246.646,4441.25
247.671,4360.50
248.697,4334.50
249.724,4333.50
250.748,4341.50
251.774,4375.75
252.801,4323.75
253.827,4395.25
254.850,4376.75
255.876,4404.50
256.902,4387.00
257.925,4447.50
258.951,4505.25
259.976,4518.25
260.999,4505.50
262.024,4552.00
263.049,4616.25
264.074,4630.00
265.097,4740.25
266.122,4715.75
267.146,4812.00
268.168,4814.50
269.193,4876.50
270.217,4938.50
271.241,4954.50
272.263,5024.75
273.287,5061.00
274.311,5055.00
275.332,5165.75
276.356,5169.50
277.379,5184.25
278.402,5114.50
279.424,5158.75
280.447,5086.00
281.470,5035.50
282.492,5018.75
283.513,4947.50
284.536,4942.25
285.558,4844.00
286.581,4775.50
287.601,4693.75
288.623,4612.75
289.645,4603.00
290.665,4535.50
291.687,4486.50
292.709,4366.00
293.730,4299.00
294.750,4277.00
295.771,4201.50
296.792,4233.50
297.813,4111.25
298.832,4026.50
299.853,4015.50
300.874,3944.50
301.895,3893.50
302.913,3847.25
303.934,3812.50
304.954,3758.25
305.975,3744.25
306.993,3691.50
308.013,3674.00
309.033,3582.25
310.052,3616.75
311.072,3579.00
312.090,3540.75
313.109,3529.50
314.129,3496.75
315.148,3440.75
316.165,3489.00
317.184,3500.25
318.203,3398.75
319.222,3332.00
320.238,3448.75
321.257,3351.75
322.275,3323.50
323.294,3318.00
324.312,3296.75
325.328,3288.00
326.346,3292.00
327.364,3294.75
328.382,3290.25
329.397,3243.50
330.415,3244.50
331.432,3266.50
332.450,3238.00
333.467,3223.00
334.482,3246.75
335.499,3144.25
336.516,3214.50
337.533,3237.00
338.547,3166.25
339.564,3122.75
340.580,3183.75
341.597,3114.75
342.613,3134.50
343.627,3155.00
344.643,3145.25
345.659,3100.25
346.675,3153.75
347.690,3125.25
348.704,3160.75
349.719,3117.50
350.735,3105.25
351.750,3125.75
352.765,3126.75
353.778,3175.50
354.793,3094.75
355.808,3180.25
356.822,3154.00
357.837,3114.75
358.851,3160.75
359.864,3150.25
360.878,3167.00
361.892,3131.25
362.906,3124.25
363.920,3137.25
364.932,3161.00
365.945,3135.50
366.959,3209.00
367.972,3169.00
368.986,3162.00
369.999,3094.25
371.010,3170.75
372.023,3222.25
373.036,3226.50
374.049,3215.50
375.061,3214.25
376.072,3217.75
377.084,3216.25
378.097,3281.50
379.109,3300.75
380.121,3262.00
381.133,3243.25
382.143,3241.25
383.155,3264.75
384.166,3268.00
385.178,3289.00
386.189,3264.25
387.201,3289.75
388.212,3356.25
389.221,3260.50
390.232,3234.75
391.243,3276.75
392.254,3295.00
393.264,3260.25
394.275,3257.75
395.283,3247.75
396.294,3217.00
397.304,3233.50
398.314,3208.25
399.324,3187.00
400.334,3150.75
401.344,3180.00
402.351,3113.75
403.361,3137.25
404.370,3169.25
405.380,3124.75
406.389,3085.50
407.398,3118.00
408.407,3063.00
409.414,3085.50
410.423,3102.00
411.431,3015.25
412.440,3034.25
413.448,3052.25
414.457,3029.75
415.465,2989.50
416.471,2994.00
417.479,2985.25
418.487,2921.25
419.495,2982.75
420.503,2963.50
421.510,2937.25
422.518,2891.25
423.525,2887.25
424.530,2964.75
425.537,2955.00
426.544,2910.75
427.551,2903.00
428.558,2874.75
429.565,2931.00
430.571,2854.25
431.578,2861.75
432.582,2942.00
433.588,2887.75
434.595,2916.25
435.601,2912.00
436.607,2921.00
437.612,2885.50
438.618,2883.75
439.624,2855.25
440.627,2889.50
441.633,2841.75
442.638,2865.50
443.643,2945.75
444.648,2835.00
445.653,2843.50
446.658,2925.00
447.663,2903.25
448.667,2871.75
449.672,2857.75
450.674,2872.75
451.678,2898.50
452.682,2883.25
453.687,2914.50
454.690,2904.00
455.694,2910.00
456.698,2927.75
457.702,2893.00
458.705,2894.25
459.709,2923.00
460.710,2885.50
461.713,2919.75
462.716,2933.50
463.719,2913.25
464.722,2960.50
465.725,2904.50
466.727,2938.50
467.730,2940.50
468.732,2956.75
469.735,2936.50
470.737,2918.50
471.737,2930.25
472.739,2933.75
473.741,2893.25
474.742,2958.50
475.744,2969.50
476.746,2925.75
477.747,2965.75
478.748,2896.00
479.750,2969.75
480.751,2914.75
481.752,2924.25
482.753,2938.25
483.751,2926.50
484.752,2972.75
485.753,2916.25
486.753,2935.75
487.753,2936.75
488.754,2915.50
489.754,2888.75
490.754,2872.25
491.754,2958.00
492.754,2952.25
493.753,2929.50
494.753,2884.00
495.752,2896.75
496.752,2935.25
497.749,2908.25
498.748,2920.00
499.747,2896.25
500.746,2884.75
501.745,2870.25
502.744,2856.00
503.742,2881.25
504.741,2858.00
505.739,2835.75
506.737,2831.50
507.735,2887.75
508.734,2863.75
509.732,2805.75
510.729,2800.00
511.727,2848.00
512.725,2807.00
513.720,2828.00
514.718,2818.75
515.715,2764.75
516.712,2791.50
517.709,2781.50
518.706,2786.25
519.703,2749.50
520.700,2750.75
521.696,2761.50
522.693,2790.25
523.689,2858.25
524.686,2722.75
525.682,2809.00
526.678,2772.50
527.674,2803.75
528.670,2764.75
529.666,2843.50
530.661,2814.00
531.657,2764.75
532.652,2794.25
533.648,2848.75
534.641,2785.50
535.636,2769.75
536.631,2781.75
537.626,2782.00
538.621,2833.75
539.616,2814.50
540.610,2829.25
541.605,2823.25
542.599,2832.50
543.593,2810.00
544.587,2822.25
545.581,2828.75
546.575,2804.00
547.569,2821.50
548.563,2836.50
549.557,2840.75
550.550,2796.00
551.543,2797.00
552.537,2800.00
553.530,2832.25
554.523,2823.50
555.516,2837.00
556.509,2809.50
557.502,2765.25
558.494,2789.75
559.487,2800.50
560.479,2795.50
561.472,2816.00
562.464,2792.00
563.456,2748.75
564.448,2767.50
565.440,2794.75
566.432,2780.00
567.423,2781.50
568.415,2845.75
569.404,2796.75
570.396,2817.25
571.387,2838.75
572.378,2829.75
573.369,2890.25
574.360,2852.50
575.351,2865.75
576.341,2824.75
577.332,2830.50
578.323,2848.00
579.313,2859.75
580.303,2808.50
581.293,2826.00
582.283,2816.50
583.273,2804.75
584.263,2867.50
585.253,2899.00
586.243,2784.75
587.232,2781.50
588.222,2792.75
589.211,2849.75
590.200,2807.25
591.189,2859.25
592.178,2818.25
593.167,2817.50
594.156,2781.50
595.145,2795.50
596.133,2810.25
597.122,2822.25
598.110,2800.25
599.098,2791.25
600.086,2808.50
601.074,2813.50
602.062,2787.25
603.050,2737.00
604.038,2765.25
605.025,2721.25
606.013,2772.00
607.000,2764.75
607.987,2724.50
608.975,2715.50
609.962,2689.75
610.949,2706.25
611.936,2755.00
612.922,2696.50
613.909,2663.50
614.895,2685.25
615.882,2626.25
616.868,2656.75
617.854,2656.75
618.841,2638.75
619.826,2603.75
620.812,2580.00
621.798,2602.00
622.784,2555.00
623.769,2528.75
624.755,2492.50
625.740,2548.50
626.725,2465.50
627.711,2511.50
628.698,2474.25
629.683,2395.75
630.667,2396.50
631.652,2424.50
632.637,2464.25
633.621,2408.00
634.606,2377.25
635.590,2349.00
636.574,2325.50
637.558,2317.75
638.542,2363.50
639.526,2314.25
640.510,2313.50
641.493,2332.25
642.477,2351.00
643.460,2306.25
644.444,2283.00
645.427,2297.00
646.410,2259.25
647.393,2249.50
648.376,2259.75
649.359,2236.25
650.341,2244.50
651.324,2229.25
652.307,2204.25
653.289,2205.25
654.271,2208.00
655.253,2180.75
656.235,2162.25
657.217,2164.75
658.199,2213.75
659.181,2190.50
660.163,2154.75
661.144,2133.25
662.126,2150.75
663.107,2121.75
664.088,2125.50
665.069,2173.75
666.050,2119.00
667.033,2128.00
668.014,2102.00
668.995,2107.50
669.975,2138.00
670.956,2062.75
671.936,2072.00
672.916,2083.25
673.896,2095.50
674.876,2066.50
675.856,2051.00
676.836,2025.25
677.816,2006.75
678.795,2015.50
679.775,2007.50
680.754,2054.50
681.734,1971.25
682.713,1964.75
683.692,1985.00
684.671,1998.50
685.650,1965.50
686.629,1966.25
687.607,1909.25
688.586,1898.50
689.564,1905.50
690.543,1912.25
691.523,1922.00
692.501,1876.00
693.479,1853.25
694.457,1828.50
695.435,1818.75
696.413,1868.75
697.390,1811.25
698.368,1815.75
699.345,1828.75
700.322,1854.75
701.300,1803.50
702.277,1823.00
703.254,1801.25
704.231,1797.00
705.207,1818.50
706.184,1798.00
707.161,1816.25
708.137,1789.50
709.113,1768.50
710.090,1793.25
711.068,1749.25
712.044,1735.75
713.020,1727.75
713.996,1713.75
714.971,1737.00
715.947,1745.25
716.922,1730.25
717.898,1690.75
718.873,1705.25
719.848,1697.50
720.823,1745.00
721.798,1701.00
722.773,1720.25
723.748,1689.25
724.723,1691.25
725.697,1686.75
726.672,1677.75
727.646,1677.00
728.622,1663.25
729.596,1656.25
730.570,1651.00
731.544,1652.00
732.518,1619.25
733.492,1646.00
734.466,1680.75
735.439,1641.50
736.413,1624.75
737.386,1582.00
738.359,1683.25
739.332,1687.25
740.305,1639.75
741.278,1625.00
742.251,1598.50
743.224,1585.00
744.196,1590.00
745.171,1613.50
746.143,1593.50
747.115,1593.75
748.087,1629.75
749.059,1576.75
750.031,1573.50
751.003,1551.50
751.975,1557.25
752.947,1562.25
753.918,1534.25
754.890,1600.75
755.861,1538.25
756.832,1585.00
757.803,1523.75
758.774,1569.00
759.747,1524.00
760.718,1559.00
761.689,1499.00
762.659,1564.75
763.630,1521.25
764.600,1504.25
765.570,1486.75
766.540,1522.75
767.510,1541.75
768.480,1551.25
769.450,1455.25
770.420,1534.75
771.390,1479.00
772.359,1485.00
773.329,1494.00
774.300,1452.50
775.269,1487.50
776.238,1472.25
777.207,1436.75
778.176,1457.75
779.145,1492.00
780.114,1477.50
781.083,1439.75
782.051,1424.25
783.019,1448.00
783.988,1457.25
784.956,1422.25
785.924,1454.00
786.894,1423.00
787.862,1419.00
788.830,1432.25
789.797,1379.25
790.765,1379.75
791.732,1374.50
792.700,1435.50
793.667,1377.50
794.634,1422.25
795.601,1410.00
796.568,1424.50
797.535,1380.75
798.502,1428.50
799.468,1381.00
800.437,1347.50
801.403,1368.25
802.370,1342.25
803.336,1368.50
804.302,1377.25
805.268,1385.00
806.234,1362.75
807.200,1333.25
808.166,1336.75
809.131,1370.00
810.097,1336.75
811.062,1425.25
812.027,1323.00
812.994,1367.00
813.960,1351.00
814.925,1328.75
815.889,1347.50
816.854,1320.50
817.819,1325.25
818.783,1281.25
819.748,1357.00
820.712,1316.25
821.677,1337.50
822.641,1321.00
823.605,1303.75
824.571,1347.50
825.534,1362.25
826.498,1339.50
827.462,1300.50
828.425,1332.00
829.389,1327.50
830.352,1334.25
831.315,1343.75
832.279,1350.25
833.242,1314.75
834.204,1330.50
835.167,1339.00
836.132,1334.25
837.095,1317.00
838.057,1325.00
839.020,1305.50
839.982,1364.50
840.944,1302.50
841.906,1338.75
842.868,1349.25
843.830,1306.50
844.792,1317.50
845.753,1353.25
846.715,1311.00
847.679,1330.75
848.640,1314.75
849.601,1365.25
850.562,1342.75
851.523,1365.75
852.484,1361.25
853.445,1357.25
854.406,1317.00
855.367,1357.00
856.327,1381.00
857.288,1281.75
858.248,1368.00
859.210,1363.50
860.170,1366.50
861.130,1326.50
862.090,1301.00
863.050,1341.00
864.010,1346.50
864.969,1342.50
865.929,1354.75
866.888,1350.25
867.848,1384.00
868.807,1354.25
869.766,1392.50
870.727,1383.00
871.686,1349.00
872.645,1365.75
873.604,1355.75
874.562,1377.75
875.521,1357.50
876.479,1323.00
877.437,1385.00
878.396,1366.00
879.354,1363.00
880.312,1400.50
881.270,1341.75
882.229,1365.50
883.187,1371.00
884.145,1356.75
885.102,1386.00
886.059,1379.00
887.017,1366.75
887.974,1372.50
888.931,1389.50
889.888,1370.50
890.845,1405.75
891.802,1395.50
892.758,1327.75
893.717,1376.25
894.673,1385.50
895.630,1376.75
896.586,1301.50
897.542,1320.75
898.498,1374.00
899.454,1400.00
900.410,1336.25
901.366,1417.50
902.321,1353.00
903.277,1394.75
904.232,1391.50
905.189,1390.25
906.145,1400.75
907.100,1359.50
908.055,1369.00
909.010,1387.25
909.965,1382.00
910.919,1352.25
911.874,1391.25
912.828,1376.50
913.783,1390.75
914.737,1396.50
915.693,1362.00
916.648,1393.00
917.602,1390.75
918.555,1378.50
919.509,1392.25
920.463,1390.75
921.417,1374.75
922.370,1346.75
923.324,1400.25
924.277,1326.50
925.230,1366.75
926.183,1362.75
927.138,1363.25
928.091,1373.75
929.044,1371.50
929.996,1411.00
930.949,1341.75
931.902,1413.00
932.854,1342.75
933.806,1370.75
934.758,1372.75
935.711,1361.00
936.663,1361.75
937.614,1371.00
938.568,1346.50
939.520,1330.25
940.471,1387.50
941.423,1377.75
942.374,1350.25
943.326,1323.75
944.277,1345.00
945.228,1361.50
946.179,1342.50
947.130,1377.25
948.080,1357.00
949.031,1357.75
949.984,1332.50
950.934,1344.25
951.884,1333.00
952.835,1317.50
953.785,1325.25
954.735,1330.75
955.685,1286.50
956.635,1312.50
957.585,1334.50
958.534,1343.25
959.484,1311.00
960.433,1314.25
961.383,1302.25
962.334,1361.50
963.283,1282.00
964.232,1320.75
965.181,1283.25
966.130,1287.25
967.079,1279.50
968.027,1321.75
968.976,1317.75
969.924,1282.00
970.873,1273.00
971.821,1294.75
972.769,1257.25
973.719,1319.50
974.667,1262.00
975.615,1313.75
976.562,1298.00
977.510,1307.75
978.458,1292.50
979.405,1270.50
980.352,1272.25
981.300,1307.50
982.247,1271.75
983.194,1269.75
984.141,1284.25
985.088,1274.00
986.036,1274.25
986.983,1289.25
987.930,1295.75
988.876,1272.00
989.822,1294.00
990.769,1295.25
991.715,1289.25
992.661,1250.75
993.607,1276.75
994.553,1299.25
995.498,1270.00
996.444,1320.50
997.389,1308.25
998.337,1288.00
999.282,1294.25
1000.227,1236.75
1001.173,1279.75
1002.118,1210.25
1003.062,1280.75
1004.007,1229.00
1004.952,1252.75
1005.897,1274.00
1006.841,1217.25
1007.786,1240.00
1008.730,1261.50
1009.674,1229.50
1010.618,1266.25
1011.564,1255.75
1012.508,1271.50
1013.452,1266.25
1014.396,1236.00
1015.339,1226.75
1016.283,1234.00
1017.226,1244.25
1018.170,1245.00
1019.113,1242.50
1020.056,1264.75
1020.999,1253.75
1021.942,1276.00
1022.885,1264.50
1023.828,1231.00
1024.770,1277.75
1025.715,1294.25
1026.657,1316.75
1027.600,1258.25
1028.542,1233.00
1029.484,1264.75
1030.426,1269.00
1031.368,1274.00
1032.310,1255.75
1033.251,1245.50
1034.193,1287.75
1035.135,1281.50
1036.076,1235.00
1037.017,1274.00
1037.959,1272.50
1038.900,1273.75
1039.843,1272.50
1040.784,1301.75
1041.725,1326.25
1042.665,1300.50
1043.606,1292.00
1044.547,1257.50
1045.487,1323.50
1046.427,1256.00
1047.368,1285.50
1048.308,1291.25
1049.248,1286.75
1050.188,1274.25
1051.128,1322.50
1052.067,1266.25
1053.007,1320.00
1053.947,1283.50
1054.886,1286.75
1055.827,1290.75
1056.766,1302.00
1057.706,1280.50
1058.645,1324.25
1059.584,1314.00
1060.522,1292.50
1061.461,1317.25
1062.400,1300.25
1063.338,1342.00
1064.277,1316.50
1065.215,1294.50
1066.154,1322.00
1067.092,1303.00
1068.030,1363.50
1068.968,1343.50
1069.906,1292.00
1070.843,1348.50
1071.781,1374.25
1072.720,1348.25
1073.658,1347.75
1074.595,1377.75
1075.533,1374.00
1076.470,1349.75
1077.407,1340.75
1078.344,1353.75
1079.281,1394.50
1080.217,1335.25
1081.154,1356.75
1082.091,1360.25
1083.027,1359.75
1083.964,1329.25
1084.900,1386.00
1085.836,1412.00
1086.772,1340.75
1087.708,1370.00
1088.644,1352.00
1089.580,1367.25
1090.515,1404.00
1091.451,1338.00
1092.388,1306.25
1093.324,1328.00
1094.259,1347.50
1095.194,1339.50
1096.129,1331.25
1097.064,1324.75
1097.999,1304.25
1098.934,1325.25
1099.869,1356.50
1100.803,1324.00
1101.738,1311.00
1102.672,1317.00
1103.607,1311.25
1104.541,1288.25
1105.475,1310.75
1106.409,1294.50
1107.343,1259.50
1108.277,1255.25
1109.210,1226.00
1110.144,1251.25
1111.078,1272.25
1112.011,1254.00
1112.944,1217.50
1113.878,1311.75
1114.811,1227.00
1115.744,1256.25
1116.678,1242.75
1117.611,1204.50
1118.544,1214.25
1119.477,1169.50
1120.409,1228.25
1121.342,1231.00
1122.274,1222.75
1123.206,1170.75
1124.138,1181.50
1125.070,1169.25
1126.002,1155.25
1126.934,1134.25
1127.866,1173.00
1128.798,1159.50
1129.729,1192.25
1130.661,1136.50
1131.592,1191.25
1132.523,1101.25
1133.454,1130.25
1134.385,1135.50
1135.317,1117.25
1136.247,1136.25
1137.178,1110.75
1138.109,1106.75
1139.039,1087.50
1139.970,1121.50
1140.900,1135.25
1141.831,1116.25
1142.761,1112.00
1143.691,1127.50
1144.621,1122.75
1145.551,1120.25
1146.480,1067.25
1147.410,1094.25
1148.340,1082.00
1149.269,1074.00
1150.199,1088.00
1151.128,1071.00
1152.057,1091.00
1152.979,1061.25
1153.898,1097.50
1154.819,1106.75
1155.739,1096.50
1156.658,1092.75
1157.579,1058.75
1158.498,1044.25
1159.419,1076.00
1160.338,1062.50
1161.256,1059.00
1162.177,1076.50
1163.095,1045.00
1164.016,1076.25
1164.934,1040.75
1165.852,1029.50
1166.772,1032.75
1167.690,1081.50
1168.610,1070.75
1169.528,1073.50
1170.446,1020.75
1171.365,1051.75
1172.283,1037.50
1173.202,1007.75
1174.120,1084.25
1175.037,1027.00
1175.956,998.00
1176.873,1016.75
1177.792,1009.75
1178.709,1046.00
1179.626,1043.50
1180.544,1011.50
1181.461,1034.25
1182.379,993.50
1183.296,988.50
1184.212,1028.75
1185.130,1069.00
1186.046,1024.00
1186.962,1012.50
1187.880,1019.75
1188.796,1015.50
1189.714,993.25
1190.629,1008.75
1191.545,972.25
1192.462,1020.75
1193.378,1006.50
1194.295,1035.50
1195.210,1033.75
1196.125,1020.25
1197.042,1041.75
1197.957,976.25
1198.872,1032.25
1199.788,998.00
1200.703,986.00
1201.619,1008.25
1202.534,1023.50
1203.448,1014.00
1204.364,1040.50
1205.278,992.00
1206.192,1039.00
1207.108,975.75
1208.022,975.00
1208.938,1053.00
1209.851,989.75
1210.765,978.25
1211.680,1024.50
1212.594,997.50
1213.507,985.50
1214.422,997.25
1215.335,990.25
1216.248,981.50
1217.163,1049.75
1218.076,983.00
1218.990,1082.75
1219.903,1001.00
1220.816,1011.75
1221.730,1043.00
1222.642,995.00
1223.554,1014.25
1224.469,1011.75
1225.380,1029.50
1226.292,1036.25
1227.206,1020.75
1228.118,1078.50
1229.032,1024.25
1229.943,1024.50
1230.855,1020.50
1231.768,1032.75
1232.679,1025.25
1233.590,1027.25
1234.503,1049.75
1235.414,1031.75
1236.325,1056.75
1237.238,1023.00
1238.149,1028.50
1239.059,1045.75
1239.972,1039.25
1240.882,1016.50
1241.793,1053.50
1242.705,1030.75
1243.615,1022.75
1244.525,986.00
1245.437,1027.75
1246.347,1032.50
1247.259,1020.25
1248.168,1025.75
1249.078,1051.25
1249.989,1023.00
1250.899,1031.25
1251.808,1057.00
1252.719,1042.00
1253.628,1067.25
1254.537,1025.75
1255.448,1047.75
1256.357,1040.50
1257.266,1041.50
1258.176,1045.00
1259.085,1040.75
1259.993,1044.50
1260.904,1038.50
1261.812,1027.50
1262.720,1058.75
1263.630,1045.00
1264.538,1056.50
1265.446,1073.50
1266.356,1043.75
1267.263,1013.50
1268.171,1068.75
1269.080,1085.75
1269.988,1081.25
1270.895,1051.00
1271.804,1029.50
1272.711,1032.75
1273.619,1066.25
1274.527,1033.00
1275.434,1018.75
1276.341,1068.50
1277.248,1036.75
1278.156,1071.00
1279.063,1032.50
1279.969,1038.25
1280.877,1021.00
1281.783,1022.75
1282.690,1041.75
1283.598,1101.50
1284.503,1078.25
1285.409,1054.50
1286.317,1028.50
1287.223,1019.75
1288.128,1013.50
1289.036,1074.75
1289.941,1051.75
1290.846,1004.25
1291.751,1009.00
1292.658,1032.00
1293.563,974.75
1294.468,1022.50
1295.375,1038.25
1296.280,1019.50
1297.184,1081.50
1298.091,1010.00
1298.995,1057.50
1299.900,999.25
1300.806,1017.50
1301.710,1001.50
1302.614,1057.50
1303.518,1008.50
1304.424,990.25
1305.327,991.75
1306.231,983.50
1307.137,971.00
1308.040,1012.25
1308.943,1033.00
1309.847,975.75
1310.752,992.25
1311.655,1054.25
1312.558,977.50
1313.463,966.50
1314.366,986.75
1315.269,987.50
1316.171,977.75
1317.076,931.25
1317.978,954.75
1318.881,933.75
1319.785,955.25
1320.687,979.25
1321.589,937.25
1322.491,966.00
1323.395,940.25
1324.297,990.25
1325.198,963.50
1326.102,941.25
1327.004,924.50
1327.905,938.75
1328.806,968.25
1329.709,936.50
1330.611,936.00
1331.512,973.25
1332.413,960.75
1333.316,930.25
1334.216,944.50
1335.117,909.75
1336.020,916.75
1336.920,950.25
1337.821,954.25
1338.721,953.50
1339.623,877.00
1340.523,873.00
1341.423,895.75
1342.323,874.75
1343.225,894.25
1344.125,916.50
1345.025,866.25
1345.924,873.50
1346.826,926.75
1347.725,901.25
1348.624,903.25
1349.524,821.25
1350.425,868.50
1351.324,873.00
1352.223,929.75
1353.121,836.00
1354.022,873.25
1354.921,879.50
1355.819,848.25
1356.718,848.75
1357.618,866.75
1358.516,869.50
1359.415,906.00
1360.313,861.00
1361.213,878.00
1362.111,867.00
1363.008,866.50
1363.906,856.25
1364.806,850.75
1365.703,835.75
1366.601,819.25
1367.498,837.50
1368.397,831.75
1369.295,839.00
1370.192,851.75
1371.089,825.00
1371.987,808.75
1372.884,806.75
1373.781,826.50
1374.678,826.50
1375.574,861.75
1376.473,832.75
1377.369,802.00
1378.265,833.50
1379.161,814.50
1380.059,826.75
1380.955,815.00
1381.851,815.50
1382.747,816.25
1383.643,837.50
1384.540,778.00
1385.436,800.25
1386.331,806.25
1387.227,784.25
1388.124,769.50
1389.019,801.50
1389.914,783.25
1390.809,782.25
1391.704,749.50
1392.601,798.50
1393.495,797.25
1394.390,757.25
1395.285,761.25
1396.179,777.25
1397.075,753.25
1397.969,757.00
1398.864,795.00
1399.758,770.25
1400.652,754.00
1401.547,750.00
1402.441,760.00
1403.335,768.50
1404.229,748.00
1405.122,808.75
1406.017,779.50
1406.911,736.50
1407.804,798.50
1408.697,766.75
1409.590,773.75
1410.485,793.50
1411.378,737.25
1412.271,737.00
1413.163,800.75
1414.056,777.75
1414.949,745.50
1415.843,795.50
1416.735,777.50
1417.627,747.25
1418.520,760.75
1419.412,758.75
1420.306,766.25
1421.197,687.25
1422.089,778.50
1422.981,739.75
1423.873,744.25
1424.764,705.50
1425.657,748.75
1426.549,774.75
1427.440,709.75
1428.331,761.25
1429.222,740.25
1430.113,779.25
1431.006,735.50
1431.897,713.50
1432.787,772.75
1433.678,724.75
1434.568,748.50
1435.459,764.00
1436.351,739.00
1437.241,733.00
1438.131,730.50
1439.021,1136.50
1439.911,723.25
1440.801,722.25
1441.693,748.25
1442.583,763.50
1443.472,722.50
1444.362,766.75
1445.251,683.25
1446.140,737.75
1447.030,750.75
1447.921,743.50
1448.810,728.50
1449.699,700.50
1450.588,726.25
1451.476,727.25
1452.365,721.25
1453.254,697.75
1454.144,754.75
1455.032,728.00
1455.921,699.00
1456.809,690.75
1457.697,692.00
1458.585,686.00
1459.473,696.75
1460.361,681.50
1461.251,707.00
1462.138,724.00
1463.026,676.75
1463.913,704.75
1464.801,700.50
1465.688,737.75
1466.575,662.50
1467.463,745.25
1468.351,688.00
1469.238,714.75
1470.125,703.25
1471.012,682.50
1471.899,708.75
1472.785,680.50
1473.672,694.75
1474.558,695.50
1475.446,688.75
1476.333,698.00
1477.219,731.50
1478.105,698.25
1478.991,661.75
1479.877,683.50
1480.762,692.75
1481.648,681.50
1482.534,680.00
1483.419,662.75
1484.307,698.50
1485.192,747.75
1486.077,637.50
1486.962,666.50
1487.847,653.50
1488.732,677.50
1489.617,660.25
1490.502,680.50
1491.387,691.25
1492.271,698.00
1493.156,662.00
1494.042,657.00
1494.927,720.50
1495.811,694.75
1496.695,699.50
1497.579,668.75
1498.463,711.75
1499.347,690.00
1500.231,691.00
1501.114,673.50
1501.998,681.50
1502.881,634.75
1503.765,647.50
1504.648,652.50
1505.533,667.00
1506.417,618.50
1507.300,656.25
1508.183,679.50
1509.066,669.50
1509.948,636.25
1510.831,631.50
1511.714,654.75
1512.596,649.75
1513.479,667.75
1514.361,639.75
1515.243,639.75
1516.125,680.75
1517.008,635.25
1517.890,672.50
1518.771,670.25
1519.655,672.00
1520.537,646.75
1521.419,698.25
1522.300,654.00
1523.182,669.75
1524.063,647.75
1524.944,668.75
1525.825,628.25
1526.707,626.25
1527.588,664.75
1528.468,650.25
1529.349,656.00
1530.230,655.75
1531.111,670.25
1531.991,624.25
1532.872,609.75
1533.752,655.50
1534.632,615.00
1535.513,649.00
1536.393,706.25
1537.273,642.25
1538.153,656.75
1539.032,586.50
1539.912,610.25
1540.792,635.50
1541.672,669.50
1542.551,674.00
1543.430,649.75
1544.310,605.50
1545.189,647.75
1546.068,665.00
1546.947,591.25
1547.826,666.50
1548.705,685.25
1549.584,655.50
1550.462,651.75
1551.341,639.25
1552.219,659.25
1553.098,677.00
1553.976,635.50
1554.854,659.00
1555.733,663.00
1556.611,630.00
1557.489,602.50
1558.367,593.75
1559.244,660.25
1560.122,613.25
1561.000,613.25
1561.877,602.50
1562.755,663.75
1563.632,649.75
1564.509,668.00
1565.386,578.00
1566.264,588.25
1567.141,610.25
1568.017,585.00
1568.894,674.00
1569.771,616.75
1570.648,559.75
1571.524,678.50
1572.401,627.50
1573.277,613.50
1574.153,648.75
1575.029,654.00
1575.906,591.50
1576.781,595.25
1577.657,580.50
1578.533,595.50
1579.409,618.25
1580.285,611.75
1581.160,627.75
1582.036,601.50
1582.911,610.00
1583.786,574.75
1584.662,604.75
1585.537,609.25
1586.412,597.75
1587.287,618.25
1588.160,600.50
1589.035,574.00
1589.909,573.75
1590.784,591.50
1591.658,631.25
1592.533,605.00
1593.407,588.00
1594.281,613.75
1595.155,570.50
1596.029,619.25
1596.903,618.75
1597.777,590.50
1598.651,605.00
1599.525,587.25
1600.398,627.00
1601.272,594.75
1602.144,623.50
1603.017,621.75
1603.890,613.25
1604.763,589.50
1605.636,572.00
1606.509,591.50
1607.382,595.25
1608.255,603.75
1609.128,633.75
1610.000,607.25
1610.873,594.75
1611.746,596.50
1612.616,587.25
1613.488,608.00
1614.361,572.50
1615.233,588.75
1616.105,612.25
1616.977,632.00
1617.849,593.00
1618.720,622.50
1619.592,611.00
1620.464,555.00
1621.333,590.75
1622.205,606.50
1623.076,572.75
1623.947,598.75
1624.818,586.25
1625.689,613.00
1626.560,578.25
1627.431,599.25
1628.302,638.50
1629.171,562.00
1630.042,600.50
1630.912,651.75
1631.782,581.25
1632.653,571.75
1633.523,597.75
1634.393,601.50
1635.263,542.75
1636.131,667.75
1637.001,611.75
1637.871,589.00
1638.741,566.25
1639.611,586.25
1640.480,565.50
1641.350,569.25
1642.219,584.75
1643.087,569.75
1643.956,620.75
1644.825,546.50
1645.694,579.00
1646.563,584.50
1647.432,532.00
1648.299,583.25
1649.167,597.75
1650.036,618.50
1650.904,654.75
1651.773,591.25
1652.641,579.75
1653.509,543.00
1654.376,588.50
1655.244,554.00
1656.112,588.00
1656.980,581.25
1657.847,563.75
1658.715,584.75
1659.581,602.25
1660.448,598.00
1661.316,568.00
1662.183,614.25
1663.051,567.75
1663.918,561.75
1664.783,538.50
1665.650,556.50
1666.517,585.25
1667.384,597.50
1668.251,560.00
1669.115,593.75
1669.982,567.75
1670.849,618.25
1671.715,559.25
1672.581,581.50
1673.446,566.50
1674.312,611.00
1675.178,577.00
1676.044,547.00
1676.910,596.50
1677.774,579.00
1678.639,555.75
1679.505,562.75
1680.370,563.25
1681.236,577.50
1682.099,565.25
1682.965,566.75
1683.830,577.75
1684.695,526.50
1685.560,609.50
1686.423,580.25
1687.288,543.00
1688.153,565.25
1689.017,566.75
1689.880,578.00
1690.745,582.00
1691.609,588.00
1692.473,593.25
1693.338,573.25
1694.200,579.50
1695.064,570.25
1695.928,580.25
1696.792,591.00
1697.654,533.75
1698.517,566.25
1699.381,515.00
1700.245,574.00
1701.106,535.50
1701.969,611.75
1702.833,559.00
1703.696,600.75
1704.557,607.50
1705.420,584.75
1706.283,595.25
1707.146,560.50
1708.007,545.00
1708.870,582.25
1709.732,561.25
1710.595,585.25
1711.455,567.25
1712.318,586.75
1713.180,564.25
1714.040,540.00
1714.902,568.00
1715.764,561.75
1716.626,590.25
1717.486,546.25
1718.348,539.25
1719.209,570.50
1720.071,559.00
1720.930,577.25
1721.792,600.00
1722.653,565.00
1723.512,536.50
1724.374,587.50
1725.234,587.75
1726.095,568.00
1726.954,535.25
1727.815,559.50
1728.676,540.50
1729.535,541.75
1730.395,561.75
1731.256,556.75
1732.114,597.00
1732.974,568.50
1733.834,604.50
1734.693,526.75
1735.553,581.00
1736.413,494.50
1737.272,593.50
1738.130,559.25
1738.990,526.25
1739.849,589.75
1740.707,537.25
1741.566,571.75
1742.426,576.00
1743.283,593.75
1744.142,531.75
1745.001,564.00
1745.858,562.25
1746.717,610.50
1747.576,593.00
1748.433,581.00
1749.292,534.00
1750.150,541.00
1751.007,565.75
1751.865,531.25
1752.723,580.75
1753.579,582.25
1754.438,562.75
1755.296,582.75
1756.152,581.00
1757.010,605.75
1757.865,600.25
1758.723,588.00
1759.581,601.50
1760.436,547.50
1761.294,599.25
1762.151,548.75
1763.006,586.25
1763.864,542.75
1764.721,551.50
1765.576,548.00
1766.433,557.75
1767.288,575.75
1768.144,550.00
1769.001,561.25
1769.856,575.25
1770.712,535.00
1771.568,622.25
1772.423,542.50
1773.279,551.75
1774.133,581.00
1774.989,548.75
1775.845,578.00
1776.699,592.25
1777.555,533.75
1778.409,545.75
1779.265,587.50
1780.120,563.75
1780.974,556.25
1781.829,588.00
1782.682,540.00
1783.538,610.50
1784.393,552.75
1785.246,540.75
1786.101,565.00
1786.954,595.75
1787.808,586.50
1788.661,554.25
1789.516,562.75
1790.370,562.75
1791.223,578.00
1792.077,559.25
1792.930,530.00
1793.784,567.00
1794.636,596.50
1795.490,550.50
1796.344,564.75
1797.196,537.50
1798.049,544.75
1798.901,550.50
1799.755,532.25
1800.606,558.75
1801.460,541.75
1802.311,539.00
1803.165,551.75
1804.018,563.75
1804.869,539.00
1805.722,507.00
1806.573,550.50
1807.426,572.00
1808.276,515.25
1809.129,557.50
1809.980,590.75
1810.832,515.50
1811.683,567.25
1812.535,534.25
1813.385,533.25
1814.237,551.75
1815.089,561.25
1815.940,582.75
1816.791,577.75
1817.641,540.00
1818.493,549.25
1819.343,557.00
1820.194,511.00
1821.044,539.50
1821.895,535.75
1822.745,544.25
1823.596,550.50
1824.445,526.50
1825.296,544.50
1826.145,526.00
1826.996,526.50
1827.845,602.50
1828.695,570.50
1829.544,519.25
1830.395,536.00
1831.243,560.25
1832.094,544.75
1832.942,592.25
1833.792,569.50
1834.640,546.50
1835.490,560.00
1836.338,536.25
1837.186,581.25
1838.036,575.75
1838.884,545.75
1839.733,543.50
1840.581,555.75
1841.430,560.75
1842.278,536.00
1843.127,577.50
1843.974,528.50
1844.823,543.00
1845.671,568.00
1846.519,529.00
1847.366,524.50
1848.213,569.50
1849.062,553.50
1849.909,559.00
1850.757,557.75
1851.604,550.50
1852.452,570.75
1853.298,539.50
1854.146,540.75
1854.993,554.75
1855.839,548.50
1856.687,542.25
1857.532,528.50
1858.380,581.25
1859.226,579.00
1860.073,536.25
1860.919,532.75
1861.765,555.75
1862.612,595.00
1863.457,521.25
1864.304,567.75
1865.150,557.50
1865.995,545.75
1866.842,544.25
1867.686,520.50
1868.533,553.75
1869.378,591.75
1870.223,546.00
1871.069,551.25
1871.914,530.50
1872.760,540.50
1873.604,534.00
1874.448,542.50
1875.294,548.75
1876.139,525.25
1876.984,537.00
1877.828,525.50
1878.672,562.25
1879.518,522.25
1880.361,529.00
1881.205,584.50
1882.050,606.50
1882.894,485.75
1883.739,541.00
1884.582,551.75
1885.425,540.50
1886.270,559.50
1887.113,682.00
1887.956,570.25
1888.801,576.00
1889.644,554.75
1890.486,579.00
1891.331,574.50
1892.173,531.00
1893.017,545.50
1893.860,533.00
1894.702,556.00
1895.546,530.50
1896.388,561.75
1897.230,521.25
1898.074,584.50
1898.916,585.75
1899.757,536.50
1900.601,575.25
1901.443,524.75
1902.284,514.50
1903.125,516.75
1903.969,519.50
1904.810,544.00
1905.651,537.00
1906.494,530.00
1907.335,570.00
1908.176,549.50
1909.018,539.25
1909.859,541.50
1910.700,545.75
1911.542,582.75
1912.383,559.50
1913.223,529.75
1914.064,536.25
1914.906,565.00
1915.746,538.75
1916.586,487.75
1917.428,523.75
1918.268,557.00
1919.107,552.25
1919.947,520.50
1920.789,568.50
1921.628,563.00
1922.468,554.75
1923.309,583.00
1924.148,528.25
1924.988,543.75
1925.827,539.50
1926.667,550.75
1927.507,549.75
1928.345,541.00
1929.184,556.75
1930.025,576.50
1930.864,535.50
1931.702,505.50
1932.541,552.25
1933.381,533.00
1934.219,553.75
1935.057,571.00
1935.896,534.50
1936.735,536.50
1937.573,558.75
1938.411,560.75
1939.249,552.50
1940.089,553.50
1940.927,546.75
1941.764,534.00
1942.602,528.00
1943.439,577.50
1944.278,543.50
1945.115,543.75
1945.953,569.25
1946.790,570.50
1947.628,556.50
1948.465,572.50
1949.302,562.00
1950.139,551.25
1950.976,558.50
1951.814,559.50
1952.651,541.25
1953.487,554.75
1954.323,555.50
1955.160,515.00
1955.998,588.75
1956.834,532.00
1957.670,509.50
1958.506,507.00
1959.342,573.75
1960.177,515.00
1961.015,561.50
1961.850,535.50
1962.686,564.00
1963.521,573.00
1964.357,545.50
1965.192,538.50
1966.029,543.75
1966.864,519.75
1967.699,538.50
1968.534,523.75
1969.369,594.75
1970.204,526.50
1971.040,596.00
1971.875,533.75
1972.709,574.00
1973.544,543.75
1974.378,551.50
1975.212,528.50
1976.047,552.25
1976.882,536.75
1977.716,538.00
1978.550,582.75
1979.384,569.75
1980.218,538.25
1981.052,533.75
1981.885,577.75
1982.719,532.75
1983.554,557.75
1984.388,545.25
1985.221,534.75
1986.054,595.25
1986.887,553.00
1987.720,562.00
1988.553,541.75
1989.386,541.75
1990.219,589.25
1991.053,582.25
1991.886,542.75
1992.719,542.50
1993.551,560.25
1994.383,549.00
1995.216,550.00
1996.048,524.25
1996.880,569.25
1997.712,554.25
1998.544,537.75
1999.376,544.50
2000.208,573.00
2001.040,563.50
2001.873,577.75
2002.705,532.75
2003.536,535.25
2004.367,572.50
2005.199,558.50
2006.030,556.00
2006.861,591.25
2007.692,544.50
2008.523,552.50
2009.354,542.50
2010.185,553.75
2011.016,569.25
2011.846,545.75
2012.677,506.50
2013.507,559.75
2014.338,522.00
2015.168,560.00
2015.999,579.75
2016.829,554.25
2017.659,529.75
2018.489,552.50
2019.319,586.00
2020.149,558.75
2020.980,544.00
2021.810,572.50
2022.639,578.00
2023.469,527.25
2024.298,554.25
2025.128,519.50
2025.957,621.75
2026.786,568.75
2027.615,565.25
2028.444,577.75
2029.273,557.75
2030.102,582.25
2030.931,562.00
2031.758,620.00
2032.586,588.00
2033.415,607.50
2034.243,560.25
2035.072,568.50
2035.900,563.50
2036.728,547.50
2037.556,561.25
2038.385,566.25
2039.213,556.50
2040.040,578.75
2040.868,586.50
2041.696,577.00
2042.524,566.75
2043.351,530.50
2044.179,588.25
2045.006,573.00
2045.006,573.00

Max Intensity Wave.,217.871
Max Intensity Data,5587.75
Min Intensity Wave.,1882.894
Min Intensity Data,485.75
FWHM Wave.,401.331
FWHM Value,0.07
Pressure Wave.,684.671
Pressure Value [GPa],-24.91530
G/D Ratio,0.64825
G/D Gband Wave.,1548.605
G/D Gband Intensity,685.56
G/D Dband Wave.,1302.644
G/D Dband Intensity,1057.56

<< BACKGROUND SPECTRUM >>
Wave[dcm-1],No163
146.591,2271.00
147.626,2122.00
148.664,2038.00
149.699,2547.00
150.737,2248.00
151.772,2406.00
152.809,2397.00
153.846,2333.00
154.881,2422.00
155.918,1985.00
156.953,2249.00
157.989,2655.00
159.026,2455.00
160.060,2657.00
161.096,2855.00
162.130,2530.00
163.167,2559.00
164.200,2475.00
165.236,2687.00
166.272,2715.00
167.305,2289.00
168.341,2563.00
169.374,2787.00
170.409,2763.00
171.445,2782.00
172.477,2555.00
173.512,2414.00
174.545,2703.00
175.580,2907.00
176.614,3037.00
177.647,2810.00
178.681,3077.00
179.713,3391.00
180.747,2831.00
181.781,2731.00
182.813,3009.00
183.847,3111.00
184.878,2743.00
185.912,3027.00
186.945,3195.00
187.976,3090.00
189.010,2707.00
190.043,2871.00
191.073,2958.00
192.106,2739.00
193.137,3185.00
194.170,2602.00
195.202,2947.00
196.232,2745.00
197.265,3007.00
198.297,3091.00
199.327,2788.00
200.359,2943.00
201.388,3347.00
202.420,2922.00
203.452,3114.00
204.481,2729.00
205.512,3318.00
206.544,3130.00
207.573,3057.00
208.604,3424.00
209.635,3562.00
210.663,3001.00
211.694,3036.00
212.725,2834.00
213.753,2844.00
214.783,3420.00
215.813,3258.00
216.841,3053.00
217.871,3192.00
218.899,2964.00
219.929,3156.00
220.959,2896.00
221.986,3166.00
223.016,2768.00
224.045,3188.00
225.072,3169.00
226.101,3220.00
227.130,3256.00
228.157,2900.00
229.185,2389.00
230.214,3202.00
231.241,2845.00
232.269,2492.00
233.297,2688.00
234.323,3254.00
235.351,2849.00
236.379,3130.00
237.407,2777.00
238.433,2976.00
239.460,3137.00
240.488,3134.00
241.513,3229.00
242.540,3071.00
243.568,3229.00
244.592,3238.00
245.619,3212.00
246.646,2922.00
247.671,2983.00
248.697,2863.00
249.724,3049.00
250.748,3021.00
251.774,3008.00
252.801,3338.00
253.827,3090.00
254.850,3114.00
255.876,2719.00
256.902,3152.00
257.925,2993.00
258.951,2736.00
259.976,2793.00
260.999,3103.00
262.024,2813.00
263.049,3655.00
264.074,3164.00
265.097,3039.00
266.122,3118.00
267.146,3038.00
268.168,3263.00
269.193,2888.00
270.217,3275.00
271.241,2736.00
272.263,2893.00
273.287,3167.00
274.311,2832.00
275.332,3303.00
276.356,2885.00
277.379,3103.00
278.402,3162.00
279.424,2956.00
280.447,2926.00
281.470,2770.00
282.492,3091.00
283.513,2932.00
284.536,3161.00
285.558,3181.00
286.581,3128.00
287.601,2859.00
288.623,2849.00
289.645,3083.00
290.665,3127.00
291.687,3148.00
292.709,3138.00
293.730,3439.00
294.750,2923.00
295.771,2750.00
296.792,3076.00
297.813,2937.00
298.832,3082.00
299.853,2759.00
300.874,3001.00
301.895,3012.00
302.913,3023.00
303.934,3288.00
304.954,3071.00
305.975,3202.00
306.993,2761.00
308.013,3127.00
309.033,3053.00
310.052,2971.00
311.072,2925.00
312.090,3094.00
313.109,3307.00
314.129,3439.00
315.148,3046.00
316.165,3087.00
317.184,3232.00
318.203,2787.00
319.222,2811.00
320.238,3100.00
321.257,2834.00
322.275,2712.00
323.294,3010.00
324.312,3183.00
325.328,3296.00
326.346,3320.00
327.364,3268.00
328.382,3172.00
329.397,3159.00
330.415,3272.00
331.432,3221.00
332.450,3261.00
333.467,3492.00
334.482,2583.00
335.499,3421.00
336.516,2874.00
337.533,2586.00
338.547,2885.00
339.564,2870.00
340.580,3123.00
341.597,3017.00
342.613,3481.00
343.627,3011.00
344.643,3069.00
345.659,3162.00
346.675,3006.00
347.690,2958.00
348.704,3095.00
349.719,2910.00
350.735,2785.00
351.750,3244.00
352.765,3033.00
353.778,2962.00
354.793,3196.00
355.808,2790.00
356.822,3172.00
357.837,2682.00
358.851,3253.00
359.864,2944.00
360.878,2736.00
361.892,2996.00
362.906,3185.00
363.920,2622.00
364.932,3101.00
365.945,3117.00
366.959,2980.00
367.972,2959.00
368.986,2749.00
369.999,3462.00
371.010,2894.00
372.023,3348.00
373.036,2983.00
374.049,3422.00
375.061,3097.00
376.072,3005.00
377.084,2925.00
378.097,2695.00
379.109,3188.00
380.121,3002.00
381.133,2710.00
382.143,3167.00
383.155,2779.00
384.166,2940.00
385.178,3108.00
386.189,3236.00
387.201,2743.00
388.212,2910.00
389.221,2953.00
390.232,3065.00
391.243,2908.00
392.254,3034.00
393.264,2869.00
394.275,3242.00
395.283,3195.00
396.294,3636.00
397.304,3473.00
398.314,3143.00
399.324,3057.00
400.334,2703.00
401.344,3161.00
402.351,2715.00
403.361,3215.00
404.370,2962.00
405.380,2930.00
406.389,3366.00
407.398,3118.00
408.407,3130.00
409.414,3181.00
410.423,3277.00
411.431,2797.00
412.440,2705.00
413.448,3340.00
414.457,2859.00
415.465,2835.00
416.471,2899.00
417.479,3022.00
418.487,2837.00
419.495,3330.00
420.503,3118.00
421.510,2622.00
422.518,3196.00
423.525,3222.00
424.530,3384.00
425.537,2872.00
426.544,3260.00
427.551,2868.00
428.558,3624.00
429.565,3449.00
430.571,2933.00
431.578,2937.00
432.582,2860.00
433.588,2976.00
434.595,2627.00
435.601,3334.00
436.607,3270.00
437.612,2801.00
438.618,3349.00
439.624,2994.00
440.627,2953.00
441.633,3189.00
442.638,3631.00
443.643,3055.00
444.648,3060.00
445.653,3222.00
446.658,2890.00
447.663,3023.00
448.667,2915.00
449.672,2957.00
450.674,2988.00
451.678,2732.00
452.682,2890.00
453.687,2839.00
454.690,3622.00
455.694,3280.00
456.698,2561.00
457.702,2685.00
458.705,2827.00
459.709,2797.00
460.710,2932.00
461.713,3070.00
462.716,3091.00
463.719,3034.00
464.722,3207.00
465.725,2981.00
466.727,2852.00
467.730,3063.00
468.732,2789.00
469.735,3307.00
470.737,2946.00
471.737,2924.00
472.739,2915.00
473.741,2838.00
474.742,3066.00
475.744,3092.00
476.746,3077.00
477.747,2967.00
478.748,3204.00
479.750,2944.00
480.751,3040.00
481.752,3762.00
482.753,3118.00
483.751,3584.00
484.752,2616.00
485.753,3001.00
486.753,2881.00
487.753,3012.00
488.754,3472.00
489.754,2733.00
490.754,3378.00
491.754,3147.00
492.754,2693.00
493.753,3048.00
494.753,2959.00
495.752,3324.00
496.752,3039.00
497.749,2987.00
498.748,2853.00
499.747,3390.00
500.746,3088.00
501.745,2811.00
502.744,2786.00
503.742,3335.00
504.741,2940.00
505.739,2513.00
506.737,2926.00
507.735,3145.00
508.734,3370.00
509.732,3157.00
510.729,3351.00
511.727,2888.00
512.725,2942.00
513.720,2780.00
514.718,3278.00
515.715,2715.00
516.712,2632.00
517.709,3020.00
518.706,2908.00
519.703,3076.00
520.700,3227.00
521.696,3360.00
522.693,2948.00
523.689,2817.00
524.686,3213.00
525.682,2771.00
526.678,3497.00
527.674,2908.00
528.670,2635.00
529.666,3510.00
530.661,3462.00
531.657,3190.00
532.652,3176.00
533.648,2979.00
534.641,3224.00
535.636,3104.00
536.631,3128.00
537.626,3217.00
538.621,2763.00
539.616,2617.00
540.610,2513.00
541.605,3008.00
542.599,3058.00
543.593,2998.00
544.587,3939.00
545.581,2862.00
546.575,3077.00
547.569,3044.00
548.563,2696.00
549.557,2651.00
550.550,2784.00
551.543,2754.00
552.537,3172.00
553.530,2760.00
554.523,2787.00
555.516,3101.00
556.509,2977.00
557.502,2664.00
558.494,3229.00
559.487,2934.00
560.479,3211.00
561.472,3254.00
562.464,3180.00
563.456,3367.00
564.448,2988.00
565.440,3042.00
566.432,3396.00
567.423,2937.00
568.415,2855.00
569.404,3116.00
570.396,2828.00
571.387,3117.00
572.378,3039.00
573.369,3903.00
574.360,3681.00
575.351,2936.00
576.341,2870.00
577.332,2858.00
578.323,2687.00
579.313,2910.00
580.303,3260.00
581.293,3149.00
582.283,2989.00
583.273,3142.00
584.263,3000.00
585.253,3085.00
586.243,3235.00
587.232,2683.00
588.222,2973.00
589.211,3168.00
590.200,3094.00
591.189,2958.00
592.178,2974.00
593.167,3458.00
594.156,3329.00
595.145,2909.00
596.133,3488.00
597.122,3117.00
598.110,3213.00
599.098,3078.00
600.086,2990.00
601.074,3172.00
602.062,2871.00
603.050,2758.00
604.038,3129.00
605.025,2852.00
606.013,3212.00
607.000,3387.00
607.987,3065.00
608.975,3115.00
609.962,2817.00
610.949,3157.00
611.936,3255.00
612.922,3191.00
613.909,2726.00
614.895,3362.00
615.882,2878.00
616.868,3007.00
617.854,2739.00
618.841,3020.00
619.826,3121.00
620.812,3008.00
621.798,2802.00
622.784,3187.00
623.769,3113.00
624.755,2735.00
625.740,3036.00
626.725,2749.00
627.711,2846.00
628.698,3110.00
629.683,2850.00
630.667,3233.00
631.652,2798.00
632.637,2936.00
633.621,3177.00
634.606,2940.00
635.590,3158.00
636.574,2989.00
637.558,3108.00
638.542,3035.00
639.526,2856.00
640.510,2629.00
641.493,3027.00
642.477,2972.00
643.460,2690.00
644.444,3253.00
645.427,3251.00
646.410,2663.00
647.393,2981.00
648.376,3073.00
649.359,2919.00
650.341,3090.00
651.324,3095.00
652.307,3054.00
653.289,2963.00
654.271,2870.00
655.253,2900.00
656.235,3142.00
657.217,3249.00
658.199,2626.00
659.181,2737.00
660.163,3024.00
661.144,2880.00
662.126,2878.00
663.107,2804.00
664.088,4735.00
665.069,3228.00
666.050,2820.00
667.033,2696.00
668.014,3057.00
668.995,2578.00
669.975,2992.00
670.956,3005.00
671.936,3160.00
672.916,2950.00
673.896,3089.00
674.876,2929.00
675.856,2870.00
676.836,2752.00
677.816,2333.00
678.795,2811.00
679.775,2703.00
680.754,3000.00
681.734,3161.00
682.713,3150.00
683.692,2766.00
684.671,2610.00
685.650,2741.00
686.629,2855.00
687.607,2773.00
688.586,2789.00
689.564,2876.00
690.543,3266.00
691.523,2362.00
692.501,2838.00
693.479,2967.00
694.457,2833.00
695.435,2896.00
696.413,2652.00
697.390,2540.00
698.368,2706.00
699.345,3106.00
700.322,2933.00
701.300,3105.00
702.277,3056.00
703.254,3273.00
704.231,2589.00
705.207,2955.00
706.184,2795.00
707.161,2668.00
708.137,2830.00
709.113,2806.00
710.090,2778.00
711.068,2610.00
712.044,2628.00
713.020,2892.00
713.996,2649.00
714.971,2809.00
715.947,2833.00
716.922,2812.00
717.898,2753.00
718.873,2891.00
719.848,2755.00
720.823,2682.00
721.798,2976.00
722.773,2738.00
723.748,2515.00
724.723,3026.00
725.697,2836.00
726.672,2772.00
727.646,2512.00
728.622,2998.00
729.596,2632.00
730.570,2724.00
731.544,3061.00
732.518,3297.00
733.492,2825.00
734.466,2840.00
735.439,3004.00
736.413,3110.00
737.386,2507.00
738.359,2398.00
739.332,2516.00
740.305,2841.00
741.278,3329.00
742.251,2930.00
743.224,2769.00
744.196,2553.00
745.171,3151.00
746.143,3054.00
747.115,2772.00
748.087,2687.00
749.059,3099.00
750.031,2899.00
751.003,3700.00
751.975,3248.00
752.947,2706.00
753.918,3115.00
754.890,2559.00
755.861,2784.00
756.832,3049.00
757.803,2861.00
758.774,2827.00
759.747,2610.00
760.718,3168.00
761.689,2751.00
762.659,2579.00
763.630,3159.00
764.600,2557.00
765.570,3085.00
766.540,3134.00
767.510,2899.00
768.480,3011.00
769.450,2758.00
770.420,2806.00
771.390,2668.00
772.359,2794.00
773.329,2666.00
774.300,2532.00
775.269,2761.00
776.238,2993.00
777.207,3177.00
778.176,2533.00
779.145,2781.00
780.114,2666.00
781.083,2583.00
782.051,2771.00
783.019,2698.00
783.988,3062.00
784.956,2876.00
785.924,2970.00
786.894,2870.00
787.862,2720.00
788.830,3144.00
789.797,2656.00
790.765,2657.00
791.732,2792.00
792.700,2648.00
793.667,2632.00
794.634,2769.00
795.601,2739.00
796.568,2781.00
797.535,2820.00
798.502,3416.00
799.468,2927.00
800.437,2442.00
801.403,2650.00
802.370,3309.00
803.336,2980.00
804.302,2899.00
805.268,2445.00
806.234,2552.00
807.200,2766.00
808.166,2804.00
809.131,2571.00
810.097,3019.00
811.062,3581.00
812.027,3032.00
812.994,2576.00
813.960,2622.00
814.925,2950.00
815.889,2511.00
816.854,3033.00
817.819,2657.00
818.783,2765.00
819.748,3077.00
820.712,2775.00
821.677,2630.00
822.641,2718.00
823.605,2755.00
824.571,3131.00
825.534,2743.00
826.498,2661.00
827.462,2828.00
828.425,2631.00
829.389,3047.00
830.352,2823.00
831.315,2910.00
832.279,2484.00
833.242,2775.00
834.204,2666.00
835.167,2654.00
836.132,3044.00
837.095,2541.00
838.057,2723.00
839.020,2813.00
839.982,2833.00
840.944,2701.00
841.906,2627.00
842.868,2947.00
843.830,2551.00
844.792,3055.00
845.753,2670.00
846.715,2486.00
847.679,2587.00
848.640,2630.00
849.601,2742.00
850.562,3245.00
851.523,2705.00
852.484,2470.00
853.445,2985.00
854.406,2717.00
855.367,2699.00
856.327,3018.00
857.288,2553.00
858.248,2666.00
859.210,2699.00
860.170,2510.00
861.130,3036.00
862.090,2463.00
863.050,2620.00
864.010,2678.00
864.969,2893.00
865.929,2592.00
866.888,2522.00
867.848,2813.00
868.807,2656.00
869.766,2839.00
870.727,2712.00
871.686,2992.00
872.645,2994.00
873.604,3293.00
874.562,2746.00
875.521,2788.00
876.479,3400.00
877.437,2596.00
878.396,2602.00
879.354,3156.00
880.312,2597.00
881.270,2696.00
882.229,3109.00
883.187,2617.00
884.145,2665.00
885.102,2918.00
886.059,2821.00
887.017,2890.00
887.974,2931.00
888.931,3063.00
889.888,2521.00
890.845,2402.00
891.802,2329.00
892.758,2690.00
893.717,2446.00
894.673,2550.00
895.630,2625.00
896.586,2963.00
897.542,2732.00
898.498,2508.00
899.454,2840.00
900.410,2711.00
901.366,2643.00
902.321,2709.00
903.277,2684.00
904.232,2749.00
905.189,2482.00
906.145,2646.00
907.100,2227.00
908.055,2700.00
909.010,2907.00
909.965,2333.00
910.919,2821.00
911.874,2559.00
912.828,2781.00
913.783,2763.00
914.737,2342.00
915.693,2759.00
916.648,2870.00
917.602,2931.00
918.555,2790.00
919.509,2840.00
920.463,2731.00
921.417,2797.00
922.370,2575.00
923.324,2660.00
924.277,2709.00
925.230,2771.00
926.183,2414.00
927.138,2686.00
928.091,2949.00
929.044,2839.00
929.996,2639.00
930.949,2681.00
931.902,2812.00
932.854,2859.00
933.806,2619.00
934.758,2946.00
935.711,2983.00
936.663,2797.00
937.614,2778.00
938.568,2750.00
939.520,2413.00
940.471,2695.00
941.423,2750.00
942.374,2900.00
943.326,2792.00
944.277,2610.00
945.228,2830.00
946.179,2696.00
947.130,3037.00
948.080,2648.00
949.031,2556.00
949.984,2660.00
950.934,2697.00
951.884,2470.00
952.835,2704.00
953.785,2745.00
954.735,2588.00
955.685,2395.00
956.635,2617.00
957.585,2620.00
958.534,2642.00
959.484,2725.00
960.433,2614.00
961.383,2495.00
962.334,2928.00
963.283,2792.00
964.232,2851.00
965.181,2737.00
966.130,2811.00
967.079,2636.00
968.027,2692.00
968.976,2702.00
969.924,2627.00
970.873,2838.00
971.821,2737.00
972.769,2952.00
973.719,2833.00
974.667,2503.00
975.615,2697.00
976.562,2726.00
977.510,2401.00
978.458,2602.00
979.405,2830.00
980.352,2767.00
981.300,2933.00
982.247,2807.00
983.194,2545.00
984.141,2612.00
985.088,2743.00
986.036,2774.00
986.983,2979.00
987.930,3119.00
988.876,2372.00
989.822,2927.00
990.769,2544.00
991.715,2587.00
992.661,2450.00
993.607,2812.00
994.553,3254.00
995.498,2592.00
996.444,2255.00
997.389,2748.00
998.337,2532.00
999.282,2849.00
1000.227,2669.00
1001.173,2698.00
1002.118,2468.00
1003.062,2872.00
1004.007,2714.00
1004.952,2998.00
1005.897,2900.00
1006.841,2732.00
1007.786,2481.00
1008.730,2424.00
1009.674,3197.00
1010.618,2653.00
1011.564,2520.00
1012.508,2398.00
1013.452,2929.00
1014.396,2743.00
1015.339,2662.00
1016.283,2720.00
1017.226,2760.00
1018.170,2719.00
1019.113,2911.00
1020.056,2720.00
1020.999,2720.00
1021.942,2580.00
1022.885,2866.00
1023.828,3006.00
1024.770,2485.00
1025.715,2717.00
1026.657,2673.00
1027.600,2768.00
1028.542,2932.00
1029.484,2758.00
1030.426,2835.00
1031.368,2782.00
1032.310,2609.00
1033.251,2561.00
1034.193,2700.00
1035.135,2478.00
1036.076,2660.00
1037.017,2534.00
1037.959,2826.00
1038.900,2785.00
1039.843,2813.00
1040.784,2729.00
1041.725,2769.00
1042.665,2601.00
1043.606,2746.00
1044.547,2750.00
1045.487,2334.00
1046.427,2687.00
1047.368,2807.00
1048.308,2244.00
1049.248,2537.00
1050.188,2713.00
1051.128,2595.00
1052.067,2678.00
1053.007,2416.00
1053.947,2403.00
1054.886,2591.00
1055.827,2518.00
1056.766,2989.00
1057.706,2484.00
1058.645,2663.00
1059.584,2734.00
1060.522,2965.00
1061.461,2454.00
1062.400,2492.00
1063.338,2631.00
1064.277,2532.00
1065.215,2530.00
1066.154,2413.00
1067.092,2597.00
1068.030,2619.00
1068.968,2844.00
1069.906,3017.00
1070.843,2939.00
1071.781,2727.00
1072.720,2811.00
1073.658,2821.00
1074.595,2567.00
1075.533,2538.00
1076.470,2586.00
1077.407,2987.00
1078.344,2762.00
1079.281,2771.00
1080.217,2317.00
1081.154,2657.00
1082.091,2727.00
1083.027,2452.00
1083.964,2943.00
1084.900,2538.00
1085.836,2551.00
1086.772,2859.00
1087.708,2433.00
1088.644,2830.00
1089.580,2681.00
1090.515,2695.00
1091.451,2606.00
1092.388,2710.00
1093.324,2465.00
1094.259,3234.00
1095.194,2754.00
1096.129,2605.00
1097.064,2564.00
1097.999,2838.00
1098.934,2520.00
1099.869,2505.00
1100.803,2698.00
1101.738,2693.00
1102.672,2385.00
1103.607,2796.00
1104.541,2559.00
1105.475,2529.00
1106.409,2407.00
1107.343,2611.00
1108.277,2444.00
1109.210,2727.00
1110.144,2675.00
1111.078,2650.00
1112.011,2438.00
1112.944,2777.00
1113.878,2678.00
1114.811,2179.00
1115.744,2576.00
1116.678,2296.00
1117.611,2594.00
1118.544,2597.00
1119.477,2774.00
1120.409,2533.00
1121.342,3096.00
1122.274,2737.00
1123.206,3011.00
1124.138,2693.00
1125.070,2995.00
1126.002,2861.00
1126.934,2310.00
1127.866,2567.00
1128.798,2327.00
1129.729,2354.00
1130.661,2663.00
1131.592,2528.00
1132.523,2786.00
1133.454,2763.00
1134.385,2309.00
1135.317,2647.00
1136.247,2577.00
1137.178,2860.00
1138.109,2387.00
1139.039,3010.00
1139.970,2835.00
1140.900,2574.00
1141.831,2316.00
1142.761,2242.00
1143.691,3260.00
1144.621,2627.00
1145.551,2672.00
1146.480,2704.00
1147.410,2853.00
1148.340,2304.00
1149.269,2390.00
1150.199,2612.00
1151.128,3048.00
1152.057,2438.00
1152.979,2593.00
1153.898,2608.00
1154.819,2701.00
1155.739,2612.00
1156.658,2536.00
1157.579,2675.00
1158.498,2640.00
1159.419,2154.00
1160.338,2652.00
1161.256,2688.00
1162.177,2487.00
1163.095,2604.00
1164.016,2681.00
1164.934,2872.00
1165.852,2817.00
1166.772,2642.00
1167.690,2608.00
1168.610,2682.00
1169.528,2629.00
1170.446,2198.00
1171.365,2533.00
1172.283,2524.00
1173.202,2629.00
1174.120,2630.00
1175.037,2513.00
1175.956,2475.00
1176.873,2485.00
1177.792,2531.00
1178.709,3100.00
1179.626,2498.00
1180.544,2863.00
1181.461,2491.00
1182.379,2727.00
1183.296,2648.00
1184.212,2276.00
1185.130,2431.00
1186.046,2967.00
1186.962,2638.00
1187.880,2888.00
1188.796,2677.00
1189.714,2439.00
1190.629,2775.00
1191.545,2712.00
1192.462,2565.00
1193.378,2614.00
1194.295,2326.00
1195.210,2626.00
1196.125,2780.00
1197.042,2671.00
1197.957,2664.00
1198.872,2492.00
1199.788,2553.00
1200.703,2980.00
1201.619,2663.00
1202.534,2496.00
1203.448,2696.00
1204.364,2563.00
1205.278,2328.00
1206.192,2675.00
1207.108,3148.00
1208.022,3028.00
1208.938,2451.00
1209.851,2789.00
1210.765,2895.00
1211.680,2521.00
1212.594,2425.00
1213.507,2607.00
1214.422,3042.00
1215.335,2763.00
1216.248,2578.00
1217.163,2619.00
1218.076,3246.00
1218.990,2681.00
1219.903,2419.00
1220.816,2449.00
1221.730,2554.00
1222.642,2513.00
1223.554,2530.00
1224.469,2710.00
1225.380,2570.00
1226.292,2281.00
1227.206,2778.00
1228.118,2885.00
1229.032,2265.00
1229.943,2509.00
1230.855,2586.00
1231.768,2377.00
1232.679,2711.00
1233.590,2602.00
1234.503,2831.00
1235.414,2473.00
1236.325,2486.00
1237.238,2698.00
1238.149,2713.00
1239.059,2435.00
1239.972,2802.00
1240.882,2452.00
1241.793,2729.00
1242.705,2978.00
1243.615,2606.00
1244.525,2760.00
1245.437,2220.00
1246.347,2671.00
1247.259,2809.00
1248.168,3065.00
1249.078,2865.00
1249.989,2924.00
1250.899,2459.00
1251.808,2483.00
1252.719,2550.00
1253.628,2478.00
1254.537,3021.00
1255.448,2462.00
1256.357,2459.00
1257.266,2633.00
1258.176,2364.00
1259.085,2354.00
1259.993,2452.00
1260.904,2482.00
1261.812,2474.00
1262.720,3149.00
1263.630,2781.00
1264.538,2452.00
1265.446,2728.00
1266.356,2616.00
1267.263,2935.00
1268.171,2427.00
1269.080,2668.00
1269.988,2769.00
1270.895,2533.00
1271.804,2598.00
1272.711,2818.00
1273.619,2765.00
1274.527,2458.00
1275.434,2743.00
1276.341,2440.00
1277.248,2664.00
1278.156,2894.00
1279.063,2508.00
1279.969,2714.00
1280.877,3533.00
1281.783,2837.00
1282.690,2701.00
1283.598,2552.00
1284.503,2460.00
1285.409,2435.00
1286.317,3014.00
1287.223,3035.00
1288.128,2704.00
1289.036,2505.00
1289.941,2555.00
1290.846,2672.00
1291.751,2502.00
1292.658,2553.00
1293.563,3102.00
1294.468,2643.00
1295.375,2764.00
1296.280,2860.00
1297.184,3322.00
1298.091,2732.00
1298.995,2763.00
1299.900,3005.00
1300.806,2545.00
1301.710,2380.00
1302.614,2180.00
1303.518,2871.00
1304.424,2578.00
1305.327,2850.00
1306.231,2628.00
1307.137,2781.00
1308.040,2682.00
1308.943,2621.00
1309.847,2841.00
1310.752,2837.00
1311.655,2247.00
1312.558,2425.00
1313.463,2582.00
1314.366,2514.00
1315.269,2683.00
1316.171,2627.00
1317.076,2550.00
1317.978,2436.00
1318.881,2284.00
1319.785,2487.00
1320.687,2483.00
1321.589,2256.00
1322.491,2469.00
1323.395,2713.00
1324.297,3179.00
1325.198,2742.00
1326.102,2453.00
1327.004,2466.00
1327.905,3023.00
1328.806,2586.00
1329.709,2684.00
1330.611,2562.00
1331.512,2416.00
1332.413,3050.00
1333.316,2664.00
1334.216,2808.00
1335.117,2384.00
1336.020,2685.00
1336.920,2593.00
1337.821,2452.00
1338.721,2861.00
1339.623,2716.00
1340.523,2595.00
1341.423,2506.00
1342.323,2928.00
1343.225,2719.00
1344.125,2441.00
1345.025,2550.00
1345.924,2305.00
1346.826,2953.00
1347.725,3023.00
1348.624,2827.00
1349.524,2552.00
1350.425,2599.00
1351.324,2742.00
1352.223,2779.00
1353.121,2642.00
1354.022,2829.00
1354.921,3022.00
1355.819,2777.00
1356.718,2702.00
1357.618,2385.00
1358.516,2739.00
1359.415,2960.00
1360.313,2710.00
1361.213,2569.00
1362.111,2911.00
1363.008,3266.00
1363.906,2600.00
1364.806,2652.00
1365.703,2702.00
1366.601,2474.00
1367.498,2465.00
1368.397,2816.00
1369.295,2684.00
1370.192,2453.00
1371.089,2732.00
1371.987,2627.00
1372.884,2897.00
1373.781,2413.00
1374.678,2651.00
1375.574,2444.00
1376.473,2775.00
1377.369,2866.00
1378.265,2486.00
1379.161,2610.00
1380.059,2320.00
1380.955,2758.00
1381.851,2409.00
1382.747,2517.00
1383.643,2548.00
1384.540,2413.00
1385.436,2520.00
1386.331,2691.00
1387.227,2770.00
1388.124,2773.00
1389.019,2430.00
1389.914,2640.00
1390.809,2302.00
1391.704,3081.00
1392.601,2542.00
1393.495,2905.00
1394.390,2817.00
1395.285,2872.00
1396.179,2723.00
1397.075,2637.00
1397.969,2699.00
1398.864,2323.00
1399.758,2608.00
1400.652,2662.00
1401.547,2482.00
1402.441,2403.00
1403.335,2979.00
1404.229,2788.00
1405.122,2693.00
1406.017,2596.00
1406.911,2798.00
1407.804,3014.00
1408.697,2628.00
1409.590,2459.00
1410.485,2780.00
1411.378,2721.00
1412.271,2340.00
1413.163,2657.00
1414.056,2767.00
1414.949,3009.00
1415.843,2647.00
1416.735,2585.00
1417.627,2670.00
1418.520,2603.00
1419.412,2871.00
1420.306,2794.00
1421.197,2967.00
1422.089,2836.00
1422.981,3111.00
1423.873,2822.00
1424.764,2776.00
1425.657,2683.00
1426.549,2737.00
1427.440,2854.00
1428.331,2532.00
1429.222,2328.00
1430.113,2663.00
1431.006,2835.00
1431.897,2556.00
1432.787,2624.00
1433.678,2585.00
1434.568,2459.00
1435.459,2854.00
1436.351,2809.00
1437.241,2777.00
1438.131,2798.00
1439.021,2627.00
1439.911,2596.00
1440.801,2714.00
1441.693,2859.00
1442.583,2661.00
1443.472,2642.00
1444.362,2728.00
1445.251,2617.00
1446.140,2571.00
1447.030,2803.00
1447.921,2813.00
1448.810,2465.00
1449.699,3022.00
1450.588,2674.00
1451.476,2542.00
1452.365,2742.00
1453.254,2570.00
1454.144,2505.00
1455.032,2789.00
1455.921,2384.00
1456.809,2949.00
1457.697,2468.00
1458.585,2618.00
1459.473,2599.00
1460.361,2509.00
1461.251,2710.00
1462.138,2704.00
1463.026,2648.00
1463.913,2858.00
1464.801,2554.00
1465.688,2709.00
1466.575,2693.00
1467.463,3052.00
1468.351,2501.00
1469.238,2601.00
1470.125,2258.00
1471.012,2707.00
1471.899,2744.00
1472.785,2483.00
1473.672,2662.00
1474.558,2857.00
1475.446,2778.00
1476.333,2812.00
1477.219,2435.00
1478.105,2625.00
1478.991,2642.00
1479.877,2948.00
1480.762,2620.00
1481.648,2530.00
1482.534,2790.00
1483.419,2741.00
1484.307,2781.00
1485.192,2577.00
1486.077,2540.00
1486.962,2528.00
1487.847,2419.00
1488.732,2510.00
1489.617,2675.00
1490.502,2901.00
1491.387,2764.00
1492.271,2462.00
1493.156,2497.00
1494.042,2475.00
1494.927,2822.00
1495.811,2532.00
1496.695,2765.00
1497.579,2939.00
1498.463,2627.00
1499.347,2669.00
1500.231,2685.00
1501.114,2726.00
1501.998,2898.00
1502.881,2746.00
1503.765,2943.00
1504.648,3071.00
1505.533,2768.00
1506.417,2701.00
1507.300,2625.00
1508.183,2703.00
1509.066,2138.00
1509.948,2905.00
1510.831,3022.00
1511.714,2450.00
1512.596,2795.00
1513.479,2885.00
1514.361,2863.00
1515.243,2681.00
1516.125,2801.00
1517.008,2938.00
1517.890,2598.00
1518.771,2675.00
1519.655,2830.00
1520.537,2602.00
1521.419,2449.00
1522.300,2684.00
1523.182,2779.00
1524.063,2808.00
1524.944,2945.00
1525.825,2879.00
1526.707,2488.00
1527.588,2438.00
1528.468,2769.00
1529.349,2330.00
1530.230,2586.00
1531.111,2788.00
1531.991,2716.00
1532.872,2415.00
1533.752,2609.00
1534.632,2548.00
1535.513,2517.00
1536.393,2781.00
1537.273,2978.00
1538.153,3247.00
1539.032,2424.00
1539.912,2671.00
1540.792,2671.00
1541.672,2673.00
1542.551,2734.00
1543.430,3261.00
1544.310,2730.00
1545.189,2562.00
1546.068,3050.00
1546.947,2800.00
1547.826,2942.00
1548.705,2601.00
1549.584,2873.00
1550.462,2612.00
1551.341,2804.00
1552.219,2720.00
1553.098,2775.00
1553.976,2875.00
1554.854,3040.00
1555.733,2853.00
1556.611,2584.00
1557.489,2490.00
1558.367,2679.00
1559.244,2805.00
1560.122,2658.00
1561.000,2760.00
1561.877,2969.00
1562.755,2518.00
1563.632,2610.00
1564.509,2892.00
1565.386,3060.00
1566.264,2467.00
1567.141,2297.00
1568.017,2861.00
1568.894,2600.00
1569.771,2732.00
1570.648,2827.00
1571.524,2646.00
1572.401,2415.00
1573.277,2444.00
1574.153,2705.00
1575.029,2515.00
1575.906,3400.00
1576.781,2858.00
1577.657,2617.00
1578.533,2931.00
1579.409,2307.00
1580.285,2625.00
1581.160,3077.00
1582.036,2862.00
1582.911,2486.00
1583.786,3051.00
1584.662,2475.00
1585.537,2643.00
1586.412,2728.00
1587.287,2508.00
1588.160,2879.00
1589.035,2366.00
1589.909,2718.00
1590.784,2656.00
1591.658,2465.00
1592.533,2742.00
1593.407,2697.00
1594.281,2561.00
1595.155,3101.00
1596.029,2583.00
1596.903,2621.00
1597.777,2602.00
1598.651,2930.00
1599.525,2383.00
1600.398,2682.00
1601.272,2646.00
1602.144,3205.00
1603.017,2612.00
1603.890,2919.00
1604.763,2780.00
1605.636,2812.00
1606.509,2399.00
1607.382,2544.00
1608.255,2759.00
1609.128,2868.00
1610.000,2636.00
1610.873,2390.00
1611.746,2585.00
1612.616,2615.00
1613.488,2276.00
1614.361,2684.00
1615.233,2621.00
1616.105,2866.00
1616.977,2554.00
1617.849,2513.00
1618.720,2956.00
1619.592,2971.00
1620.464,2804.00
1621.333,3140.00
1622.205,2650.00
1623.076,2681.00
1623.947,2670.00
1624.818,2925.00
1625.689,2793.00
1626.560,2593.00
1627.431,2714.00
1628.302,3049.00
1629.171,2814.00
1630.042,2982.00
1630.912,3302.00
1631.782,3273.00
1632.653,2511.00
1633.523,2844.00
1634.393,2925.00
1635.263,2592.00
1636.131,2619.00
1637.001,2587.00
1637.871,2321.00
1638.741,2354.00
1639.611,2429.00
1640.480,2814.00
1641.350,2570.00
1642.219,2526.00
1643.087,2177.00
1643.956,3079.00
1644.825,2952.00
1645.694,2896.00
1646.563,2853.00
1647.432,2770.00
1648.299,2726.00
1649.167,2816.00
1650.036,2468.00
1650.904,2827.00
1651.773,2905.00
1652.641,2689.00
1653.509,2893.00
1654.376,2565.00
1655.244,2742.00
1656.112,2727.00
1656.980,2686.00
1657.847,2554.00
1658.715,2843.00
1659.581,2572.00
1660.448,2899.00
1661.316,2229.00
1662.183,2669.00
1663.051,2762.00
1663.918,2740.00
1664.783,2723.00
1665.650,2786.00
1666.517,2843.00
1667.384,2692.00
1668.251,2728.00
1669.115,2882.00
1669.982,2657.00
1670.849,2923.00
1671.715,2685.00
1672.581,2809.00
1673.446,2809.00
1674.312,2707.00
1675.178,3099.00
1676.044,2827.00
1676.910,2762.00
1677.774,2715.00
1678.639,2370.00
1679.505,2703.00
1680.370,2859.00
1681.236,3317.00
1682.099,2639.00
1682.965,2721.00
1683.830,2279.00
1684.695,2566.00
1685.560,2598.00
1686.423,2823.00
1687.288,2843.00
1688.153,2750.00
1689.017,2632.00
1689.880,2752.00
1690.745,2823.00
1691.609,2518.00
1692.473,2836.00
1693.338,2909.00
1694.200,2948.00
1695.064,2702.00
1695.928,2609.00
1696.792,2696.00
1697.654,3234.00
1698.517,2724.00
1699.381,2476.00
1700.245,2343.00
1701.106,3008.00
1701.969,2552.00
1702.833,2845.00
1703.696,2588.00
1704.557,2634.00
1705.420,2553.00
1706.283,2701.00
1707.146,2863.00
1708.007,2505.00
1708.870,2493.00
1709.732,2394.00
1710.595,2578.00
1711.455,2462.00
1712.318,2598.00
1713.180,2955.00
1714.040,2785.00
1714.902,2868.00
1715.764,2708.00
1716.626,2460.00
1717.486,2686.00
1718.348,2983.00
1719.209,4053.00
1720.071,2369.00
1720.930,2440.00
1721.792,2517.00
1722.653,2550.00
1723.512,2607.00
1724.374,2615.00
1725.234,2745.00
1726.095,2722.00
1726.954,2725.00
1727.815,2827.00
1728.676,2670.00
1729.535,2931.00
1730.395,2665.00
1731.256,2623.00
1732.114,2738.00
1732.974,2184.00
1733.834,3034.00
1734.693,2898.00
1735.553,2706.00
1736.413,3145.00
1737.272,2581.00
1738.130,2633.00
1738.990,2812.00
1739.849,2565.00
1740.707,3723.00
1741.566,2714.00
1742.426,2718.00
1743.283,3081.00
1744.142,2599.00
1745.001,2374.00
1745.858,2861.00
1746.717,2749.00
1747.576,2791.00
1748.433,2847.00
1749.292,3293.00
1750.150,3330.00
1751.007,2903.00
1751.865,2931.00
1752.723,2702.00
1753.579,2598.00
1754.438,2920.00
1755.296,2895.00
1756.152,2231.00
1757.010,2353.00
1757.865,2893.00
1758.723,2333.00
1759.581,2991.00
1760.436,2694.00
1761.294,3023.00
1762.151,2695.00
1763.006,2611.00
1763.864,2378.00
1764.721,2925.00
1765.576,2735.00
1766.433,2863.00
1767.288,2587.00
1768.144,2765.00
1769.001,2679.00
1769.856,2779.00
1770.712,2943.00
1771.568,2438.00
1772.423,2635.00
1773.279,2595.00
1774.133,2607.00
1774.989,3122.00
1775.845,3076.00
1776.699,2939.00
1777.555,2710.00
1778.409,3246.00
1779.265,2645.00
1780.120,2652.00
1780.974,2694.00
1781.829,2308.00
1782.682,2772.00
1783.538,2490.00
1784.393,2752.00
1785.246,2625.00
1786.101,2792.00
1786.954,2784.00
1787.808,2901.00
1788.661,2440.00
1789.516,2618.00
1790.370,2629.00
1791.223,2880.00
1792.077,2702.00
1792.930,2812.00
1793.784,2560.00
1794.636,2694.00
1795.490,2676.00
1796.344,2733.00
1797.196,2697.00
1798.049,2868.00
1798.901,2604.00
1799.755,2968.00
1800.606,2498.00
1801.460,3255.00
1802.311,3045.00
1803.165,3109.00
1804.018,3044.00
1804.869,2816.00
1805.722,3206.00
1806.573,2730.00
1807.426,2511.00
1808.276,2729.00
1809.129,2592.00
1809.980,2904.00
1810.832,3020.00
1811.683,2626.00
1812.535,3047.00
1813.385,2665.00
1814.237,2989.00
1815.089,2740.00
1815.940,2980.00
1816.791,2634.00
1817.641,2594.00
1818.493,2870.00
1819.343,2777.00
1820.194,2625.00
1821.044,2821.00
1821.895,2972.00
1822.745,2441.00
1823.596,2599.00
1824.445,3146.00
1825.296,2826.00
1826.145,2704.00
1826.996,2923.00
1827.845,2719.00
1828.695,2760.00
1829.544,2717.00
1830.395,2764.00
1831.243,2639.00
1832.094,2458.00
1832.942,3277.00
1833.792,2831.00
1834.640,2776.00
1835.490,2695.00
1836.338,2792.00
1837.186,2583.00
1838.036,2550.00
1838.884,2725.00
1839.733,3030.00
1840.581,2904.00
1841.430,2847.00
1842.278,3088.00
1843.127,2599.00
1843.974,2425.00
1844.823,3148.00
1845.671,2870.00
1846.519,2748.00
1847.366,2791.00
1848.213,2338.00
1849.062,2540.00
1849.909,2456.00
1850.757,3380.00
1851.604,2835.00
1852.452,2612.00
1853.298,2909.00
1854.146,2797.00
1854.993,2760.00
1855.839,3210.00
1856.687,2833.00
1857.532,2851.00
1858.380,2710.00
1859.226,2780.00
1860.073,2853.00
1860.919,2563.00
1861.765,2599.00
1862.612,2925.00
1863.457,2940.00
1864.304,2651.00
1865.150,2831.00
1865.995,2703.00
1866.842,2850.00
1867.686,2996.00
1868.533,2783.00
1869.378,2743.00
1870.223,2747.00
1871.069,2616.00
1871.914,2776.00
1872.760,2723.00
1873.604,2535.00
1874.448,2866.00
1875.294,2901.00
1876.139,2632.00
1876.984,2863.00
1877.828,2411.00
1878.672,2228.00
1879.518,2626.00
1880.361,2896.00
1881.205,2874.00
1882.050,2482.00
1882.894,3272.00
1883.739,2608.00
1884.582,2501.00
1885.425,2540.00
1886.270,2964.00
1887.113,2465.00
1887.956,2845.00
1888.801,2751.00
1889.644,2541.00
1890.486,2301.00
1891.331,2651.00
1892.173,2802.00
1893.017,2794.00
1893.860,3011.00
1894.702,3022.00
1895.546,2739.00
1896.388,3405.00
1897.230,3105.00
1898.074,2607.00
1898.916,2497.00
1899.757,2586.00
1900.601,3370.00
1901.443,3038.00
1902.284,3063.00
1903.125,3223.00
1903.969,2945.00
1904.810,2960.00
1905.651,2845.00
1906.494,3062.00
1907.335,3151.00
1908.176,2859.00
1909.018,2832.00
1909.859,2703.00
1910.700,2605.00
1911.542,3242.00
1912.383,2795.00
1913.223,2392.00
1914.064,2867.00
1914.906,2991.00
1915.746,3089.00
1916.586,3247.00
1917.428,2761.00
1918.268,2783.00
1919.107,2639.00
1919.947,2527.00
1920.789,2654.00
1921.628,2974.00
1922.468,2746.00
1923.309,2582.00
1924.148,3058.00
1924.988,2824.00
1925.827,2729.00
1926.667,2612.00
1927.507,2773.00
1928.345,2577.00
1929.184,2892.00
1930.025,2526.00
1930.864,3021.00
1931.702,3070.00
1932.541,2639.00
1933.381,2889.00
1934.219,2881.00
1935.057,3023.00
1935.896,2481.00
1936.735,2723.00
1937.573,2631.00
1938.411,2539.00
1939.249,2907.00
1940.089,2603.00
1940.927,2979.00
1941.764,3054.00
1942.602,2678.00
1943.439,2634.00
1944.278,2735.00
1945.115,2671.00
1945.953,2469.00
1946.790,2805.00
1947.628,3096.00
1948.465,2859.00
1949.302,2883.00
1950.139,2875.00
1950.976,2614.00
1951.814,2885.00
1952.651,2814.00
1953.487,2550.00
1954.323,2999.00
1955.160,2752.00
1955.998,3078.00
1956.834,2745.00
1957.670,2840.00
1958.506,3030.00
1959.342,2817.00
1960.177,2804.00
1961.015,2878.00
1961.850,2817.00
1962.686,2813.00
1963.521,2791.00
1964.357,3052.00
1965.192,2553.00
1966.029,2887.00
1966.864,2694.00
1967.699,2983.00
1968.534,2820.00
1969.369,2994.00
1970.204,2735.00
1971.040,2740.00
1971.875,2699.00
1972.709,2773.00
1973.544,2593.00
1974.378,2654.00
1975.212,2877.00
1976.047,2626.00
1976.882,2639.00
1977.716,3167.00
1978.550,2421.00
1979.384,2690.00
1980.218,2713.00
1981.052,2694.00
1981.885,2759.00
1982.719,2795.00
1983.554,2904.00
1984.388,3059.00
1985.221,2856.00
1986.054,2962.00
1986.887,2803.00
1987.720,2589.00
1988.553,3078.00
1989.386,2868.00
1990.219,2868.00
1991.053,3042.00
1991.886,2639.00
1992.719,2960.00
1993.551,2300.00
1994.383,2893.00
1995.216,2701.00
1996.048,2486.00
1996.880,2916.00
1997.712,2641.00
1998.544,2786.00
1999.376,2854.00
2000.208,3028.00
2001.040,3208.00
2001.873,2559.00
2002.705,2588.00
2003.536,2804.00
2004.367,2808.00
2005.199,2788.00
2006.030,2655.00
2006.861,2529.00
2007.692,2772.00
2008.523,2625.00
2009.354,2804.00
2010.185,2567.00
2011.016,2938.00
2011.846,2993.00
2012.677,2731.00
2013.507,3081.00
2014.338,3022.00
2015.168,2677.00
2015.999,3279.00
2016.829,2695.00
2017.659,3018.00
2018.489,3273.00
2019.319,2566.00
2020.149,2959.00
2020.980,2782.00
2021.810,2573.00
2022.639,2663.00
2023.469,2693.00
2024.298,2466.00
2025.128,2424.00
2025.957,2326.00
2026.786,2230.00
2027.615,2414.00
2028.444,2613.00
2029.273,2796.00
2030.102,2377.00
2030.931,2617.00
2031.758,2853.00
2032.586,2539.00
2033.415,2613.00
2034.243,2263.00
2035.072,2026.00
2035.900,2531.00
2036.728,2359.00
2037.556,2382.00
2038.385,2414.00
2039.213,2221.00
2040.040,2195.00
2040.868,2150.00
2041.696,2224.00
2042.524,2229.00
2043.351,2454.00
2044.179,2214.00
2045.006,2016.00
