RamanScope Measure Spectrum Data V3.72

<< MEASURE CONDITION >>
Exposure Type,Aver
Exposure Time [sec],15
Exposure Count,4
Measure Time,2023/07/15 16:23:43
Data Name,""
Data Comment,""
Rayleigh Wave[nm],532.0

<< SAMPLE SPECTRUM >>
Wave[dcm-1],No169
146.591,876.00
147.626,1034.25
148.664,1207.75
149.699,1348.75
150.737,1509.75
151.772,1736.50
152.809,1877.25
153.846,2068.50
154.881,2151.00
155.918,2285.50
156.953,2423.50
157.989,2459.75
159.026,2545.00
160.060,2578.50
161.096,2675.75
162.130,2701.50
163.167,2728.25
164.200,2791.50
165.236,2849.75
166.272,2852.50
167.305,2878.75
168.341,2984.75
169.374,3008.75
170.409,3046.25
171.445,3107.75
172.477,3158.75
173.512,3148.50
174.545,3207.00
175.580,3219.00
176.614,3215.75
177.647,3270.50
178.681,3246.75
179.713,3203.25
180.747,3224.50
181.781,3221.75
182.813,3281.25
183.847,3244.25
184.878,3265.75
185.912,3244.75
186.945,3290.00
187.976,3290.25
189.010,3309.00
190.043,3320.00
191.073,3326.00
192.106,3385.50
193.137,3427.75
194.170,3462.75
195.202,3530.75
196.232,3544.00
197.265,3571.50
198.297,3637.00
199.327,3721.50
200.359,3753.00
201.388,3798.50
202.420,3910.25
203.452,3991.50
204.481,4055.25
205.512,4129.00
206.544,4290.50
207.573,4383.00
208.604,4517.25
209.635,4640.25
210.663,4797.25
211.694,4915.50
212.725,5086.25
213.753,5294.00
214.783,5431.50
215.813,5498.25
216.841,5538.50
217.871,5536.00
218.899,5585.50
219.929,5579.25
220.959,5505.75
221.986,5365.50
223.016,5216.25
224.045,5148.25
225.072,5016.00
226.101,4868.25
227.130,4759.75
228.157,4669.25
229.185,4512.75
230.214,4505.00
231.241,4364.25
232.269,4291.75
233.297,4268.00
234.323,4229.50
235.351,4133.50
236.379,4164.25
237.407,4108.00
238.433,4065.25
239.460,4080.75
240.488,4114.50
241.513,4146.50
242.540,4147.25
243.568,4239.50
244.592,4257.00
245.619,4278.50
246.646,4251.25
247.671,4160.50
248.697,4177.25
249.724,4180.50
250.748,4093.50
251.774,4144.00
252.801,4103.25
253.827,4113.75
254.850,4099.25
255.876,4109.75
256.902,4127.50
257.925,4164.50
258.951,4151.25
259.976,4221.00
260.999,4241.00
262.024,4245.50
263.049,4268.50
264.074,4300.75
265.097,4356.25
266.122,4335.50
267.146,4380.75
268.168,4487.00
269.193,4546.00
270.217,4552.25
271.241,4583.50
272.263,4652.25
273.287,4684.75
274.311,4702.25
275.332,4750.75
276.356,4760.75
277.379,4761.75
278.402,4751.50
279.424,4678.00
280.447,4667.50
281.470,4603.25
282.492,4558.00
283.513,4499.00
284.536,4474.50
285.558,4398.50
286.581,4362.00
287.601,4308.50
288.623,4291.00
289.645,4218.25
290.665,4146.75
291.687,3957.50
292.709,3994.50
293.730,3924.75
294.750,3921.50
295.771,3861.75
296.792,3778.25
297.813,3715.75
298.832,3692.00
299.853,3642.50
300.874,3571.00
301.895,3533.75
302.913,3522.25
303.934,3428.50
304.954,3458.25
305.975,3396.75
306.993,3407.75
308.013,3305.75
309.033,3323.75
310.052,3282.25
311.072,3270.75
312.090,3244.25
313.109,3251.25
314.129,3167.75
315.148,3213.50
316.165,3153.00
317.184,3176.25
318.203,3113.00
319.222,3125.25
320.238,3100.75
321.257,3067.25
322.275,3072.00
323.294,3072.50
324.312,3060.25
325.328,3028.00
326.346,3064.00
327.364,3036.50
328.382,3001.25
329.397,2986.00
330.415,2965.25
331.432,3009.50
332.450,3019.25
333.467,2967.00
334.482,2940.25
335.499,2933.00
336.516,2898.25
337.533,2927.00
338.547,2939.75
339.564,2907.00
340.580,2899.50
341.597,2911.75
342.613,2903.25
343.627,2906.00
344.643,2877.50
345.659,2821.50
346.675,2880.25
347.690,2883.50
348.704,2876.50
349.719,2887.50
350.735,2829.50
351.750,2889.50
352.765,2901.50
353.778,2860.75
354.793,2893.50
355.808,2848.25
356.822,2828.25
357.837,2889.75
358.851,2860.75
359.864,2825.00
360.878,2911.25
361.892,2852.00
362.906,2894.00
363.920,2878.00
364.932,2869.00
365.945,2922.50
366.959,2897.75
367.972,2907.25
368.986,2876.50
369.999,2922.75
371.010,2963.75
372.023,2913.25
373.036,2894.25
374.049,2990.75
375.061,2948.75
376.072,2969.75
377.084,2992.75
378.097,3004.75
379.109,2991.50
380.121,3043.75
381.133,2963.50
382.143,2978.25
383.155,3033.00
384.166,3045.25
385.178,3019.25
386.189,3038.75
387.201,3007.75
388.212,3077.25
389.221,2999.75
390.232,2994.75
391.243,2991.25
392.254,2987.00
393.264,2983.00
394.275,2951.25
395.283,2933.25
396.294,2896.75
397.304,2987.50
398.314,2969.50
399.324,2951.00
400.334,2903.25
401.344,2889.75
402.351,2915.75
403.361,2895.00
404.370,2856.75
405.380,2893.00
406.389,2795.50
407.398,2785.50
408.407,2787.00
409.414,2841.25
410.423,2829.75
411.431,2822.75
412.440,2786.50
413.448,2789.50
414.457,2819.00
415.465,2774.25
416.471,2716.75
417.479,2698.00
418.487,2712.25
419.495,2706.50
420.503,2731.25
421.510,2692.00
422.518,2696.50
423.525,2729.25
424.530,2689.50
425.537,2651.25
426.544,2720.00
427.551,2642.75
428.558,2674.75
429.565,2682.25
430.571,2665.75
431.578,2656.75
432.582,2655.75
433.588,2645.75
434.595,2699.00
435.601,2610.50
436.607,2681.00
437.612,2605.00
438.618,2624.00
439.624,2654.50
440.627,2645.75
441.633,2603.25
442.638,2663.50
443.643,2590.50
444.648,2638.25
445.653,2644.75
446.658,2623.00
447.663,2630.25
448.667,2596.50
449.672,2664.50
450.674,2691.50
451.678,2697.50
452.682,2650.75
453.687,2624.75
454.690,2683.25
455.694,2664.50
456.698,2665.00
457.702,2699.00
458.705,2634.75
459.709,2674.00
460.710,2678.50
461.713,2693.25
462.716,2705.50
463.719,2668.00
464.722,2663.75
465.725,2692.75
466.727,2713.25
467.730,2633.25
468.732,2686.25
469.735,2730.00
470.737,2735.00
471.737,2714.25
472.739,2708.25
473.741,2763.00
474.742,2706.25
475.744,2749.25
476.746,2734.00
477.747,2783.00
478.748,2734.50
479.750,2727.25
480.751,2764.50
481.752,2734.50
482.753,2761.25
483.751,2757.25
484.752,2766.00
485.753,2754.25
486.753,2739.50
487.753,2745.50
488.754,2780.75
489.754,2729.25
490.754,2699.25
491.754,2754.50
492.754,2751.50
493.753,2688.00
494.753,2748.00
495.752,2698.00
496.752,2744.75
497.749,2783.75
498.748,2791.50
499.747,2751.50
500.746,2706.50
501.745,2716.50
502.744,2717.00
503.742,2749.50
504.741,2691.75
505.739,2683.50
506.737,2633.50
507.735,2724.50
508.734,2722.75
509.732,2708.50
510.729,2639.75
511.727,2656.75
512.725,2641.00
513.720,2675.00
514.718,2653.50
515.715,2617.25
516.712,2580.00
517.709,2692.50
518.706,2640.25
519.703,2598.00
520.700,2653.50
521.696,2651.50
522.693,2662.25
523.689,2682.00
524.686,2647.50
525.682,2610.75
526.678,2645.50
527.674,2633.00
528.670,2659.25
529.666,2655.25
530.661,2679.00
531.657,2628.25
532.652,2691.25
533.648,2731.75
534.641,2719.75
535.636,2694.50
536.631,2671.00
537.626,2665.75
538.621,2640.50
539.616,2659.00
540.610,2671.00
541.605,2646.50
542.599,2691.50
543.593,2682.75
544.587,2723.50
545.581,2684.00
546.575,2638.25
547.569,2665.25
548.563,2694.00
549.557,2673.75
550.550,2677.00
551.543,2674.50
552.537,2651.25
553.530,2666.75
554.523,2707.75
555.516,2674.75
556.509,2707.50
557.502,2701.00
558.494,2692.00
559.487,2672.25
560.479,2660.00
561.472,2703.50
562.464,2671.50
563.456,2646.50
564.448,2659.00
565.440,2656.50
566.432,2699.00
567.423,2669.50
568.415,2683.75
569.404,2707.50
570.396,2684.50
571.387,2668.50
572.378,2696.75
573.369,2704.00
574.360,2764.25
575.351,2744.25
576.341,2784.50
577.332,2709.00
578.323,2805.50
579.313,2751.75
580.303,2805.25
581.293,2776.50
582.283,2736.25
583.273,2741.25
584.263,2766.75
585.253,2757.25
586.243,2857.25
587.232,2784.75
588.222,2785.75
589.211,2755.75
590.200,2850.25
591.189,2816.25
592.178,2790.75
593.167,2770.00
594.156,2733.25
595.145,2832.75
596.133,2776.50
597.122,2822.00
598.110,2790.25
599.098,2822.25
600.086,2764.75
601.074,2824.25
602.062,2798.25
603.050,2737.25
604.038,2775.00
605.025,2764.00
606.013,2823.25
607.000,2760.75
607.987,2803.75
608.975,2731.50
609.962,2718.50
610.949,2744.00
611.936,2707.75
612.922,2722.75
613.909,2624.75
614.895,2686.50
615.882,2659.50
616.868,2698.00
617.854,2653.00
618.841,2644.25
619.826,2617.25
620.812,2622.50
621.798,2586.75
622.784,2577.50
623.769,2546.75
624.755,2590.50
625.740,2530.75
626.725,2547.00
627.711,2525.25
628.698,2531.75
629.683,2506.50
630.667,2437.00
631.652,2477.50
632.637,2447.75
633.621,2448.00
634.606,2396.50
635.590,2418.25
636.574,2395.75
637.558,2408.25
638.542,2410.50
639.526,2373.75
640.510,2331.25
641.493,2370.00
642.477,2332.25
643.460,2320.00
644.444,2306.75
645.427,2342.75
646.410,2301.75
647.393,2308.25
648.376,2273.00
649.359,2236.75
650.341,2258.00
651.324,2249.00
652.307,2207.00
653.289,2215.75
654.271,2224.00
655.253,2232.50
656.235,2189.75
657.217,2203.75
658.199,2212.50
659.181,2216.25
660.163,2223.50
661.144,2198.25
662.126,2163.50
663.107,2206.50
664.088,2117.00
665.069,2167.25
666.050,2160.50
667.033,2153.25
668.014,2189.25
668.995,2118.75
669.975,2071.00
670.956,2114.50
671.936,2135.00
672.916,2106.00
673.896,2125.25
674.876,2102.00
675.856,2076.00
676.836,2017.75
677.816,2014.75
678.795,2029.00
679.775,2035.25
680.754,2013.50
681.734,1965.75
682.713,1973.75
683.692,1992.75
684.671,1926.75
685.650,1957.00
686.629,1964.75
687.607,1876.75
688.586,1907.00
689.564,1878.00
690.543,1852.75
691.523,1876.75
692.501,1910.75
693.479,1899.50
694.457,1872.75
695.435,1832.75
696.413,1793.50
697.390,1818.75
698.368,1851.50
699.345,1801.50
700.322,1796.75
701.300,1803.75
702.277,1806.25
703.254,1800.25
704.231,1793.00
705.207,1766.25
706.184,1818.00
707.161,1791.25
708.137,1728.00
709.113,1725.25
710.090,1723.75
711.068,1709.25
712.044,1712.00
713.020,1690.75
713.996,1757.25
714.971,1697.25
715.947,1674.00
716.922,1701.50
717.898,1657.25
718.873,1702.25
719.848,1647.75
720.823,1696.75
721.798,1662.50
722.773,1709.25
723.748,1668.25
724.723,1659.25
725.697,1680.00
726.672,1647.50
727.646,1669.00
728.622,1631.00
729.596,1644.75
730.570,1672.00
731.544,1587.25
732.518,1574.75
733.492,1652.75
734.466,1589.00
735.439,1597.50
736.413,1585.25
737.386,1618.75
738.359,1582.25
739.332,1608.50
740.305,1587.25
741.278,1603.75
742.251,1599.25
743.224,1588.00
744.196,1558.50
745.171,1581.00
746.143,1581.00
747.115,1544.75
748.087,1559.75
749.059,1577.25
750.031,1550.25
751.003,1534.25
751.975,1512.25
752.947,1508.25
753.918,1509.00
754.890,1507.75
755.861,1564.00
756.832,1525.75
757.803,1496.50
758.774,1506.00
759.747,1556.75
760.718,1493.25
761.689,1495.25
762.659,1511.50
763.630,1466.25
764.600,1490.00
765.570,1520.25
766.540,1479.50
767.510,1478.00
768.480,1483.75
769.450,1508.50
770.420,1513.00
771.390,1455.50
772.359,1515.25
773.329,1478.25
774.300,1491.25
775.269,1448.50
776.238,1444.00
777.207,1463.50
778.176,1446.00
779.145,1441.75
780.114,1438.50
781.083,1421.25
782.051,1397.75
783.019,1449.50
783.988,1443.50
784.956,1445.50
785.924,1397.25
786.894,1399.00
787.862,1411.75
788.830,1450.75
789.797,1438.25
790.765,1399.75
791.732,1361.75
792.700,1418.00
793.667,1436.25
794.634,1381.25
795.601,1403.00
796.568,1395.00
797.535,1363.50
798.502,1327.75
799.468,1381.00
800.437,1338.50
801.403,1372.75
802.370,1315.50
803.336,1357.75
804.302,1356.25
805.268,1395.25
806.234,1366.00
807.200,1327.25
808.166,1331.75
809.131,1329.50
810.097,1358.00
811.062,1373.25
812.027,1335.25
812.994,1308.25
813.960,1326.50
814.925,1380.00
815.889,1324.00
816.854,1371.50
817.819,1274.75
818.783,1318.75
819.748,1300.50
820.712,1352.75
821.677,1333.25
822.641,1313.75
823.605,1326.25
824.571,1319.75
825.534,1309.00
826.498,1321.25
827.462,1302.00
828.425,1304.75
829.389,1302.00
830.352,1334.50
831.315,1320.00
832.279,1349.75
833.242,1301.00
834.204,1298.50
835.167,1309.50
836.132,1313.25
837.095,1302.25
838.057,1329.00
839.020,1305.75
839.982,1336.25
840.944,1300.50
841.906,1288.00
842.868,1328.50
843.830,1315.00
844.792,1281.25
845.753,1279.75
846.715,1296.75
847.679,1263.50
848.640,1320.00
849.601,1275.75
850.562,1282.75
851.523,1319.00
852.484,1315.50
853.445,1262.25
854.406,1279.00
855.367,1250.00
856.327,1267.50
857.288,1282.50
858.248,1286.50
859.210,1275.00
860.170,1303.25
861.130,1266.75
862.090,1275.00
863.050,1262.50
864.010,1265.50
864.969,1293.50
865.929,1275.50
866.888,1258.50
867.848,1296.50
868.807,1237.75
869.766,1246.75
870.727,1266.25
871.686,1252.75
872.645,1259.75
873.604,1275.50
874.562,1282.00
875.521,1260.25
876.479,1269.00
877.437,1245.75
878.396,1263.75
879.354,1241.50
880.312,1282.25
881.270,1260.25
882.229,1277.00
883.187,1269.25
884.145,1242.50
885.102,1261.25
886.059,1225.75
887.017,1252.50
887.974,1272.25
888.931,1265.25
889.888,1191.00
890.845,1206.75
891.802,1260.25
892.758,1272.25
893.717,1251.00
894.673,1244.50
895.630,1266.00
896.586,1217.75
897.542,1286.00
898.498,1199.50
899.454,1274.00
900.410,1223.50
901.366,1277.25
902.321,1240.25
903.277,1255.50
904.232,1243.50
905.189,1248.50
906.145,1225.00
907.100,1274.25
908.055,1245.50
909.010,1245.75
909.965,1270.50
910.919,1274.00
911.874,1232.00
912.828,1247.75
913.783,1241.00
914.737,1242.25
915.693,1237.50
916.648,1247.75
917.602,1192.75
918.555,1208.00
919.509,1268.75
920.463,1237.50
921.417,1279.00
922.370,1263.25
923.324,1242.50
924.277,1243.00
925.230,1258.50
926.183,1264.75
927.138,1265.50
928.091,1241.50
929.044,1268.25
929.996,1245.50
930.949,1275.75
931.902,1265.25
932.854,1237.75
933.806,1254.75
934.758,1226.25
935.711,1233.75
936.663,1282.00
937.614,1271.75
938.568,1236.00
939.520,1228.00
940.471,1233.00
941.423,1234.75
942.374,1261.00
943.326,1254.25
944.277,1202.75
945.228,1239.50
946.179,1251.00
947.130,1259.25
948.080,1229.00
949.031,1235.00
949.984,1191.00
950.934,1209.50
951.884,1196.50
952.835,1232.75
953.785,1190.50
954.735,1240.25
955.685,1228.50
956.635,1259.75
957.585,1226.00
958.534,1235.75
959.484,1191.00
960.433,1191.50
961.383,1197.50
962.334,1248.00
963.283,1202.00
964.232,1236.50
965.181,1249.25
966.130,1244.50
967.079,1176.75
968.027,1176.50
968.976,1214.50
969.924,1183.25
970.873,1203.75
971.821,1231.00
972.769,1208.75
973.719,1231.25
974.667,1228.00
975.615,1183.25
976.562,1196.50
977.510,1215.50
978.458,1203.00
979.405,1207.00
980.352,1187.75
981.300,1233.00
982.247,1235.75
983.194,1177.75
984.141,1222.50
985.088,1217.75
986.036,1222.25
986.983,1170.00
987.930,1208.75
988.876,1186.50
989.822,1249.00
990.769,1230.00
991.715,1176.50
992.661,1229.00
993.607,1216.25
994.553,1206.25
995.498,1194.50
996.444,1191.50
997.389,1227.50
998.337,1225.50
999.282,1200.75
1000.227,1220.00
1001.173,1165.00
1002.118,1206.25
1003.062,1232.00
1004.007,1194.75
1004.952,1216.75
1005.897,1205.25
1006.841,1220.00
1007.786,1223.25
1008.730,1182.50
1009.674,1200.25
1010.618,1231.25
1011.564,1173.25
1012.508,1178.75
1013.452,1238.75
1014.396,1190.25
1015.339,1242.25
1016.283,1247.25
1017.226,1207.50
1018.170,1236.50
1019.113,1206.75
1020.056,1221.00
1020.999,1241.00
1021.942,1192.75
1022.885,1236.25
1023.828,1222.00
1024.770,1206.75
1025.715,1243.50
1026.657,1222.00
1027.600,1208.00
1028.542,1237.75
1029.484,1208.25
1030.426,1224.50
1031.368,1230.00
1032.310,1240.75
1033.251,1222.75
1034.193,1224.75
1035.135,1221.00
1036.076,1254.00
1037.017,1259.00
1037.959,1227.75
1038.900,1227.25
1039.843,1246.75
1040.784,1217.75
1041.725,1251.25
1042.665,1270.00
1043.606,1239.25
1044.547,1287.25
1045.487,1256.75
1046.427,1292.50
1047.368,1259.75
1048.308,1274.00
1049.248,1243.00
1050.188,1241.75
1051.128,1292.00
1052.067,1252.75
1053.007,1254.00
1053.947,1265.50
1054.886,1248.25
1055.827,1286.25
1056.766,1283.25
1057.706,1282.50
1058.645,1297.75
1059.584,1270.25
1060.522,1307.50
1061.461,1275.00
1062.400,1290.50
1063.338,1307.25
1064.277,1302.75
1065.215,1248.25
1066.154,1291.25
1067.092,1312.50
1068.030,1298.00
1068.968,1295.00
1069.906,1328.00
1070.843,1278.25
1071.781,1343.00
1072.720,1326.00
1073.658,1347.50
1074.595,1279.00
1075.533,1335.25
1076.470,1317.50
1077.407,1364.50
1078.344,1337.00
1079.281,1279.25
1080.217,1317.25
1081.154,1317.50
1082.091,1302.50
1083.027,1303.50
1083.964,1360.00
1084.900,1301.00
1085.836,1316.50
1086.772,1302.75
1087.708,1298.75
1088.644,1270.75
1089.580,1287.50
1090.515,1327.25
1091.451,1287.25
1092.388,1268.00
1093.324,1343.75
1094.259,1263.50
1095.194,1316.00
1096.129,1316.25
1097.064,1288.50
1097.999,1328.00
1098.934,1303.50
1099.869,1292.50
1100.803,1280.00
1101.738,1281.50
1102.672,1310.75
1103.607,1283.25
1104.541,1290.50
1105.475,1290.75
1106.409,1272.75
1107.343,1257.00
1108.277,1275.25
1109.210,1257.25
1110.144,1229.25
1111.078,1244.00
1112.011,1248.50
1112.944,1250.25
1113.878,1242.25
1114.811,1221.25
1115.744,1209.25
1116.678,1166.50
1117.611,1189.75
1118.544,1193.75
1119.477,1182.75
1120.409,1235.75
1121.342,1177.75
1122.274,1156.25
1123.206,1203.25
1124.138,1197.75
1125.070,1185.75
1126.002,1182.50
1126.934,1169.00
1127.866,1177.75
1128.798,1177.25
1129.729,1172.75
1130.661,1113.25
1131.592,1119.50
1132.523,1079.50
1133.454,1148.00
1134.385,1126.00
1135.317,1146.00
1136.247,1111.75
1137.178,1149.75
1138.109,1156.75
1139.039,1167.50
1139.970,1112.25
1140.900,1130.00
1141.831,1119.75
1142.761,1053.50
1143.691,1130.25
1144.621,1127.00
1145.551,1094.75
1146.480,1103.00
1147.410,1083.75
1148.340,1115.00
1149.269,1107.50
1150.199,1039.25
1151.128,1053.25
1152.057,1104.25
1152.979,1057.50
1153.898,1133.00
1154.819,1090.25
1155.739,1059.00
1156.658,1078.00
1157.579,1107.75
1158.498,1085.50
1159.419,1080.25
1160.338,1087.00
1161.256,1079.25
1162.177,1091.25
1163.095,1073.25
1164.016,1078.25
1164.934,1047.00
1165.852,1088.75
1166.772,1062.00
1167.690,1069.00
1168.610,1067.00
1169.528,1068.00
1170.446,1057.25
1171.365,1016.00
1172.283,1077.50
1173.202,1011.00
1174.120,1032.25
1175.037,1060.25
1175.956,1032.50
1176.873,1049.25
1177.792,1047.00
1178.709,1048.50
1179.626,1065.25
1180.544,1053.75
1181.461,1039.00
1182.379,1019.50
1183.296,1053.75
1184.212,1040.25
1185.130,1027.25
1186.046,1071.50
1186.962,1000.00
1187.880,990.75
1188.796,1011.25
1189.714,1036.00
1190.629,1001.75
1191.545,1018.75
1192.462,1033.00
1193.378,1089.00
1194.295,1028.75
1195.210,1035.50
1196.125,1020.00
1197.042,1054.50
1197.957,1068.75
1198.872,1004.00
1199.788,1023.75
1200.703,1014.75
1201.619,1036.50
1202.534,1036.50
1203.448,1023.50
1204.364,1014.00
1205.278,1043.00
1206.192,1009.75
1207.108,1045.75
1208.022,1042.75
1208.938,1036.25
1209.851,1038.75
1210.765,1054.00
1211.680,1029.50
1212.594,1039.25
1213.507,1034.25
1214.422,1048.75
1215.335,1036.75
1216.248,1086.25
1217.163,1046.50
1218.076,1073.25
1218.990,1017.25
1219.903,1051.00
1220.816,1045.00
1221.730,1045.75
1222.642,1040.25
1223.554,1035.25
1224.469,1055.75
1225.380,1027.75
1226.292,1045.75
1227.206,1048.25
1228.118,1051.75
1229.032,1050.00
1229.943,1053.50
1230.855,1101.00
1231.768,1053.75
1232.679,1040.25
1233.590,1052.50
1234.503,1052.75
1235.414,1050.50
1236.325,1062.75
1237.238,1024.00
1238.149,1075.75
1239.059,1098.00
1239.972,1046.50
1240.882,1027.00
1241.793,1057.25
1242.705,1047.00
1243.615,1036.00
1244.525,1076.50
1245.437,1066.75
1246.347,1110.25
1247.259,1087.75
1248.168,1090.50
1249.078,1131.50
1249.989,1045.00
1250.899,1048.75
1251.808,1104.00
1252.719,1053.50
1253.628,1056.25
1254.537,1111.25
1255.448,1075.25
1256.357,1101.25
1257.266,1110.50
1258.176,1086.25
1259.085,1076.00
1259.993,1068.00
1260.904,1099.00
1261.812,1088.50
1262.720,1085.00
1263.630,1103.00
1264.538,1083.25
1265.446,1066.50
1266.356,1090.00
1267.263,1098.25
1268.171,1088.25
1269.080,1068.25
1269.988,1085.50
1270.895,1102.75
1271.804,1097.75
1272.711,1110.00
1273.619,1081.00
1274.527,1099.75
1275.434,1096.00
1276.341,1110.25
1277.248,1112.50
1278.156,1083.25
1279.063,1112.00
1279.969,1089.50
1280.877,1050.00
1281.783,1121.50
1282.690,1109.50
1283.598,1086.50
1284.503,1096.00
1285.409,1095.50
1286.317,1096.50
1287.223,1086.25
1288.128,1072.50
1289.036,1061.50
1289.941,1106.50
1290.846,1082.25
1291.751,1077.25
1292.658,1102.00
1293.563,1046.00
1294.468,1032.00
1295.375,1030.00
1296.280,1069.00
1297.184,1054.25
1298.091,1073.50
1298.995,1013.75
1299.900,1035.75
1300.806,1044.25
1301.710,1036.25
1302.614,1003.25
1303.518,1026.75
1304.424,1038.75
1305.327,1087.25
1306.231,1017.25
1307.137,1026.75
1308.040,1037.25
1308.943,999.75
1309.847,1028.00
1310.752,1035.75
1311.655,1070.25
1312.558,992.50
1313.463,984.00
1314.366,999.50
1315.269,1032.50
1316.171,1000.00
1317.076,983.50
1317.978,1036.50
1318.881,999.50
1319.785,1002.75
1320.687,948.50
1321.589,984.75
1322.491,981.50
1323.395,972.75
1324.297,948.50
1325.198,991.25
1326.102,959.00
1327.004,996.25
1327.905,932.00
1328.806,984.75
1329.709,956.50
1330.611,936.75
1331.512,933.00
1332.413,925.50
1333.316,965.50
1334.216,938.75
1335.117,896.00
1336.020,908.50
1336.920,912.25
1337.821,958.50
1338.721,907.50
1339.623,938.25
1340.523,920.50
1341.423,918.00
1342.323,942.50
1343.225,927.50
1344.125,910.25
1345.025,874.50
1345.924,900.75
1346.826,887.75
1347.725,901.75
1348.624,858.25
1349.524,853.50
1350.425,891.25
1351.324,872.50
1352.223,863.00
1353.121,882.00
1354.022,858.50
1354.921,847.50
1355.819,866.50
1356.718,856.75
1357.618,834.50
1358.516,909.50
1359.415,869.50
1360.313,850.00
1361.213,861.00
1362.111,885.25
1363.008,812.50
1363.906,854.50
1364.806,819.75
1365.703,853.50
1366.601,865.75
1367.498,810.25
1368.397,860.75
1369.295,864.00
1370.192,782.50
1371.089,857.00
1371.987,812.00
1372.884,818.25
1373.781,827.50
1374.678,769.50
1375.574,770.25
1376.473,838.00
1377.369,812.00
1378.265,789.25
1379.161,835.25
1380.059,786.00
1380.955,805.75
1381.851,830.75
1382.747,798.00
1383.643,862.75
1384.540,786.50
1385.436,792.00
1386.331,810.75
1387.227,830.75
1388.124,779.50
1389.019,757.50
1389.914,748.50
1390.809,786.75
1391.704,814.00
1392.601,817.50
1393.495,773.25
1394.390,750.50
1395.285,771.75
1396.179,745.25
1397.075,762.00
1397.969,745.50
1398.864,738.75
1399.758,759.00
1400.652,770.75
1401.547,720.50
1402.441,785.50
1403.335,754.00
1404.229,787.25
1405.122,770.00
1406.017,760.75
1406.911,740.25
1407.804,709.50
1408.697,760.00
1409.590,731.50
1410.485,770.00
1411.378,739.50
1412.271,760.50
1413.163,759.75
1414.056,753.50
1414.949,775.50
1415.843,699.00
1416.735,733.50
1417.627,730.75
1418.520,720.75
1419.412,754.50
1420.306,739.25
1421.197,756.00
1422.089,771.00
1422.981,747.00
1423.873,743.50
1424.764,721.50
1425.657,715.50
1426.549,736.75
1427.440,731.50
1428.331,724.25
1429.222,753.50
1430.113,743.50
1431.006,707.25
1431.897,745.50
1432.787,695.00
1433.678,739.25
1434.568,720.50
1435.459,707.25
1436.351,718.75
1437.241,740.50
1438.131,744.75
1439.021,723.75
1439.911,667.25
1440.801,757.00
1441.693,733.75
1442.583,711.00
1443.472,710.00
1444.362,720.25
1445.251,719.00
1446.140,714.50
1447.030,715.75
1447.921,737.50
1448.810,727.25
1449.699,691.75
1450.588,721.25
1451.476,699.75
1452.365,751.25
1453.254,709.50
1454.144,682.25
1455.032,694.75
1455.921,714.25
1456.809,701.75
1457.697,696.50
1458.585,705.00
1459.473,677.75
1460.361,676.25
1461.251,671.75
1462.138,693.50
1463.026,713.75
1463.913,727.00
1464.801,663.00
1465.688,726.25
1466.575,701.75
1467.463,695.00
1468.351,673.75
1469.238,645.50
1470.125,681.50
1471.012,674.00
1471.899,652.75
1472.785,684.25
1473.672,669.75
1474.558,663.50
1475.446,670.25
1476.333,632.00
1477.219,649.75
1478.105,679.50
1478.991,604.75
1479.877,615.75
1480.762,651.50
1481.648,669.50
1482.534,624.50
1483.419,678.75
1484.307,670.00
1485.192,670.25
1486.077,636.25
1486.962,642.50
1487.847,658.50
1488.732,640.50
1489.617,684.00
1490.502,649.75
1491.387,667.00
1492.271,663.50
1493.156,646.25
1494.042,645.25
1494.927,631.25
1495.811,656.50
1496.695,641.75
1497.579,646.00
1498.463,652.00
1499.347,644.00
1500.231,636.50
1501.114,648.25
1501.998,681.25
1502.881,625.00
1503.765,681.25
1504.648,624.75
1505.533,694.25
1506.417,617.25
1507.300,629.50
1508.183,628.00
1509.066,634.75
1509.948,609.00
1510.831,649.50
1511.714,621.75
1512.596,611.25
1513.479,639.50
1514.361,648.75
1515.243,631.50
1516.125,608.25
1517.008,643.00
1517.890,605.50
1518.771,628.00
1519.655,620.00
1520.537,646.50
1521.419,625.50
1522.300,641.50
1523.182,618.25
1524.063,646.25
1524.944,609.50
1525.825,621.00
1526.707,604.50
1527.588,600.75
1528.468,562.25
1529.349,634.50
1530.230,593.25
1531.111,605.50
1531.991,619.00
1532.872,615.75
1533.752,578.75
1534.632,587.75
1535.513,601.75
1536.393,609.50
1537.273,631.25
1538.153,695.00
1539.032,575.00
1539.912,602.25
1540.792,619.50
1541.672,599.00
1542.551,596.25
1543.430,637.00
1544.310,602.00
1545.189,565.50
1546.068,595.25
1546.947,600.00
1547.826,379.50
1548.705,85.75
1549.584,522.25
1550.462,587.25
1551.341,606.25
1552.219,599.00
1553.098,549.25
1553.976,565.25
1554.854,601.75
1555.733,634.00
1556.611,585.50
1557.489,612.50
1558.367,588.00
1559.244,601.75
1560.122,597.50
1561.000,611.50
1561.877,580.50
1562.755,600.50
1563.632,619.00
1564.509,586.75
1565.386,599.50
1566.264,582.50
1567.141,596.75
1568.017,608.75
1568.894,561.50
1569.771,547.75
1570.648,566.00
1571.524,537.25
1572.401,556.50
1573.277,626.25
1574.153,591.25
1575.029,532.75
1575.906,573.00
1576.781,586.00
1577.657,548.25
1578.533,577.00
1579.409,599.50
1580.285,605.25
1581.160,580.25
1582.036,598.00
1582.911,549.75
1583.786,573.75
1584.662,586.00
1585.537,620.75
1586.412,554.00
1587.287,567.00
1588.160,561.75
1589.035,571.75
1589.909,550.75
1590.784,589.75
1591.658,574.50
1592.533,596.75
1593.407,523.00
1594.281,572.00
1595.155,595.00
1596.029,549.75
1596.903,560.75
1597.777,587.00
1598.651,580.25
1599.525,579.50
1600.398,579.00
1601.272,538.75
1602.144,594.25
1603.017,604.25
1603.890,529.25
1604.763,588.00
1605.636,549.50
1606.509,564.75
1607.382,587.25
1608.255,576.50
1609.128,556.75
1610.000,586.50
1610.873,536.25
1611.746,590.00
1612.616,564.25
1613.488,558.25
1614.361,540.75
1615.233,557.25
1616.105,574.75
1616.977,568.75
1617.849,548.00
1618.720,543.00
1619.592,568.25
1620.464,593.75
1621.333,553.00
1622.205,551.25
1623.076,533.50
1623.947,545.25
1624.818,540.00
1625.689,589.25
1626.560,545.75
1627.431,570.50
1628.302,537.00
1629.171,571.00
1630.042,539.00
1630.912,913.75
1631.782,549.50
1632.653,569.25
1633.523,565.25
1634.393,518.25
1635.263,523.50
1636.131,555.50
1637.001,540.00
1637.871,542.75
1638.741,551.75
1639.611,532.00
1640.480,529.75
1641.350,524.50
1642.219,555.25
1643.087,584.75
1643.956,594.25
1644.825,546.25
1645.694,581.50
1646.563,495.75
1647.432,569.50
1648.299,496.25
1649.167,571.75
1650.036,541.50
1650.904,553.75
1651.773,554.25
1652.641,532.75
1653.509,517.25
1654.376,518.50
1655.244,551.00
1656.112,555.00
1656.980,558.00
1657.847,535.50
1658.715,519.00
1659.581,556.25
1660.448,508.75
1661.316,499.00
1662.183,528.00
1663.051,508.25
1663.918,522.75
1664.783,528.25
1665.650,514.50
1666.517,543.50
1667.384,498.75
1668.251,550.25
1669.115,560.00
1669.982,559.50
1670.849,555.50
1671.715,533.00
1672.581,522.25
1673.446,515.25
1674.312,556.25
1675.178,532.50
1676.044,535.25
1676.910,525.75
1677.774,524.00
1678.639,513.25
1679.505,550.75
1680.370,529.00
1681.236,490.00
1682.099,541.50
1682.965,522.00
1683.830,505.00
1684.695,539.75
1685.560,494.75
1686.423,541.25
1687.288,546.25
1688.153,519.75
1689.017,557.00
1689.880,498.00
1690.745,520.75
1691.609,533.00
1692.473,468.00
1693.338,505.75
1694.200,515.75
1695.064,541.25
1695.928,512.50
1696.792,501.75
1697.654,576.00
1698.517,536.75
1699.381,533.75
1700.245,527.75
1701.106,558.00
1701.969,520.75
1702.833,497.75
1703.696,492.50
1704.557,502.25
1705.420,553.25
1706.283,517.75
1707.146,516.00
1708.007,492.50
1708.870,526.00
1709.732,472.75
1710.595,517.50
1711.455,488.00
1712.318,495.50
1713.180,487.50
1714.040,496.00
1714.902,507.75
1715.764,506.75
1716.626,493.75
1717.486,517.75
1718.348,531.00
1719.209,474.25
1720.071,497.00
1720.930,514.75
1721.792,503.50
1722.653,489.00
1723.512,546.00
1724.374,506.25
1725.234,504.50
1726.095,523.25
1726.954,498.50
1727.815,482.75
1728.676,474.25
1729.535,512.50
1730.395,516.25
1731.256,513.00
1732.114,507.00
1732.974,507.75
1733.834,494.50
1734.693,491.00
1735.553,517.75
1736.413,545.25
1737.272,482.25
1738.130,518.50
1738.990,509.50
1739.849,489.25
1740.707,520.25
1741.566,497.00
1742.426,488.00
1743.283,442.75
1744.142,494.00
1745.001,535.00
1745.858,519.00
1746.717,528.50
1747.576,532.75
1748.433,509.50
1749.292,511.75
1750.150,482.50
1751.007,494.50
1751.865,492.00
1752.723,508.50
1753.579,487.00
1754.438,508.25
1755.296,506.50
1756.152,512.50
1757.010,509.00
1757.865,473.25
1758.723,498.75
1759.581,489.50
1760.436,503.75
1761.294,512.50
1762.151,491.75
1763.006,480.25
1763.864,491.50
1764.721,471.00
1765.576,462.75
1766.433,477.00
1767.288,518.00
1768.144,493.25
1769.001,536.75
1769.856,514.50
1770.712,531.50
1771.568,488.75
1772.423,486.00
1773.279,505.50
1774.133,463.25
1774.989,527.50
1775.845,460.25
1776.699,503.75
1777.555,497.00
1778.409,492.75
1779.265,491.50
1780.120,479.75
1780.974,479.25
1781.829,495.75
1782.682,491.25
1783.538,481.50
1784.393,497.50
1785.246,430.25
1786.101,497.50
1786.954,476.25
1787.808,479.75
1788.661,460.50
1789.516,528.00
1790.370,482.50
1791.223,488.00
1792.077,488.00
1792.930,495.75
1793.784,490.50
1794.636,478.50
1795.490,505.00
1796.344,517.00
1797.196,474.75
1798.049,451.25
1798.901,444.00
1799.755,477.50
1800.606,435.75
1801.460,523.75
1802.311,462.25
1803.165,433.50
1804.018,496.50
1804.869,489.75
1805.722,507.00
1806.573,456.75
1807.426,477.25
1808.276,445.25
1809.129,446.00
1809.980,437.25
1810.832,480.75
1811.683,502.00
1812.535,492.25
1813.385,489.25
1814.237,453.75
1815.089,473.75
1815.940,488.75
1816.791,469.25
1817.641,478.75
1818.493,436.00
1819.343,470.50
1820.194,481.75
1821.044,442.50
1821.895,500.75
1822.745,488.50
1823.596,480.25
1824.445,436.75
1825.296,462.00
1826.145,464.00
1826.996,478.25
1827.845,472.25
1828.695,527.75
1829.544,458.50
1830.395,475.25
1831.243,475.50
1832.094,486.75
1832.942,494.75
1833.792,475.75
1834.640,456.00
1835.490,484.50
1836.338,490.00
1837.186,507.75
1838.036,470.25
1838.884,474.75
1839.733,499.25
1840.581,479.25
1841.430,464.00
1842.278,457.25
1843.127,474.00
1843.974,468.50
1844.823,466.00
1845.671,455.75
1846.519,443.50
1847.366,466.50
1848.213,478.50
1849.062,474.75
1849.909,445.75
1850.757,394.00
1851.604,454.50
1852.452,466.25
1853.298,459.25
1854.146,511.75
1854.993,450.50
1855.839,470.75
1856.687,496.25
1857.532,466.00
1858.380,471.00
1859.226,491.50
1860.073,446.75
1860.919,487.75
1861.765,481.25
1862.612,455.25
1863.457,461.50
1864.304,434.75
1865.150,420.25
1865.995,471.50
1866.842,451.00
1867.686,444.75
1868.533,465.00
1869.378,484.00
1870.223,426.50
1871.069,456.25
1871.914,443.00
1872.760,414.50
1873.604,450.50
1874.448,463.75
1875.294,461.25
1876.139,472.50
1876.984,477.50
1877.828,451.00
1878.672,449.50
1879.518,491.50
1880.361,407.50
1881.205,451.25
1882.050,496.75
1882.894,463.25
1883.739,441.50
1884.582,454.25
1885.425,464.50
1886.270,421.25
1887.113,459.75
1887.956,456.50
1888.801,448.00
1889.644,454.75
1890.486,463.00
1891.331,488.00
1892.173,443.50
1893.017,444.50
1893.860,431.00
1894.702,469.50
1895.546,450.25
1896.388,461.75
1897.230,502.50
1898.074,470.75
1898.916,461.75
1899.757,507.00
1900.601,452.75
1901.443,508.75
1902.284,446.75
1903.125,474.00
1903.969,423.50
1904.810,437.75
1905.651,462.25
1906.494,437.00
1907.335,436.00
1908.176,457.50
1909.018,406.00
1909.859,418.00
1910.700,437.75
1911.542,443.00
1912.383,440.50
1913.223,449.75
1914.064,443.50
1914.906,422.50
1915.746,448.75
1916.586,480.25
1917.428,471.25
1918.268,439.75
1919.107,451.50
1919.947,463.50
1920.789,481.25
1921.628,456.25
1922.468,443.25
1923.309,432.50
1924.148,459.75
1924.988,438.75
1925.827,435.25
1926.667,429.00
1927.507,452.75
1928.345,449.75
1929.184,423.00
1930.025,450.25
1930.864,407.75
1931.702,443.25
1932.541,399.75
1933.381,477.75
1934.219,436.00
1935.057,457.25
1935.896,435.25
1936.735,456.25
1937.573,480.00
1938.411,440.00
1939.249,386.00
1940.089,450.00
1940.927,454.50
1941.764,430.25
1942.602,431.25
1943.439,424.75
1944.278,476.25
1945.115,459.50
1945.953,443.00
1946.790,418.00
1947.628,494.50
1948.465,432.75
1949.302,405.75
1950.139,431.50
1950.976,431.50
1951.814,457.50
1952.651,413.75
1953.487,401.25
1954.323,445.25
1955.160,405.75
1955.998,466.00
1956.834,410.00
1957.670,459.00
1958.506,462.00
1959.342,475.00
1960.177,459.50
1961.015,450.50
1961.850,467.50
1962.686,415.25
1963.521,427.25
1964.357,450.75
1965.192,421.50
1966.029,453.75
1966.864,412.25
1967.699,462.50
1968.534,432.75
1969.369,470.50
1970.204,441.75
1971.040,426.25
1971.875,417.50
1972.709,396.75
1973.544,434.00
1974.378,454.75
1975.212,474.00
1976.047,438.25
1976.882,448.75
1977.716,453.50
1978.550,450.75
1979.384,456.25
1980.218,419.00
1981.052,447.25
1981.885,413.75
1982.719,463.00
1983.554,418.00
1984.388,408.50
1985.221,438.25
1986.054,446.00
1986.887,421.75
1987.720,441.00
1988.553,477.50
1989.386,459.00
1990.219,465.50
1991.053,480.75
1991.886,398.75
1992.719,440.50
1993.551,406.00
1994.383,418.25
1995.216,454.75
1996.048,410.00
1996.880,445.00
1997.712,468.50
1998.544,429.00
1999.376,459.75
2000.208,420.75
2001.040,441.50
2001.873,438.50
2002.705,438.50
2003.536,432.50
2004.367,440.00
2005.199,376.00
2006.030,462.75
2006.861,419.50
2007.692,438.25
2008.523,454.75
2009.354,440.50
2010.185,413.25
2011.016,447.25
2011.846,424.75
2012.677,440.00
2013.507,449.75
2014.338,458.75
2015.168,404.75
2015.999,441.00
2016.829,449.75
2017.659,444.75
2018.489,400.00
2019.319,424.25
2020.149,454.50
2020.980,387.25
2021.810,468.75
2022.639,411.00
2023.469,437.25
2024.298,437.25
2025.128,444.00
2025.957,419.75
2026.786,443.50
2027.615,433.00
2028.444,434.00
2029.273,483.25
2030.102,386.00
2030.931,404.25
2031.758,420.00
2032.586,447.25
2033.415,457.25
2034.243,455.75
2035.072,451.00
2035.900,432.50
2036.728,425.75
2037.556,473.25
2038.385,438.25
2039.213,436.25
2040.040,461.50
2040.868,432.25
2041.696,438.00
2042.524,410.75
2043.351,432.75
2044.179,438.25
2045.006,473.00
2045.006,473.00

Max Intensity Wave.,218.899
Max Intensity Data,5585.50
Min Intensity Wave.,1548.705
Min Intensity Data,85.75
FWHM Wave.,402.386
FWHM Value,0.61
Pressure Wave.,686.218
Pressure Value [GPa],-20.87529
G/D Ratio,0.84006
G/D Gband Wave.,1630.918
G/D Gband Intensity,913.77
G/D Dband Wave.,1305.245
G/D Dband Intensity,1087.74

<< BACKGROUND SPECTRUM >>
Wave[dcm-1],No169
146.591,2261.00
147.626,2125.00
148.664,2040.00
149.699,2564.00
150.737,2292.00
151.772,2422.00
152.809,2402.00
153.846,2277.00
154.881,2432.00
155.918,1960.00
156.953,2260.00
157.989,2632.00
159.026,2462.00
160.060,2664.00
161.096,2876.00
162.130,2540.00
163.167,2605.00
164.200,2445.00
165.236,2629.00
166.272,2692.00
167.305,2348.00
168.341,2530.00
169.374,2811.00
170.409,2823.00
171.445,2761.00
172.477,2553.00
173.512,2445.00
174.545,2718.00
175.580,2910.00
176.614,3078.00
177.647,2819.00
178.681,3091.00
179.713,3404.00
180.747,2848.00
181.781,2744.00
182.813,2999.00
183.847,3111.00
184.878,2737.00
185.912,3024.00
186.945,3144.00
187.976,3090.00
189.010,2742.00
190.043,2862.00
191.073,2964.00
192.106,2745.00
193.137,3217.00
194.170,2569.00
195.202,2925.00
196.232,2717.00
197.265,3027.00
198.297,3083.00
199.327,2783.00
200.359,2966.00
201.388,3394.00
202.420,2926.00
203.452,3134.00
204.481,2738.00
205.512,3365.00
206.544,3101.00
207.573,3093.00
208.604,3401.00
209.635,3549.00
210.663,2943.00
211.694,3030.00
212.725,2878.00
213.753,2798.00
214.783,3383.00
215.813,3239.00
216.841,3049.00
217.871,3213.00
218.899,2929.00
219.929,3123.00
220.959,2899.00
221.986,3187.00
223.016,2819.00
224.045,3179.00
225.072,3171.00
226.101,3234.00
227.130,3266.00
228.157,2854.00
229.185,2379.00
230.214,3203.00
231.241,2852.00
232.269,2461.00
233.297,2673.00
234.323,3246.00
235.351,2859.00
236.379,3089.00
237.407,2783.00
238.433,2954.00
239.460,3160.00
240.488,3119.00
241.513,3218.00
242.540,3154.00
243.568,3201.00
244.592,3248.00
245.619,3210.00
246.646,2929.00
247.671,2984.00
248.697,2814.00
249.724,3001.00
250.748,3032.00
251.774,3015.00
252.801,3328.00
253.827,3133.00
254.850,3119.00
255.876,2716.00
256.902,3178.00
257.925,3001.00
258.951,2770.00
259.976,2799.00
260.999,3101.00
262.024,2844.00
263.049,3679.00
264.074,3148.00
265.097,3063.00
266.122,3131.00
267.146,3081.00
268.168,3246.00
269.193,2877.00
270.217,3246.00
271.241,2751.00
272.263,2891.00
273.287,3201.00
274.311,2810.00
275.332,3337.00
276.356,2866.00
277.379,3102.00
278.402,3154.00
279.424,2988.00
280.447,2930.00
281.470,2745.00
282.492,3137.00
283.513,2920.00
284.536,3184.00
285.558,3177.00
286.581,3142.00
287.601,2835.00
288.623,2789.00
289.645,3049.00
290.665,3123.00
291.687,3181.00
292.709,3139.00
293.730,3438.00
294.750,2891.00
295.771,2746.00
296.792,3082.00
297.813,2955.00
298.832,3064.00
299.853,2775.00
300.874,3009.00
301.895,3017.00
302.913,2998.00
303.934,3312.00
304.954,3042.00
305.975,3235.00
306.993,2742.00
308.013,3160.00
309.033,3032.00
310.052,2957.00
311.072,2894.00
312.090,3097.00
313.109,3273.00
314.129,3460.00
315.148,3011.00
316.165,3109.00
317.184,3250.00
318.203,2779.00
319.222,2760.00
320.238,3174.00
321.257,2846.00
322.275,2709.00
323.294,2982.00
324.312,3149.00
325.328,3313.00
326.346,3264.00
327.364,3243.00
328.382,3188.00
329.397,3175.00
330.415,3286.00
331.432,3212.00
332.450,3246.00
333.467,3501.00
334.482,2631.00
335.499,3408.00
336.516,2908.00
337.533,2617.00
338.547,2878.00
339.564,2883.00
340.580,3141.00
341.597,3004.00
342.613,3466.00
343.627,2985.00
344.643,3043.00
345.659,3195.00
346.675,3008.00
347.690,2909.00
348.704,3114.00
349.719,2906.00
350.735,2807.00
351.750,3209.00
352.765,3034.00
353.778,3028.00
354.793,3125.00
355.808,2887.00
356.822,3223.00
357.837,2636.00
358.851,3273.00
359.864,2995.00
360.878,2743.00
361.892,2990.00
362.906,3181.00
363.920,2618.00
364.932,3182.00
365.945,3079.00
366.959,3021.00
367.972,2987.00
368.986,2733.00
369.999,3405.00
371.010,2839.00
372.023,3370.00
373.036,3007.00
374.049,3386.00
375.061,3127.00
376.072,3007.00
377.084,2880.00
378.097,2698.00
379.109,3224.00
380.121,3010.00
381.133,2706.00
382.143,3184.00
383.155,2729.00
384.166,2928.00
385.178,3116.00
386.189,3209.00
387.201,2757.00
388.212,2894.00
389.221,2952.00
390.232,3052.00
391.243,2934.00
392.254,3066.00
393.264,2836.00
394.275,3260.00
395.283,3208.00
396.294,3680.00
397.304,3449.00
398.314,3140.00
399.324,3041.00
400.334,2681.00
401.344,3168.00
402.351,2662.00
403.361,3212.00
404.370,2971.00
405.380,2903.00
406.389,3405.00
407.398,3188.00
408.407,3133.00
409.414,3146.00
410.423,3331.00
411.431,2771.00
412.440,2692.00
413.448,3318.00
414.457,2852.00
415.465,2799.00
416.471,2907.00
417.479,3045.00
418.487,2824.00
419.495,3312.00
420.503,3110.00
421.510,2623.00
422.518,3162.00
423.525,3133.00
424.530,3401.00
425.537,2928.00
426.544,3246.00
427.551,2876.00
428.558,3603.00
429.565,3446.00
430.571,2876.00
431.578,2897.00
432.582,2881.00
433.588,2974.00
434.595,2624.00
435.601,3345.00
436.607,3258.00
437.612,2775.00
438.618,3368.00
439.624,2961.00
440.627,2951.00
441.633,3172.00
442.638,3623.00
443.643,3152.00
444.648,3035.00
445.653,3210.00
446.658,2928.00
447.663,3054.00
448.667,2928.00
449.672,2918.00
450.674,2985.00
451.678,2701.00
452.682,2897.00
453.687,2865.00
454.690,3588.00
455.694,3306.00
456.698,2563.00
457.702,2670.00
458.705,2871.00
459.709,2848.00
460.710,2896.00
461.713,3050.00
462.716,3072.00
463.719,3051.00
464.722,3232.00
465.725,3000.00
466.727,2860.00
467.730,3108.00
468.732,2823.00
469.735,3312.00
470.737,2925.00
471.737,2924.00
472.739,2937.00
473.741,2818.00
474.742,3105.00
475.744,3115.00
476.746,3048.00
477.747,2959.00
478.748,3185.00
479.750,2947.00
480.751,2994.00
481.752,3773.00
482.753,3086.00
483.751,3574.00
484.752,2626.00
485.753,2973.00
486.753,2883.00
487.753,3013.00
488.754,3421.00
489.754,2752.00
490.754,3346.00
491.754,3138.00
492.754,2699.00
493.753,3050.00
494.753,2921.00
495.752,3381.00
496.752,3065.00
497.749,2987.00
498.748,2856.00
499.747,3395.00
500.746,3115.00
501.745,2803.00
502.744,2787.00
503.742,3329.00
504.741,2935.00
505.739,2474.00
506.737,2943.00
507.735,3142.00
508.734,3367.00
509.732,3110.00
510.729,3380.00
511.727,2899.00
512.725,2928.00
513.720,2802.00
514.718,3264.00
515.715,2693.00
516.712,2667.00
517.709,2964.00
518.706,2888.00
519.703,3077.00
520.700,3194.00
521.696,3354.00
522.693,2929.00
523.689,2845.00
524.686,3170.00
525.682,2817.00
526.678,3493.00
527.674,2934.00
528.670,2603.00
529.666,3537.00
530.661,3455.00
531.657,3179.00
532.652,3144.00
533.648,3019.00
534.641,3214.00
535.636,3043.00
536.631,3119.00
537.626,3209.00
538.621,2774.00
539.616,2632.00
540.610,2551.00
541.605,3030.00
542.599,3059.00
543.593,3004.00
544.587,3876.00
545.581,2854.00
546.575,3081.00
547.569,3070.00
548.563,2692.00
549.557,2672.00
550.550,2780.00
551.543,2734.00
552.537,3169.00
553.530,2784.00
554.523,2756.00
555.516,3137.00
556.509,2944.00
557.502,2619.00
558.494,3201.00
559.487,2965.00
560.479,3211.00
561.472,3233.00
562.464,3171.00
563.456,3334.00
564.448,2982.00
565.440,3043.00
566.432,3351.00
567.423,2890.00
568.415,2904.00
569.404,3124.00
570.396,2843.00
571.387,3178.00
572.378,3081.00
573.369,3980.00
574.360,3673.00
575.351,2966.00
576.341,2849.00
577.332,2891.00
578.323,2673.00
579.313,2910.00
580.303,3241.00
581.293,3154.00
582.283,3030.00
583.273,3143.00
584.263,3000.00
585.253,3142.00
586.243,3125.00
587.232,2668.00
588.222,2987.00
589.211,3192.00
590.200,3052.00
591.189,2971.00
592.178,2969.00
593.167,3435.00
594.156,3328.00
595.145,2877.00
596.133,3482.00
597.122,3134.00
598.110,3222.00
599.098,3068.00
600.086,3063.00
601.074,3204.00
602.062,2840.00
603.050,2805.00
604.038,3137.00
605.025,2806.00
606.013,3208.00
607.000,3416.00
607.987,3006.00
608.975,3063.00
609.962,2793.00
610.949,3152.00
611.936,3284.00
612.922,3177.00
613.909,2775.00
614.895,3395.00
615.882,2881.00
616.868,2997.00
617.854,2775.00
618.841,3030.00
619.826,3143.00
620.812,2994.00
621.798,2851.00
622.784,3182.00
623.769,3145.00
624.755,2687.00
625.740,3077.00
626.725,2710.00
627.711,2857.00
628.698,3079.00
629.683,2827.00
630.667,3214.00
631.652,2760.00
632.637,2962.00
633.621,3154.00
634.606,2962.00
635.590,3129.00
636.574,2965.00
637.558,3080.00
638.542,3033.00
639.526,2841.00
640.510,2630.00
641.493,3031.00
642.477,3009.00
643.460,2723.00
644.444,3239.00
645.427,3244.00
646.410,2683.00
647.393,2970.00
648.376,3086.00
649.359,2935.00
650.341,3092.00
651.324,3099.00
652.307,3097.00
653.289,2984.00
654.271,2895.00
655.253,2892.00
656.235,3143.00
657.217,3246.00
658.199,2657.00
659.181,2742.00
660.163,2996.00
661.144,2863.00
662.126,2897.00
663.107,2758.00
664.088,4725.00
665.069,3240.00
666.050,2810.00
667.033,2715.00
668.014,3004.00
668.995,2590.00
669.975,3048.00
670.956,3008.00
671.936,3151.00
672.916,2949.00
673.896,3096.00
674.876,2928.00
675.856,2853.00
676.836,2778.00
677.816,2335.00
678.795,2821.00
679.775,2669.00
680.754,2999.00
681.734,3168.00
682.713,3151.00
683.692,2766.00
684.671,2651.00
685.650,2751.00
686.629,2840.00
687.607,2794.00
688.586,2777.00
689.564,2871.00
690.543,3279.00
691.523,2373.00
692.501,2808.00
693.479,2922.00
694.457,2786.00
695.435,2867.00
696.413,2714.00
697.390,2512.00
698.368,2684.00
699.345,3121.00
700.322,2954.00
701.300,3073.00
702.277,3045.00
703.254,3264.00
704.231,2563.00
705.207,2977.00
706.184,2755.00
707.161,2651.00
708.137,2864.00
709.113,2831.00
710.090,2799.00
711.068,2615.00
712.044,2630.00
713.020,2929.00
713.996,2575.00
714.971,2850.00
715.947,2887.00
716.922,2824.00
717.898,2771.00
718.873,2870.00
719.848,2760.00
720.823,2686.00
721.798,3005.00
722.773,2731.00
723.748,2536.00
724.723,3020.00
725.697,2849.00
726.672,2754.00
727.646,2507.00
728.622,3001.00
729.596,2612.00
730.570,2719.00
731.544,3113.00
732.518,3319.00
733.492,2815.00
734.466,2921.00
735.439,3019.00
736.413,3130.00
737.386,2463.00
738.359,2463.00
739.332,2531.00
740.305,2859.00
741.278,3320.00
742.251,2915.00
743.224,2754.00
744.196,2579.00
745.171,3174.00
746.143,3048.00
747.115,2803.00
748.087,2729.00
749.059,3095.00
750.031,2917.00
751.003,3720.00
751.975,3263.00
752.947,2747.00
753.918,3103.00
754.890,2611.00
755.861,2761.00
756.832,3051.00
757.803,2863.00
758.774,2843.00
759.747,2583.00
760.718,3230.00
761.689,2735.00
762.659,2583.00
763.630,3178.00
764.600,2583.00
765.570,3036.00
766.540,3138.00
767.510,2934.00
768.480,3040.00
769.450,2711.00
770.420,2801.00
771.390,2644.00
772.359,2741.00
773.329,2665.00
774.300,2490.00
775.269,2770.00
776.238,3005.00
777.207,3154.00
778.176,2542.00
779.145,2805.00
780.114,2688.00
781.083,2570.00
782.051,2765.00
783.019,2684.00
783.988,3078.00
784.956,2848.00
785.924,2996.00
786.894,2894.00
787.862,2701.00
788.830,3100.00
789.797,2609.00
790.765,2600.00
791.732,2817.00
792.700,2622.00
793.667,2544.00
794.634,2775.00
795.601,2741.00
796.568,2798.00
797.535,2865.00
798.502,3460.00
799.468,2923.00
800.437,2443.00
801.403,2673.00
802.370,3318.00
803.336,2993.00
804.302,2882.00
805.268,2431.00
806.234,2551.00
807.200,2745.00
808.166,2774.00
809.131,2592.00
810.097,2974.00
811.062,3623.00
812.027,3022.00
812.994,2625.00
813.960,2645.00
814.925,2893.00
815.889,2531.00
816.854,3000.00
817.819,2694.00
818.783,2747.00
819.748,3114.00
820.712,2731.00
821.677,2609.00
822.641,2693.00
823.605,2707.00
824.571,3161.00
825.534,2767.00
826.498,2690.00
827.462,2827.00
828.425,2626.00
829.389,3058.00
830.352,2795.00
831.315,2908.00
832.279,2487.00
833.242,2768.00
834.204,2669.00
835.167,2651.00
836.132,3049.00
837.095,2539.00
838.057,2689.00
839.020,2795.00
839.982,2851.00
840.944,2678.00
841.906,2666.00
842.868,2951.00
843.830,2539.00
844.792,3074.00
845.753,2713.00
846.715,2449.00
847.679,2626.00
848.640,2607.00
849.601,2753.00
850.562,3251.00
851.523,2707.00
852.484,2488.00
853.445,3022.00
854.406,2719.00
855.367,2759.00
856.327,3070.00
857.288,2504.00
858.248,2705.00
859.210,2710.00
860.170,2506.00
861.130,3029.00
862.090,2440.00
863.050,2634.00
864.010,2701.00
864.969,2885.00
865.929,2619.00
866.888,2541.00
867.848,2837.00
868.807,2682.00
869.766,2887.00
870.727,2723.00
871.686,3011.00
872.645,3027.00
873.604,3269.00
874.562,2755.00
875.521,2795.00
876.479,3370.00
877.437,2598.00
878.396,2567.00
879.354,3170.00
880.312,2619.00
881.270,2656.00
882.229,3112.00
883.187,2622.00
884.145,2693.00
885.102,2918.00
886.059,2845.00
887.017,2888.00
887.974,2952.00
888.931,3063.00
889.888,2572.00
890.845,2450.00
891.802,2333.00
892.758,2621.00
893.717,2438.00
894.673,2569.00
895.630,2629.00
896.586,2906.00
897.542,2663.00
898.498,2545.00
899.454,2838.00
900.410,2698.00
901.366,2648.00
902.321,2690.00
903.277,2683.00
904.232,2748.00
905.189,2501.00
906.145,2680.00
907.100,2201.00
908.055,2727.00
909.010,2917.00
909.965,2335.00
910.919,2768.00
911.874,2582.00
912.828,2755.00
913.783,2775.00
914.737,2351.00
915.693,2765.00
916.648,2889.00
917.602,2974.00
918.555,2803.00
919.509,2819.00
920.463,2779.00
921.417,2739.00
922.370,2565.00
923.324,2682.00
924.277,2662.00
925.230,2746.00
926.183,2427.00
927.138,2666.00
928.091,2953.00
929.044,2793.00
929.996,2641.00
930.949,2635.00
931.902,2801.00
932.854,2843.00
933.806,2591.00
934.758,2962.00
935.711,3026.00
936.663,2739.00
937.614,2782.00
938.568,2754.00
939.520,2377.00
940.471,2708.00
941.423,2807.00
942.374,2885.00
943.326,2732.00
944.277,2619.00
945.228,2825.00
946.179,2678.00
947.130,3046.00
948.080,2680.00
949.031,2563.00
949.984,2714.00
950.934,2745.00
951.884,2497.00
952.835,2688.00
953.785,2771.00
954.735,2605.00
955.685,2370.00
956.635,2607.00
957.585,2617.00
958.534,2623.00
959.484,2758.00
960.433,2621.00
961.383,2486.00
962.334,2927.00
963.283,2779.00
964.232,2845.00
965.181,2691.00
966.130,2773.00
967.079,2642.00
968.027,2739.00
968.976,2731.00
969.924,2655.00
970.873,2810.00
971.821,2724.00
972.769,2939.00
973.719,2847.00
974.667,2486.00
975.615,2753.00
976.562,2724.00
977.510,2410.00
978.458,2635.00
979.405,2837.00
980.352,2786.00
981.300,2977.00
982.247,2773.00
983.194,2559.00
984.141,2627.00
985.088,2704.00
986.036,2759.00
986.983,3031.00
987.930,3114.00
988.876,2379.00
989.822,2929.00
990.769,2539.00
991.715,2627.00
992.661,2437.00
993.607,2799.00
994.553,3298.00
995.498,2610.00
996.444,2291.00
997.389,2770.00
998.337,2527.00
999.282,2885.00
1000.227,2637.00
1001.173,2726.00
1002.118,2445.00
1003.062,2891.00
1004.007,2707.00
1004.952,2983.00
1005.897,2917.00
1006.841,2679.00
1007.786,2443.00
1008.730,2454.00
1009.674,3171.00
1010.618,2631.00
1011.564,2535.00
1012.508,2423.00
1013.452,2909.00
1014.396,2751.00
1015.339,2595.00
1016.283,2667.00
1017.226,2739.00
1018.170,2710.00
1019.113,2902.00
1020.056,2707.00
1020.999,2703.00
1021.942,2614.00
1022.885,2837.00
1023.828,2985.00
1024.770,2519.00
1025.715,2747.00
1026.657,2709.00
1027.600,2763.00
1028.542,2915.00
1029.484,2743.00
1030.426,2839.00
1031.368,2787.00
1032.310,2586.00
1033.251,2531.00
1034.193,2703.00
1035.135,2494.00
1036.076,2611.00
1037.017,2521.00
1037.959,2850.00
1038.900,2779.00
1039.843,2805.00
1040.784,2774.00
1041.725,2778.00
1042.665,2600.00
1043.606,2762.00
1044.547,2714.00
1045.487,2365.00
1046.427,2648.00
1047.368,2764.00
1048.308,2225.00
1049.248,2540.00
1050.188,2710.00
1051.128,2589.00
1052.067,2684.00
1053.007,2430.00
1053.947,2381.00
1054.886,2592.00
1055.827,2471.00
1056.766,2941.00
1057.706,2452.00
1058.645,2654.00
1059.584,2761.00
1060.522,2950.00
1061.461,2447.00
1062.400,2465.00
1063.338,2624.00
1064.277,2510.00
1065.215,2532.00
1066.154,2399.00
1067.092,2567.00
1068.030,2645.00
1068.968,2877.00
1069.906,2980.00
1070.843,2962.00
1071.781,2723.00
1072.720,2791.00
1073.658,2799.00
1074.595,2629.00
1075.533,2552.00
1076.470,2574.00
1077.407,2939.00
1078.344,2727.00
1079.281,2818.00
1080.217,2293.00
1081.154,2652.00
1082.091,2751.00
1083.027,2443.00
1083.964,2905.00
1084.900,2563.00
1085.836,2585.00
1086.772,2874.00
1087.708,2470.00
1088.644,2862.00
1089.580,2702.00
1090.515,2710.00
1091.451,2616.00
1092.388,2720.00
1093.324,2433.00
1094.259,3257.00
1095.194,2740.00
1096.129,2589.00
1097.064,2585.00
1097.999,2802.00
1098.934,2534.00
1099.869,2540.00
1100.803,2722.00
1101.738,2722.00
1102.672,2377.00
1103.607,2780.00
1104.541,2517.00
1105.475,2533.00
1106.409,2416.00
1107.343,2595.00
1108.277,2401.00
1109.210,2682.00
1110.144,2682.00
1111.078,2648.00
1112.011,2455.00
1112.944,2731.00
1113.878,2709.00
1114.811,2176.00
1115.744,2584.00
1116.678,2343.00
1117.611,2586.00
1118.544,2591.00
1119.477,2761.00
1120.409,2516.00
1121.342,3130.00
1122.274,2780.00
1123.206,2975.00
1124.138,2659.00
1125.070,2981.00
1126.002,2809.00
1126.934,2276.00
1127.866,2539.00
1128.798,2307.00
1129.729,2351.00
1130.661,2683.00
1131.592,2585.00
1132.523,2802.00
1133.454,2754.00
1134.385,2310.00
1135.317,2634.00
1136.247,2594.00
1137.178,2852.00
1138.109,2345.00
1139.039,2945.00
1139.970,2844.00
1140.900,2592.00
1141.831,2341.00
1142.761,2286.00
1143.691,2731.00
1144.621,2624.00
1145.551,2701.00
1146.480,2675.00
1147.410,2864.00
1148.340,2295.00
1149.269,2353.00
1150.199,2611.00
1151.128,3075.00
1152.057,2425.00
1152.979,2615.00
1153.898,2579.00
1154.819,2695.00
1155.739,2630.00
1156.658,2566.00
1157.579,2634.00
1158.498,2631.00
1159.419,2167.00
1160.338,2653.00
1161.256,2681.00
1162.177,2469.00
1163.095,2610.00
1164.016,2698.00
1164.934,2927.00
1165.852,2803.00
1166.772,2614.00
1167.690,2652.00
1168.610,2697.00
1169.528,2650.00
1170.446,2203.00
1171.365,2597.00
1172.283,2500.00
1173.202,2659.00
1174.120,2689.00
1175.037,2494.00
1175.956,2483.00
1176.873,2469.00
1177.792,2522.00
1178.709,3118.00
1179.626,2520.00
1180.544,2843.00
1181.461,2510.00
1182.379,2748.00
1183.296,2609.00
1184.212,2288.00
1185.130,2478.00
1186.046,2924.00
1186.962,2649.00
1187.880,2946.00
1188.796,2708.00
1189.714,2432.00
1190.629,2785.00
1191.545,2694.00
1192.462,2565.00
1193.378,2565.00
1194.295,2344.00
1195.210,2646.00
1196.125,2765.00
1197.042,2678.00
1197.957,2587.00
1198.872,2517.00
1199.788,2528.00
1200.703,2986.00
1201.619,2636.00
1202.534,2491.00
1203.448,2714.00
1204.364,2601.00
1205.278,2300.00
1206.192,2704.00
1207.108,3118.00
1208.022,2981.00
1208.938,2479.00
1209.851,2788.00
1210.765,2852.00
1211.680,2544.00
1212.594,2407.00
1213.507,2586.00
1214.422,2989.00
1215.335,2757.00
1216.248,2548.00
1217.163,2642.00
1218.076,3156.00
1218.990,2754.00
1219.903,2403.00
1220.816,2464.00
1221.730,2596.00
1222.642,2524.00
1223.554,2549.00
1224.469,2711.00
1225.380,2616.00
1226.292,2288.00
1227.206,2761.00
1228.118,2971.00
1229.032,2255.00
1229.943,2500.00
1230.855,2549.00
1231.768,2383.00
1232.679,2719.00
1233.590,2618.00
1234.503,2860.00
1235.414,2495.00
1236.325,2519.00
1237.238,2722.00
1238.149,2709.00
1239.059,2420.00
1239.972,2827.00
1240.882,2466.00
1241.793,2773.00
1242.705,2987.00
1243.615,2605.00
1244.525,2726.00
1245.437,2216.00
1246.347,2647.00
1247.259,2782.00
1248.168,3043.00
1249.078,2832.00
1249.989,2916.00
1250.899,2479.00
1251.808,2484.00
1252.719,2559.00
1253.628,2513.00
1254.537,2980.00
1255.448,2471.00
1256.357,2448.00
1257.266,2603.00
1258.176,2375.00
1259.085,2356.00
1259.993,2454.00
1260.904,2461.00
1261.812,2455.00
1262.720,3174.00
1263.630,2788.00
1264.538,2477.00
1265.446,2758.00
1266.356,2618.00
1267.263,2876.00
1268.171,2429.00
1269.080,2722.00
1269.988,2809.00
1270.895,2513.00
1271.804,2593.00
1272.711,2782.00
1273.619,2781.00
1274.527,2434.00
1275.434,2746.00
1276.341,2423.00
1277.248,2637.00
1278.156,2914.00
1279.063,2476.00
1279.969,2717.00
1280.877,3538.00
1281.783,2799.00
1282.690,2688.00
1283.598,2576.00
1284.503,2471.00
1285.409,2449.00
1286.317,2991.00
1287.223,3013.00
1288.128,2692.00
1289.036,2546.00
1289.941,2558.00
1290.846,2622.00
1291.751,2471.00
1292.658,2520.00
1293.563,3064.00
1294.468,2661.00
1295.375,2813.00
1296.280,2866.00
1297.184,3336.00
1298.091,2716.00
1298.995,2830.00
1299.900,3002.00
1300.806,2541.00
1301.710,2393.00
1302.614,2232.00
1303.518,2896.00
1304.424,2573.00
1305.327,2787.00
1306.231,2639.00
1307.137,2769.00
1308.040,2681.00
1308.943,2691.00
1309.847,2831.00
1310.752,2802.00
1311.655,2278.00
1312.558,2434.00
1313.463,2567.00
1314.366,2534.00
1315.269,2649.00
1316.171,2612.00
1317.076,2536.00
1317.978,2403.00
1318.881,2225.00
1319.785,2471.00
1320.687,2508.00
1321.589,2248.00
1322.491,2470.00
1323.395,2702.00
1324.297,3206.00
1325.198,2741.00
1326.102,2429.00
1327.004,2428.00
1327.905,3049.00
1328.806,2573.00
1329.709,2698.00
1330.611,2563.00
1331.512,2469.00
1332.413,3070.00
1333.316,2666.00
1334.216,2820.00
1335.117,2403.00
1336.020,2678.00
1336.920,2649.00
1337.821,2457.00
1338.721,2901.00
1339.623,2662.00
1340.523,2585.00
1341.423,2491.00
1342.323,2898.00
1343.225,2698.00
1344.125,2476.00
1345.025,2539.00
1345.924,2279.00
1346.826,2977.00
1347.725,3025.00
1348.624,2897.00
1349.524,2522.00
1350.425,2591.00
1351.324,2719.00
1352.223,2819.00
1353.121,2595.00
1354.022,2829.00
1354.921,3058.00
1355.819,2766.00
1356.718,2678.00
1357.618,2406.00
1358.516,2731.00
1359.415,3012.00
1360.313,2732.00
1361.213,2581.00
1362.111,2857.00
1363.008,3270.00
1363.906,2601.00
1364.806,2648.00
1365.703,2719.00
1366.601,2446.00
1367.498,2472.00
1368.397,2791.00
1369.295,2656.00
1370.192,2490.00
1371.089,2685.00
1371.987,2613.00
1372.884,2850.00
1373.781,2449.00
1374.678,2677.00
1375.574,2494.00
1376.473,2739.00
1377.369,2856.00
1378.265,2487.00
1379.161,2574.00
1380.059,2361.00
1380.955,2767.00
1381.851,2393.00
1382.747,2518.00
1383.643,2509.00
1384.540,2431.00
1385.436,2543.00
1386.331,2659.00
1387.227,2744.00
1388.124,2747.00
1389.019,2470.00
1389.914,2647.00
1390.809,2287.00
1391.704,3045.00
1392.601,2530.00
1393.495,2901.00
1394.390,2807.00
1395.285,2855.00
1396.179,2735.00
1397.075,2601.00
1397.969,2698.00
1398.864,2359.00
1399.758,2594.00
1400.652,2674.00
1401.547,2478.00
1402.441,2384.00
1403.335,2994.00
1404.229,2760.00
1405.122,2689.00
1406.017,2616.00
1406.911,2792.00
1407.804,3077.00
1408.697,2620.00
1409.590,2475.00
1410.485,2781.00
1411.378,2705.00
1412.271,2331.00
1413.163,2681.00
1414.056,2783.00
1414.949,2982.00
1415.843,2719.00
1416.735,2575.00
1417.627,2670.00
1418.520,2611.00
1419.412,2841.00
1420.306,2783.00
1421.197,2911.00
1422.089,2844.00
1422.981,3098.00
1423.873,2810.00
1424.764,2759.00
1425.657,2679.00
1426.549,2753.00
1427.440,2853.00
1428.331,2544.00
1429.222,2314.00
1430.113,2671.00
1431.006,2827.00
1431.897,2534.00
1432.787,2673.00
1433.678,2541.00
1434.568,2466.00
1435.459,2871.00
1436.351,2845.00
1437.241,2763.00
1438.131,2775.00
1439.021,2385.00
1439.911,2642.00
1440.801,2663.00
1441.693,2851.00
1442.583,2662.00
1443.472,2639.00
1444.362,2752.00
1445.251,2591.00
1446.140,2582.00
1447.030,2820.00
1447.921,2799.00
1448.810,2436.00
1449.699,3006.00
1450.588,2688.00
1451.476,2549.00
1452.365,2702.00
1453.254,2556.00
1454.144,2540.00
1455.032,2764.00
1455.921,2374.00
1456.809,2921.00
1457.697,2452.00
1458.585,2580.00
1459.473,2593.00
1460.361,2496.00
1461.251,2726.00
1462.138,2728.00
1463.026,2604.00
1463.913,2854.00
1464.801,2585.00
1465.688,2704.00
1466.575,2653.00
1467.463,3073.00
1468.351,2513.00
1469.238,2646.00
1470.125,2249.00
1471.012,2718.00
1471.899,2731.00
1472.785,2454.00
1473.672,2664.00
1474.558,2858.00
1475.446,2797.00
1476.333,2871.00
1477.219,2473.00
1478.105,2616.00
1478.991,2661.00
1479.877,2990.00
1480.762,2655.00
1481.648,2511.00
1482.534,2817.00
1483.419,2710.00
1484.307,2760.00
1485.192,2622.00
1486.077,2507.00
1486.962,2530.00
1487.847,2393.00
1488.732,2501.00
1489.617,2644.00
1490.502,2915.00
1491.387,2780.00
1492.271,2478.00
1493.156,2486.00
1494.042,2468.00
1494.927,2851.00
1495.811,2541.00
1496.695,2825.00
1497.579,2945.00
1498.463,2633.00
1499.347,2711.00
1500.231,2686.00
1501.114,2719.00
1501.998,2894.00
1502.881,2714.00
1503.765,2907.00
1504.648,3088.00
1505.533,2755.00
1506.417,2656.00
1507.300,2633.00
1508.183,2735.00
1509.066,2149.00
1509.948,2903.00
1510.831,2977.00
1511.714,2458.00
1512.596,2803.00
1513.479,2894.00
1514.361,2835.00
1515.243,2674.00
1516.125,2821.00
1517.008,2911.00
1517.890,2636.00
1518.771,2675.00
1519.655,2861.00
1520.537,2582.00
1521.419,2483.00
1522.300,2676.00
1523.182,2790.00
1524.063,2750.00
1524.944,2961.00
1525.825,2854.00
1526.707,2477.00
1527.588,2477.00
1528.468,2785.00
1529.349,2319.00
1530.230,2609.00
1531.111,2847.00
1531.991,2715.00
1532.872,2383.00
1533.752,2658.00
1534.632,2559.00
1535.513,2506.00
1536.393,2814.00
1537.273,2958.00
1538.153,3256.00
1539.032,2430.00
1539.912,2661.00
1540.792,2672.00
1541.672,2692.00
1542.551,2784.00
1543.430,3236.00
1544.310,2703.00
1545.189,2593.00
1546.068,3077.00
1546.947,2773.00
1547.826,3192.00
1548.705,3151.00
1549.584,2971.00
1550.462,2638.00
1551.341,2831.00
1552.219,2741.00
1553.098,2834.00
1553.976,2887.00
1554.854,3061.00
1555.733,2835.00
1556.611,2603.00
1557.489,2464.00
1558.367,2682.00
1559.244,2822.00
1560.122,2663.00
1561.000,2731.00
1561.877,2976.00
1562.755,2532.00
1563.632,2616.00
1564.509,2919.00
1565.386,3015.00
1566.264,2440.00
1567.141,2281.00
1568.017,2797.00
1568.894,2682.00
1569.771,2742.00
1570.648,2801.00
1571.524,2718.00
1572.401,2455.00
1573.277,2429.00
1574.153,2720.00
1575.029,2578.00
1575.906,3381.00
1576.781,2834.00
1577.657,2634.00
1578.533,2909.00
1579.409,2289.00
1580.285,2615.00
1581.160,3084.00
1582.036,2845.00
1582.911,2519.00
1583.786,3003.00
1584.662,2458.00
1585.537,2604.00
1586.412,2739.00
1587.287,2526.00
1588.160,2867.00
1589.035,2341.00
1589.909,2700.00
1590.784,2646.00
1591.658,2464.00
1592.533,2702.00
1593.407,2719.00
1594.281,2576.00
1595.155,3060.00
1596.029,2592.00
1596.903,2633.00
1597.777,2554.00
1598.651,2901.00
1599.525,2380.00
1600.398,2696.00
1601.272,2647.00
1602.144,3196.00
1603.017,2611.00
1603.890,2953.00
1604.763,2736.00
1605.636,2791.00
1606.509,2396.00
1607.382,2519.00
1608.255,2767.00
1609.128,2877.00
1610.000,2623.00
1610.873,2409.00
1611.746,2562.00
1612.616,2614.00
1613.488,2254.00
1614.361,2699.00
1615.233,2626.00
1616.105,2865.00
1616.977,2596.00
1617.849,2517.00
1618.720,2991.00
1619.592,2965.00
1620.464,2739.00
1621.333,3116.00
1622.205,2690.00
1623.076,2691.00
1623.947,2675.00
1624.818,2942.00
1625.689,2769.00
1626.560,2576.00
1627.431,2710.00
1628.302,3086.00
1629.171,2812.00
1630.042,2998.00
1630.912,3308.00
1631.782,3268.00
1632.653,2468.00
1633.523,2825.00
1634.393,2953.00
1635.263,2565.00
1636.131,2645.00
1637.001,2620.00
1637.871,2315.00
1638.741,2314.00
1639.611,2418.00
1640.480,2799.00
1641.350,2568.00
1642.219,2498.00
1643.087,2164.00
1643.956,3061.00
1644.825,2918.00
1645.694,2848.00
1646.563,2860.00
1647.432,2716.00
1648.299,2747.00
1649.167,2785.00
1650.036,2493.00
1650.904,2820.00
1651.773,2888.00
1652.641,2706.00
1653.509,2891.00
1654.376,2555.00
1655.244,2680.00
1656.112,2721.00
1656.980,2661.00
1657.847,2526.00
1658.715,2886.00
1659.581,2585.00
1660.448,2935.00
1661.316,2243.00
1662.183,2701.00
1663.051,2760.00
1663.918,2714.00
1664.783,2674.00
1665.650,2778.00
1666.517,2839.00
1667.384,2733.00
1668.251,2717.00
1669.115,2888.00
1669.982,2629.00
1670.849,2927.00
1671.715,2666.00
1672.581,2814.00
1673.446,2828.00
1674.312,2695.00
1675.178,3098.00
1676.044,2764.00
1676.910,2756.00
1677.774,2720.00
1678.639,2338.00
1679.505,2665.00
1680.370,2833.00
1681.236,3340.00
1682.099,2629.00
1682.965,2729.00
1683.830,2314.00
1684.695,2494.00
1685.560,2640.00
1686.423,2819.00
1687.288,2803.00
1688.153,2728.00
1689.017,2593.00
1689.880,2781.00
1690.745,2827.00
1691.609,2515.00
1692.473,2885.00
1693.338,2910.00
1694.200,2950.00
1695.064,2710.00
1695.928,2606.00
1696.792,2711.00
1697.654,3157.00
1698.517,2705.00
1699.381,2432.00
1700.245,2312.00
1701.106,2931.00
1701.969,2574.00
1702.833,2847.00
1703.696,2629.00
1704.557,2676.00
1705.420,2502.00
1706.283,2692.00
1707.146,2823.00
1708.007,2522.00
1708.870,2492.00
1709.732,2416.00
1710.595,2572.00
1711.455,2458.00
1712.318,2628.00
1713.180,2980.00
1714.040,2748.00
1714.902,2885.00
1715.764,2721.00
1716.626,2493.00
1717.486,2660.00
1718.348,2953.00
1719.209,4863.00
1720.071,2366.00
1720.930,2434.00
1721.792,2560.00
1722.653,2550.00
1723.512,2547.00
1724.374,2640.00
1725.234,2764.00
1726.095,2712.00
1726.954,2697.00
1727.815,2839.00
1728.676,2688.00
1729.535,2908.00
1730.395,2640.00
1731.256,2631.00
1732.114,2759.00
1732.974,2169.00
1733.834,3072.00
1734.693,2876.00
1735.553,2706.00
1736.413,3070.00
1737.272,2602.00
1738.130,2620.00
1738.990,2769.00
1739.849,2604.00
1740.707,3672.00
1741.566,2736.00
1742.426,2757.00
1743.283,3135.00
1744.142,2597.00
1745.001,2357.00
1745.858,2836.00
1746.717,2762.00
1747.576,2782.00
1748.433,2862.00
1749.292,3266.00
1750.150,3325.00
1751.007,2905.00
1751.865,2905.00
1752.723,2701.00
1753.579,2633.00
1754.438,2923.00
1755.296,2902.00
1756.152,2242.00
1757.010,2374.00
1757.865,2923.00
1758.723,2359.00
1759.581,3041.00
1760.436,2673.00
1761.294,3044.00
1762.151,2690.00
1763.006,2638.00
1763.864,2350.00
1764.721,2902.00
1765.576,2748.00
1766.433,2868.00
1767.288,2589.00
1768.144,2773.00
1769.001,2629.00
1769.856,2776.00
1770.712,2888.00
1771.568,2483.00
1772.423,2614.00
1773.279,2594.00
1774.133,2629.00
1774.989,3072.00
1775.845,3098.00
1776.699,2932.00
1777.555,2677.00
1778.409,3219.00
1779.265,2652.00
1780.120,2649.00
1780.974,2681.00
1781.829,2306.00
1782.682,2758.00
1783.538,2536.00
1784.393,2751.00
1785.246,2651.00
1786.101,2801.00
1786.954,2832.00
1787.808,2904.00
1788.661,2435.00
1789.516,2578.00
1790.370,2650.00
1791.223,2896.00
1792.077,2697.00
1792.930,2774.00
1793.784,2573.00
1794.636,2736.00
1795.490,2656.00
1796.344,2714.00
1797.196,2685.00
1798.049,2891.00
1798.901,2628.00
1799.755,2941.00
1800.606,2528.00
1801.460,3206.00
1802.311,3035.00
1803.165,3161.00
1804.018,3035.00
1804.869,2788.00
1805.722,3145.00
1806.573,2759.00
1807.426,2550.00
1808.276,2718.00
1809.129,2624.00
1809.980,2958.00
1810.832,3003.00
1811.683,2629.00
1812.535,3029.00
1813.385,2645.00
1814.237,2996.00
1815.089,2771.00
1815.940,2966.00
1816.791,2663.00
1817.641,2570.00
1818.493,2896.00
1819.343,2767.00
1820.194,2581.00
1821.044,2846.00
1821.895,2912.00
1822.745,2420.00
1823.596,2614.00
1824.445,3166.00
1825.296,2828.00
1826.145,2669.00
1826.996,2924.00
1827.845,2756.00
1828.695,2732.00
1829.544,2725.00
1830.395,2747.00
1831.243,2633.00
1832.094,2449.00
1832.942,3297.00
1833.792,2819.00
1834.640,2779.00
1835.490,2714.00
1836.338,2755.00
1837.186,2562.00
1838.036,2586.00
1838.884,2710.00
1839.733,3009.00
1840.581,2878.00
1841.430,2856.00
1842.278,3068.00
1843.127,2617.00
1843.974,2387.00
1844.823,3137.00
1845.671,2884.00
1846.519,2748.00
1847.366,2779.00
1848.213,2363.00
1849.062,2539.00
1849.909,2472.00
1850.757,3425.00
1851.604,2855.00
1852.452,2630.00
1853.298,2903.00
1854.146,2733.00
1854.993,2758.00
1855.839,3231.00
1856.687,2824.00
1857.532,2830.00
1858.380,2706.00
1859.226,2765.00
1860.073,2855.00
1860.919,2540.00
1861.765,2588.00
1862.612,2960.00
1863.457,2943.00
1864.304,2666.00
1865.150,2868.00
1865.995,2677.00
1866.842,2849.00
1867.686,2975.00
1868.533,2769.00
1869.378,2765.00
1870.223,2751.00
1871.069,2646.00
1871.914,2747.00
1872.760,2751.00
1873.604,2523.00
1874.448,2851.00
1875.294,2909.00
1876.139,2586.00
1876.984,2839.00
1877.828,2366.00
1878.672,2239.00
1879.518,2582.00
1880.361,2940.00
1881.205,2895.00
1882.050,2505.00
1882.894,3235.00
1883.739,2600.00
1884.582,2493.00
1885.425,2542.00
1886.270,2991.00
1887.113,2487.00
1887.956,2824.00
1888.801,2807.00
1889.644,2521.00
1890.486,2330.00
1891.331,2639.00
1892.173,2776.00
1893.017,2818.00
1893.860,3015.00
1894.702,3020.00
1895.546,2742.00
1896.388,3425.00
1897.230,3069.00
1898.074,2606.00
1898.916,2516.00
1899.757,2517.00
1900.601,3399.00
1901.443,2991.00
1902.284,3041.00
1903.125,3185.00
1903.969,2935.00
1904.810,2962.00
1905.651,2819.00
1906.494,3082.00
1907.335,3190.00
1908.176,2839.00
1909.018,2849.00
1909.859,2714.00
1910.700,2617.00
1911.542,3276.00
1912.383,2834.00
1913.223,2346.00
1914.064,2885.00
1914.906,3046.00
1915.746,3069.00
1916.586,3176.00
1917.428,2684.00
1918.268,2783.00
1919.107,2629.00
1919.947,2495.00
1920.789,2649.00
1921.628,2965.00
1922.468,2743.00
1923.309,2611.00
1924.148,3031.00
1924.988,2823.00
1925.827,2734.00
1926.667,2635.00
1927.507,2762.00
1928.345,2579.00
1929.184,2927.00
1930.025,2568.00
1930.864,3022.00
1931.702,3053.00
1932.541,2679.00
1933.381,2839.00
1934.219,2884.00
1935.057,3029.00
1935.896,2474.00
1936.735,2694.00
1937.573,2614.00
1938.411,2541.00
1939.249,2954.00
1940.089,2624.00
1940.927,2969.00
1941.764,3040.00
1942.602,2666.00
1943.439,2649.00
1944.278,2688.00
1945.115,2654.00
1945.953,2481.00
1946.790,2841.00
1947.628,3058.00
1948.465,2888.00
1949.302,2925.00
1950.139,2874.00
1950.976,2635.00
1951.814,2888.00
1952.651,2828.00
1953.487,2583.00
1954.323,2992.00
1955.160,2751.00
1955.998,3089.00
1956.834,2757.00
1957.670,2794.00
1958.506,2968.00
1959.342,2827.00
1960.177,2767.00
1961.015,2891.00
1961.850,2773.00
1962.686,2824.00
1963.521,2818.00
1964.357,3011.00
1965.192,2567.00
1966.029,2895.00
1966.864,2689.00
1967.699,2969.00
1968.534,2802.00
1969.369,3018.00
1970.204,2727.00
1971.040,2807.00
1971.875,2714.00
1972.709,2816.00
1973.544,2588.00
1974.378,2630.00
1975.212,2835.00
1976.047,2636.00
1976.882,2616.00
1977.716,3161.00
1978.550,2461.00
1979.384,2687.00
1980.218,2741.00
1981.052,2653.00
1981.885,2787.00
1982.719,2731.00
1983.554,2918.00
1984.388,3090.00
1985.221,2835.00
1986.054,3006.00
1986.887,2814.00
1987.720,2601.00
1988.553,3040.00
1989.386,2831.00
1990.219,2864.00
1991.053,3028.00
1991.886,2667.00
1992.719,2953.00
1993.551,2307.00
1994.383,2924.00
1995.216,2692.00
1996.048,2495.00
1996.880,2931.00
1997.712,2623.00
1998.544,2765.00
1999.376,2809.00
2000.208,3043.00
2001.040,3191.00
2001.873,2579.00
2002.705,2571.00
2003.536,2811.00
2004.367,2818.00
2005.199,2842.00
2006.030,2627.00
2006.861,2571.00
2007.692,2783.00
2008.523,2613.00
2009.354,2792.00
2010.185,2575.00
2011.016,2918.00
2011.846,2967.00
2012.677,2699.00
2013.507,3080.00
2014.338,2979.00
2015.168,2692.00
2015.999,3271.00
2016.829,2691.00
2017.659,2960.00
2018.489,3311.00
2019.319,2581.00
2020.149,2934.00
2020.980,2851.00
2021.810,2529.00
2022.639,2654.00
2023.469,2655.00
2024.298,2453.00
2025.128,2371.00
2025.957,2394.00
2026.786,2209.00
2027.615,2415.00
2028.444,2626.00
2029.273,2727.00
2030.102,2432.00
2030.931,2622.00
2031.758,2906.00
2032.586,2544.00
2033.415,2610.00
2034.243,2233.00
2035.072,2028.00
2035.900,2513.00
2036.728,2345.00
2037.556,2336.00
2038.385,2382.00
2039.213,2217.00
2040.040,2182.00
2040.868,2175.00
2041.696,2233.00
2042.524,2260.00
2043.351,2438.00
2044.179,2221.00
2045.006,1994.00
