RamanScope Measure Spectrum Data V3.72

<< MEASURE CONDITION >>
Exposure Type,Aver
Exposure Time [sec],15
Exposure Count,4
Measure Time,2023/07/15 15:56:46
Data Name,""
Data Comment,""
Rayleigh Wave[nm],532.0

<< SAMPLE SPECTRUM >>
Wave[dcm-1],No159
146.591,1325.75
147.626,1560.00
148.664,1797.25
149.699,2036.25
150.737,2279.75
151.772,2575.25
152.809,2718.00
153.846,2950.00
154.881,3115.25
155.918,3320.75
156.953,3418.25
157.989,3570.25
159.026,3671.75
160.060,3682.75
161.096,3826.00
162.130,3908.50
163.167,3923.00
164.200,4045.00
165.236,4112.75
166.272,4167.50
167.305,4186.50
168.341,4247.25
169.374,4345.75
170.409,4332.00
171.445,4421.50
172.477,4515.50
173.512,4526.00
174.545,4578.75
175.580,4635.75
176.614,4656.25
177.647,4617.00
178.681,4668.75
179.713,4634.75
180.747,4618.75
181.781,4629.50
182.813,4556.50
183.847,4626.00
184.878,4589.75
185.912,4651.25
186.945,4597.50
187.976,4685.75
189.010,4749.75
190.043,4757.50
191.073,4782.00
192.106,4739.75
193.137,4842.00
194.170,4839.25
195.202,4848.50
196.232,4928.50
197.265,4975.25
198.297,5013.50
199.327,5078.00
200.359,5113.50
201.388,5102.25
202.420,5183.25
203.452,5238.50
204.481,5323.50
205.512,5322.50
206.544,5434.75
207.573,5495.00
208.604,5516.50
209.635,5631.75
210.663,5732.25
211.694,5727.25
212.725,5937.25
213.753,6051.50
214.783,6109.50
215.813,6156.75
216.841,6237.00
217.871,6283.25
218.899,6343.25
219.929,6438.25
220.959,6361.25
221.986,6319.75
223.016,6218.00
224.045,6247.75
225.072,6222.25
226.101,6044.50
227.130,5987.00
228.157,5915.50
229.185,5840.00
230.214,5798.50
231.241,5707.00
232.269,5676.25
233.297,5647.50
234.323,5762.50
235.351,5606.50
236.379,5597.75
237.407,5563.75
238.433,5521.75
239.460,5655.25
240.488,5608.25
241.513,5691.00
242.540,5735.75
243.568,5729.00
244.592,5861.25
245.619,5863.00
246.646,5853.25
247.671,5832.00
248.697,5804.50
249.724,5819.00
250.748,5778.25
251.774,5710.00
252.801,5669.50
253.827,5683.25
254.850,5727.50
255.876,5667.00
256.902,5700.75
257.925,5660.75
258.951,5742.00
259.976,5727.75
260.999,5676.75
262.024,5687.25
263.049,5668.00
264.074,5716.50
265.097,5730.00
266.122,5761.25
267.146,5769.00
268.168,5829.25
269.193,5859.25
270.217,5887.25
271.241,5911.25
272.263,5979.50
273.287,6000.75
274.311,6033.75
275.332,6119.00
276.356,6111.00
277.379,6112.75
278.402,6125.00
279.424,6143.25
280.447,6161.75
281.470,6149.50
282.492,6097.00
283.513,6045.50
284.536,6018.00
285.558,5994.75
286.581,5933.25
287.601,5832.25
288.623,5832.25
289.645,5741.75
290.665,5739.25
291.687,5596.00
292.709,5592.25
293.730,5509.00
294.750,5485.75
295.771,5444.00
296.792,5373.75
297.813,5340.25
298.832,5301.25
299.853,5246.50
300.874,5197.25
301.895,5145.25
302.913,5061.75
303.934,5053.75
304.954,4962.00
305.975,4960.00
306.993,4970.25
308.013,4888.00
309.033,4864.00
310.052,4789.25
311.072,4801.75
312.090,4732.75
313.109,4751.50
314.129,4636.50
315.148,4677.00
316.165,4639.25
317.184,4654.50
318.203,4622.25
319.222,4561.75
320.238,4531.25
321.257,4544.75
322.275,4522.00
323.294,4509.00
324.312,4489.00
325.328,4397.50
326.346,4468.75
327.364,4423.25
328.382,4391.75
329.397,4400.50
330.415,4386.25
331.432,4420.75
332.450,4395.25
333.467,4365.25
334.482,4365.25
335.499,4343.00
336.516,4290.50
337.533,4329.00
338.547,4309.00
339.564,4245.00
340.580,4228.50
341.597,4279.25
342.613,4236.50
343.627,4217.75
344.643,4151.50
345.659,4211.25
346.675,4181.50
347.690,4231.50
348.704,4179.75
349.719,4173.50
350.735,4223.00
351.750,4160.50
352.765,4140.25
353.778,4099.75
354.793,4074.50
355.808,4108.50
356.822,4050.50
357.837,4131.25
358.851,4070.75
359.864,4081.25
360.878,4053.25
361.892,4078.25
362.906,4075.75
363.920,4071.25
364.932,4069.25
365.945,4024.25
366.959,4077.00
367.972,4079.75
368.986,4082.00
369.999,4092.00
371.010,4007.00
372.023,4035.50
373.036,4050.00
374.049,4049.75
375.061,4036.00
376.072,4043.50
377.084,4093.25
378.097,4136.25
379.109,4098.75
380.121,4075.75
381.133,4056.25
382.143,4087.75
383.155,4133.00
384.166,4148.00
385.178,4050.00
386.189,4077.25
387.201,4131.75
388.212,4120.25
389.221,4139.50
390.232,4125.50
391.243,4103.00
392.254,4099.00
393.264,4110.75
394.275,4111.50
395.283,4086.50
396.294,4047.25
397.304,4076.50
398.314,4056.50
399.324,4016.50
400.334,4004.50
401.344,3966.00
402.351,3991.75
403.361,3994.75
404.370,3971.25
405.380,3942.50
406.389,3908.50
407.398,3907.50
408.407,3904.00
409.414,3879.00
410.423,3848.50
411.431,3857.25
412.440,3825.25
413.448,3875.25
414.457,3815.25
415.465,3800.25
416.471,3788.75
417.479,3750.25
418.487,3733.00
419.495,3771.75
420.503,3798.75
421.510,3718.75
422.518,3659.75
423.525,3734.25
424.530,3714.75
425.537,3724.75
426.544,3702.25
427.551,3725.00
428.558,3636.00
429.565,3683.00
430.571,3683.00
431.578,3620.00
432.582,3633.50
433.588,3679.50
434.595,3625.50
435.601,3675.50
436.607,3619.75
437.612,3628.25
438.618,3619.25
439.624,3622.50
440.627,3604.00
441.633,3582.50
442.638,3576.75
443.643,3584.00
444.648,3603.25
445.653,3652.50
446.658,3648.25
447.663,3614.00
448.667,3616.25
449.672,3640.00
450.674,3614.25
451.678,3640.50
452.682,3660.50
453.687,3600.75
454.690,3640.50
455.694,3621.50
456.698,3606.75
457.702,3638.00
458.705,3649.00
459.709,3648.25
460.710,3656.50
461.713,3617.25
462.716,3665.50
463.719,3642.75
464.722,3657.25
465.725,3611.50
466.727,3629.25
467.730,3674.50
468.732,3633.00
469.735,3614.00
470.737,3715.50
471.737,3646.25
472.739,3667.50
473.741,3647.25
474.742,3617.75
475.744,3672.75
476.746,3633.25
477.747,3706.25
478.748,3700.00
479.750,3624.75
480.751,3631.25
481.752,3690.75
482.753,3636.25
483.751,3647.75
484.752,3671.00
485.753,3651.75
486.753,3699.50
487.753,3696.00
488.754,3646.50
489.754,3673.75
490.754,3597.00
491.754,3679.25
492.754,3730.25
493.753,3630.00
494.753,3636.25
495.752,3662.25
496.752,3688.25
497.749,3682.25
498.748,3651.00
499.747,3628.00
500.746,3646.00
501.745,3675.25
502.744,3673.25
503.742,3664.00
504.741,3578.50
505.739,3605.50
506.737,3614.25
507.735,3594.75
508.734,3581.75
509.732,3569.75
510.729,3572.50
511.727,3571.25
512.725,3619.75
513.720,3575.00
514.718,3574.00
515.715,3531.75
516.712,3567.25
517.709,3554.25
518.706,3553.75
519.703,3575.50
520.700,3588.00
521.696,3501.00
522.693,3578.75
523.689,3606.00
524.686,3580.00
525.682,3593.25
526.678,3558.25
527.674,3556.25
528.670,3605.75
529.666,3590.75
530.661,3571.25
531.657,3746.50
532.652,3608.50
533.648,3672.50
534.641,3625.25
535.636,3574.00
536.631,3646.75
537.626,3658.50
538.621,3669.00
539.616,3632.25
540.610,3679.75
541.605,3675.25
542.599,3663.50
543.593,3700.50
544.587,3608.25
545.581,3643.00
546.575,3671.00
547.569,3679.50
548.563,3685.50
549.557,3698.00
550.550,3708.25
551.543,3652.25
552.537,3691.75
553.530,3668.50
554.523,3738.50
555.516,3674.00
556.509,3648.00
557.502,3689.00
558.494,3716.50
559.487,3645.25
560.479,3697.00
561.472,3647.75
562.464,3652.25
563.456,3661.00
564.448,3643.50
565.440,3629.50
566.432,3625.75
567.423,3689.00
568.415,3693.00
569.404,3685.50
570.396,3696.50
571.387,3719.00
572.378,3748.50
573.369,3666.50
574.360,3723.00
575.351,3674.25
576.341,3751.75
577.332,3692.25
578.323,3738.25
579.313,3754.25
580.303,3783.75
581.293,3702.75
582.283,3713.75
583.273,3776.75
584.263,3754.00
585.253,3777.25
586.243,3811.50
587.232,3805.25
588.222,3772.75
589.211,3771.00
590.200,3774.25
591.189,3869.00
592.178,3773.00
593.167,3757.75
594.156,3772.50
595.145,3819.00
596.133,3875.75
597.122,3828.50
598.110,3800.50
599.098,3784.25
600.086,3798.75
601.074,3803.75
602.062,3847.50
603.050,3788.00
604.038,3821.00
605.025,3793.25
606.013,3810.25
607.000,3837.25
607.987,3792.50
608.975,3807.75
609.962,3805.00
610.949,3809.00
611.936,3800.00
612.922,3790.75
613.909,3746.00
614.895,3754.25
615.882,3766.75
616.868,3779.50
617.854,3744.00
618.841,3702.75
619.826,3671.50
620.812,3680.75
621.798,3675.75
622.784,3629.00
623.769,3610.00
624.755,3615.50
625.740,3613.75
626.725,3622.00
627.711,3607.50
628.698,3589.25
629.683,3513.25
630.667,3515.25
631.652,3500.00
632.637,3490.25
633.621,3532.50
634.606,3508.00
635.590,3477.25
636.574,3464.50
637.558,3435.75
638.542,3433.75
639.526,3351.75
640.510,3380.00
641.493,3406.25
642.477,3378.25
643.460,3425.25
644.444,3383.25
645.427,3334.50
646.410,3292.00
647.393,3361.25
648.376,3387.00
649.359,3332.50
650.341,3294.50
651.324,3280.00
652.307,3272.00
653.289,3300.75
654.271,3272.25
655.253,3245.75
656.235,3250.75
657.217,3213.50
658.199,3296.25
659.181,3210.75
660.163,3191.25
661.144,3250.75
662.126,3203.50
663.107,3174.50
664.088,3200.00
665.069,3154.50
666.050,3184.75
667.033,3222.25
668.014,3160.25
668.995,3153.00
669.975,3131.25
670.956,3142.75
671.936,3095.75
672.916,3097.25
673.896,3108.25
674.876,3090.25
675.856,3080.25
676.836,3063.25
677.816,3012.50
678.795,3078.00
679.775,3038.00
680.754,3015.25
681.734,3003.00
682.713,2967.75
683.692,2985.50
684.671,2963.25
685.650,2975.50
686.629,2897.00
687.607,2898.75
688.586,2907.50
689.564,2922.50
690.543,2884.50
691.523,2840.25
692.501,2860.75
693.479,2856.50
694.457,2812.50
695.435,2785.50
696.413,2872.25
697.390,2808.25
698.368,2794.25
699.345,2824.50
700.322,2770.50
701.300,2773.50
702.277,2757.00
703.254,2800.50
704.231,2719.50
705.207,2763.75
706.184,2724.50
707.161,2737.25
708.137,2699.75
709.113,2728.25
710.090,2694.25
711.068,2712.25
712.044,2676.00
713.020,2696.25
713.996,2670.75
714.971,2747.00
715.947,2725.50
716.922,2679.50
717.898,2642.00
718.873,2643.00
719.848,2671.50
720.823,2657.25
721.798,2734.25
722.773,2641.75
723.748,2676.25
724.723,2673.25
725.697,2624.75
726.672,2636.75
727.646,2664.25
728.622,2619.25
729.596,2651.00
730.570,2576.75
731.544,2624.00
732.518,2629.25
733.492,2638.00
734.466,2627.25
735.439,2611.00
736.413,2573.50
737.386,2562.50
738.359,2636.75
739.332,2637.00
740.305,2660.00
741.278,2647.25
742.251,2603.00
743.224,2661.00
744.196,2610.25
745.171,2628.75
746.143,2574.25
747.115,2599.50
748.087,2579.50
749.059,2639.50
750.031,2647.25
751.003,2603.25
751.975,2642.25
752.947,2570.50
753.918,2618.25
754.890,2635.00
755.861,2615.00
756.832,2612.00
757.803,2589.50
758.774,2616.75
759.747,2614.50
760.718,2585.00
761.689,2597.75
762.659,2595.25
763.630,2611.00
764.600,2600.75
765.570,2566.50
766.540,2598.00
767.510,2558.25
768.480,2626.75
769.450,2644.25
770.420,2611.50
771.390,2633.25
772.359,2598.75
773.329,2590.00
774.300,2563.50
775.269,2542.50
776.238,2592.25
777.207,2543.00
778.176,2553.75
779.145,2546.75
780.114,2552.50
781.083,2502.25
782.051,2516.75
783.019,2522.25
783.988,2514.25
784.956,2484.25
785.924,2490.00
786.894,2504.00
787.862,2482.25
788.830,2532.25
789.797,2485.50
790.765,2409.75
791.732,2472.50
792.700,2463.75
793.667,2428.00
794.634,2401.00
795.601,2374.00
796.568,2411.25
797.535,2390.00
798.502,2350.50
799.468,2404.75
800.437,2371.25
801.403,2327.00
802.370,2306.50
803.336,2254.00
804.302,2332.50
805.268,2271.75
806.234,2271.25
807.200,2205.75
808.166,2229.50
809.131,2193.00
810.097,2192.25
811.062,2162.00
812.027,2189.25
812.994,2168.50
813.960,2191.50
814.925,2167.00
815.889,2165.50
816.854,2118.25
817.819,2072.00
818.783,2094.50
819.748,2094.25
820.712,2112.25
821.677,2094.00
822.641,2053.25
823.605,2022.50
824.571,2016.25
825.534,2040.75
826.498,2006.00
827.462,1998.75
828.425,2010.25
829.389,2044.25
830.352,1974.50
831.315,1988.50
832.279,1948.75
833.242,1957.50
834.204,1989.25
835.167,1979.75
836.132,1974.75
837.095,2003.75
838.057,1951.75
839.020,1940.25
839.982,2001.75
840.944,1964.00
841.906,1958.25
842.868,1972.75
843.830,1914.75
844.792,1911.00
845.753,1927.25
846.715,1945.50
847.679,1921.50
848.640,1880.00
849.601,1903.25
850.562,1860.50
851.523,1909.75
852.484,1899.00
853.445,1919.25
854.406,1880.25
855.367,1902.50
856.327,1927.00
857.288,1904.75
858.248,1924.25
859.210,1874.75
860.170,1907.00
861.130,1901.50
862.090,1904.00
863.050,1884.25
864.010,1889.25
864.969,1868.00
865.929,1869.00
866.888,1882.00
867.848,1936.25
868.807,1879.00
869.766,1890.75
870.727,1892.75
871.686,1854.50
872.645,1826.75
873.604,1883.50
874.562,1845.00
875.521,1863.00
876.479,1855.50
877.437,1818.25
878.396,1902.25
879.354,1889.50
880.312,1890.25
881.270,1866.50
882.229,1827.75
883.187,1893.50
884.145,1887.50
885.102,1897.25
886.059,1851.50
887.017,1845.75
887.974,1852.50
888.931,1848.50
889.888,1843.75
890.845,1823.50
891.802,1844.25
892.758,1822.75
893.717,1849.75
894.673,1866.00
895.630,1801.25
896.586,1813.00
897.542,1860.00
898.498,1867.75
899.454,1872.50
900.410,1801.00
901.366,1857.50
902.321,2917.75
903.277,1828.00
904.232,1848.25
905.189,1850.75
906.145,1848.75
907.100,1824.75
908.055,1850.75
909.010,1817.00
909.965,1863.75
910.919,1801.00
911.874,1833.00
912.828,1863.25
913.783,1848.75
914.737,1797.00
915.693,1821.50
916.648,1872.50
917.602,1865.25
918.555,1805.00
919.509,1871.75
920.463,1847.75
921.417,1839.50
922.370,1817.00
923.324,1848.75
924.277,1847.50
925.230,1826.50
926.183,1859.50
927.138,1853.50
928.091,1850.75
929.044,1853.75
929.996,1836.75
930.949,1873.00
931.902,1835.00
932.854,1914.75
933.806,1825.75
934.758,1872.00
935.711,1897.75
936.663,1824.50
937.614,1882.75
938.568,1864.75
939.520,1846.50
940.471,1854.25
941.423,1877.50
942.374,1851.50
943.326,1851.50
944.277,1847.25
945.228,1828.00
946.179,1834.50
947.130,1820.50
948.080,1816.50
949.031,1799.00
949.984,1825.00
950.934,1829.50
951.884,1859.25
952.835,1816.25
953.785,1780.75
954.735,1797.25
955.685,1831.25
956.635,1842.00
957.585,1796.00
958.534,1802.25
959.484,1778.75
960.433,1730.00
961.383,1797.00
962.334,1733.50
963.283,1738.50
964.232,1779.75
965.181,1751.50
966.130,1741.00
967.079,1717.25
968.027,1797.75
968.976,1688.00
969.924,1770.75
970.873,1702.25
971.821,1763.50
972.769,1690.75
973.719,1739.75
974.667,1740.00
975.615,1736.00
976.562,1745.00
977.510,1733.25
978.458,1735.75
979.405,1696.75
980.352,1706.75
981.300,1746.25
982.247,1731.00
983.194,1716.00
984.141,1737.25
985.088,1713.00
986.036,1704.50
986.983,1736.25
987.930,1703.25
988.876,1677.00
989.822,1703.75
990.769,1678.50
991.715,1676.25
992.661,1698.75
993.607,1675.75
994.553,1677.50
995.498,1706.25
996.444,1660.50
997.389,1666.75
998.337,1648.25
999.282,1667.50
1000.227,1658.25
1001.173,1654.50
1002.118,1720.25
1003.062,1671.50
1004.007,1702.75
1004.952,1637.50
1005.897,1630.50
1006.841,1658.25
1007.786,1638.25
1008.730,1704.50
1009.674,1661.25
1010.618,1682.00
1011.564,1687.25
1012.508,1659.25
1013.452,1642.75
1014.396,1678.25
1015.339,1654.50
1016.283,1666.00
1017.226,1654.50
1018.170,1695.00
1019.113,1668.25
1020.056,1672.00
1020.999,1687.75
1021.942,1652.50
1022.885,1669.50
1023.828,1639.00
1024.770,1704.00
1025.715,1683.25
1026.657,1640.50
1027.600,1700.75
1028.542,1649.25
1029.484,1665.00
1030.426,1715.00
1031.368,1729.50
1032.310,1660.50
1033.251,1682.75
1034.193,1658.50
1035.135,1686.25
1036.076,1738.50
1037.017,1714.75
1037.959,1745.00
1038.900,1734.00
1039.843,1727.75
1040.784,1679.50
1041.725,1709.00
1042.665,1709.00
1043.606,1684.50
1044.547,1664.25
1045.487,1752.50
1046.427,1712.50
1047.368,1726.75
1048.308,1726.50
1049.248,1734.75
1050.188,1697.75
1051.128,1736.25
1052.067,1757.00
1053.007,1713.75
1053.947,1759.25
1054.886,1777.50
1055.827,1738.75
1056.766,1751.50
1057.706,1779.00
1058.645,1775.00
1059.584,1767.50
1060.522,1757.25
1061.461,1728.50
1062.400,1787.50
1063.338,1786.00
1064.277,1780.50
1065.215,1758.00
1066.154,1796.00
1067.092,1758.50
1068.030,1840.25
1068.968,1787.50
1069.906,1855.00
1070.843,1812.50
1071.781,1837.00
1072.720,1800.25
1073.658,1805.75
1074.595,1841.25
1075.533,1841.75
1076.470,1785.50
1077.407,1904.00
1078.344,1874.25
1079.281,1874.75
1080.217,1895.00
1081.154,1837.75
1082.091,1872.25
1083.027,1886.00
1083.964,1871.50
1084.900,1868.75
1085.836,1858.00
1086.772,1874.50
1087.708,1842.25
1088.644,1855.50
1089.580,1886.50
1090.515,1891.75
1091.451,1839.25
1092.388,1819.00
1093.324,1865.25
1094.259,1859.75
1095.194,1912.00
1096.129,1902.00
1097.064,1859.50
1097.999,1822.75
1098.934,1846.25
1099.869,1836.50
1100.803,1847.25
1101.738,1782.50
1102.672,1852.25
1103.607,1815.25
1104.541,1801.25
1105.475,1839.00
1106.409,1826.75
1107.343,1776.75
1108.277,1744.25
1109.210,1761.75
1110.144,1706.75
1111.078,1758.00
1112.011,1743.75
1112.944,1777.75
1113.878,1764.75
1114.811,1776.00
1115.744,1742.75
1116.678,1720.00
1117.611,1747.25
1118.544,1715.75
1119.477,1723.50
1120.409,1645.75
1121.342,1691.50
1122.274,1647.75
1123.206,1673.75
1124.138,1693.25
1125.070,1669.25
1126.002,1673.50
1126.934,1641.00
1127.866,1670.50
1128.798,1595.00
1129.729,1584.75
1130.661,1615.75
1131.592,1621.25
1132.523,1623.50
1133.454,1569.00
1134.385,1609.25
1135.317,1581.75
1136.247,1585.75
1137.178,1558.50
1138.109,1572.25
1139.039,1568.00
1139.970,1546.50
1140.900,1571.00
1141.831,1593.75
1142.761,1509.00
1143.691,1579.25
1144.621,1519.25
1145.551,1539.25
1146.480,1551.00
1147.410,1513.50
1148.340,1528.00
1149.269,1523.00
1150.199,1512.00
1151.128,1498.50
1152.057,1501.00
1152.979,1452.75
1153.898,1506.75
1154.819,1513.25
1155.739,1509.75
1156.658,1486.75
1157.579,1481.00
1158.498,1486.00
1159.419,1445.00
1160.338,1455.50
1161.256,1497.25
1162.177,1465.50
1163.095,1430.00
1164.016,1444.25
1164.934,1420.75
1165.852,1418.00
1166.772,1435.50
1167.690,1421.00
1168.610,1392.25
1169.528,1414.50
1170.446,1412.50
1171.365,1404.75
1172.283,1410.50
1173.202,1465.00
1174.120,1483.25
1175.037,1428.50
1175.956,1434.75
1176.873,1438.50
1177.792,1407.75
1178.709,1393.00
1179.626,1378.25
1180.544,1398.75
1181.461,1373.50
1182.379,1380.75
1183.296,1359.25
1184.212,1395.25
1185.130,1363.75
1186.046,1414.75
1186.962,1391.00
1187.880,1337.50
1188.796,1352.75
1189.714,1357.50
1190.629,1368.50
1191.545,1366.00
1192.462,1356.00
1193.378,1325.00
1194.295,1367.25
1195.210,1387.50
1196.125,1340.50
1197.042,1344.50
1197.957,1361.00
1198.872,1346.75
1199.788,1369.50
1200.703,1345.25
1201.619,1354.25
1202.534,1341.25
1203.448,1333.00
1204.364,1313.25
1205.278,1323.00
1206.192,1349.75
1207.108,1339.50
1208.022,1305.75
1208.938,1302.00
1209.851,1363.50
1210.765,1330.75
1211.680,1357.25
1212.594,1342.00
1213.507,1340.25
1214.422,1344.75
1215.335,1320.00
1216.248,1355.25
1217.163,1318.00
1218.076,1345.00
1218.990,1342.75
1219.903,1316.50
1220.816,1360.00
1221.730,1319.50
1222.642,1340.50
1223.554,1340.75
1224.469,1326.75
1225.380,1376.75
1226.292,1334.75
1227.206,1348.00
1228.118,1305.25
1229.032,1334.00
1229.943,1343.50
1230.855,1342.00
1231.768,1330.50
1232.679,1343.00
1233.590,1368.25
1234.503,1353.25
1235.414,1364.00
1236.325,1358.50
1237.238,1394.50
1238.149,1348.00
1239.059,1358.75
1239.972,1340.50
1240.882,1337.50
1241.793,1337.00
1242.705,1371.50
1243.615,1340.00
1244.525,1364.50
1245.437,1372.00
1246.347,1349.75
1247.259,1340.25
1248.168,1398.25
1249.078,1364.50
1249.989,1373.75
1250.899,1367.00
1251.808,1382.00
1252.719,1384.25
1253.628,1395.50
1254.537,1346.00
1255.448,1394.25
1256.357,1341.25
1257.266,1390.75
1258.176,1394.75
1259.085,1389.75
1259.993,1397.75
1260.904,1364.25
1261.812,1387.50
1262.720,1400.25
1263.630,1360.75
1264.538,1391.50
1265.446,1399.75
1266.356,1389.25
1267.263,1428.00
1268.171,1431.25
1269.080,1409.50
1269.988,1414.75
1270.895,1399.00
1271.804,1413.00
1272.711,1396.00
1273.619,1431.50
1274.527,1407.00
1275.434,1424.25
1276.341,1444.00
1277.248,1351.50
1278.156,1365.50
1279.063,1402.25
1279.969,1424.75
1280.877,1361.75
1281.783,1415.50
1282.690,1404.00
1283.598,1424.00
1284.503,1392.00
1285.409,1404.25
1286.317,1367.25
1287.223,1430.50
1288.128,1400.50
1289.036,1407.50
1289.941,1412.00
1290.846,1420.75
1291.751,1348.00
1292.658,1339.75
1293.563,1386.25
1294.468,1432.00
1295.375,1382.25
1296.280,1415.25
1297.184,1346.00
1298.091,1366.00
1298.995,1385.25
1299.900,1372.00
1300.806,1378.50
1301.710,1354.00
1302.614,1325.75
1303.518,1385.75
1304.424,1361.50
1305.327,1362.75
1306.231,1347.25
1307.137,1345.50
1308.040,1367.00
1308.943,1344.00
1309.847,1319.00
1310.752,1334.00
1311.655,1317.50
1312.558,1329.50
1313.463,1296.25
1314.366,1327.50
1315.269,1312.75
1316.171,1340.00
1317.076,1315.50
1317.978,1280.50
1318.881,1307.25
1319.785,1316.00
1320.687,1274.50
1321.589,1253.00
1322.491,1271.00
1323.395,1236.00
1324.297,1331.00
1325.198,1309.75
1326.102,1296.25
1327.004,1278.50
1327.905,1239.00
1328.806,1268.50
1329.709,1264.00
1330.611,1257.00
1331.512,1277.50
1332.413,1202.00
1333.316,1229.50
1334.216,1260.50
1335.117,1287.50
1336.020,1271.25
1336.920,1219.50
1337.821,1204.75
1338.721,1261.25
1339.623,1276.50
1340.523,1242.25
1341.423,1212.50
1342.323,1235.00
1343.225,1252.25
1344.125,1178.50
1345.025,1186.00
1345.924,1264.25
1346.826,1208.50
1347.725,1176.25
1348.624,1235.50
1349.524,1172.00
1350.425,1185.25
1351.324,1213.50
1352.223,1179.00
1353.121,1171.25
1354.022,1163.50
1354.921,1118.00
1355.819,1144.25
1356.718,1186.00
1357.618,1122.00
1358.516,1118.00
1359.415,1122.50
1360.313,1150.25
1361.213,1181.25
1362.111,1127.50
1363.008,1121.50
1363.906,1170.25
1364.806,1108.50
1365.703,1122.75
1366.601,1142.25
1367.498,1117.50
1368.397,1125.00
1369.295,1138.25
1370.192,1108.75
1371.089,1137.50
1371.987,1104.75
1372.884,1150.50
1373.781,1107.00
1374.678,1131.75
1375.574,1085.25
1376.473,1082.00
1377.369,1087.75
1378.265,1089.50
1379.161,1135.00
1380.059,1092.75
1380.955,1089.50
1381.851,1127.50
1382.747,1100.50
1383.643,1076.25
1384.540,1103.00
1385.436,1067.50
1386.331,1111.50
1387.227,1060.50
1388.124,1034.25
1389.019,1093.75
1389.914,1062.00
1390.809,1083.75
1391.704,1061.50
1392.601,1050.75
1393.495,1077.25
1394.390,1050.25
1395.285,1054.25
1396.179,1028.25
1397.075,1011.00
1397.969,1064.00
1398.864,1077.25
1399.758,1048.75
1400.652,1066.00
1401.547,1065.25
1402.441,1058.00
1403.335,1045.00
1404.229,1017.25
1405.122,1002.50
1406.017,1030.25
1406.911,1084.25
1407.804,1043.50
1408.697,1018.25
1409.590,1011.25
1410.485,1036.25
1411.378,1049.00
1412.271,1062.25
1413.163,1010.00
1414.056,1053.00
1414.949,1045.00
1415.843,1034.75
1416.735,1016.75
1417.627,1048.25
1418.520,1019.00
1419.412,1037.25
1420.306,993.25
1421.197,1034.75
1422.089,1005.00
1422.981,1024.25
1423.873,1038.00
1424.764,992.00
1425.657,1007.75
1426.549,1021.75
1427.440,1012.50
1428.331,1012.50
1429.222,1040.50
1430.113,992.00
1431.006,1018.25
1431.897,987.25
1432.787,994.25
1433.678,993.25
1434.568,1043.50
1435.459,997.25
1436.351,1019.25
1437.241,1040.00
1438.131,996.00
1439.021,1007.50
1439.911,983.25
1440.801,1021.00
1441.693,983.25
1442.583,951.50
1443.472,1018.25
1444.362,977.25
1445.251,1033.75
1446.140,993.25
1447.030,1011.25
1447.921,972.00
1448.810,1011.00
1449.699,955.25
1450.588,997.00
1451.476,972.00
1452.365,979.75
1453.254,968.25
1454.144,1000.25
1455.032,926.50
1455.921,1006.50
1456.809,1008.75
1457.697,981.25
1458.585,982.75
1459.473,979.25
1460.361,944.75
1461.251,969.25
1462.138,999.00
1463.026,1001.75
1463.913,943.00
1464.801,992.50
1465.688,990.00
1466.575,987.75
1467.463,1029.75
1468.351,1018.25
1469.238,957.50
1470.125,1004.75
1471.012,981.75
1471.899,950.75
1472.785,971.75
1473.672,1018.75
1474.558,948.00
1475.446,940.00
1476.333,953.50
1477.219,970.00
1478.105,954.00
1478.991,958.25
1479.877,932.75
1480.762,961.25
1481.648,905.50
1482.534,949.50
1483.419,959.00
1484.307,959.00
1485.192,940.25
1486.077,956.00
1486.962,1006.50
1487.847,921.75
1488.732,953.75
1489.617,979.25
1490.502,943.50
1491.387,991.25
1492.271,972.00
1493.156,966.75
1494.042,896.00
1494.927,944.75
1495.811,912.50
1496.695,953.50
1497.579,967.75
1498.463,942.00
1499.347,936.50
1500.231,1001.25
1501.114,933.75
1501.998,952.25
1502.881,957.50
1503.765,973.75
1504.648,988.25
1505.533,967.00
1506.417,972.25
1507.300,919.50
1508.183,957.00
1509.066,937.75
1509.948,941.25
1510.831,932.25
1511.714,922.00
1512.596,982.75
1513.479,936.50
1514.361,974.00
1515.243,917.00
1516.125,901.50
1517.008,924.25
1517.890,926.50
1518.771,900.50
1519.655,913.50
1520.537,935.50
1521.419,939.00
1522.300,974.75
1523.182,908.75
1524.063,919.25
1524.944,934.75
1525.825,917.00
1526.707,927.50
1527.588,949.75
1528.468,928.25
1529.349,923.00
1530.230,941.75
1531.111,947.50
1531.991,918.75
1532.872,920.00
1533.752,941.50
1534.632,918.50
1535.513,951.50
1536.393,981.00
1537.273,911.50
1538.153,931.50
1539.032,953.75
1539.912,972.00
1540.792,939.50
1541.672,894.25
1542.551,909.50
1543.430,897.00
1544.310,920.50
1545.189,945.75
1546.068,920.25
1546.947,941.25
1547.826,912.75
1548.705,901.25
1549.584,926.00
1550.462,918.00
1551.341,900.25
1552.219,888.75
1553.098,927.00
1553.976,934.50
1554.854,905.75
1555.733,872.00
1556.611,894.00
1557.489,922.75
1558.367,966.50
1559.244,922.00
1560.122,929.75
1561.000,939.25
1561.877,944.00
1562.755,845.75
1563.632,894.50
1564.509,893.00
1565.386,936.75
1566.264,881.50
1567.141,896.25
1568.017,948.50
1568.894,882.75
1569.771,901.00
1570.648,853.75
1571.524,905.25
1572.401,907.00
1573.277,882.50
1574.153,869.50
1575.029,854.00
1575.906,912.00
1576.781,925.75
1577.657,860.50
1578.533,883.00
1579.409,909.50
1580.285,895.00
1581.160,918.00
1582.036,877.75
1582.911,873.75
1583.786,913.00
1584.662,880.50
1585.537,851.75
1586.412,863.00
1587.287,870.25
1588.160,836.75
1589.035,859.25
1589.909,896.25
1590.784,888.50
1591.658,890.75
1592.533,845.00
1593.407,863.75
1594.281,899.75
1595.155,883.50
1596.029,877.75
1596.903,876.25
1597.777,856.50
1598.651,862.00
1599.525,871.75
1600.398,891.50
1601.272,880.00
1602.144,861.25
1603.017,849.50
1603.890,851.75
1604.763,869.50
1605.636,866.50
1606.509,859.75
1607.382,902.25
1608.255,892.00
1609.128,830.50
1610.000,858.50
1610.873,837.25
1611.746,850.75
1612.616,836.00
1613.488,825.50
1614.361,850.75
1615.233,855.25
1616.105,841.25
1616.977,848.25
1617.849,859.50
1618.720,817.00
1619.592,885.25
1620.464,831.50
1621.333,802.25
1622.205,839.75
1623.076,843.50
1623.947,852.00
1624.818,816.75
1625.689,820.25
1626.560,818.50
1627.431,839.25
1628.302,832.00
1629.171,842.75
1630.042,828.25
1630.912,783.50
1631.782,812.25
1632.653,862.00
1633.523,784.75
1634.393,795.75
1635.263,797.50
1636.131,799.00
1637.001,822.50
1637.871,807.75
1638.741,829.75
1639.611,838.50
1640.480,825.25
1641.350,797.50
1642.219,806.00
1643.087,781.00
1643.956,801.25
1644.825,870.50
1645.694,843.00
1646.563,791.50
1647.432,798.25
1648.299,790.50
1649.167,839.25
1650.036,830.75
1650.904,783.25
1651.773,772.00
1652.641,814.75
1653.509,766.00
1654.376,812.00
1655.244,825.00
1656.112,779.75
1656.980,809.50
1657.847,786.50
1658.715,831.75
1659.581,820.25
1660.448,756.25
1661.316,768.25
1662.183,790.50
1663.051,821.25
1663.918,781.25
1664.783,813.50
1665.650,777.00
1666.517,767.25
1667.384,799.50
1668.251,770.00
1669.115,786.50
1669.982,822.00
1670.849,781.75
1671.715,776.75
1672.581,801.75
1673.446,788.25
1674.312,767.50
1675.178,790.75
1676.044,793.75
1676.910,791.00
1677.774,799.00
1678.639,736.25
1679.505,782.50
1680.370,827.25
1681.236,748.50
1682.099,733.75
1682.965,814.50
1683.830,768.50
1684.695,759.00
1685.560,762.25
1686.423,773.00
1687.288,779.50
1688.153,763.00
1689.017,771.50
1689.880,785.00
1690.745,743.50
1691.609,782.50
1692.473,752.25
1693.338,755.75
1694.200,779.75
1695.064,752.00
1695.928,778.25
1696.792,751.00
1697.654,739.75
1698.517,806.75
1699.381,774.50
1700.245,717.50
1701.106,728.25
1701.969,763.75
1702.833,788.00
1703.696,750.50
1704.557,745.75
1705.420,753.00
1706.283,757.00
1707.146,753.50
1708.007,757.50
1708.870,744.50
1709.732,718.50
1710.595,778.50
1711.455,755.50
1712.318,729.00
1713.180,762.50
1714.040,736.75
1714.902,748.25
1715.764,787.25
1716.626,725.75
1717.486,723.50
1718.348,708.75
1719.209,714.50
1720.071,727.25
1720.930,758.75
1721.792,748.00
1722.653,705.00
1723.512,709.50
1724.374,732.00
1725.234,717.00
1726.095,755.75
1726.954,720.50
1727.815,746.00
1728.676,787.25
1729.535,711.50
1730.395,752.50
1731.256,733.75
1732.114,710.00
1732.974,752.00
1733.834,701.25
1734.693,734.50
1735.553,709.25
1736.413,699.50
1737.272,689.25
1738.130,730.00
1738.990,732.50
1739.849,712.00
1740.707,697.50
1741.566,717.25
1742.426,711.25
1743.283,725.50
1744.142,700.75
1745.001,719.75
1745.858,760.00
1746.717,646.25
1747.576,690.50
1748.433,739.00
1749.292,683.25
1750.150,690.75
1751.007,720.00
1751.865,733.25
1752.723,699.50
1753.579,703.00
1754.438,728.25
1755.296,696.25
1756.152,699.00
1757.010,659.50
1757.865,739.75
1758.723,684.25
1759.581,644.00
1760.436,689.25
1761.294,692.25
1762.151,670.00
1763.006,689.00
1763.864,674.50
1764.721,727.00
1765.576,694.75
1766.433,715.75
1767.288,676.50
1768.144,695.50
1769.001,693.25
1769.856,668.00
1770.712,657.75
1771.568,735.50
1772.423,709.50
1773.279,708.00
1774.133,726.50
1774.989,703.00
1775.845,640.75
1776.699,695.25
1777.555,657.00
1778.409,630.25
1779.265,676.00
1780.120,696.75
1780.974,666.75
1781.829,678.75
1782.682,670.00
1783.538,655.75
1784.393,655.75
1785.246,682.00
1786.101,708.25
1786.954,670.00
1787.808,670.25
1788.661,667.75
1789.516,675.50
1790.370,642.50
1791.223,656.25
1792.077,637.25
1792.930,666.00
1793.784,661.75
1794.636,652.75
1795.490,615.00
1796.344,651.25
1797.196,690.50
1798.049,648.75
1798.901,683.75
1799.755,670.75
1800.606,624.25
1801.460,687.00
1802.311,655.00
1803.165,690.50
1804.018,658.00
1804.869,663.75
1805.722,656.25
1806.573,711.50
1807.426,636.50
1808.276,639.25
1809.129,655.75
1809.980,635.25
1810.832,682.75
1811.683,666.75
1812.535,655.00
1813.385,672.50
1814.237,669.75
1815.089,630.75
1815.940,698.25
1816.791,669.25
1817.641,603.50
1818.493,663.25
1819.343,650.50
1820.194,637.25
1821.044,610.00
1821.895,640.75
1822.745,629.25
1823.596,622.50
1824.445,687.25
1825.296,658.75
1826.145,633.25
1826.996,647.00
1827.845,621.25
1828.695,617.75
1829.544,652.25
1830.395,620.50
1831.243,642.50
1832.094,629.00
1832.942,639.25
1833.792,578.00
1834.640,659.50
1835.490,625.50
1836.338,664.25
1837.186,595.75
1838.036,649.25
1838.884,623.25
1839.733,603.50
1840.581,589.75
1841.430,649.00
1842.278,593.50
1843.127,629.00
1843.974,569.25
1844.823,645.00
1845.671,617.25
1846.519,615.50
1847.366,683.75
1848.213,642.25
1849.062,656.75
1849.909,634.50
1850.757,625.00
1851.604,656.25
1852.452,614.00
1853.298,639.00
1854.146,649.50
1854.993,618.50
1855.839,626.50
1856.687,601.50
1857.532,605.75
1858.380,622.25
1859.226,617.25
1860.073,598.50
1860.919,605.75
1861.765,623.00
1862.612,632.00
1863.457,620.75
1864.304,586.50
1865.150,601.25
1865.995,638.25
1866.842,561.25
1867.686,612.25
1868.533,656.00
1869.378,618.00
1870.223,623.00
1871.069,604.50
1871.914,593.00
1872.760,604.75
1873.604,633.50
1874.448,621.50
1875.294,620.25
1876.139,613.50
1876.984,622.00
1877.828,632.25
1878.672,570.25
1879.518,621.25
1880.361,612.00
1881.205,569.75
1882.050,629.50
1882.894,605.00
1883.739,593.25
1884.582,615.25
1885.425,561.00
1886.270,605.50
1887.113,590.50
1887.956,578.75
1888.801,556.25
1889.644,612.50
1890.486,588.25
1891.331,588.25
1892.173,561.00
1893.017,619.75
1893.860,636.50
1894.702,596.50
1895.546,590.25
1896.388,602.25
1897.230,588.00
1898.074,629.25
1898.916,551.50
1899.757,598.75
1900.601,642.50
1901.443,568.50
1902.284,558.50
1903.125,554.00
1903.969,576.00
1904.810,583.25
1905.651,613.75
1906.494,648.00
1907.335,620.25
1908.176,596.75
1909.018,618.25
1909.859,600.50
1910.700,570.25
1911.542,577.00
1912.383,599.25
1913.223,576.25
1914.064,605.75
1914.906,631.75
1915.746,547.25
1916.586,558.00
1917.428,616.00
1918.268,569.25
1919.107,529.25
1919.947,594.00
1920.789,638.50
1921.628,570.25
1922.468,608.00
1923.309,574.00
1924.148,600.75
1924.988,578.50
1925.827,556.75
1926.667,599.50
1927.507,591.50
1928.345,555.00
1929.184,552.25
1930.025,559.25
1930.864,572.50
1931.702,599.50
1932.541,553.75
1933.381,571.25
1934.219,585.75
1935.057,529.50
1935.896,584.00
1936.735,580.00
1937.573,595.50
1938.411,614.00
1939.249,592.25
1940.089,562.75
1940.927,554.50
1941.764,576.25
1942.602,613.00
1943.439,563.00
1944.278,567.25
1945.115,553.25
1945.953,556.00
1946.790,543.50
1947.628,569.25
1948.465,561.00
1949.302,605.00
1950.139,602.50
1950.976,539.25
1951.814,578.00
1952.651,513.00
1953.487,585.50
1954.323,538.25
1955.160,561.75
1955.998,562.00
1956.834,571.75
1957.670,537.25
1958.506,544.50
1959.342,532.25
1960.177,589.50
1961.015,564.75
1961.850,545.75
1962.686,592.25
1963.521,539.25
1964.357,555.25
1965.192,571.50
1966.029,583.50
1966.864,568.25
1967.699,547.00
1968.534,536.25
1969.369,582.75
1970.204,522.50
1971.040,517.25
1971.875,581.50
1972.709,541.00
1973.544,531.25
1974.378,536.00
1975.212,573.25
1976.047,583.50
1976.882,563.00
1977.716,535.00
1978.550,535.25
1979.384,545.50
1980.218,558.75
1981.052,546.25
1981.885,541.25
1982.719,559.00
1983.554,580.50
1984.388,536.50
1985.221,571.25
1986.054,576.00
1986.887,565.00
1987.720,566.50
1988.553,585.50
1989.386,550.25
1990.219,553.25
1991.053,536.00
1991.886,560.50
1992.719,547.75
1993.551,531.00
1994.383,519.25
1995.216,560.75
1996.048,521.25
1996.880,498.25
1997.712,550.25
1998.544,513.75
1999.376,569.00
2000.208,501.75
2001.040,519.00
2001.873,518.25
2002.705,545.00
2003.536,532.50
2004.367,545.25
2005.199,532.50
2006.030,531.25
2006.861,517.25
2007.692,564.50
2008.523,574.25
2009.354,518.25
2010.185,569.25
2011.016,490.00
2011.846,513.25
2012.677,485.75
2013.507,498.25
2014.338,568.75
2015.168,522.50
2015.999,619.00
2016.829,569.00
2017.659,519.25
2018.489,568.75
2019.319,531.75
2020.149,559.75
2020.980,538.50
2021.810,523.25
2022.639,555.00
2023.469,554.00
2024.298,521.25
2025.128,519.25
2025.957,562.00
2026.786,522.00
2027.615,585.50
2028.444,506.00
2029.273,534.25
2030.102,569.25
2030.931,544.25
2031.758,535.25
2032.586,538.50
2033.415,555.00
2034.243,521.00
2035.072,542.25
2035.900,540.00
2036.728,569.50
2037.556,565.75
2038.385,522.25
2039.213,552.75
2040.040,569.50
2040.868,541.50
2041.696,541.25
2042.524,565.25
2043.351,553.50
2044.179,549.25
2045.006,540.50
2045.006,540.50

Max Intensity Wave.,219.929
Max Intensity Data,6438.25
Min Intensity Wave.,2012.677
Min Intensity Data,485.75
FWHM Wave.,385.673
FWHM Value,28.80
Pressure Wave.,685.293
Pressure Value [GPa],-23.29698
G/D Ratio,0.69650
G/D Gband Wave.,1558.363
G/D Gband Intensity,966.50
G/D Dband Wave.,1303.711
G/D Dband Intensity,1387.66

<< BACKGROUND SPECTRUM >>
Wave[dcm-1],No159
146.591,2294.00
147.626,2105.00
148.664,2075.00
149.699,2585.00
150.737,2287.00
151.772,2400.00
152.809,2458.00
153.846,2338.00
154.881,2458.00
155.918,1951.00
156.953,2337.00
157.989,2636.00
159.026,2500.00
160.060,2709.00
161.096,2891.00
162.130,2527.00
163.167,2629.00
164.200,2477.00
165.236,2650.00
166.272,2687.00
167.305,2315.00
168.341,2579.00
169.374,2807.00
170.409,2852.00
171.445,2759.00
172.477,2550.00
173.512,2430.00
174.545,2743.00
175.580,2872.00
176.614,3054.00
177.647,2880.00
178.681,3053.00
179.713,3395.00
180.747,2873.00
181.781,2753.00
182.813,3061.00
183.847,3126.00
184.878,2794.00
185.912,2983.00
186.945,3222.00
187.976,3122.00
189.010,2717.00
190.043,2856.00
191.073,2983.00
192.106,2789.00
193.137,3220.00
194.170,2615.00
195.202,2961.00
196.232,2719.00
197.265,3027.00
198.297,3120.00
199.327,2806.00
200.359,2983.00
201.388,3403.00
202.420,2955.00
203.452,3184.00
204.481,2717.00
205.512,3351.00
206.544,3138.00
207.573,3095.00
208.604,3453.00
209.635,3555.00
210.663,2966.00
211.694,3053.00
212.725,2838.00
213.753,2795.00
214.783,3459.00
215.813,3289.00
216.841,3051.00
217.871,3197.00
218.899,2962.00
219.929,3119.00
220.959,2927.00
221.986,3194.00
223.016,2819.00
224.045,3168.00
225.072,3135.00
226.101,3255.00
227.130,3296.00
228.157,2875.00
229.185,2368.00
230.214,3218.00
231.241,2871.00
232.269,2481.00
233.297,2722.00
234.323,3209.00
235.351,2857.00
236.379,3131.00
237.407,2811.00
238.433,2992.00
239.460,3139.00
240.488,3163.00
241.513,3222.00
242.540,3123.00
243.568,3261.00
244.592,3275.00
245.619,3235.00
246.646,2961.00
247.671,2990.00
248.697,2843.00
249.724,3030.00
250.748,3026.00
251.774,3031.00
252.801,3341.00
253.827,3174.00
254.850,3076.00
255.876,2776.00
256.902,3162.00
257.925,3022.00
258.951,2733.00
259.976,2816.00
260.999,3124.00
262.024,2853.00
263.049,3672.00
264.074,3187.00
265.097,3077.00
266.122,3148.00
267.146,3082.00
268.168,3261.00
269.193,2898.00
270.217,3278.00
271.241,2757.00
272.263,2872.00
273.287,3207.00
274.311,2829.00
275.332,3337.00
276.356,2922.00
277.379,3125.00
278.402,3187.00
279.424,3007.00
280.447,2926.00
281.470,2760.00
282.492,3126.00
283.513,2959.00
284.536,3230.00
285.558,3177.00
286.581,3152.00
287.601,2904.00
288.623,2838.00
289.645,3124.00
290.665,3134.00
291.687,3209.00
292.709,3157.00
293.730,3432.00
294.750,2924.00
295.771,2772.00
296.792,3090.00
297.813,2919.00
298.832,3060.00
299.853,2764.00
300.874,2997.00
301.895,3013.00
302.913,3014.00
303.934,3293.00
304.954,3081.00
305.975,3223.00
306.993,2770.00
308.013,3136.00
309.033,3019.00
310.052,2987.00
311.072,2922.00
312.090,3116.00
313.109,3300.00
314.129,3483.00
315.148,3019.00
316.165,3117.00
317.184,3301.00
318.203,2793.00
319.222,2786.00
320.238,3210.00
321.257,2862.00
322.275,2723.00
323.294,3022.00
324.312,3193.00
325.328,3360.00
326.346,3304.00
327.364,3299.00
328.382,3217.00
329.397,3158.00
330.415,3301.00
331.432,3237.00
332.450,3291.00
333.467,3482.00
334.482,2601.00
335.499,3391.00
336.516,2943.00
337.533,2594.00
338.547,2888.00
339.564,2879.00
340.580,3174.00
341.597,2994.00
342.613,3505.00
343.627,3044.00
344.643,3083.00
345.659,3148.00
346.675,3045.00
347.690,2907.00
348.704,3137.00
349.719,2915.00
350.735,2776.00
351.750,3198.00
352.765,3035.00
353.778,3050.00
354.793,3191.00
355.808,2861.00
356.822,3240.00
357.837,2683.00
358.851,3316.00
359.864,3002.00
360.878,2779.00
361.892,3000.00
362.906,3211.00
363.920,2632.00
364.932,3140.00
365.945,3150.00
366.959,3041.00
367.972,2982.00
368.986,2717.00
369.999,3397.00
371.010,2905.00
372.023,3419.00
373.036,3017.00
374.049,3455.00
375.061,3135.00
376.072,3054.00
377.084,2930.00
378.097,2715.00
379.109,3235.00
380.121,3034.00
381.133,2757.00
382.143,3208.00
383.155,2738.00
384.166,2910.00
385.178,3185.00
386.189,3262.00
387.201,2749.00
388.212,2965.00
389.221,2945.00
390.232,3038.00
391.243,2956.00
392.254,3075.00
393.264,2871.00
394.275,3266.00
395.283,3217.00
396.294,3689.00
397.304,3498.00
398.314,3159.00
399.324,3089.00
400.334,2686.00
401.344,3206.00
402.351,2704.00
403.361,3254.00
404.370,2986.00
405.380,2961.00
406.389,3400.00
407.398,3173.00
408.407,3156.00
409.414,3197.00
410.423,3359.00
411.431,2817.00
412.440,2707.00
413.448,3349.00
414.457,2919.00
415.465,2854.00
416.471,2910.00
417.479,3051.00
418.487,2886.00
419.495,3319.00
420.503,3109.00
421.510,2668.00
422.518,3218.00
423.525,3221.00
424.530,3430.00
425.537,2919.00
426.544,3268.00
427.551,2861.00
428.558,3630.00
429.565,3473.00
430.571,2899.00
431.578,2977.00
432.582,2923.00
433.588,2968.00
434.595,2651.00
435.601,3319.00
436.607,3310.00
437.612,2799.00
438.618,3389.00
439.624,2978.00
440.627,3010.00
441.633,3188.00
442.638,3654.00
443.643,3175.00
444.648,3080.00
445.653,3188.00
446.658,2908.00
447.663,3049.00
448.667,2910.00
449.672,2937.00
450.674,3009.00
451.678,2741.00
452.682,2915.00
453.687,2864.00
454.690,3659.00
455.694,3319.00
456.698,2618.00
457.702,2715.00
458.705,2824.00
459.709,2838.00
460.710,2923.00
461.713,3077.00
462.716,3082.00
463.719,3029.00
464.722,3224.00
465.725,3039.00
466.727,2882.00
467.730,3049.00
468.732,2807.00
469.735,3361.00
470.737,2946.00
471.737,2928.00
472.739,2943.00
473.741,2867.00
474.742,3130.00
475.744,3125.00
476.746,3097.00
477.747,2982.00
478.748,3166.00
479.750,2993.00
480.751,3074.00
481.752,3799.00
482.753,3161.00
483.751,3581.00
484.752,2630.00
485.753,3033.00
486.753,2883.00
487.753,3023.00
488.754,3463.00
489.754,2732.00
490.754,3387.00
491.754,3174.00
492.754,2706.00
493.753,3075.00
494.753,2948.00
495.752,3383.00
496.752,3072.00
497.749,3000.00
498.748,2887.00
499.747,3413.00
500.746,3146.00
501.745,2813.00
502.744,2780.00
503.742,3347.00
504.741,3003.00
505.739,2513.00
506.737,2935.00
507.735,3209.00
508.734,3447.00
509.732,3174.00
510.729,3383.00
511.727,2951.00
512.725,2954.00
513.720,2831.00
514.718,3300.00
515.715,2722.00
516.712,2670.00
517.709,3045.00
518.706,2942.00
519.703,3061.00
520.700,3237.00
521.696,3445.00
522.693,2950.00
523.689,2885.00
524.686,3211.00
525.682,2803.00
526.678,3531.00
527.674,2996.00
528.670,2643.00
529.666,3559.00
530.661,3530.00
531.657,3195.00
532.652,3221.00
533.648,3018.00
534.641,3270.00
535.636,3121.00
536.631,3142.00
537.626,3179.00
538.621,2781.00
539.616,2633.00
540.610,2562.00
541.605,3036.00
542.599,3111.00
543.593,3027.00
544.587,4006.00
545.581,2873.00
546.575,3069.00
547.569,3075.00
548.563,2703.00
549.557,2689.00
550.550,2771.00
551.543,2763.00
552.537,3166.00
553.530,2815.00
554.523,2787.00
555.516,3171.00
556.509,2987.00
557.502,2669.00
558.494,3218.00
559.487,2978.00
560.479,3203.00
561.472,3283.00
562.464,3142.00
563.456,3349.00
564.448,3005.00
565.440,3071.00
566.432,3442.00
567.423,2897.00
568.415,2919.00
569.404,3151.00
570.396,2847.00
571.387,3125.00
572.378,3003.00
573.369,4015.00
574.360,3751.00
575.351,3015.00
576.341,2847.00
577.332,2902.00
578.323,2683.00
579.313,2907.00
580.303,3262.00
581.293,3195.00
582.283,3013.00
583.273,3147.00
584.263,3050.00
585.253,3149.00
586.243,3167.00
587.232,2675.00
588.222,3007.00
589.211,3209.00
590.200,3099.00
591.189,2950.00
592.178,2999.00
593.167,3451.00
594.156,3330.00
595.145,2903.00
596.133,3437.00
597.122,3134.00
598.110,3235.00
599.098,3101.00
600.086,3058.00
601.074,3231.00
602.062,2872.00
603.050,2766.00
604.038,3123.00
605.025,2861.00
606.013,3254.00
607.000,3433.00
607.987,3057.00
608.975,3103.00
609.962,2807.00
610.949,3189.00
611.936,3303.00
612.922,3179.00
613.909,2763.00
614.895,3431.00
615.882,2846.00
616.868,3023.00
617.854,2787.00
618.841,3055.00
619.826,3135.00
620.812,3049.00
621.798,2842.00
622.784,3211.00
623.769,3143.00
624.755,2751.00
625.740,3079.00
626.725,2716.00
627.711,2878.00
628.698,3107.00
629.683,2854.00
630.667,3191.00
631.652,2785.00
632.637,3016.00
633.621,3171.00
634.606,2957.00
635.590,3138.00
636.574,2955.00
637.558,3097.00
638.542,3074.00
639.526,2883.00
640.510,2636.00
641.493,3082.00
642.477,3023.00
643.460,2684.00
644.444,3254.00
645.427,3313.00
646.410,2713.00
647.393,3002.00
648.376,3085.00
649.359,2909.00
650.341,3114.00
651.324,3118.00
652.307,3108.00
653.289,2970.00
654.271,2923.00
655.253,2936.00
656.235,3140.00
657.217,3320.00
658.199,2656.00
659.181,2778.00
660.163,3053.00
661.144,2868.00
662.126,2944.00
663.107,2848.00
664.088,4780.00
665.069,3291.00
666.050,2857.00
667.033,2708.00
668.014,3064.00
668.995,2600.00
669.975,3042.00
670.956,3022.00
671.936,3197.00
672.916,3008.00
673.896,3116.00
674.876,2952.00
675.856,2869.00
676.836,2783.00
677.816,2333.00
678.795,2853.00
679.775,2712.00
680.754,3038.00
681.734,3194.00
682.713,3211.00
683.692,2803.00
684.671,2648.00
685.650,2776.00
686.629,2932.00
687.607,2787.00
688.586,2803.00
689.564,2860.00
690.543,3309.00
691.523,2384.00
692.501,2851.00
693.479,2954.00
694.457,2833.00
695.435,2922.00
696.413,2680.00
697.390,2510.00
698.368,2729.00
699.345,3091.00
700.322,2960.00
701.300,3113.00
702.277,3073.00
703.254,3258.00
704.231,2598.00
705.207,2964.00
706.184,2835.00
707.161,2666.00
708.137,2900.00
709.113,2812.00
710.090,2853.00
711.068,2599.00
712.044,2656.00
713.020,2905.00
713.996,2652.00
714.971,2794.00
715.947,2842.00
716.922,2856.00
717.898,2787.00
718.873,2924.00
719.848,2725.00
720.823,2712.00
721.798,2961.00
722.773,2783.00
723.748,2532.00
724.723,3026.00
725.697,2861.00
726.672,2782.00
727.646,2503.00
728.622,3020.00
729.596,2609.00
730.570,2783.00
731.544,3101.00
732.518,3302.00
733.492,2832.00
734.466,2895.00
735.439,3046.00
736.413,3159.00
737.386,2517.00
738.359,2437.00
739.332,2562.00
740.305,2848.00
741.278,3334.00
742.251,2970.00
743.224,2763.00
744.196,2576.00
745.171,3149.00
746.143,3097.00
747.115,2824.00
748.087,2774.00
749.059,3112.00
750.031,2882.00
751.003,3739.00
751.975,3264.00
752.947,2757.00
753.918,3133.00
754.890,2604.00
755.861,2787.00
756.832,3076.00
757.803,2867.00
758.774,2855.00
759.747,2625.00
760.718,3239.00
761.689,2757.00
762.659,2619.00
763.630,3174.00
764.600,2566.00
765.570,3098.00
766.540,3139.00
767.510,3010.00
768.480,3053.00
769.450,2721.00
770.420,2824.00
771.390,2646.00
772.359,2768.00
773.329,2671.00
774.300,2543.00
775.269,2800.00
776.238,3004.00
777.207,3209.00
778.176,2538.00
779.145,2807.00
780.114,2693.00
781.083,2621.00
782.051,2759.00
783.019,2725.00
783.988,3115.00
784.956,2867.00
785.924,2987.00
786.894,2879.00
787.862,2746.00
788.830,3138.00
789.797,2630.00
790.765,2650.00
791.732,2767.00
792.700,2676.00
793.667,2616.00
794.634,2824.00
795.601,2773.00
796.568,2787.00
797.535,2844.00
798.502,3473.00
799.468,2912.00
800.437,2411.00
801.403,2679.00
802.370,3325.00
803.336,3031.00
804.302,2869.00
805.268,2487.00
806.234,2583.00
807.200,2807.00
808.166,2799.00
809.131,2591.00
810.097,3031.00
811.062,3691.00
812.027,3030.00
812.994,2610.00
813.960,2614.00
814.925,2951.00
815.889,2522.00
816.854,3041.00
817.819,2692.00
818.783,2741.00
819.748,3131.00
820.712,2744.00
821.677,2630.00
822.641,2725.00
823.605,2767.00
824.571,3174.00
825.534,2781.00
826.498,2693.00
827.462,2838.00
828.425,2663.00
829.389,3045.00
830.352,2870.00
831.315,2935.00
832.279,2533.00
833.242,2810.00
834.204,2667.00
835.167,2657.00
836.132,3075.00
837.095,2514.00
838.057,2704.00
839.020,2835.00
839.982,2831.00
840.944,2666.00
841.906,2648.00
842.868,2961.00
843.830,2586.00
844.792,3087.00
845.753,2708.00
846.715,2476.00
847.679,2623.00
848.640,2661.00
849.601,2774.00
850.562,3309.00
851.523,2756.00
852.484,2506.00
853.445,2995.00
854.406,2737.00
855.367,2766.00
856.327,3061.00
857.288,2528.00
858.248,2662.00
859.210,2723.00
860.170,2520.00
861.130,3027.00
862.090,2424.00
863.050,2628.00
864.010,2703.00
864.969,2933.00
865.929,2607.00
866.888,2533.00
867.848,2804.00
868.807,2667.00
869.766,2882.00
870.727,2747.00
871.686,3035.00
872.645,3060.00
873.604,3306.00
874.562,2793.00
875.521,2791.00
876.479,3403.00
877.437,2665.00
878.396,2585.00
879.354,3186.00
880.312,2615.00
881.270,2682.00
882.229,3151.00
883.187,2607.00
884.145,2665.00
885.102,2931.00
886.059,2852.00
887.017,2918.00
887.974,2971.00
888.931,3110.00
889.888,2530.00
890.845,2457.00
891.802,2361.00
892.758,2690.00
893.717,2464.00
894.673,2545.00
895.630,2662.00
896.586,2935.00
897.542,2696.00
898.498,2544.00
899.454,2847.00
900.410,2732.00
901.366,2666.00
902.321,2717.00
903.277,2705.00
904.232,2766.00
905.189,2504.00
906.145,2657.00
907.100,2242.00
908.055,2738.00
909.010,2953.00
909.965,2353.00
910.919,2843.00
911.874,2605.00
912.828,2784.00
913.783,2798.00
914.737,2395.00
915.693,2790.00
916.648,2875.00
917.602,2960.00
918.555,2828.00
919.509,2850.00
920.463,2792.00
921.417,2783.00
922.370,2581.00
923.324,2692.00
924.277,2704.00
925.230,2800.00
926.183,2402.00
927.138,2694.00
928.091,2965.00
929.044,2853.00
929.996,2648.00
930.949,2656.00
931.902,2872.00
932.854,2810.00
933.806,2626.00
934.758,2944.00
935.711,2988.00
936.663,2797.00
937.614,2801.00
938.568,2748.00
939.520,2412.00
940.471,2717.00
941.423,2771.00
942.374,2907.00
943.326,2760.00
944.277,2632.00
945.228,2863.00
946.179,2698.00
947.130,3083.00
948.080,2684.00
949.031,2593.00
949.984,2678.00
950.934,2713.00
951.884,2471.00
952.835,2728.00
953.785,2782.00
954.735,2596.00
955.685,2347.00
956.635,2611.00
957.585,2653.00
958.534,2640.00
959.484,2760.00
960.433,2659.00
961.383,2442.00
962.334,2995.00
963.283,2808.00
964.232,2876.00
965.181,2743.00
966.130,2800.00
967.079,2691.00
968.027,2708.00
968.976,2788.00
969.924,2618.00
970.873,2844.00
971.821,2755.00
972.769,2980.00
973.719,2861.00
974.667,2501.00
975.615,2736.00
976.562,2734.00
977.510,2448.00
978.458,2627.00
979.405,2862.00
980.352,2788.00
981.300,2965.00
982.247,2809.00
983.194,2547.00
984.141,2637.00
985.088,2744.00
986.036,2787.00
986.983,2978.00
987.930,3123.00
988.876,2387.00
989.822,2985.00
990.769,2579.00
991.715,2624.00
992.661,2434.00
993.607,2822.00
994.553,3307.00
995.498,2590.00
996.444,2321.00
997.389,2805.00
998.337,2568.00
999.282,2906.00
1000.227,2696.00
1001.173,2715.00
1002.118,2442.00
1003.062,2937.00
1004.007,2672.00
1004.952,3000.00
1005.897,2987.00
1006.841,2712.00
1007.786,2482.00
1008.730,2408.00
1009.674,3200.00
1010.618,2647.00
1011.564,2508.00
1012.508,2420.00
1013.452,2965.00
1014.396,2748.00
1015.339,2627.00
1016.283,2712.00
1017.226,2777.00
1018.170,2695.00
1019.113,2893.00
1020.056,2739.00
1020.999,2729.00
1021.942,2638.00
1022.885,2890.00
1023.828,3014.00
1024.770,2494.00
1025.715,2751.00
1026.657,2704.00
1027.600,2765.00
1028.542,2980.00
1029.484,2780.00
1030.426,2838.00
1031.368,2765.00
1032.310,2623.00
1033.251,2553.00
1034.193,2705.00
1035.135,2516.00
1036.076,2622.00
1037.017,2527.00
1037.959,2811.00
1038.900,2742.00
1039.843,2780.00
1040.784,2773.00
1041.725,2818.00
1042.665,2630.00
1043.606,2797.00
1044.547,2804.00
1045.487,2359.00
1046.427,2708.00
1047.368,2777.00
1048.308,2270.00
1049.248,2528.00
1050.188,2746.00
1051.128,2644.00
1052.067,2671.00
1053.007,2457.00
1053.947,2397.00
1054.886,2565.00
1055.827,2521.00
1056.766,2971.00
1057.706,2463.00
1058.645,2682.00
1059.584,2742.00
1060.522,2999.00
1061.461,2498.00
1062.400,2495.00
1063.338,2648.00
1064.277,2528.00
1065.215,2566.00
1066.154,2409.00
1067.092,2626.00
1068.030,2625.00
1068.968,2881.00
1069.906,2993.00
1070.843,2959.00
1071.781,2764.00
1072.720,2858.00
1073.658,2882.00
1074.595,2635.00
1075.533,2602.00
1076.470,2636.00
1077.407,2961.00
1078.344,2752.00
1079.281,2802.00
1080.217,2289.00
1081.154,2716.00
1082.091,2751.00
1083.027,2456.00
1083.964,2936.00
1084.900,2594.00
1085.836,2624.00
1086.772,2887.00
1087.708,2501.00
1088.644,2833.00
1089.580,2673.00
1090.515,2740.00
1091.451,2619.00
1092.388,2751.00
1093.324,2466.00
1094.259,3267.00
1095.194,2736.00
1096.129,2579.00
1097.064,2582.00
1097.999,2864.00
1098.934,2554.00
1099.869,2545.00
1100.803,2722.00
1101.738,2761.00
1102.672,2388.00
1103.607,2844.00
1104.541,2578.00
1105.475,2532.00
1106.409,2411.00
1107.343,2629.00
1108.277,2497.00
1109.210,2736.00
1110.144,2733.00
1111.078,2695.00
1112.011,2498.00
1112.944,2779.00
1113.878,2716.00
1114.811,2166.00
1115.744,2591.00
1116.678,2333.00
1117.611,2594.00
1118.544,2604.00
1119.477,2773.00
1120.409,2591.00
1121.342,3135.00
1122.274,2776.00
1123.206,2997.00
1124.138,2674.00
1125.070,2994.00
1126.002,2834.00
1126.934,2305.00
1127.866,2579.00
1128.798,2373.00
1129.729,2421.00
1130.661,2661.00
1131.592,2591.00
1132.523,2758.00
1133.454,2771.00
1134.385,2311.00
1135.317,2651.00
1136.247,2623.00
1137.178,2888.00
1138.109,2382.00
1139.039,3015.00
1139.970,2854.00
1140.900,2575.00
1141.831,2336.00
1142.761,2252.00
1143.691,2735.00
1144.621,2660.00
1145.551,2715.00
1146.480,2717.00
1147.410,2873.00
1148.340,2314.00
1149.269,2368.00
1150.199,2619.00
1151.128,3046.00
1152.057,2458.00
1152.979,2601.00
1153.898,2624.00
1154.819,2726.00
1155.739,2632.00
1156.658,2568.00
1157.579,2686.00
1158.498,2628.00
1159.419,2220.00
1160.338,2689.00
1161.256,2673.00
1162.177,2504.00
1163.095,2656.00
1164.016,2729.00
1164.934,2927.00
1165.852,2867.00
1166.772,2629.00
1167.690,2692.00
1168.610,2755.00
1169.528,2683.00
1170.446,2218.00
1171.365,2578.00
1172.283,2536.00
1173.202,2614.00
1174.120,2647.00
1175.037,2505.00
1175.956,2464.00
1176.873,2488.00
1177.792,2532.00
1178.709,3111.00
1179.626,2555.00
1180.544,2865.00
1181.461,2544.00
1182.379,2752.00
1183.296,2651.00
1184.212,2290.00
1185.130,2491.00
1186.046,2952.00
1186.962,2636.00
1187.880,2939.00
1188.796,2708.00
1189.714,2466.00
1190.629,2776.00
1191.545,2692.00
1192.462,2578.00
1193.378,2641.00
1194.295,2353.00
1195.210,2661.00
1196.125,2780.00
1197.042,2721.00
1197.957,2647.00
1198.872,2527.00
1199.788,2530.00
1200.703,2972.00
1201.619,2667.00
1202.534,2502.00
1203.448,2746.00
1204.364,2624.00
1205.278,2325.00
1206.192,2694.00
1207.108,3153.00
1208.022,3021.00
1208.938,2509.00
1209.851,2750.00
1210.765,2869.00
1211.680,2546.00
1212.594,2435.00
1213.507,2606.00
1214.422,3033.00
1215.335,2778.00
1216.248,2556.00
1217.163,2691.00
1218.076,3188.00
1218.990,2755.00
1219.903,2453.00
1220.816,2464.00
1221.730,2615.00
1222.642,2520.00
1223.554,2563.00
1224.469,2715.00
1225.380,2589.00
1226.292,2302.00
1227.206,2776.00
1228.118,2979.00
1229.032,2291.00
1229.943,2514.00
1230.855,2601.00
1231.768,2397.00
1232.679,2747.00
1233.590,2607.00
1234.503,2856.00
1235.414,2511.00
1236.325,2538.00
1237.238,2694.00
1238.149,2766.00
1239.059,2461.00
1239.972,2838.00
1240.882,2481.00
1241.793,2785.00
1242.705,2968.00
1243.615,2610.00
1244.525,2741.00
1245.437,2195.00
1246.347,2698.00
1247.259,2837.00
1248.168,3049.00
1249.078,2907.00
1249.989,2922.00
1250.899,2461.00
1251.808,2515.00
1252.719,2567.00
1253.628,2499.00
1254.537,3037.00
1255.448,2467.00
1256.357,2519.00
1257.266,2634.00
1258.176,2379.00
1259.085,2362.00
1259.993,2443.00
1260.904,2494.00
1261.812,2472.00
1262.720,3162.00
1263.630,2828.00
1264.538,2478.00
1265.446,2765.00
1266.356,2613.00
1267.263,2900.00
1268.171,2413.00
1269.080,2708.00
1269.988,2802.00
1270.895,2567.00
1271.804,2580.00
1272.711,2819.00
1273.619,2769.00
1274.527,2464.00
1275.434,2739.00
1276.341,2409.00
1277.248,2710.00
1278.156,2939.00
1279.063,2521.00
1279.969,2715.00
1280.877,3555.00
1281.783,2816.00
1282.690,2719.00
1283.598,2582.00
1284.503,2519.00
1285.409,2470.00
1286.317,3029.00
1287.223,3022.00
1288.128,2696.00
1289.036,2547.00
1289.941,2569.00
1290.846,2634.00
1291.751,2488.00
1292.658,2620.00
1293.563,3078.00
1294.468,2627.00
1295.375,2800.00
1296.280,2876.00
1297.184,3344.00
1298.091,2748.00
1298.995,2794.00
1299.900,3029.00
1300.806,2516.00
1301.710,2408.00
1302.614,2241.00
1303.518,2884.00
1304.424,2579.00
1305.327,2817.00
1306.231,2637.00
1307.137,2791.00
1308.040,2688.00
1308.943,2675.00
1309.847,2866.00
1310.752,2831.00
1311.655,2319.00
1312.558,2424.00
1313.463,2594.00
1314.366,2532.00
1315.269,2699.00
1316.171,2591.00
1317.076,2508.00
1317.978,2464.00
1318.881,2248.00
1319.785,2487.00
1320.687,2535.00
1321.589,2281.00
1322.491,2501.00
1323.395,2740.00
1324.297,3178.00
1325.198,2739.00
1326.102,2423.00
1327.004,2478.00
1327.905,3049.00
1328.806,2609.00
1329.709,2702.00
1330.611,2578.00
1331.512,2449.00
1332.413,3119.00
1333.316,2726.00
1334.216,2797.00
1335.117,2376.00
1336.020,2663.00
1336.920,2662.00
1337.821,2524.00
1338.721,2867.00
1339.623,2689.00
1340.523,2587.00
1341.423,2532.00
1342.323,2901.00
1343.225,2699.00
1344.125,2478.00
1345.025,2543.00
1345.924,2272.00
1346.826,2971.00
1347.725,3063.00
1348.624,2848.00
1349.524,2526.00
1350.425,2601.00
1351.324,2718.00
1352.223,2807.00
1353.121,2636.00
1354.022,2856.00
1354.921,3075.00
1355.819,2793.00
1356.718,2670.00
1357.618,2424.00
1358.516,2781.00
1359.415,3051.00
1360.313,2747.00
1361.213,2565.00
1362.111,2949.00
1363.008,3283.00
1363.906,2606.00
1364.806,2683.00
1365.703,2723.00
1366.601,2487.00
1367.498,2483.00
1368.397,2836.00
1369.295,2683.00
1370.192,2495.00
1371.089,2711.00
1371.987,2638.00
1372.884,2857.00
1373.781,2462.00
1374.678,2618.00
1375.574,2482.00
1376.473,2797.00
1377.369,2878.00
1378.265,2500.00
1379.161,2584.00
1380.059,2345.00
1380.955,2750.00
1381.851,2384.00
1382.747,2521.00
1383.643,2576.00
1384.540,2422.00
1385.436,2529.00
1386.331,2689.00
1387.227,2806.00
1388.124,2789.00
1389.019,2445.00
1389.914,2634.00
1390.809,2290.00
1391.704,3057.00
1392.601,2578.00
1393.495,2914.00
1394.390,2792.00
1395.285,2888.00
1396.179,2775.00
1397.075,2653.00
1397.969,2685.00
1398.864,2309.00
1399.758,2596.00
1400.652,2674.00
1401.547,2462.00
1402.441,2422.00
1403.335,3007.00
1404.229,2809.00
1405.122,2764.00
1406.017,2648.00
1406.911,2772.00
1407.804,3046.00
1408.697,2638.00
1409.590,2493.00
1410.485,2808.00
1411.378,2684.00
1412.271,2316.00
1413.163,2721.00
1414.056,2806.00
1414.949,3009.00
1415.843,2680.00
1416.735,2621.00
1417.627,2658.00
1418.520,2604.00
1419.412,2879.00
1420.306,2824.00
1421.197,2910.00
1422.089,2888.00
1422.981,3129.00
1423.873,2795.00
1424.764,2781.00
1425.657,2693.00
1426.549,2773.00
1427.440,2846.00
1428.331,2550.00
1429.222,2322.00
1430.113,2715.00
1431.006,2831.00
1431.897,2572.00
1432.787,2676.00
1433.678,2600.00
1434.568,2451.00
1435.459,2882.00
1436.351,2817.00
1437.241,2765.00
1438.131,2801.00
1439.021,2399.00
1439.911,2632.00
1440.801,2706.00
1441.693,2891.00
1442.583,2727.00
1443.472,2639.00
1444.362,2784.00
1445.251,2585.00
1446.140,2599.00
1447.030,2826.00
1447.921,2871.00
1448.810,2469.00
1449.699,3031.00
1450.588,2698.00
1451.476,2576.00
1452.365,2755.00
1453.254,2578.00
1454.144,2527.00
1455.032,2840.00
1455.921,2385.00
1456.809,2927.00
1457.697,2489.00
1458.585,2611.00
1459.473,2629.00
1460.361,2531.00
1461.251,2731.00
1462.138,2730.00
1463.026,2610.00
1463.913,2903.00
1464.801,2574.00
1465.688,2758.00
1466.575,2672.00
1467.463,3096.00
1468.351,2498.00
1469.238,2649.00
1470.125,2260.00
1471.012,2708.00
1471.899,2761.00
1472.785,2501.00
1473.672,2631.00
1474.558,2885.00
1475.446,2852.00
1476.333,2847.00
1477.219,2474.00
1478.105,2658.00
1478.991,2647.00
1479.877,2960.00
1480.762,2658.00
1481.648,2585.00
1482.534,2820.00
1483.419,2734.00
1484.307,2804.00
1485.192,2653.00
1486.077,2522.00
1486.962,2513.00
1487.847,2448.00
1488.732,2517.00
1489.617,2658.00
1490.502,2945.00
1491.387,2779.00
1492.271,2485.00
1493.156,2514.00
1494.042,2521.00
1494.927,2879.00
1495.811,2590.00
1496.695,2823.00
1497.579,2944.00
1498.463,2686.00
1499.347,2722.00
1500.231,2653.00
1501.114,2766.00
1501.998,2937.00
1502.881,2704.00
1503.765,2940.00
1504.648,3042.00
1505.533,2781.00
1506.417,2663.00
1507.300,2656.00
1508.183,2740.00
1509.066,2189.00
1509.948,2947.00
1510.831,3030.00
1511.714,2512.00
1512.596,2793.00
1513.479,2910.00
1514.361,2854.00
1515.243,2700.00
1516.125,2864.00
1517.008,2962.00
1517.890,2637.00
1518.771,2736.00
1519.655,2905.00
1520.537,2632.00
1521.419,2521.00
1522.300,2687.00
1523.182,2837.00
1524.063,2827.00
1524.944,2976.00
1525.825,2890.00
1526.707,2494.00
1527.588,2466.00
1528.468,2778.00
1529.349,2373.00
1530.230,2613.00
1531.111,2836.00
1531.991,2749.00
1532.872,2404.00
1533.752,2639.00
1534.632,2563.00
1535.513,2537.00
1536.393,2794.00
1537.273,2996.00
1538.153,3306.00
1539.032,2391.00
1539.912,2618.00
1540.792,2689.00
1541.672,2721.00
1542.551,2805.00
1543.430,3295.00
1544.310,2721.00
1545.189,2595.00
1546.068,3099.00
1546.947,2762.00
1547.826,3014.00
1548.705,2690.00
1549.584,2919.00
1550.462,2651.00
1551.341,2844.00
1552.219,2769.00
1553.098,2824.00
1553.976,2886.00
1554.854,3098.00
1555.733,2904.00
1556.611,2634.00
1557.489,2472.00
1558.367,2657.00
1559.244,2853.00
1560.122,2665.00
1561.000,2713.00
1561.877,2948.00
1562.755,2595.00
1563.632,2655.00
1564.509,2938.00
1565.386,3035.00
1566.264,2481.00
1567.141,2314.00
1568.017,2815.00
1568.894,2696.00
1569.771,2747.00
1570.648,2838.00
1571.524,2724.00
1572.401,2431.00
1573.277,2477.00
1574.153,2750.00
1575.029,2588.00
1575.906,3396.00
1576.781,2835.00
1577.657,2631.00
1578.533,2937.00
1579.409,2308.00
1580.285,2653.00
1581.160,3067.00
1582.036,2874.00
1582.911,2535.00
1583.786,3024.00
1584.662,2506.00
1585.537,2683.00
1586.412,2741.00
1587.287,2542.00
1588.160,2901.00
1589.035,2348.00
1589.909,2702.00
1590.784,2646.00
1591.658,2480.00
1592.533,2779.00
1593.407,2713.00
1594.281,2556.00
1595.155,3089.00
1596.029,2596.00
1596.903,2635.00
1597.777,2606.00
1598.651,2948.00
1599.525,2403.00
1600.398,2696.00
1601.272,2631.00
1602.144,3233.00
1603.017,2652.00
1603.890,2966.00
1604.763,2785.00
1605.636,2819.00
1606.509,2403.00
1607.382,2501.00
1608.255,2733.00
1609.128,2930.00
1610.000,2667.00
1610.873,2410.00
1611.746,2595.00
1612.616,2650.00
1613.488,2309.00
1614.361,2707.00
1615.233,2624.00
1616.105,2906.00
1616.977,2601.00
1617.849,2495.00
1618.720,3014.00
1619.592,2952.00
1620.464,2776.00
1621.333,3182.00
1622.205,2671.00
1623.076,2672.00
1623.947,2676.00
1624.818,2952.00
1625.689,2841.00
1626.560,2622.00
1627.431,2736.00
1628.302,3105.00
1629.171,2816.00
1630.042,2990.00
1630.912,3396.00
1631.782,3284.00
1632.653,2487.00
1633.523,2908.00
1634.393,2953.00
1635.263,2585.00
1636.131,2716.00
1637.001,2602.00
1637.871,2328.00
1638.741,2342.00
1639.611,2442.00
1640.480,2789.00
1641.350,2577.00
1642.219,2525.00
1643.087,2204.00
1643.956,3133.00
1644.825,2890.00
1645.694,2871.00
1646.563,2886.00
1647.432,2760.00
1648.299,2710.00
1649.167,2813.00
1650.036,2502.00
1650.904,2901.00
1651.773,2936.00
1652.641,2705.00
1653.509,2914.00
1654.376,2568.00
1655.244,2702.00
1656.112,2764.00
1656.980,2722.00
1657.847,2565.00
1658.715,2861.00
1659.581,2601.00
1660.448,2952.00
1661.316,2252.00
1662.183,2711.00
1663.051,2734.00
1663.918,2746.00
1664.783,2700.00
1665.650,2816.00
1666.517,2879.00
1667.384,2708.00
1668.251,2761.00
1669.115,2928.00
1669.982,2657.00
1670.849,2995.00
1671.715,2709.00
1672.581,2819.00
1673.446,2824.00
1674.312,2759.00
1675.178,3114.00
1676.044,2791.00
1676.910,2778.00
1677.774,2729.00
1678.639,2410.00
1679.505,2704.00
1680.370,2807.00
1681.236,3356.00
1682.099,2703.00
1682.965,2692.00
1683.830,2292.00
1684.695,2542.00
1685.560,2645.00
1686.423,2855.00
1687.288,2837.00
1688.153,2753.00
1689.017,2644.00
1689.880,2783.00
1690.745,2870.00
1691.609,2550.00
1692.473,2867.00
1693.338,2944.00
1694.200,2966.00
1695.064,2728.00
1695.928,2608.00
1696.792,2759.00
1697.654,3252.00
1698.517,2709.00
1699.381,2449.00
1700.245,2401.00
1701.106,3018.00
1701.969,2581.00
1702.833,2822.00
1703.696,2642.00
1704.557,2710.00
1705.420,2573.00
1706.283,2731.00
1707.146,2848.00
1708.007,2509.00
1708.870,2497.00
1709.732,2418.00
1710.595,2570.00
1711.455,2481.00
1712.318,2667.00
1713.180,2955.00
1714.040,2785.00
1714.902,2904.00
1715.764,2694.00
1716.626,2518.00
1717.486,2703.00
1718.348,2978.00
1719.209,4061.00
1720.071,2389.00
1720.930,2444.00
1721.792,2571.00
1722.653,2556.00
1723.512,2634.00
1724.374,2654.00
1725.234,2789.00
1726.095,2731.00
1726.954,2704.00
1727.815,2841.00
1728.676,2644.00
1729.535,2962.00
1730.395,2679.00
1731.256,2625.00
1732.114,2783.00
1732.974,2169.00
1733.834,3069.00
1734.693,2891.00
1735.553,2743.00
1736.413,3146.00
1737.272,2638.00
1738.130,2650.00
1738.990,2798.00
1739.849,2599.00
1740.707,3720.00
1741.566,2764.00
1742.426,2760.00
1743.283,3116.00
1744.142,2603.00
1745.001,2377.00
1745.858,2841.00
1746.717,2849.00
1747.576,2841.00
1748.433,2858.00
1749.292,3319.00
1750.150,3354.00
1751.007,2915.00
1751.865,2895.00
1752.723,2740.00
1753.579,2667.00
1754.438,2929.00
1755.296,2946.00
1756.152,2267.00
1757.010,2441.00
1757.865,2883.00
1758.723,2410.00
1759.581,3104.00
1760.436,2718.00
1761.294,3090.00
1762.151,2719.00
1763.006,2661.00
1763.864,2393.00
1764.721,2900.00
1765.576,2745.00
1766.433,2871.00
1767.288,2634.00
1768.144,2767.00
1769.001,2677.00
1769.856,2819.00
1770.712,2975.00
1771.568,2456.00
1772.423,2639.00
1773.279,2595.00
1774.133,2587.00
1774.989,3091.00
1775.845,3149.00
1776.699,2934.00
1777.555,2723.00
1778.409,3275.00
1779.265,2678.00
1780.120,2670.00
1780.974,2712.00
1781.829,2327.00
1782.682,2795.00
1783.538,2576.00
1784.393,2777.00
1785.246,2601.00
1786.101,2791.00
1786.954,2855.00
1787.808,2941.00
1788.661,2470.00
1789.516,2647.00
1790.370,2687.00
1791.223,2914.00
1792.077,2739.00
1792.930,2780.00
1793.784,2586.00
1794.636,2739.00
1795.490,2728.00
1796.344,2758.00
1797.196,2693.00
1798.049,2893.00
1798.901,2582.00
1799.755,2965.00
1800.606,2532.00
1801.460,3235.00
1802.311,3042.00
1803.165,3108.00
1804.018,3083.00
1804.869,2817.00
1805.722,3182.00
1806.573,2721.00
1807.426,2581.00
1808.276,2722.00
1809.129,2599.00
1809.980,2960.00
1810.832,2986.00
1811.683,2651.00
1812.535,3049.00
1813.385,2642.00
1814.237,3000.00
1815.089,2780.00
1815.940,2978.00
1816.791,2687.00
1817.641,2633.00
1818.493,2864.00
1819.343,2801.00
1820.194,2612.00
1821.044,2878.00
1821.895,2954.00
1822.745,2440.00
1823.596,2639.00
1824.445,3117.00
1825.296,2820.00
1826.145,2689.00
1826.996,2920.00
1827.845,2794.00
1828.695,2819.00
1829.544,2725.00
1830.395,2786.00
1831.243,2652.00
1832.094,2480.00
1832.942,3322.00
1833.792,2894.00
1834.640,2777.00
1835.490,2753.00
1836.338,2793.00
1837.186,2640.00
1838.036,2569.00
1838.884,2727.00
1839.733,3103.00
1840.581,2943.00
1841.430,2860.00
1842.278,3118.00
1843.127,2626.00
1843.974,2483.00
1844.823,3146.00
1845.671,2908.00
1846.519,2756.00
1847.366,2768.00
1848.213,2383.00
1849.062,2533.00
1849.909,2480.00
1850.757,3405.00
1851.604,2820.00
1852.452,2671.00
1853.298,2922.00
1854.146,2765.00
1854.993,2798.00
1855.839,3260.00
1856.687,2891.00
1857.532,2868.00
1858.380,2739.00
1859.226,2825.00
1860.073,2880.00
1860.919,2563.00
1861.765,2633.00
1862.612,2971.00
1863.457,2962.00
1864.304,2692.00
1865.150,2867.00
1865.995,2687.00
1866.842,2907.00
1867.686,2972.00
1868.533,2752.00
1869.378,2787.00
1870.223,2758.00
1871.069,2635.00
1871.914,2781.00
1872.760,2749.00
1873.604,2531.00
1874.448,2880.00
1875.294,2915.00
1876.139,2614.00
1876.984,2859.00
1877.828,2375.00
1878.672,2281.00
1879.518,2619.00
1880.361,2913.00
1881.205,2946.00
1882.050,2531.00
1882.894,3247.00
1883.739,2634.00
1884.582,2478.00
1885.425,2596.00
1886.270,2986.00
1887.113,2518.00
1887.956,2860.00
1888.801,2833.00
1889.644,2561.00
1890.486,2364.00
1891.331,2696.00
1892.173,2825.00
1893.017,2794.00
1893.860,3002.00
1894.702,3049.00
1895.546,2761.00
1896.388,3458.00
1897.230,3116.00
1898.074,2625.00
1898.916,2566.00
1899.757,2598.00
1900.601,3381.00
1901.443,3064.00
1902.284,3087.00
1903.125,3257.00
1903.969,2964.00
1904.810,2998.00
1905.651,2836.00
1906.494,3039.00
1907.335,3179.00
1908.176,2861.00
1909.018,2840.00
1909.859,2717.00
1910.700,2631.00
1911.542,3283.00
1912.383,2818.00
1913.223,2393.00
1914.064,2866.00
1914.906,2967.00
1915.746,3123.00
1916.586,3256.00
1917.428,2718.00
1918.268,2820.00
1919.107,2694.00
1919.947,2507.00
1920.789,2641.00
1921.628,3008.00
1922.468,2748.00
1923.309,2617.00
1924.148,3050.00
1924.988,2855.00
1925.827,2756.00
1926.667,2629.00
1927.507,2791.00
1928.345,2612.00
1929.184,2923.00
1930.025,2608.00
1930.864,3018.00
1931.702,3039.00
1932.541,2696.00
1933.381,2899.00
1934.219,2905.00
1935.057,3077.00
1935.896,2459.00
1936.735,2733.00
1937.573,2634.00
1938.411,2554.00
1939.249,2918.00
1940.089,2663.00
1940.927,3014.00
1941.764,3036.00
1942.602,2648.00
1943.439,2669.00
1944.278,2730.00
1945.115,2697.00
1945.953,2521.00
1946.790,2853.00
1947.628,3103.00
1948.465,2877.00
1949.302,2890.00
1950.139,2859.00
1950.976,2642.00
1951.814,2919.00
1952.651,2879.00
1953.487,2545.00
1954.323,3043.00
1955.160,2753.00
1955.998,3143.00
1956.834,2727.00
1957.670,2863.00
1958.506,3010.00
1959.342,2874.00
1960.177,2802.00
1961.015,2902.00
1961.850,2827.00
1962.686,2789.00
1963.521,2837.00
1964.357,3037.00
1965.192,2556.00
1966.029,2895.00
1966.864,2683.00
1967.699,3018.00
1968.534,2831.00
1969.369,3045.00
1970.204,2751.00
1971.040,2847.00
1971.875,2696.00
1972.709,2815.00
1973.544,2623.00
1974.378,2682.00
1975.212,2867.00
1976.047,2633.00
1976.882,2630.00
1977.716,3183.00
1978.550,2509.00
1979.384,2743.00
1980.218,2714.00
1981.052,2696.00
1981.885,2826.00
1982.719,2762.00
1983.554,2894.00
1984.388,3112.00
1985.221,2848.00
1986.054,3009.00
1986.887,2812.00
1987.720,2608.00
1988.553,3048.00
1989.386,2896.00
1990.219,2906.00
1991.053,3072.00
1991.886,2644.00
1992.719,2985.00
1993.551,2328.00
1994.383,2940.00
1995.216,2708.00
1996.048,2512.00
1996.880,3006.00
1997.712,2669.00
1998.544,2796.00
1999.376,2824.00
2000.208,3089.00
2001.040,3241.00
2001.873,2623.00
2002.705,2608.00
2003.536,2852.00
2004.367,2822.00
2005.199,2819.00
2006.030,2687.00
2006.861,2612.00
2007.692,2780.00
2008.523,2596.00
2009.354,2843.00
2010.185,2567.00
2011.016,2989.00
2011.846,2996.00
2012.677,2764.00
2013.507,3163.00
2014.338,2975.00
2015.168,2727.00
2015.999,3240.00
2016.829,2700.00
2017.659,3014.00
2018.489,3286.00
2019.319,2603.00
2020.149,2961.00
2020.980,2816.00
2021.810,2613.00
2022.639,2673.00
2023.469,2659.00
2024.298,2494.00
2025.128,2412.00
2025.957,2375.00
2026.786,2254.00
2027.615,2419.00
2028.444,2684.00
2029.273,2813.00
2030.102,2383.00
2030.931,2612.00
2031.758,2911.00
2032.586,2580.00
2033.415,2655.00
2034.243,2275.00
2035.072,2044.00
2035.900,2539.00
2036.728,2352.00
2037.556,2375.00
2038.385,2414.00
2039.213,2217.00
2040.040,2195.00
2040.868,2188.00
2041.696,2238.00
2042.524,2225.00
2043.351,2446.00
2044.179,2234.00
2045.006,2032.00
