RamanScope Measure Spectrum Data V3.72

<< MEASURE CONDITION >>
Exposure Type,Aver
Exposure Time [sec],20
Exposure Count,2
Measure Time,2024/02/15 20:32:53
Data Name,""
Data Comment,""
Rayleigh Wave[nm],532.0

<< SAMPLE SPECTRUM >>
Wave[dcm-1],No15
96.716,-8.50
97.759,17.00
98.802,26.00
99.846,1.00
100.886,22.00
101.929,-5.00
102.972,-29.00
104.015,30.00
105.057,-0.50
106.100,-20.00
107.142,-623.00
108.184,-103.00
109.226,2.00
110.268,3.50
111.310,41.00
112.352,-41.50
113.393,-6.00
114.435,-39.50
115.476,-18.00
116.517,23.50
117.558,61.00
118.599,3.00
119.640,71.00
120.681,48.50
121.722,-6.00
122.762,12.50
123.803,54.50
124.843,42.00
125.883,42.50
126.923,21.50
127.963,-37.00
129.001,19.50
130.041,8.50
131.080,39.50
132.120,3.50
133.159,11.50
134.199,7.50
135.238,71.50
136.277,55.00
137.316,-33.50
138.355,16.00
139.393,53.00
140.432,1.00
141.470,52.00
142.509,39.50
143.547,58.00
144.585,75.00
145.623,42.50
146.661,46.50
147.699,125.00
148.736,169.00
149.774,227.00
150.811,283.00
151.849,378.50
152.886,421.50
153.923,514.00
154.960,714.00
155.997,835.00
157.034,996.50
158.072,1190.50
159.109,1398.50
160.145,1567.00
161.182,1744.00
162.218,1906.50
163.254,2083.50
164.290,2240.00
165.326,2420.50
166.361,2523.50
167.397,2538.00
168.432,2675.00
169.468,2697.50
170.503,2799.00
171.538,2857.50
172.573,2891.00
173.608,2972.00
174.643,2967.50
175.677,3082.00
176.712,3059.00
177.746,3143.00
178.781,3210.50
179.815,3307.00
180.849,3287.00
181.883,3357.50
182.917,3405.50
183.951,3504.50
184.984,3562.00
186.020,3620.50
187.053,3633.50
188.087,3595.50
189.120,3571.00
190.153,3545.50
191.186,3545.00
192.219,3502.50
193.251,3506.50
194.284,3454.00
195.317,3473.00
196.349,3499.50
197.381,3499.50
198.413,3432.00
199.445,3546.50
200.477,3563.00
201.509,3608.00
202.543,3578.50
203.575,3570.00
204.606,3697.50
205.637,3477.50
206.669,3695.00
207.700,3807.00
208.731,3822.00
209.762,3773.50
210.792,3887.00
211.823,3974.50
212.854,3941.00
213.884,3994.50
214.914,4045.50
215.947,4065.50
216.977,4191.50
218.007,4260.00
219.037,4259.00
220.066,4333.50
221.096,4395.00
222.126,4436.50
223.155,4514.00
224.184,4463.00
225.214,4503.00
226.245,4527.00
227.274,4527.00
228.302,4572.50
229.331,4535.00
230.360,4622.50
231.388,4538.00
232.417,4476.00
233.445,4462.50
234.473,4342.00
235.501,4367.50
236.531,4331.50
237.559,4367.50
238.587,4265.50
239.614,4218.00
240.642,4177.00
241.669,4267.00
242.696,4110.50
243.724,4139.00
244.753,4126.00
245.780,4104.00
246.806,4126.00
247.833,4141.50
248.860,4028.00
249.886,3997.00
250.913,4047.50
251.939,4209.00
252.967,4222.00
253.993,4152.00
255.019,4088.00
256.045,4186.50
257.070,4252.00
258.096,4164.00
259.121,4223.00
260.147,4170.00
261.174,4161.50
262.199,4115.50
263.224,4232.50
264.249,4303.00
265.274,4246.50
266.298,4236.50
267.323,4296.00
268.349,4362.00
269.374,4399.50
270.398,4390.00
271.422,4344.00
272.446,4440.50
273.470,4474.50
274.496,4454.00
275.519,4407.50
276.543,4433.00
277.566,4435.00
278.589,4587.50
279.613,4625.00
280.636,4625.00
281.661,4695.00
282.684,4701.00
283.706,4621.00
284.729,4582.00
285.751,4555.00
286.774,4598.50
287.798,4628.50
288.820,4577.50
289.842,4542.50
290.864,4434.00
291.886,4516.00
292.910,4506.50
293.932,4446.00
294.953,4438.50
295.974,4349.50
296.996,4240.00
298.017,4182.00
299.040,4179.00
300.061,4202.00
301.082,4093.50
302.102,4052.00
303.123,4015.00
304.143,4010.00
305.166,3931.00
306.186,3966.00
307.206,3953.00
308.226,3950.00
309.246,3875.00
310.268,3853.00
311.288,3759.00
312.307,3828.50
313.327,3798.50
314.346,3724.50
315.368,3806.00
316.387,3672.50
317.406,3735.50
318.425,3660.50
319.443,3612.50
320.464,3604.00
321.483,3612.00
322.501,3641.50
323.520,3550.00
324.538,3549.00
325.558,3584.50
326.576,3526.50
327.594,3599.00
328.612,3574.50
329.629,3532.50
330.649,3528.00
331.666,3521.50
332.684,3509.50
333.701,3534.00
334.718,3523.50
335.737,3467.50
336.754,3409.00
337.771,3513.00
338.787,3519.00
339.806,3509.50
340.823,3447.00
341.839,3481.50
342.855,3483.00
343.871,3453.50
344.889,3431.00
345.905,3479.00
346.921,3420.50
347.937,3378.50
348.954,3449.00
349.970,3454.50
350.985,3439.00
352.000,3508.50
353.017,3472.50
354.032,3412.50
355.047,3495.00
356.062,3446.50
357.077,3433.00
358.093,3363.50
359.108,3438.50
360.122,3388.50
361.136,3434.00
362.152,3441.50
363.166,3491.50
364.180,3485.00
365.194,3458.00
366.210,3516.50
367.223,3408.50
368.237,3397.00
369.250,3501.00
370.265,3461.50
371.278,3476.00
372.291,3423.50
373.304,3472.00
374.319,3419.00
375.332,3444.00
376.344,3513.00
377.357,3513.50
378.371,3483.50
379.383,3545.50
380.395,3493.50
381.407,3522.00
382.421,3504.50
383.433,3549.00
384.445,3533.50
385.456,3509.00
386.470,3561.00
387.481,3605.00
388.492,3539.50
389.505,3554.00
390.516,3463.00
391.527,3524.00
392.538,3571.50
393.551,3560.00
394.561,3511.00
395.572,3477.00
396.582,3568.00
397.594,3527.50
398.604,3463.00
399.614,3473.00
400.624,3454.50
401.636,3446.00
402.646,3475.50
403.655,3448.00
404.667,3477.50
405.676,3460.00
406.685,3424.00
407.694,3319.00
408.705,3357.00
409.714,3383.50
410.723,3332.00
411.734,3358.00
412.742,3291.50
413.751,3246.50
414.759,3322.00
415.769,3293.50
416.777,3225.50
417.785,3250.50
418.795,3243.50
419.803,3243.50
420.811,3190.50
421.818,3234.50
422.828,3222.00
423.835,3195.50
424.842,3130.50
425.852,3170.50
426.859,3173.50
427.866,3197.00
428.874,3191.50
429.881,3057.00
430.888,3119.00
431.894,3087.50
432.902,3184.00
433.909,3040.00
434.915,3066.00
435.923,3010.00
436.929,3052.00
437.935,3079.50
438.942,3104.50
439.948,3016.00
440.953,3085.00
441.959,2990.00
442.966,3054.50
443.971,2979.50
444.976,2988.50
445.983,3021.00
446.988,3049.00
447.993,3028.50
448.999,2953.50
450.004,2963.50
451.008,3006.00
452.014,2913.00
453.019,2952.50
454.023,2965.50
455.029,2984.00
456.032,2979.50
457.036,2946.00
458.042,3006.00
459.045,2976.50
460.049,2990.00
461.052,3042.00
462.057,2945.50
463.060,2959.50
464.063,2991.50
465.068,2961.50
466.071,3013.50
467.073,2936.50
468.078,2942.00
469.080,3007.00
470.082,2991.00
471.087,2967.00
472.089,2944.00
473.091,2950.50
474.095,2884.50
475.096,2924.50
476.098,2922.50
477.101,2884.50
478.103,2989.00
479.104,2923.00
480.107,2988.50
481.108,3003.50
482.109,2915.00
483.112,2897.50
484.113,2955.00
485.114,2943.00
486.116,2990.50
487.117,2938.50
488.117,2894.50
489.119,2944.00
490.119,2893.00
491.121,2970.00
492.121,2917.50
493.121,2943.00
494.123,2887.00
495.122,2939.50
496.122,3022.00
497.123,2937.00
498.122,3003.00
499.121,2883.50
500.122,2978.50
501.121,2901.50
502.120,2855.00
503.121,2886.50
504.119,2950.50
505.118,2859.50
506.118,2881.00
507.117,2897.50
508.115,2877.00
509.115,2884.00
510.113,2848.50
511.112,2858.50
512.110,2844.50
513.108,2835.00
514.107,2795.50
515.105,2805.50
516.102,2753.00
517.101,2795.00
518.098,2763.50
519.095,2798.00
520.094,2779.50
521.091,2814.50
522.089,2743.00
523.086,2780.50
524.082,2777.00
525.081,2764.50
526.077,2788.00
527.073,2770.00
528.071,2778.00
529.067,2773.50
530.064,2789.50
531.060,2747.00
532.056,2735.00
533.053,2759.50
534.048,2755.00
535.044,2718.50
536.041,2739.00
537.036,2751.50
538.030,2750.50
539.027,2768.50
540.022,2712.00
541.019,2753.50
542.013,2776.50
543.007,2695.50
544.004,2797.50
544.998,2735.00
545.994,2704.00
546.988,2703.50
547.981,2757.50
548.977,2743.00
549.971,2775.00
550.964,2696.50
551.960,2749.00
552.953,2679.00
553.948,2678.00
554.941,2777.50
555.934,2708.00
556.929,2779.00
557.922,2734.00
558.916,2659.00
559.909,2677.50
560.901,2705.00
561.895,2652.50
562.888,2700.00
563.880,2781.50
564.874,2710.50
565.865,2644.50
566.859,2712.00
567.851,2668.00
568.842,2692.00
569.836,2719.00
570.827,2714.00
571.820,2714.50
572.811,2745.50
573.802,2701.00
574.795,2753.50
575.786,2715.00
576.779,2714.00
577.769,2708.50
578.760,2717.00
579.752,2737.50
580.742,2728.50
581.735,2730.00
582.725,2623.50
583.714,2667.50
584.706,2716.50
585.696,2662.50
586.688,2699.00
587.677,2755.50
588.667,2706.00
589.658,2649.50
590.647,2625.00
591.638,2686.00
592.627,2684.50
593.616,2655.00
594.607,2641.00
595.595,2640.50
596.586,2642.50
597.574,2603.50
598.562,2668.50
599.553,2668.00
600.541,2708.50
601.531,2656.50
602.519,2613.50
603.508,2588.50
604.496,2640.00
605.484,2600.00
606.473,2629.50
607.460,2586.50
608.450,2566.50
609.437,2576.00
610.424,2655.00
611.413,2659.50
612.400,2520.50
613.388,2595.00
614.375,2545.00
615.361,2563.50
616.350,2527.00
617.336,2588.50
618.324,2471.50
619.310,2510.00
620.298,2563.00
621.284,2525.00
622.270,2468.50
623.257,2574.50
624.243,2505.00
625.230,2507.00
626.216,2461.00
627.203,2479.50
628.188,2404.50
629.173,2439.00
630.160,2428.50
631.145,2445.00
632.131,2427.50
633.116,2382.00
634.102,2353.00
635.087,2413.50
636.071,2377.50
637.057,2282.50
638.041,2342.50
639.027,2319.50
640.011,2336.00
640.995,2333.50
641.980,2347.00
642.964,2306.50
643.949,2286.50
644.932,2242.00
645.918,2311.50
646.901,2224.00
647.886,2249.50
648.868,2199.50
649.851,2237.00
650.836,2235.50
651.818,2275.00
652.803,2184.50
653.785,2224.50
654.769,2156.50
655.751,2173.50
656.733,2110.00
657.717,2130.50
658.699,2153.50
659.683,2148.50
660.664,2104.00
661.648,2191.00
662.629,2125.00
663.611,2110.50
664.594,2071.00
665.575,2089.50
666.558,2095.50
667.539,2114.50
668.521,2097.00
669.502,2100.50
670.484,2046.00
671.465,2033.00
672.445,2059.00
673.427,2054.50
674.407,2034.00
675.390,2054.50
676.369,1984.50
677.351,2055.50
678.331,2002.00
679.312,2031.00
680.292,2069.00
681.271,1960.00
682.253,2016.50
683.232,1953.50
684.213,1983.50
685.192,1967.50
686.172,1996.50
687.151,1995.50
688.132,1932.00
689.110,1956.50
690.089,1922.00
691.069,1910.50
692.047,1908.00
693.027,1899.00
694.005,1932.00
694.985,1926.00
695.963,1862.00
696.943,1799.00
697.920,1909.50
698.898,1842.00
699.877,1901.50
700.854,1881.00
701.833,1814.50
702.810,1823.50
703.789,1828.00
704.766,1804.50
705.745,1820.50
706.721,1837.50
707.698,1780.00
708.676,1780.00
709.653,1814.00
710.631,1775.50
711.607,1788.50
712.585,1818.00
713.561,1749.00
714.539,1782.50
715.514,1767.50
716.492,1761.00
717.467,1809.50
718.443,1853.50
719.420,1763.00
720.395,1771.50
721.372,1700.50
722.347,1745.50
723.324,1748.50
724.298,1669.00
725.275,1714.50
726.250,1754.00
727.226,1754.50
728.200,1731.50
729.176,1680.50
730.151,1713.00
731.125,1681.00
732.100,1699.50
733.074,1727.00
734.050,1681.00
735.023,1691.00
735.999,1663.50
736.972,1661.00
737.947,1648.00
738.921,1671.00
739.896,1600.50
740.869,1685.00
741.841,1702.50
742.816,1687.00
743.789,1606.00
744.763,1655.00
745.736,1663.50
746.710,1681.50
747.682,1637.50
748.656,1582.50
749.628,1605.00
750.602,1631.50
751.574,1632.00
752.548,1604.50
753.519,1598.00
754.491,1599.00
755.464,1642.50
756.435,1558.50
757.408,1596.00
758.379,1572.50
759.352,1616.50
760.323,1552.50
761.296,1619.50
762.267,1603.50
763.239,1553.50
764.209,1541.00
765.182,1515.50
766.152,1588.00
767.124,1546.00
768.094,1551.50
769.064,1575.00
770.036,1511.50
771.005,1518.00
771.977,1517.50
772.947,1575.00
773.918,1487.00
774.887,1535.00
775.858,1515.00
776.827,1519.50
777.798,1571.00
778.767,1450.00
779.738,1492.00
780.707,1447.50
781.677,1440.00
782.646,1459.50
783.614,1460.00
784.584,1442.50
785.552,1493.00
786.522,1456.50
787.490,1421.00
788.460,1420.00
789.428,1415.00
790.397,1435.00
791.365,1470.00
792.334,1408.50
793.302,1430.00
794.271,1440.50
795.238,1412.50
796.207,1439.50
797.174,1445.50
798.143,1417.50
799.109,1429.50
800.076,1462.50
801.044,1397.00
802.011,1376.50
802.979,1403.50
803.945,1337.00
804.913,1442.00
805.879,1463.50
806.847,1334.50
807.813,1390.00
808.780,1410.00
809.746,1356.50
810.713,1370.50
811.678,1343.00
812.646,1409.50
813.611,1423.50
814.578,1352.00
815.543,1342.50
816.510,1341.00
817.474,1326.00
818.439,1317.00
819.405,1395.50
820.370,1405.50
821.336,1353.50
822.300,1320.00
823.266,1375.00
824.230,1344.00
825.196,1285.00
826.160,1306.50
827.126,1354.50
828.089,1270.00
829.055,1347.50
830.018,1326.00
830.983,1311.50
831.946,1307.50
832.911,1360.00
833.874,1287.00
834.837,1303.00
835.802,1361.00
836.765,1310.50
837.729,1288.50
838.691,1255.00
839.656,1283.00
840.618,1357.50
841.582,1367.00
842.544,1258.00
843.508,1334.00
844.470,1309.50
845.434,1323.50
846.395,1322.00
847.359,1327.50
848.320,1328.50
849.283,1293.00
850.245,1331.00
851.208,1342.00
852.169,1291.00
853.130,1340.50
854.092,1214.00
855.053,1304.50
856.016,1345.00
856.976,1288.00
857.938,1331.50
858.899,1292.00
859.861,1307.00
860.821,1264.00
861.783,1320.50
862.743,1288.00
863.704,1319.00
864.664,1267.00
865.626,1333.00
866.585,1323.00
867.546,1225.00
868.506,1290.50
869.467,1246.50
870.426,1335.00
871.387,1332.00
872.346,1285.00
873.304,1304.00
874.265,1217.00
875.223,1289.00
876.184,1323.00
877.142,1298.50
878.102,1299.00
879.060,1272.50
880.021,1309.50
880.978,1303.00
881.938,1324.00
882.896,1363.50
883.856,1246.00
884.813,1310.00
885.772,1348.00
886.730,1324.00
887.689,1269.00
888.646,1325.00
889.603,1377.00
890.562,1316.00
891.519,1286.00
892.477,1299.50
893.434,1356.50
894.392,1335.00
895.349,1342.50
896.307,1362.50
897.263,1291.00
898.221,1324.50
899.177,1332.50
900.135,1320.00
901.091,1353.00
902.048,1355.50
903.004,1303.50
903.961,1363.50
904.917,1363.50
905.874,1298.50
906.829,1329.00
907.784,1340.50
908.741,1346.50
909.696,1321.00
910.653,1396.50
911.607,1307.50
912.564,1344.00
913.518,1391.50
914.475,1349.50
915.429,1370.00
916.385,1401.00
917.339,1356.00
918.295,1407.00
919.249,1364.50
920.205,1349.50
921.158,1390.00
922.114,1388.00
923.067,1375.00
924.020,1348.00
924.976,1333.00
925.929,1344.50
926.884,1363.50
927.837,1317.50
928.791,1414.00
929.744,1378.00
930.699,1359.50
931.651,1345.50
932.606,1387.50
933.558,1358.50
934.512,1374.00
935.464,1393.00
936.418,1367.50
937.370,1378.50
938.322,1363.50
939.276,1357.50
940.227,1360.50
941.181,1362.50
942.132,1389.50
943.085,1381.00
944.036,1424.00
944.990,1376.50
945.941,1419.00
946.893,1373.00
947.844,1434.50
948.797,1394.00
949.747,1388.50
950.700,1413.00
951.650,1421.50
952.601,1387.50
953.553,1371.00
954.503,1337.00
955.455,1401.00
956.405,1467.50
957.356,1368.50
958.306,1389.00
959.258,1445.50
960.207,1395.00
961.158,1343.50
962.108,1384.00
963.059,1382.50
964.008,1370.00
964.959,1326.50
965.908,1400.00
966.856,1359.00
967.807,1331.50
968.756,1317.50
969.706,1334.00
970.654,1301.50
971.605,1388.00
972.553,1336.00
973.503,1345.00
974.451,1335.00
975.401,1320.50
976.348,1312.50
977.296,1290.00
978.246,1358.50
979.193,1346.50
980.142,1329.50
981.090,1290.00
982.039,1307.50
982.986,1329.00
983.935,1301.00
984.882,1314.00
985.830,1301.00
986.777,1265.50
987.725,1300.00
988.672,1294.50
989.618,1302.50
990.567,1275.00
991.513,1245.00
992.461,1275.00
993.407,1293.00
994.354,1250.50
995.300,1311.00
996.248,1319.00
997.193,1229.50
998.141,1284.00
999.086,1216.50
1000.031,1220.00
1000.978,1250.00
1001.924,1238.00
1002.870,1241.50
1003.815,1281.50
1004.762,1280.00
1005.707,1209.00
1006.653,1279.50
1007.598,1201.00
1008.542,1221.00
1009.488,1187.50
1010.432,1206.50
1011.378,1253.00
1012.322,1278.00
1013.268,1279.00
1014.212,1252.00
1015.157,1249.00
1016.101,1216.00
1017.046,1221.00
1017.990,1232.50
1018.933,1183.00
1019.878,1232.00
1020.821,1178.00
1021.766,1197.00
1022.709,1228.50
1023.654,1238.00
1024.596,1237.00
1025.541,1256.50
1026.483,1135.50
1027.425,1210.50
1028.370,1148.50
1029.312,1237.50
1030.256,1202.00
1031.198,1221.50
1032.141,1213.50
1033.083,1210.50
1034.027,1187.00
1034.968,1214.50
1035.910,1181.50
1036.853,1202.00
1037.794,1213.50
1038.738,1155.50
1039.679,1184.00
1040.621,1151.50
1041.562,1221.00
1042.503,1209.00
1043.446,1197.50
1044.386,1197.00
1045.329,1146.00
1046.269,1139.00
1047.211,1153.00
1048.151,1159.00
1049.093,1123.50
1050.033,1123.50
1050.973,1123.50
1051.915,1211.00
1052.854,1172.00
1053.796,1118.50
1054.735,1178.50
1055.677,1199.50
1056.616,1224.00
1057.555,1199.50
1058.496,1189.00
1059.435,1199.50
1060.376,1196.50
1061.315,1188.50
1062.255,1153.00
1063.194,1128.50
1064.132,1168.00
1065.073,1142.00
1066.011,1181.50
1066.951,1098.50
1067.889,1161.00
1068.829,1159.50
1069.767,1149.50
1070.705,1146.00
1071.644,1174.50
1072.582,1153.00
1073.521,1136.50
1074.459,1183.00
1075.398,1108.00
1076.335,1146.50
1077.272,1239.50
1078.211,1209.50
1079.148,1189.00
1080.087,1165.50
1081.023,1205.00
1081.962,1158.00
1082.898,1133.00
1083.835,1162.50
1084.773,1226.50
1085.709,1152.00
1086.647,1173.00
1087.583,1193.50
1088.519,1176.00
1089.457,1147.50
1090.392,1130.00
1091.330,1155.00
1092.266,1145.00
1093.203,1216.50
1094.138,1167.00
1095.073,1150.50
1096.010,1168.50
1096.945,1183.50
1097.882,1223.50
1098.817,1185.50
1099.752,1133.00
1100.688,1182.00
1101.623,1189.00
1102.559,1142.00
1103.493,1173.50
1104.430,1184.00
1105.364,1130.00
1106.298,1147.50
1107.234,1162.50
1108.167,1140.50
1109.094,1129.50
1110.019,1090.50
1110.945,1132.00
1111.869,1170.50
1112.795,1098.00
1113.720,1162.00
1114.646,1122.50
1115.571,1129.00
1116.495,1118.50
1117.420,1115.50
1118.345,1109.50
1119.270,1153.00
1120.195,1121.00
1121.118,1110.00
1122.042,1147.50
1122.967,1092.00
1123.891,1172.00
1124.816,1121.50
1125.738,1060.00
1126.663,1093.50
1127.587,1071.50
1128.511,1062.00
1129.435,1077.00
1130.357,1085.00
1131.280,1053.50
1132.204,1105.50
1133.128,1041.50
1134.051,1062.50
1134.972,1107.00
1135.896,1088.50
1136.819,1078.50
1137.742,1049.50
1138.665,1095.50
1139.586,979.00
1140.509,1036.00
1141.431,1002.00
1142.354,1026.00
1143.276,1029.00
1144.197,1134.00
1145.119,1079.50
1146.041,1009.00
1146.964,1040.00
1147.885,1003.00
1148.806,1045.00
1149.727,1047.50
1150.649,1019.50
1151.571,1041.00
1152.492,1047.50
1153.412,1066.50
1154.333,998.50
1155.254,985.00
1156.175,1007.00
1157.095,1017.00
1158.016,1008.00
1158.936,1017.50
1159.857,1032.50
1160.778,1020.50
1161.697,978.00
1162.617,1000.50
1163.537,964.50
1164.458,958.00
1165.376,1006.50
1166.296,1044.50
1167.216,1010.00
1168.136,1037.00
1169.056,967.50
1169.974,900.00
1170.893,974.00
1171.813,965.50
1172.732,965.50
1173.650,1036.50
1174.569,972.50
1175.488,963.00
1176.407,979.00
1177.326,916.00
1178.243,962.00
1179.161,1000.00
1180.080,1013.00
1180.999,966.00
1181.915,926.50
1182.834,940.50
1183.752,987.50
1184.670,990.50
1185.586,938.00
1186.504,984.00
1187.422,974.50
1188.340,976.50
1189.258,949.50
1190.173,932.50
1191.091,987.50
1192.008,919.00
1192.926,952.50
1193.841,972.50
1194.758,955.50
1195.675,958.00
1196.592,988.00
1197.507,948.00
1198.424,947.00
1199.340,935.00
1200.257,992.00
1201.172,915.00
1202.088,935.00
1203.004,987.00
1203.920,921.00
1204.835,947.50
1205.750,945.50
1206.666,931.50
1207.582,943.00
1208.496,983.50
1209.412,944.50
1210.327,955.50
1211.243,951.00
1212.156,964.00
1213.071,1015.00
1213.986,952.50
1214.901,967.00
1215.814,993.50
1216.729,955.00
1217.644,970.50
1218.559,944.50
1219.471,883.00
1220.386,931.50
1221.300,965.50
1222.213,926.00
1223.127,946.50
1224.041,984.50
1224.955,933.00
1225.867,1009.50
1226.781,986.50
1227.694,906.50
1228.608,952.00
1229.520,984.00
1230.433,931.50
1231.346,919.50
1232.260,967.50
1233.171,914.00
1234.084,948.50
1234.997,938.50
1235.908,937.00
1236.821,926.00
1237.733,967.50
1238.646,1048.50
1239.556,971.00
1240.469,967.00
1241.381,963.00
1242.293,930.00
1243.203,946.50
1244.115,973.50
1245.027,928.00
1245.937,947.00
1246.849,972.00
1247.761,975.00
1248.672,919.50
1249.582,955.50
1250.493,973.50
1251.404,967.50
1252.313,986.50
1253.225,938.00
1254.135,961.00
1255.046,952.00
1255.955,944.00
1256.866,978.50
1257.777,939.50
1258.685,949.00
1259.596,958.50
1260.506,919.00
1261.416,1001.50
1262.324,918.50
1263.234,994.00
1264.144,975.50
1265.052,886.50
1265.962,963.50
1266.872,949.00
1267.779,986.50
1268.689,905.50
1269.598,969.00
1270.507,929.50
1271.415,912.00
1272.324,910.50
1273.233,990.00
1274.140,929.50
1275.048,971.00
1275.957,954.00
1276.864,933.50
1277.772,1005.00
1278.681,964.00
1279.587,926.00
1280.496,918.50
1281.404,1017.00
1282.312,975.50
1283.218,952.50
1284.126,984.50
1285.033,977.00
1285.939,973.50
1286.847,936.00
1287.754,937.50
1288.660,949.00
1289.567,949.00
1290.474,957.00
1291.380,917.50
1292.286,952.00
1293.193,952.50
1294.098,963.50
1295.005,954.50
1295.912,926.50
1296.816,973.00
1297.723,978.50
1298.629,940.50
1299.534,935.50
1300.440,897.50
1301.346,960.50
1302.250,934.50
1303.156,928.00
1304.062,917.50
1304.966,927.00
1305.871,915.50
1306.777,941.00
1307.680,950.00
1308.586,960.00
1309.491,923.00
1310.394,955.50
1311.299,927.00
1312.204,902.00
1313.107,916.50
1314.012,965.50
1314.917,946.00
1315.819,964.00
1316.724,875.00
1317.628,921.50
1318.531,908.50
1319.435,954.00
1320.339,935.00
1321.241,904.00
1322.145,871.50
1323.049,908.50
1323.951,902.50
1324.854,932.00
1325.756,913.50
1326.659,909.00
1327.563,883.00
1328.464,926.00
1329.367,872.00
1330.271,877.00
1331.172,898.00
1332.074,817.00
1332.977,907.50
1333.878,889.00
1334.781,929.00
1335.683,888.00
1336.584,911.50
1337.486,905.00
1338.387,828.00
1339.289,865.50
1340.191,881.50
1341.091,895.50
1341.993,855.50
1342.895,862.50
1343.794,857.50
1344.696,806.00
1345.596,827.00
1346.497,892.00
1347.398,812.00
1348.298,889.50
1349.199,799.00
1350.100,815.00
1350.999,805.50
1351.900,871.00
1352.799,820.00
1353.699,831.50
1354.600,836.00
1355.499,854.50
1356.399,889.50
1357.297,839.00
1358.198,795.50
1359.098,813.00
1359.996,822.00
1360.896,852.50
1361.796,847.50
1362.694,856.50
1363.593,828.00
1364.491,803.00
1365.391,809.00
1366.290,806.50
1367.187,811.00
1368.086,810.00
1368.984,837.50
1369.883,859.00
1370.782,825.50
1371.679,799.50
1372.577,786.00
1373.474,794.00
1374.373,807.50
1375.269,832.00
1376.168,833.50
1377.066,759.50
1377.962,749.50
1378.860,783.00
1379.756,758.50
1380.654,804.00
1381.552,762.00
1382.448,729.50
1383.346,772.50
1384.241,817.50
1385.139,771.00
1386.036,741.50
1386.931,773.50
1387.829,798.00
1388.724,792.00
1389.621,731.50
1390.516,810.00
1391.413,770.50
1392.309,734.50
1393.204,798.50
1394.101,815.00
1394.995,782.50
1395.891,724.50
1396.786,730.50
1397.682,743.50
1398.578,786.00
1399.472,753.00
1400.368,762.00
1401.262,709.00
1402.158,729.50
1403.051,766.00
1403.947,735.00
1404.840,779.00
1405.736,698.50
1406.631,726.50
1407.524,730.00
1408.419,780.00
1409.312,794.00
1410.207,768.00
1411.100,762.00
1411.995,752.50
1412.888,744.00
1413.782,694.50
1414.675,757.00
1415.569,749.50
1416.463,753.50
1417.355,738.50
1418.249,722.00
1419.141,766.00
1420.035,741.00
1420.927,704.00
1421.821,727.00
1422.713,737.00
1423.606,757.00
1424.498,749.50
1425.391,755.00
1426.282,732.00
1427.175,705.50
1428.068,717.50
1428.960,756.50
1429.852,708.50
1430.743,732.50
1431.636,723.50
1432.527,716.50
1433.419,700.50
1434.310,695.00
1435.202,733.50
1436.092,725.00
1436.984,706.00
1437.875,713.00
1438.767,693.50
1439.657,713.50
1440.548,739.00
1441.438,682.50
1442.330,702.50
1443.219,705.00
1444.111,716.50
1445.000,725.50
1445.891,710.00
1446.781,754.00
1447.672,692.50
1448.561,704.00
1449.452,704.50
1450.340,681.00
1451.231,690.50
1452.120,702.00
1453.010,683.50
1453.899,686.00
1454.789,666.50
1455.677,633.00
1456.568,735.00
1457.456,676.00
1458.346,678.00
1459.234,745.00
1460.123,759.00
1461.011,682.50
1461.901,660.50
1462.788,698.00
1463.678,714.00
1464.565,680.00
1465.454,675.00
1466.342,692.50
1467.231,727.50
1468.118,655.00
1469.006,727.50
1469.893,663.00
1470.782,757.00
1471.669,673.00
1472.557,686.00
1473.444,715.50
1474.330,681.00
1475.218,675.50
1476.105,700.50
1476.993,699.50
1477.879,644.50
1478.767,688.50
1479.652,696.50
1480.540,639.50
1481.426,667.50
1482.313,693.50
1483.199,717.00
1484.086,681.00
1484.972,697.50
1485.857,717.00
1486.744,603.00
1487.629,672.50
1488.516,691.50
1489.401,668.50
1490.287,675.50
1491.172,647.00
1492.058,677.50
1492.943,670.50
1493.828,612.00
1494.714,631.50
1495.598,644.00
1496.484,615.00
1497.368,685.00
1498.254,571.50
1499.138,671.50
1500.022,630.50
1500.907,643.00
1501.791,697.00
1502.676,699.00
1503.560,726.50
1504.445,648.50
1505.328,686.00
1506.211,629.50
1507.096,641.00
1507.979,667.00
1508.864,650.50
1509.747,645.50
1510.631,614.50
1511.514,606.00
1512.397,596.00
1513.281,622.50
1514.163,613.50
1515.047,630.50
1515.930,669.50
1516.812,638.00
1517.696,621.50
1518.578,627.50
1519.461,647.00
1520.343,684.00
1521.225,675.00
1522.108,694.50
1522.990,571.00
1523.873,634.00
1524.754,659.50
1525.635,669.50
1526.518,595.50
1527.399,629.50
1528.282,626.00
1529.163,628.50
1530.044,590.50
1530.926,670.50
1531.807,620.00
1532.689,588.00
1533.569,634.50
1534.450,620.00
1535.332,586.50
1536.212,641.00
1537.092,631.50
1537.974,608.00
1538.854,595.00
1539.735,594.00
1540.615,648.50
1541.495,630.00
1542.376,598.00
1543.255,638.50
1544.135,633.50
1545.016,631.00
1545.895,607.50
1546.774,637.00
1547.655,642.50
1548.534,617.00
1549.414,565.50
1550.293,628.50
1551.172,596.50
1552.052,628.00
1552.930,628.00
1553.809,603.50
1554.689,610.00
1555.567,600.50
1556.445,640.50
1557.325,565.50
1558.203,615.50
1559.080,652.00
1559.960,596.50
1560.838,592.50
1561.715,602.00
1562.594,579.00
1563.472,637.50
1564.349,600.00
1565.228,620.50
1566.105,615.00
1566.982,623.00
1567.861,585.00
1568.738,534.00
1569.615,598.50
1570.493,592.00
1571.370,573.50
1572.246,591.00
1573.124,621.50
1574.000,614.50
1574.877,633.00
1575.755,568.00
1576.631,605.50
1577.507,540.50
1578.384,616.50
1579.260,607.00
1580.136,552.00
1581.011,619.50
1581.889,594.50
1582.764,557.50
1583.639,626.50
1584.516,572.50
1585.391,646.00
1586.266,619.50
1587.143,617.00
1588.018,623.00
1588.893,593.50
1589.768,576.00
1590.644,597.00
1591.519,551.00
1592.393,566.00
1593.269,601.50
1594.143,638.00
1595.018,555.50
1595.892,573.00
1596.767,659.00
1597.641,585.50
1598.515,614.50
1599.391,649.50
1600.264,590.00
1601.138,606.50
1602.011,600.50
1602.886,628.50
1603.760,640.00
1604.633,654.00
1605.508,568.00
1606.381,646.50
1607.254,656.00
1608.127,613.50
1609.001,600.50
1609.874,729.00
1610.746,569.00
1611.619,577.50
1612.493,636.00
1613.365,600.00
1614.238,609.50
1615.110,584.50
1615.984,610.00
1616.855,582.00
1617.727,541.50
1618.599,587.00
1619.473,567.50
1620.344,613.00
1621.216,618.50
1622.087,612.50
1622.960,571.50
1623.832,533.00
1624.703,534.00
1625.574,625.50
1626.445,595.00
1627.317,524.00
1628.188,546.00
1629.059,583.00
1629.930,619.50
1630.802,609.50
1631.672,654.00
1632.543,587.50
1633.413,570.00
1634.283,506.00
1635.155,560.50
1636.025,585.50
1636.895,662.50
1637.765,632.50
1638.636,579.50
1639.506,625.00
1640.376,529.50
1641.245,552.00
1642.114,526.00
1642.985,578.00
1643.855,542.50
1644.724,561.50
1645.593,529.00
1646.462,562.50
1647.333,542.00
1648.201,572.00
1649.070,586.50
1649.939,560.00
1650.807,585.00
1651.676,588.00
1652.546,580.50
1653.414,587.00
1654.282,540.50
1655.150,600.50
1656.018,567.00
1656.888,566.00
1657.756,560.00
1658.623,559.50
1659.491,540.50
1660.359,542.50
1661.226,576.50
1662.095,551.00
1662.962,612.50
1663.830,552.50
1664.697,553.00
1665.564,586.00
1666.431,538.00
1667.297,592.00
1668.166,552.50
1669.033,548.00
1669.899,546.00
1670.766,560.00
1671.632,552.00
1672.499,555.00
1673.367,566.00
1674.233,518.50
1675.099,570.00
1675.965,527.50
1676.831,592.00
1677.696,543.00
1678.562,505.50
1679.430,560.00
1680.295,530.50
1681.161,550.00
1682.026,553.50
1682.891,564.00
1683.756,479.00
1684.621,548.00
1685.486,572.50
1686.353,574.00
1687.218,554.00
1688.083,527.50
1688.947,578.00
1689.812,519.50
1690.677,536.50
1691.541,548.00
1692.405,595.50
1693.269,546.50
1694.135,509.00
1694.999,580.50
1695.863,557.00
1696.727,589.00
1697.591,559.00
1698.455,551.00
1699.318,610.00
1700.182,598.50
1701.045,571.00
1701.909,524.50
1702.772,565.50
1703.637,576.50
1704.500,560.50
1705.363,511.50
1706.226,531.50
1707.089,602.00
1707.951,549.50
1708.814,556.50
1709.677,501.50
1710.539,554.50
1711.402,565.00
1712.264,502.00
1713.126,568.50
1713.988,560.50
1714.852,521.50
1715.714,537.50
1716.576,543.00
1717.438,549.50
1718.299,528.50
1719.161,502.00
1720.023,537.50
1720.884,548.50
1721.745,539.50
1722.607,516.50
1723.468,546.00
1724.329,520.00
1725.190,541.00
1726.051,590.50
1726.912,569.50
1727.772,571.50
1728.633,538.50
1729.494,536.00
1730.354,621.00
1731.214,558.00
1732.075,530.50
1732.935,550.00
1733.797,510.00
1734.657,530.00
1735.517,494.50
1736.377,523.50
1737.237,495.50
1738.096,570.50
1738.956,527.00
1739.816,589.00
1740.675,601.50
1741.534,539.50
1742.394,627.50
1743.253,536.00
1744.112,542.00
1744.971,553.50
1745.830,568.00
1746.689,531.00
1747.547,543.00
1748.406,501.50
1749.265,540.50
1750.123,587.50
1750.982,573.50
1751.840,543.50
1752.698,556.50
1753.556,554.00
1754.414,557.50
1755.272,500.50
1756.130,534.00
1756.988,515.00
1757.846,535.00
1758.703,558.50
1759.559,549.50
1760.417,532.00
1761.274,553.50
1762.131,585.00
1762.989,580.50
1763.846,531.00
1764.703,517.00
1765.560,575.50
1766.417,547.50
1767.273,509.00
1768.130,548.50
1768.987,494.50
1769.843,479.50
1770.700,518.00
1771.556,496.00
1772.412,551.00
1773.268,515.50
1774.125,545.50
1774.980,595.00
1775.836,486.00
1776.692,490.00
1777.546,551.00
1778.402,523.00
1779.257,515.00
1780.113,548.50
1780.968,522.50
1781.824,525.00
1782.679,590.00
1783.534,574.50
1784.389,513.50
1785.244,563.00
1786.099,536.50
1786.954,567.00
1787.808,526.50
1788.661,540.50
1789.516,520.50
1790.370,528.00
1791.225,539.00
1792.079,532.50
1792.933,586.00
1793.787,524.00
1794.641,530.00
1795.495,560.50
1796.349,471.00
1797.201,534.00
1798.055,513.50
1798.908,534.00
1799.762,531.00
1800.615,497.50
1801.469,500.50
1802.322,538.50
1803.175,512.50
1804.028,499.50
1804.880,562.00
1805.732,561.00
1806.585,546.50
1807.438,522.50
1808.291,522.00
1809.143,558.00
1809.996,507.00
1810.846,543.50
1811.699,556.00
1812.551,556.00
1813.403,528.00
1814.255,540.00
1815.107,554.00
1815.959,538.00
1816.809,505.50
1817.661,509.00
1818.512,508.00
1819.364,486.00
1820.215,493.00
1821.067,517.00
1821.918,521.50
1822.768,570.50
1823.619,477.50
1824.470,535.00
1825.321,547.00
1826.172,521.50
1827.021,600.00
1827.871,567.50
1828.722,504.00
1829.572,528.00
1830.423,521.50
1831.273,537.00
1832.122,524.50
1832.972,537.50
1833.822,519.00
1834.672,481.50
1835.522,490.50
1836.370,539.00
1837.220,549.50
1838.070,507.00
1838.919,498.00
1839.769,474.50
1840.616,521.00
1841.466,513.00
1842.315,459.50
1843.164,524.50
1844.013,532.50
1844.860,573.00
1845.709,517.50
1846.558,509.50
1847.407,527.50
1848.254,527.50
1849.102,515.00
1849.951,494.50
1850.799,514.50
1851.648,539.50
1852.494,529.50
1853.342,577.00
1854.190,547.00
1855.038,535.50
1855.884,549.50
1856.732,544.50
1857.580,527.50
1858.428,481.00
1859.273,479.50
1860.121,509.50
1860.968,506.50
1861.816,546.50
1862.661,503.50
1863.508,528.00
1864.355,576.00
1865.202,578.00
1866.047,509.00
1866.894,547.50
1867.741,580.50
1868.586,502.50
1869.432,532.00
1870.279,498.50
1871.125,541.00
1871.970,544.50
1872.816,491.00
1873.662,525.50
1874.506,504.50
1875.352,488.00
1876.198,514.00
1877.044,521.00
1877.888,491.50
1878.734,525.50
1879.579,506.00
1880.423,541.00
1881.268,532.00
1882.113,491.50
1882.959,552.50
1883.802,531.50
1884.647,522.50
1885.492,548.50
1886.335,540.50
1887.180,541.50
1888.025,518.00
1888.867,537.00
1889.712,500.00
1890.556,558.00
1891.399,494.50
1892.243,563.00
1893.087,539.50
1893.930,489.50
1894.774,516.50
1895.618,501.00
1896.460,530.50
1897.304,480.50
1898.147,496.00
1898.989,461.00
1899.833,504.00
1900.676,510.00
1901.518,500.00
1902.361,496.00
1903.202,486.50
1904.046,505.50
1904.889,488.50
1905.730,490.00
1906.573,556.00
1907.415,514.00
1908.256,505.50
1909.099,510.00
1909.941,497.00
1910.782,514.50
1911.624,552.00
1912.465,512.50
1913.307,457.50
1914.149,524.50
1914.989,494.00
1915.831,533.00
1916.671,495.50
1917.513,459.50
1918.355,501.50
1919.195,491.50
1920.036,552.50
1920.876,534.50
1921.717,506.50
1922.558,523.50
1923.398,473.50
1924.239,499.00
1925.078,485.00
1925.919,540.00
1926.760,533.00
1927.599,489.00
1928.440,508.00
1929.279,509.50
1930.119,533.00
1930.958,475.00
1931.798,507.00
1932.638,493.00
1933.477,533.50
1934.317,548.50
1935.155,542.50
1935.995,506.50
1936.833,541.50
1937.673,488.00
1938.512,519.00
1939.350,508.00
1940.190,498.50
1941.027,493.50
1941.867,510.50
1942.704,488.00
1943.543,565.00
1944.381,486.00
1945.220,521.00
1946.057,492.00
1946.896,500.00
1947.733,520.00
1948.572,529.00
1949.408,524.00
1950.247,469.50
1951.085,500.00
1951.922,507.00
1952.760,520.50
1953.597,497.00
1954.435,457.50
1955.271,456.00
1956.109,558.50
1956.945,537.00
1957.783,489.50
1958.619,523.50
1959.456,486.00
1960.292,507.50
1961.129,507.00
1961.965,437.50
1962.802,504.00
1963.638,493.00
1964.475,527.50
1965.310,512.00
1966.145,538.00
1966.982,475.50
1967.817,510.00
1968.654,504.00
1969.489,546.50
1970.325,536.00
1971.160,500.50
1971.996,512.50
1972.831,499.00
1973.667,469.00
1974.501,498.50
1975.337,548.50
1976.171,551.00
1977.006,479.00
1977.841,515.50
1978.675,547.50
1979.511,493.50
1980.345,535.50
1981.180,509.00
1982.014,502.50
1982.849,500.00
1983.682,531.00
1984.516,533.50
1985.351,567.50
1986.184,577.00
1987.019,520.50
1987.852,482.00
1988.687,491.00
1989.519,501.50
1990.352,520.50
1991.187,497.00
1992.019,575.00
1992.854,546.00
1993.686,576.00
1994.518,554.00
1995.352,550.50
1996.185,509.50
1997.019,529.00
1997.851,572.50
1998.682,519.00
1999.516,524.50
2000.348,531.00

<< BACKGROUND SPECTRUM >>
Wave[dcm-1],No15
96.716,2566.00
97.759,2363.00
98.802,2271.00
99.846,2934.00
100.886,2558.00
101.929,2749.00
102.972,2766.00
104.015,2594.00
105.057,2777.00
106.100,2249.00
107.142,3250.00
108.184,3133.00
109.226,2861.00
110.268,3058.00
111.310,3306.00
112.352,2948.00
113.393,2963.00
114.435,2862.00
115.476,3088.00
116.517,3077.00
117.558,2588.00
118.599,2958.00
119.640,3237.00
120.681,3228.00
121.722,3202.00
122.762,2880.00
123.803,2732.00
124.843,3094.00
125.883,3341.00
126.923,3569.00
127.963,3324.00
129.001,3560.00
130.041,3976.00
131.080,3242.00
132.120,3146.00
133.159,3549.00
134.199,3644.00
135.238,3072.00
136.277,3496.00
137.316,3733.00
138.355,3603.00
139.393,3184.00
140.432,3308.00
141.470,3424.00
142.509,3162.00
143.547,3735.00
144.585,2969.00
145.623,3400.00
146.661,3152.00
147.699,3492.00
148.736,3591.00
149.774,3203.00
150.811,3485.00
151.849,3937.00
152.886,3461.00
153.923,3702.00
154.960,3110.00
155.997,3934.00
157.034,4935.00
158.072,3567.00
159.109,4056.00
160.145,4188.00
161.182,3212.00
162.218,3495.00
163.254,3318.00
164.290,3288.00
165.326,3976.00
166.361,3865.00
167.397,3511.00
168.432,3709.00
169.468,3429.00
170.503,3717.00
171.538,3370.00
172.573,3770.00
173.608,3210.00
174.643,3766.00
175.677,3606.00
176.712,3824.00
177.746,3804.00
178.781,3376.00
179.815,2681.00
180.849,3805.00
181.883,3341.00
182.917,2845.00
183.951,3097.00
184.984,3826.00
186.020,3302.00
187.053,3602.00
188.087,3234.00
189.120,3515.00
190.153,3693.00
191.186,3717.00
192.219,3801.00
193.251,3641.00
194.284,3827.00
195.317,3855.00
196.349,6063.00
197.381,3446.00
198.413,3494.00
199.445,3230.00
200.477,3547.00
201.509,3519.00
202.543,3549.00
203.575,3924.00
204.606,3668.00
205.637,5319.00
206.669,3162.00
207.700,3706.00
208.731,3533.00
209.762,3228.00
210.792,3271.00
211.823,3664.00
212.854,3285.00
213.884,4358.00
214.914,3692.00
215.947,3563.00
216.977,3656.00
218.007,3562.00
219.037,3869.00
220.066,3324.00
221.096,3782.00
222.126,3137.00
223.155,3397.00
224.184,3775.00
225.214,4240.00
226.245,3905.00
227.274,3331.00
228.302,3678.00
229.331,3718.00
230.360,3396.00
231.388,3422.00
232.417,3191.00
233.445,3597.00
234.473,3408.00
235.501,3732.00
236.531,3713.00
237.559,3667.00
238.587,3318.00
239.614,3280.00
240.642,3616.00
241.669,3634.00
242.696,3715.00
243.724,3681.00
244.753,3996.00
245.780,3412.00
246.806,3172.00
247.833,3590.00
248.860,3510.00
249.886,3620.00
250.913,3229.00
251.939,3492.00
252.967,3468.00
253.993,3508.00
255.019,3961.00
256.045,3559.00
257.070,3965.00
258.096,3305.00
259.121,3705.00
260.147,3538.00
261.174,3442.00
262.199,3463.00
263.224,3598.00
264.249,3855.00
265.274,4028.00
266.298,3561.00
267.323,3598.00
268.349,3888.00
269.374,3207.00
270.398,3213.00
271.422,3727.00
272.446,3308.00
273.470,3084.00
274.496,3754.00
275.519,3739.00
276.543,3878.00
277.566,3961.00
278.589,3840.00
279.613,3725.00
280.636,3715.00
281.661,3776.00
282.684,3799.00
283.706,3953.00
284.729,4210.00
285.751,3014.00
286.774,3960.00
287.798,3354.00
288.820,2967.00
289.842,3332.00
290.864,3405.00
291.886,3649.00
292.910,3453.00
293.932,4062.00
294.953,3509.00
295.974,3551.00
296.996,3726.00
298.017,3558.00
299.040,3392.00
300.061,3651.00
301.082,3374.00
302.102,3249.00
303.123,3789.00
304.143,3549.00
305.166,3547.00
306.186,3741.00
307.206,3318.00
308.226,3723.00
309.246,3103.00
310.268,3847.00
311.288,3494.00
312.307,3160.00
313.327,3470.00
314.346,3782.00
315.368,2999.00
316.387,3632.00
317.406,3596.00
318.425,3577.00
319.443,3489.00
320.464,3146.00
321.483,4033.00
322.501,3328.00
323.520,3971.00
324.538,3470.00
325.558,4008.00
326.576,3638.00
327.594,3496.00
328.612,3406.00
329.629,3184.00
330.649,3768.00
331.666,3568.00
332.684,3149.00
333.701,3704.00
334.718,3188.00
335.737,3417.00
336.754,3765.00
337.771,3795.00
338.787,3192.00
339.806,3440.00
340.823,3483.00
341.839,3555.00
342.855,3451.00
343.871,3625.00
344.889,3381.00
345.905,3826.00
346.921,3771.00
347.937,4366.00
348.954,4170.00
349.970,3670.00
350.985,3545.00
352.000,3087.00
353.017,3733.00
354.032,3124.00
355.047,3812.00
356.062,3482.00
357.077,3435.00
358.093,3994.00
359.108,3685.00
360.122,3664.00
361.136,3484.00
362.152,3911.00
363.166,3220.00
364.180,3127.00
365.194,3932.00
366.210,3372.00
367.223,3323.00
368.237,3416.00
369.250,3562.00
370.265,3385.00
371.278,3889.00
372.291,3698.00
373.304,3008.00
374.319,3780.00
375.332,3791.00
376.344,4082.00
377.357,3392.00
378.371,3845.00
379.383,3321.00
380.395,4311.00
381.407,4064.00
382.421,3437.00
383.433,3394.00
384.445,3366.00
385.456,3550.00
386.470,3041.00
387.481,3926.00
388.492,3889.00
389.505,3257.00
390.516,4001.00
391.527,3470.00
392.538,3425.00
393.551,3694.00
394.561,4319.00
395.572,3719.00
396.582,3588.00
397.594,3766.00
398.604,3412.00
399.614,3607.00
400.624,3386.00
401.636,3421.00
402.646,3508.00
403.655,3156.00
404.667,3355.00
405.676,3368.00
406.685,4319.00
407.694,3893.00
408.705,3021.00
409.714,3090.00
410.723,3276.00
411.734,3247.00
412.742,3407.00
413.751,3646.00
414.759,3617.00
415.769,3569.00
416.777,3803.00
417.785,3559.00
418.795,3384.00
419.803,3611.00
420.811,3303.00
421.818,3943.00
422.828,3450.00
423.835,3392.00
424.842,3423.00
425.852,3275.00
426.859,3682.00
427.866,3676.00
428.874,3588.00
429.881,3478.00
430.888,3775.00
431.894,3652.00
432.902,3520.00
433.909,4529.00
434.915,3653.00
435.923,4291.00
436.929,3077.00
437.935,3485.00
438.942,3350.00
439.948,3587.00
440.953,4063.00
441.959,3234.00
442.966,3931.00
443.971,3736.00
444.976,3178.00
445.983,3587.00
446.988,3444.00
447.993,3963.00
448.999,3612.00
450.004,3548.00
451.008,3351.00
452.014,4073.00
453.019,3855.00
454.023,3248.00
455.029,3256.00
456.032,3975.00
457.036,3515.00
458.042,2903.00
459.045,3413.00
460.049,3721.00
461.052,4027.00
462.057,3787.00
463.060,4019.00
464.063,3366.00
465.068,3443.00
466.071,3275.00
467.073,3863.00
468.078,3127.00
469.080,3076.00
470.082,3566.00
471.087,3455.00
472.089,3607.00
473.091,3822.00
474.095,4060.00
475.096,3460.00
476.098,3394.00
477.101,3794.00
478.103,3292.00
479.104,4181.00
480.107,3409.00
481.108,3000.00
482.109,4233.00
483.112,4197.00
484.113,4546.00
485.114,3775.00
486.116,3561.00
487.117,3886.00
488.117,3639.00
489.119,3704.00
490.119,3758.00
491.121,3195.00
492.121,3044.00
493.121,2890.00
494.123,3636.00
495.122,3661.00
496.122,3510.00
497.123,4476.00
498.122,3340.00
499.121,3637.00
500.122,3535.00
501.121,3181.00
502.120,3132.00
503.121,3248.00
504.119,3191.00
505.118,3774.00
506.118,3263.00
507.117,3249.00
508.115,3700.00
509.115,3518.00
510.113,3081.00
511.112,3810.00
512.110,3451.00
513.108,3781.00
514.107,3877.00
515.105,3814.00
516.102,3977.00
517.101,3526.00
518.098,3595.00
519.095,4046.00
520.094,3400.00
521.091,3406.00
522.089,3725.00
523.086,3355.00
524.082,3692.00
525.081,3621.00
526.077,4713.00
527.073,4559.00
528.071,3498.00
529.067,3373.00
530.064,3454.00
531.060,3158.00
532.056,3451.00
533.053,3861.00
534.048,3751.00
535.044,3537.00
536.041,3704.00
537.036,3567.00
538.030,3719.00
539.027,3798.00
540.022,3178.00
541.019,3497.00
542.013,3779.00
543.007,3694.00
544.004,3436.00
544.998,3528.00
545.994,4127.00
546.988,4010.00
547.981,3416.00
548.977,4176.00
549.971,3700.00
550.964,3802.00
551.960,3588.00
552.953,3565.00
553.948,3816.00
554.941,3365.00
555.934,3240.00
556.929,3748.00
557.922,3323.00
558.916,3860.00
559.909,4106.00
560.901,3596.00
561.895,3652.00
562.888,3270.00
563.880,3717.00
564.874,3925.00
565.865,3804.00
566.859,3193.00
567.851,4088.00
568.842,3479.00
569.836,3554.00
570.827,3224.00
571.820,3574.00
572.811,3705.00
573.802,3539.00
574.795,3273.00
575.786,3848.00
576.779,3700.00
577.769,3195.00
578.760,3635.00
579.752,3202.00
580.742,3332.00
581.735,3712.00
582.725,3362.00
583.714,3807.00
584.706,3233.00
585.696,3561.00
586.688,3772.00
587.677,3456.00
588.667,3691.00
589.658,3502.00
590.647,3691.00
591.638,3589.00
592.627,3433.00
593.616,3127.00
594.607,3664.00
595.595,3578.00
596.586,3198.00
597.574,3918.00
598.562,3886.00
599.553,3164.00
600.541,3549.00
601.531,3673.00
602.519,3500.00
603.508,3693.00
604.496,3704.00
605.484,3647.00
606.473,3494.00
607.460,3389.00
608.450,3467.00
609.437,3740.00
610.424,3835.00
611.413,3088.00
612.400,3303.00
613.388,3575.00
614.375,3429.00
615.361,3447.00
616.350,3337.00
617.336,8351.00
618.324,3911.00
619.310,3334.00
620.298,3186.00
621.284,3610.00
622.270,3247.00
623.257,3531.00
624.243,3561.00
625.230,3765.00
626.216,3541.00
627.203,3910.00
628.188,3471.00
629.173,3398.00
630.160,3250.00
631.145,2658.00
632.131,3304.00
633.116,3162.00
634.102,3641.00
635.087,3768.00
636.071,3769.00
637.057,3381.00
638.041,3124.00
639.027,3255.00
640.011,3401.00
640.995,3246.00
641.980,3231.00
642.964,3369.00
643.949,3919.00
644.932,2786.00
645.918,3316.00
646.901,3519.00
647.886,3294.00
648.868,3398.00
649.851,3197.00
650.836,2932.00
651.818,3183.00
652.803,3701.00
653.785,3481.00
654.769,3686.00
655.751,3652.00
656.733,3946.00
657.717,3059.00
658.699,3566.00
659.683,3289.00
660.664,3173.00
661.648,3332.00
662.629,3314.00
663.611,3265.00
664.594,3110.00
665.575,3091.00
666.558,3413.00
667.539,3088.00
668.521,3379.00
669.502,3364.00
670.484,3411.00
671.465,3255.00
672.445,3441.00
673.427,3234.00
674.407,3213.00
675.390,3530.00
676.369,3378.00
677.351,2959.00
678.331,3616.00
679.312,3363.00
680.292,3248.00
681.271,2985.00
682.253,3531.00
683.232,3081.00
684.213,3239.00
685.192,3693.00
686.172,3914.00
687.151,3358.00
688.132,3423.00
689.110,3567.00
690.089,3718.00
691.069,2897.00
692.047,2836.00
693.027,2982.00
694.005,3382.00
694.985,3988.00
695.963,3482.00
696.943,3276.00
697.920,2961.00
698.898,3780.00
699.877,3605.00
700.854,3252.00
701.833,3240.00
702.810,3730.00
703.789,3460.00
704.766,4511.00
705.745,3948.00
706.721,3168.00
707.698,3729.00
708.676,3080.00
709.653,3262.00
710.631,3692.00
711.607,3353.00
712.585,3390.00
713.561,3116.00
714.539,3880.00
715.514,3284.00
716.492,3075.00
717.467,3769.00
718.443,3009.00
719.420,3664.00
720.395,3748.00
721.372,3522.00
722.347,3654.00
723.324,3191.00
724.298,3396.00
725.275,3149.00
726.250,3264.00
727.226,3101.00
728.200,2970.00
729.176,3320.00
730.151,3582.00
731.125,3813.00
732.100,2950.00
733.074,3321.00
734.050,3232.00
735.023,3021.00
735.999,3283.00
736.972,3217.00
737.947,3722.00
738.921,3412.00
739.896,3586.00
740.869,3402.00
741.841,3242.00
742.816,3752.00
743.789,3129.00
744.763,3081.00
745.736,3301.00
746.710,3168.00
747.682,3073.00
748.656,3310.00
749.628,3286.00
750.602,3294.00
751.574,3376.00
752.548,4195.00
753.519,3481.00
754.491,2925.00
755.464,3129.00
756.435,3988.00
757.408,3567.00
758.379,3486.00
759.352,2866.00
760.323,2987.00
761.296,3216.00
762.267,3327.00
763.239,3104.00
764.209,3549.00
765.182,4486.00
766.152,3589.00
767.124,3090.00
768.094,3136.00
769.064,3487.00
770.036,2976.00
771.005,3631.00
771.977,3133.00
772.947,3225.00
773.918,3746.00
774.887,3280.00
775.858,3094.00
776.827,3186.00
777.798,3218.00
778.767,3836.00
779.738,3248.00
780.707,3205.00
781.677,3372.00
782.646,3121.00
783.614,3680.00
784.584,3368.00
785.552,3470.00
786.522,2960.00
787.490,3327.00
788.460,3196.00
789.428,3197.00
790.397,3713.00
791.365,2965.00
792.334,3222.00
793.302,3401.00
794.271,3438.00
795.238,3186.00
796.207,3135.00
797.174,3556.00
798.143,3019.00
799.109,3636.00
800.076,3169.00
801.044,2878.00
802.011,3097.00
802.979,3122.00
803.945,3333.00
804.913,3867.00
805.879,3197.00
806.847,2967.00
807.813,3612.00
808.780,3238.00
809.746,3274.00
810.713,3659.00
811.678,2962.00
812.646,3157.00
813.611,3177.00
814.578,2968.00
815.543,3623.00
816.510,2848.00
817.474,3170.00
818.439,3218.00
819.405,3489.00
820.370,3070.00
821.336,2973.00
822.300,3393.00
823.266,3181.00
824.230,3419.00
825.196,3320.00
826.160,3651.00
827.126,3586.00
828.089,4050.00
829.055,3263.00
830.018,3364.00
830.983,4074.00
831.946,3080.00
832.911,3037.00
833.874,3883.00
834.837,3128.00
835.802,3156.00
836.765,3709.00
837.729,3150.00
838.691,3263.00
839.656,3589.00
840.618,3397.00
841.582,3478.00
842.544,3576.00
843.508,3703.00
844.470,2967.00
845.434,2874.00
846.395,2753.00
847.359,3137.00
848.320,2854.00
849.283,3054.00
850.245,3129.00
851.208,3475.00
852.169,3211.00
853.130,2941.00
854.092,3488.00
855.053,3198.00
856.016,3174.00
856.976,4318.00
857.938,3206.00
858.899,3293.00
859.861,2901.00
860.821,3168.00
861.783,2544.00
862.743,3229.00
863.704,3522.00
864.664,2762.00
865.626,3336.00
866.585,3053.00
867.546,3362.00
868.506,3340.00
869.467,2824.00
870.426,3284.00
871.387,3466.00
872.346,3513.00
873.304,3313.00
874.265,3472.00
875.223,3309.00
876.184,3321.00
877.142,3094.00
878.102,3202.00
879.060,3216.00
880.021,3307.00
880.978,2823.00
881.938,3161.00
882.896,3517.00
883.856,3441.00
884.813,3158.00
885.772,3114.00
886.730,3431.00
887.689,3435.00
888.646,3027.00
889.603,3548.00
890.562,3613.00
891.519,3346.00
892.477,3363.00
893.434,3302.00
894.392,2821.00
895.349,3242.00
896.307,3320.00
897.263,3487.00
898.221,3305.00
899.177,3082.00
900.135,3453.00
901.091,3168.00
902.048,3619.00
903.004,3198.00
903.961,3016.00
904.917,3187.00
905.874,3264.00
906.829,2934.00
907.784,3297.00
908.741,3265.00
909.696,3119.00
910.653,2749.00
911.607,3185.00
912.564,3143.00
913.518,3122.00
914.475,3299.00
915.429,4902.00
916.385,2914.00
917.339,3614.00
918.295,3304.00
919.249,3459.00
920.205,3277.00
921.158,3348.00
922.114,3133.00
923.067,3260.00
924.020,3306.00
924.976,3138.00
925.929,3392.00
926.884,3323.00
927.837,3565.00
928.791,3452.00
929.744,2920.00
930.699,3276.00
931.651,3278.00
932.606,2866.00
933.558,3108.00
934.512,3432.00
935.464,3360.00
936.418,3636.00
937.370,3405.00
938.322,3032.00
939.276,3157.00
940.227,3252.00
941.181,3317.00
942.132,3638.00
943.085,3836.00
944.036,2783.00
944.990,3585.00
945.941,3006.00
946.893,3100.00
947.844,2864.00
948.797,3379.00
949.747,3991.00
950.700,3080.00
951.650,2645.00
952.601,3324.00
953.553,3011.00
954.503,3454.00
955.455,3157.00
956.405,3158.00
957.356,2921.00
958.306,3478.00
959.258,3157.00
960.207,3570.00
961.158,3524.00
962.108,3250.00
963.059,2924.00
964.008,2863.00
964.959,3860.00
965.908,3141.00
966.856,2988.00
967.807,2816.00
968.756,3591.00
969.706,3289.00
970.654,3167.00
971.605,3180.00
972.553,3313.00
973.503,3191.00
974.451,3483.00
975.401,3307.00
976.348,3260.00
977.296,3139.00
978.246,3430.00
979.193,3610.00
980.142,2990.00
981.090,3324.00
982.039,3219.00
982.986,3300.00
983.935,3585.00
984.882,3300.00
985.830,3433.00
986.777,3386.00
987.725,3100.00
988.672,3022.00
989.618,3228.00
990.567,3003.00
991.513,3153.00
992.461,3032.00
993.407,3429.00
994.354,3369.00
995.300,3323.00
996.248,3267.00
997.193,3353.00
998.141,3115.00
999.086,3367.00
1000.031,3318.00
1000.978,2819.00
1001.924,3202.00
1002.870,3351.00
1003.815,2618.00
1004.762,2989.00
1005.707,3255.00
1006.653,3089.00
1007.598,3195.00
1008.542,2876.00
1009.488,2859.00
1010.432,3102.00
1011.378,2959.00
1012.322,3538.00
1013.268,2885.00
1014.212,3207.00
1015.157,3264.00
1016.101,3658.00
1017.046,2897.00
1017.990,2918.00
1018.933,3154.00
1019.878,2957.00
1020.821,3024.00
1021.766,2858.00
1022.709,3089.00
1023.654,3141.00
1024.596,3446.00
1025.541,3620.00
1026.483,3641.00
1027.425,3311.00
1028.370,3402.00
1029.312,3353.00
1030.256,3077.00
1031.198,3014.00
1032.141,3054.00
1033.083,3557.00
1034.027,3283.00
1034.968,3346.00
1035.910,2748.00
1036.853,3177.00
1037.794,3262.00
1038.738,2939.00
1039.679,3480.00
1040.621,3064.00
1041.562,3110.00
1042.503,3497.00
1043.446,2898.00
1044.386,3421.00
1045.329,3228.00
1046.269,3328.00
1047.211,3123.00
1048.151,3237.00
1049.093,2931.00
1050.033,3981.00
1050.973,3365.00
1051.915,3114.00
1052.854,3095.00
1053.796,3407.00
1054.735,3031.00
1055.677,3054.00
1056.616,3237.00
1057.555,3247.00
1058.496,2839.00
1059.435,3382.00
1060.376,3001.00
1061.315,3010.00
1062.255,2874.00
1063.194,3134.00
1064.132,2881.00
1065.073,3263.00
1066.011,3204.00
1066.951,3220.00
1067.889,2937.00
1068.829,3335.00
1069.767,3251.00
1070.705,2565.00
1071.644,3081.00
1072.582,2771.00
1073.521,3099.00
1074.459,3127.00
1075.398,3322.00
1076.335,3051.00
1077.272,3767.00
1078.211,3298.00
1079.148,3686.00
1080.087,3181.00
1081.023,3562.00
1081.962,3446.00
1082.898,2732.00
1083.835,3048.00
1084.773,2751.00
1085.709,2813.00
1086.647,3145.00
1087.583,3053.00
1088.519,3289.00
1089.457,3314.00
1090.392,2746.00
1091.330,3195.00
1092.266,3122.00
1093.203,3438.00
1094.138,2809.00
1095.073,3684.00
1096.010,3406.00
1096.945,3093.00
1097.882,2752.00
1098.817,2619.00
1099.752,4005.00
1100.688,3180.00
1101.623,3242.00
1102.559,3240.00
1103.493,3458.00
1104.430,2687.00
1105.364,2833.00
1106.298,3081.00
1107.234,3688.00
1108.167,2925.00
1109.094,3079.00
1110.019,3134.00
1110.945,3291.00
1111.869,3113.00
1112.795,3043.00
1113.720,3158.00
1114.646,3165.00
1115.571,2578.00
1116.495,3223.00
1117.420,3239.00
1118.345,2957.00
1119.270,3050.00
1120.195,3265.00
1121.118,3514.00
1122.042,3366.00
1122.967,3119.00
1123.891,3173.00
1124.816,3187.00
1125.738,3196.00
1126.663,2552.00
1127.587,3063.00
1128.511,3018.00
1129.435,3198.00
1130.357,3212.00
1131.280,4032.00
1132.204,2898.00
1133.128,2973.00
1134.051,3048.00
1134.972,3752.00
1135.896,2997.00
1136.819,3405.00
1137.742,2990.00
1138.665,3232.00
1139.586,3157.00
1140.509,2722.00
1141.431,2994.00
1142.354,3592.00
1143.276,3176.00
1144.197,3487.00
1145.119,3213.00
1146.041,2932.00
1146.964,3345.00
1147.885,3257.00
1148.806,3051.00
1149.727,3142.00
1150.649,2745.00
1151.571,3158.00
1152.492,3351.00
1153.412,3254.00
1154.333,3173.00
1155.254,3030.00
1156.175,3028.00
1157.095,3594.00
1158.016,3201.00
1158.936,2982.00
1159.857,3272.00
1160.778,3040.00
1161.697,2765.00
1162.617,3254.00
1163.537,3817.00
1164.458,3640.00
1165.376,2985.00
1166.296,3318.00
1167.216,3488.00
1168.136,2963.00
1169.056,2901.00
1169.974,3126.00
1170.893,3681.00
1171.813,3309.00
1172.732,3079.00
1173.650,3179.00
1174.569,3956.00
1175.488,3359.00
1176.407,2866.00
1177.326,2962.00
1178.243,3142.00
1179.161,2993.00
1180.080,3055.00
1180.999,3292.00
1181.915,3104.00
1182.834,2744.00
1183.752,3295.00
1184.670,3706.00
1185.586,2697.00
1186.504,2945.00
1187.422,3089.00
1188.340,2823.00
1189.258,3280.00
1190.173,3150.00
1191.091,3475.00
1192.008,2978.00
1192.926,2991.00
1193.841,3241.00
1194.758,3276.00
1195.675,2903.00
1196.592,3409.00
1197.507,2915.00
1198.424,3307.00
1199.340,3616.00
1200.257,3042.00
1201.172,3318.00
1202.088,2582.00
1203.004,3186.00
1203.920,3433.00
1204.835,3725.00
1205.750,3469.00
1206.666,3537.00
1207.582,2932.00
1208.496,2939.00
1209.412,3071.00
1210.327,3006.00
1211.243,3655.00
1212.156,2932.00
1213.071,2891.00
1213.986,3175.00
1214.901,2809.00
1215.814,2759.00
1216.729,2893.00
1217.644,2942.00
1218.559,2899.00
1219.471,3963.00
1220.386,3494.00
1221.300,2947.00
1222.213,3320.00
1223.127,3123.00
1224.041,3498.00
1224.955,2917.00
1225.867,3186.00
1226.781,3392.00
1227.694,3523.00
1228.608,3076.00
1229.520,3346.00
1230.433,3356.00
1231.346,2932.00
1232.260,3286.00
1233.171,2913.00
1234.084,3240.00
1234.997,3557.00
1235.908,3001.00
1236.821,3304.00
1237.733,4351.00
1238.646,3333.00
1239.556,3198.00
1240.469,3118.00
1241.381,2913.00
1242.293,2930.00
1243.203,3627.00
1244.115,3645.00
1245.027,3253.00
1245.937,3007.00
1246.849,3040.00
1247.761,3163.00
1248.672,2934.00
1249.582,3047.00
1250.493,3703.00
1251.404,3181.00
1252.313,3330.00
1253.225,3512.00
1254.135,4082.00
1255.046,3271.00
1255.955,3370.00
1256.866,3633.00
1257.777,3045.00
1258.685,2824.00
1259.596,2626.00
1260.506,3545.00
1261.416,3054.00
1262.324,3447.00
1263.234,3108.00
1264.144,3344.00
1265.052,3278.00
1265.962,3160.00
1266.872,3446.00
1267.779,3360.00
1268.689,2748.00
1269.598,2861.00
1270.507,3116.00
1271.415,3033.00
1272.324,3241.00
1273.233,3104.00
1274.140,3023.00
1275.048,2884.00
1275.957,2655.00
1276.864,2958.00
1277.772,2952.00
1278.681,2622.00
1279.587,2920.00
1280.496,3270.00
1281.404,3893.00
1282.312,3301.00
1283.218,2880.00
1284.126,2892.00
1285.033,3633.00
1285.939,3079.00
1286.847,3207.00
1287.754,3068.00
1288.660,2940.00
1289.567,3754.00
1290.474,3203.00
1291.380,3395.00
1292.286,2820.00
1293.193,3172.00
1294.098,3149.00
1295.005,2950.00
1295.912,3463.00
1296.816,3229.00
1297.723,3085.00
1298.629,2963.00
1299.534,3496.00
1300.440,3262.00
1301.346,2942.00
1302.250,2975.00
1303.156,2727.00
1304.062,3608.00
1304.966,3697.00
1305.871,3424.00
1306.777,2951.00
1307.680,3071.00
1308.586,3216.00
1309.491,3403.00
1310.394,3140.00
1311.299,3411.00
1312.204,3658.00
1313.107,3304.00
1314.012,3195.00
1314.917,2857.00
1315.819,3243.00
1316.724,3717.00
1317.628,3276.00
1318.531,3107.00
1319.435,3463.00
1320.339,3982.00
1321.241,3119.00
1322.145,3172.00
1323.049,3223.00
1323.951,2922.00
1324.854,2900.00
1325.756,3391.00
1326.659,3197.00
1327.563,2954.00
1328.464,3236.00
1329.367,3133.00
1330.271,3498.00
1331.172,2895.00
1332.074,3197.00
1332.977,2933.00
1333.878,3311.00
1334.781,3436.00
1335.683,2930.00
1336.584,3075.00
1337.486,2722.00
1338.387,3330.00
1339.289,2865.00
1340.191,2981.00
1341.091,3034.00
1341.993,2881.00
1342.895,3032.00
1343.794,3254.00
1344.696,3390.00
1345.596,3312.00
1346.497,2879.00
1347.398,3109.00
1348.298,2656.00
1349.199,3717.00
1350.100,3020.00
1350.999,3515.00
1351.900,3311.00
1352.799,3461.00
1353.699,3247.00
1354.600,3109.00
1355.499,3191.00
1356.399,2691.00
1357.297,3078.00
1358.198,3206.00
1359.098,2923.00
1359.996,2823.00
1360.896,3571.00
1361.796,3357.00
1362.694,3201.00
1363.593,3110.00
1364.491,3327.00
1365.391,3682.00
1366.290,3071.00
1367.187,2922.00
1368.086,3369.00
1368.984,3195.00
1369.883,2684.00
1370.782,3170.00
1371.679,3317.00
1372.577,3659.00
1373.474,3178.00
1374.373,3097.00
1375.269,3149.00
1376.168,3094.00
1377.066,3431.00
1377.962,3397.00
1378.860,3510.00
1379.756,3534.00
1380.654,3728.00
1381.552,3382.00
1382.448,3334.00
1383.346,3188.00
1384.241,3276.00
1385.139,3372.00
1386.036,3073.00
1386.931,2748.00
1387.829,3205.00
1388.724,3361.00
1389.621,3041.00
1390.516,3163.00
1391.413,3021.00
1392.309,2966.00
1393.204,3402.00
1394.101,3315.00
1394.995,3314.00
1395.891,3375.00
1396.786,2937.00
1397.682,3116.00
1398.578,3242.00
1399.472,3449.00
1400.368,3150.00
1401.262,3207.00
1402.158,3312.00
1403.051,3077.00
1403.947,3070.00
1404.840,3389.00
1405.736,3410.00
1406.631,2925.00
1407.524,3630.00
1408.419,3172.00
1409.312,2982.00
1410.207,3276.00
1411.100,3010.00
1411.995,3000.00
1412.888,3360.00
1413.782,2840.00
1414.675,3481.00
1415.569,2893.00
1416.463,3092.00
1417.355,3096.00
1418.249,2937.00
1419.141,3218.00
1420.035,3275.00
1420.927,3128.00
1421.821,3496.00
1422.713,3014.00
1423.606,3288.00
1424.498,3171.00
1425.391,3732.00
1426.282,2973.00
1427.175,3137.00
1428.068,2637.00
1428.960,3211.00
1429.852,3280.00
1430.743,2926.00
1431.636,3158.00
1432.527,3467.00
1433.419,3323.00
1434.310,3365.00
1435.202,2952.00
1436.092,3104.00
1436.984,3095.00
1437.875,3550.00
1438.767,3195.00
1439.657,2984.00
1440.548,3328.00
1441.438,3238.00
1442.330,3308.00
1443.219,3095.00
1444.111,3377.00
1445.000,2969.00
1445.891,2892.00
1446.781,2929.00
1447.672,3234.00
1448.561,3514.00
1449.452,3311.00
1450.340,2952.00
1451.231,2966.00
1452.120,2904.00
1453.010,3457.00
1453.899,3015.00
1454.789,3352.00
1455.677,3597.00
1456.568,3157.00
1457.456,3207.00
1458.346,3190.00
1459.234,3197.00
1460.123,3486.00
1461.011,3170.00
1461.901,3546.00
1462.788,3565.00
1463.678,3295.00
1464.565,3193.00
1465.454,3081.00
1466.342,3233.00
1467.231,2511.00
1468.118,3450.00
1469.006,3551.00
1469.893,2874.00
1470.782,3291.00
1471.669,3503.00
1472.557,3413.00
1473.444,3142.00
1474.330,3344.00
1475.218,3483.00
1476.105,3070.00
1476.993,3167.00
1477.879,3425.00
1478.767,3084.00
1479.652,2923.00
1480.540,3260.00
1481.426,3342.00
1482.313,3306.00
1483.199,3497.00
1484.086,3407.00
1484.972,2872.00
1485.857,2873.00
1486.744,3285.00
1487.629,2742.00
1488.516,3027.00
1489.401,3365.00
1490.287,3183.00
1491.172,2799.00
1492.058,3092.00
1492.943,2975.00
1493.828,2979.00
1494.714,3382.00
1495.598,3558.00
1496.484,3960.00
1497.368,2818.00
1498.254,3203.00
1499.138,3184.00
1500.022,3176.00
1500.907,3276.00
1501.791,3912.00
1502.676,3155.00
1503.560,2997.00
1504.445,3701.00
1505.328,3289.00
1506.211,3617.00
1507.096,3138.00
1507.979,3419.00
1508.864,3115.00
1509.747,3375.00
1510.631,3263.00
1511.514,3365.00
1512.397,3455.00
1513.281,3675.00
1514.163,3454.00
1515.047,3079.00
1515.930,2887.00
1516.812,3175.00
1517.696,3350.00
1518.578,3116.00
1519.461,3246.00
1520.343,3610.00
1521.225,2983.00
1522.108,3069.00
1522.990,3557.00
1523.873,3600.00
1524.754,2773.00
1525.635,2627.00
1526.518,3342.00
1527.399,3107.00
1528.282,3185.00
1529.163,3311.00
1530.044,3235.00
1530.926,2833.00
1531.807,2931.00
1532.689,3243.00
1533.569,2975.00
1534.450,4247.00
1535.332,3375.00
1536.212,3082.00
1537.092,3443.00
1537.974,2883.00
1538.854,3118.00
1539.735,3730.00
1540.615,3316.00
1541.495,2951.00
1542.376,3595.00
1543.255,2892.00
1544.135,3105.00
1545.016,3217.00
1545.895,2975.00
1546.774,3415.00
1547.655,2729.00
1548.534,3170.00
1549.414,3107.00
1550.293,2855.00
1551.172,3254.00
1552.052,3139.00
1552.930,3041.00
1553.809,3678.00
1554.689,3083.00
1555.567,3105.00
1556.445,3058.00
1557.325,3503.00
1558.203,2784.00
1559.080,3138.00
1559.960,3103.00
1560.838,3825.00
1561.715,3083.00
1562.594,3492.00
1563.472,3301.00
1564.349,3359.00
1565.228,2727.00
1566.105,2935.00
1566.982,3217.00
1567.861,3459.00
1568.738,3139.00
1569.615,2775.00
1570.493,3030.00
1571.370,3099.00
1572.246,2647.00
1573.124,3127.00
1574.000,3107.00
1574.877,3393.00
1575.755,3078.00
1576.631,2951.00
1577.507,3607.00
1578.384,3531.00
1579.260,3291.00
1580.136,3768.00
1581.011,3134.00
1581.889,3159.00
1582.764,3186.00
1583.639,3446.00
1584.516,3332.00
1585.391,3028.00
1586.266,3210.00
1587.143,3636.00
1588.018,3292.00
1588.893,3516.00
1589.768,3936.00
1590.644,3896.00
1591.519,2932.00
1592.393,3369.00
1593.269,3448.00
1594.143,2952.00
1595.018,3165.00
1595.892,3052.00
1596.767,2658.00
1597.641,2692.00
1598.515,2796.00
1599.391,3262.00
1600.264,3032.00
1601.138,2964.00
1602.011,2521.00
1602.886,3669.00
1603.760,3428.00
1604.633,3420.00
1605.508,3384.00
1606.381,3199.00
1607.254,3179.00
1608.127,3281.00
1609.001,2896.00
1609.874,3384.00
1610.746,3446.00
1611.619,3195.00
1612.493,3375.00
1613.365,2965.00
1614.238,3189.00
1615.110,3208.00
1615.984,3178.00
1616.855,3003.00
1617.727,3423.00
1618.599,3043.00
1619.473,3532.00
1620.344,2516.00
1621.216,3178.00
1622.087,3207.00
1622.960,3211.00
1623.832,3220.00
1624.703,3305.00
1625.574,3336.00
1626.445,3175.00
1627.317,3258.00
1628.188,3428.00
1629.059,3083.00
1629.930,3540.00
1630.802,3107.00
1631.672,3268.00
1632.543,3277.00
1633.413,3215.00
1634.283,3704.00
1635.155,3275.00
1636.025,3273.00
1636.895,3183.00
1637.765,2658.00
1638.636,3169.00
1639.506,3263.00
1640.376,3962.00
1641.245,3126.00
1642.114,3240.00
1642.985,2647.00
1643.855,2946.00
1644.724,3072.00
1645.593,3380.00
1646.462,3288.00
1647.333,3247.00
1648.201,3060.00
1649.070,3205.00
1649.939,3352.00
1650.807,2976.00
1651.676,3362.00
1652.546,3388.00
1653.414,3499.00
1654.282,3188.00
1655.150,3016.00
1656.018,3152.00
1656.888,3816.00
1657.756,3202.00
1658.623,2852.00
1659.491,2785.00
1660.359,3536.00
1661.226,3040.00
1662.095,3352.00
1662.962,3049.00
1663.830,3139.00
1664.697,3036.00
1665.564,3160.00
1666.431,3356.00
1667.297,2887.00
1668.166,2923.00
1669.033,2776.00
1669.899,3072.00
1670.766,2869.00
1671.632,3047.00
1672.499,3575.00
1673.367,3216.00
1674.233,3428.00
1675.099,3183.00
1675.965,2887.00
1676.831,3079.00
1677.696,3524.00
1678.562,5748.00
1679.430,2746.00
1680.295,2891.00
1681.161,2954.00
1682.026,2969.00
1682.891,3036.00
1683.756,3133.00
1684.621,3219.00
1685.486,3212.00
1686.353,3138.00
1687.218,3324.00
1688.083,3155.00
1688.947,3442.00
1689.812,3140.00
1690.677,3048.00
1691.541,3277.00
1692.405,2482.00
1693.269,3660.00
1694.135,3385.00
1694.999,3169.00
1695.863,3691.00
1696.727,3033.00
1697.591,3049.00
1698.455,3279.00
1699.318,3002.00
1700.182,4374.00
1701.045,3186.00
1701.909,3214.00
1702.772,3675.00
1703.637,2992.00
1704.500,2769.00
1705.363,3449.00
1706.226,3248.00
1707.089,3294.00
1707.951,3332.00
1708.814,3891.00
1709.677,3950.00
1710.539,3437.00
1711.402,3404.00
1712.264,3197.00
1713.126,3083.00
1713.988,3425.00
1714.852,3446.00
1715.714,2585.00
1716.576,2743.00
1717.438,3442.00
1718.299,2763.00
1719.161,3593.00
1720.023,3142.00
1720.884,3626.00
1721.745,3164.00
1722.607,3083.00
1723.468,2703.00
1724.329,3444.00
1725.190,3200.00
1726.051,3353.00
1726.912,3018.00
1727.772,3219.00
1728.633,3136.00
1729.494,3277.00
1730.354,3419.00
1731.214,2877.00
1732.075,3039.00
1732.935,3020.00
1733.797,3063.00
1734.657,3695.00
1735.517,3898.00
1736.377,3494.00
1737.237,3161.00
1738.096,3846.00
1738.956,3103.00
1739.816,3065.00
1740.675,3128.00
1741.534,2666.00
1742.394,3176.00
1743.253,2935.00
1744.112,3202.00
1744.971,3024.00
1745.830,3280.00
1746.689,3321.00
1747.547,3402.00
1748.406,2813.00
1749.265,3037.00
1750.123,3065.00
1750.982,3379.00
1751.840,3145.00
1752.698,3247.00
1753.556,3027.00
1754.414,3174.00
1755.272,3139.00
1756.130,3207.00
1756.988,3167.00
1757.846,3366.00
1758.703,2969.00
1759.559,3474.00
1760.417,2906.00
1761.274,3795.00
1762.131,3557.00
1762.989,3663.00
1763.846,3616.00
1764.703,3297.00
1765.560,3722.00
1766.417,3227.00
1767.273,2970.00
1768.130,3168.00
1768.987,3090.00
1769.843,3464.00
1770.700,3550.00
1771.556,3076.00
1772.412,3564.00
1773.268,3140.00
1774.125,3524.00
1774.980,3188.00
1775.836,3553.00
1776.692,3120.00
1777.546,3024.00
1778.402,3393.00
1779.257,3249.00
1780.113,2994.00
1780.968,3284.00
1781.824,3464.00
1782.679,2814.00
1783.534,3022.00
1784.389,3680.00
1785.244,3293.00
1786.099,3144.00
1786.954,3421.00
1787.808,3197.00
1788.661,3209.00
1789.516,3622.00
1790.370,3244.00
1791.225,3034.00
1792.079,2835.00
1792.933,3903.00
1793.787,3329.00
1794.641,3276.00
1795.495,3168.00
1796.349,3290.00
1797.201,3062.00
1798.055,2999.00
1798.908,3189.00
1799.762,3580.00
1800.615,3421.00
1801.469,3468.00
1802.322,3603.00
1803.175,3046.00
1804.028,2793.00
1804.880,3710.00
1805.732,3353.00
1806.585,3167.00
1807.438,3249.00
1808.291,2723.00
1809.143,2941.00
1809.996,2871.00
1810.846,3954.00
1811.699,3286.00
1812.551,3098.00
1813.403,3410.00
1814.255,3226.00
1815.107,3196.00
1815.959,3817.00
1816.809,3317.00
1817.661,3353.00
1818.512,3204.00
1819.364,3273.00
1820.215,3355.00
1821.067,2971.00
1821.918,3059.00
1822.768,3428.00
1823.619,3479.00
1824.470,3098.00
1825.321,3346.00
1826.172,3134.00
1827.021,3276.00
1827.871,3454.00
1828.722,3268.00
1829.572,3252.00
1830.423,3228.00
1831.273,3060.00
1832.122,3189.00
1832.972,3157.00
1833.822,2893.00
1834.672,3396.00
1835.522,3428.00
1836.370,2990.00
1837.220,3298.00
1838.070,2762.00
1838.919,2572.00
1839.769,3037.00
1840.616,3440.00
1841.466,3368.00
1842.315,2945.00
1843.164,3812.00
1844.013,3019.00
1844.860,2881.00
1845.709,2981.00
1846.558,3510.00
1847.407,2848.00
1848.254,3290.00
1849.102,3247.00
1849.951,2999.00
1850.799,2649.00
1851.648,3076.00
1852.494,3236.00
1853.342,3239.00
1854.190,3514.00
1855.038,3510.00
1855.884,3176.00
1856.732,4041.00
1857.580,3611.00
1858.428,3061.00
1859.273,2936.00
1860.121,2968.00
1860.968,4047.00
1861.816,3547.00
1862.661,3575.00
1863.508,3821.00
1864.355,3404.00
1865.202,3471.00
1866.047,3271.00
1866.894,3550.00
1867.741,3710.00
1868.586,3336.00
1869.432,3295.00
1870.279,3150.00
1871.125,3016.00
1871.970,3849.00
1872.816,3313.00
1873.662,2719.00
1874.506,3357.00
1875.352,3540.00
1876.198,3658.00
1877.044,3810.00
1877.888,3190.00
1878.734,3226.00
1879.579,3040.00
1880.423,2841.00
1881.268,3081.00
1882.113,3488.00
1882.959,3161.00
1883.802,3021.00
1884.647,3554.00
1885.492,3246.00
1886.335,3185.00
1887.180,3014.00
1888.025,3235.00
1888.867,3008.00
1889.712,3365.00
1890.556,2955.00
1891.399,3533.00
1892.243,3482.00
1893.087,3057.00
1893.930,3367.00
1894.774,3362.00
1895.618,3583.00
1896.460,2824.00
1897.304,3159.00
1898.147,3090.00
1898.989,2961.00
1899.833,3410.00
1900.676,3085.00
1901.518,3511.00
1902.361,3592.00
1903.202,3146.00
1904.046,3033.00
1904.889,3190.00
1905.730,3111.00
1906.573,2860.00
1907.415,3272.00
1908.256,3642.00
1909.099,3352.00
1909.941,3375.00
1910.782,3356.00
1911.624,3012.00
1912.465,3405.00
1913.307,3317.00
1914.149,2958.00
1914.989,3517.00
1915.831,3148.00
1916.671,3622.00
1917.513,3198.00
1918.355,3308.00
1919.195,3483.00
1920.036,3280.00
1920.876,3237.00
1921.717,3381.00
1922.558,3240.00
1923.398,3274.00
1924.239,3264.00
1925.078,3574.00
1925.919,2903.00
1926.760,3356.00
1927.599,3101.00
1928.440,3460.00
1929.279,3249.00
1930.119,3674.00
1930.958,3156.00
1931.798,3242.00
1932.638,3153.00
1933.477,3242.00
1934.317,2968.00
1935.155,3076.00
1935.995,3344.00
1936.833,3047.00
1937.673,3037.00
1938.512,3709.00
1939.350,2852.00
1940.190,3161.00
1941.027,3126.00
1941.867,3082.00
1942.704,3211.00
1943.543,3165.00
1944.381,3423.00
1945.220,3604.00
1946.057,3336.00
1946.896,3539.00
1947.733,3235.00
1948.572,2986.00
1949.408,3604.00
1950.247,3345.00
1951.085,3379.00
1951.922,3579.00
1952.760,3004.00
1953.597,3637.00
1954.435,2622.00
1955.271,3439.00
1956.109,3102.00
1956.945,2797.00
1957.783,3419.00
1958.619,3016.00
1959.456,3195.00
1960.292,3312.00
1961.129,3562.00
1961.965,3826.00
1962.802,3033.00
1963.638,2994.00
1964.475,3284.00
1965.310,3273.00
1966.145,3245.00
1966.982,3059.00
1967.817,2961.00
1968.654,3265.00
1969.489,3006.00
1970.325,3230.00
1971.160,2983.00
1971.996,3378.00
1972.831,3462.00
1973.667,3144.00
1974.501,3664.00
1975.337,3491.00
1976.171,3088.00
1977.006,3533.00
1977.841,3117.00
1978.675,3476.00
1979.511,3866.00
1980.345,2989.00
1981.180,3443.00
1982.014,3219.00
1982.849,2960.00
1983.682,3081.00
1984.516,3066.00
1985.351,2799.00
1986.184,2715.00
1987.019,2752.00
1987.852,2543.00
1988.687,2793.00
1989.519,2998.00
1990.352,3242.00
1991.187,2720.00
1992.019,2978.00
1992.854,3367.00
1993.686,2925.00
1994.518,3025.00
1995.352,2556.00
1996.185,2329.00
1997.019,2862.00
1997.851,2650.00
1998.682,2735.00
1999.516,2761.00
2000.348,2451.00
