RamanScope Measure Spectrum Data V3.72

<< MEASURE CONDITION >>
Exposure Type,Aver
Exposure Time [sec],20
Exposure Count,2
Measure Time,2024/02/15 20:56:42
Data Name,""
Data Comment,""
Rayleigh Wave[nm],532.0

<< SAMPLE SPECTRUM >>
Wave[dcm-1],No30
96.716,29.00
97.759,13.00
98.802,34.00
99.846,-18.00
100.886,16.50
101.929,48.00
102.972,43.50
104.015,24.00
105.057,3.50
106.100,16.00
107.142,8.00
108.184,30.00
109.226,-34.00
110.268,82.00
111.310,10.50
112.352,-6.50
113.393,-0.50
114.435,35.50
115.476,19.50
116.517,3.50
117.558,27.00
118.599,2.00
119.640,25.00
120.681,47.00
121.722,-15.50
122.762,12.00
123.803,14.00
124.843,3.50
125.883,50.00
126.923,-24.50
127.963,-0.50
129.001,17.50
130.041,1.50
131.080,22.00
132.120,17.50
133.159,-33.50
134.199,6.00
135.238,46.50
136.277,41.50
137.316,36.50
138.355,60.00
139.393,16.00
140.432,5.00
141.470,34.50
142.509,15.50
143.547,36.00
144.585,91.50
145.623,80.50
146.661,125.00
147.699,180.00
148.736,191.50
149.774,325.00
150.811,376.50
151.849,521.50
152.886,596.50
153.923,790.00
154.960,903.00
155.997,1095.00
157.034,1350.00
158.072,1555.50
159.109,1761.50
160.145,2036.00
161.182,2299.00
162.218,2473.00
163.254,2681.50
164.290,2893.00
165.326,3115.00
166.361,3246.50
167.397,3308.50
168.432,3411.50
169.468,3530.50
170.503,3539.00
171.538,3642.00
172.573,3714.50
173.608,3789.00
174.643,3758.50
175.677,3911.50
176.712,4010.50
177.746,4056.00
178.781,4074.00
179.815,4167.50
180.849,4203.00
181.883,4307.00
182.917,4344.50
183.951,4372.50
184.984,4445.50
186.020,4409.50
187.053,4477.50
188.087,4455.50
189.120,4418.00
190.153,4525.50
191.186,4521.50
192.219,4524.50
193.251,4430.00
194.284,4467.00
195.317,4494.00
196.349,4447.00
197.381,4459.00
198.413,4568.50
199.445,4538.00
200.477,4529.50
201.509,4661.00
202.543,4522.50
203.575,4560.50
204.606,4631.00
205.637,4860.00
206.669,4781.50
207.700,4744.00
208.731,4847.50
209.762,4877.00
210.792,4941.50
211.823,5060.00
212.854,5050.50
213.884,5027.00
214.914,5120.00
215.947,5134.00
216.977,5253.50
218.007,5312.50
219.037,5338.00
220.066,5403.50
221.096,5478.50
222.126,5515.00
223.155,5604.50
224.184,5519.00
225.214,5567.00
226.245,5595.00
227.274,5588.00
228.302,5618.50
229.331,5527.50
230.360,5513.00
231.388,5619.50
232.417,5504.00
233.445,5463.00
234.473,5407.00
235.501,5429.00
236.531,5340.50
237.559,5309.00
238.587,5207.50
239.614,5102.50
240.642,5133.00
241.669,5178.50
242.696,5163.00
243.724,5170.50
244.753,5110.50
245.780,5102.50
246.806,5043.00
247.833,5130.50
248.860,5140.00
249.886,5086.00
250.913,5054.50
251.939,5083.00
252.967,5120.00
253.993,5098.00
255.019,5078.50
256.045,5183.00
257.070,5195.50
258.096,5220.50
259.121,5204.00
260.147,5157.50
261.174,5209.50
262.199,5237.50
263.224,5235.50
264.249,5250.00
265.274,5295.00
266.298,5361.50
267.323,5350.50
268.349,5490.00
269.374,5444.00
270.398,5522.00
271.422,5544.50
272.446,5545.00
273.470,5548.50
274.496,5538.50
275.519,5561.00
276.543,5631.00
277.566,5619.50
278.589,5689.00
279.613,5681.00
280.636,5682.00
281.661,5734.00
282.684,5785.50
283.706,5817.50
284.729,5702.00
285.751,5726.00
286.774,5675.00
287.798,5684.50
288.820,5737.50
289.842,5593.00
290.864,5553.50
291.886,5545.00
292.910,5572.50
293.932,5479.50
294.953,5479.00
295.974,5416.50
296.996,5385.00
298.017,5350.00
299.040,5292.00
300.061,5293.50
301.082,5121.00
302.102,5129.00
303.123,5104.00
304.143,5156.00
305.166,5084.00
306.186,4992.00
307.206,4938.00
308.226,4941.50
309.246,4920.50
310.268,4968.00
311.288,4947.50
312.307,4758.50
313.327,4866.50
314.346,4719.00
315.368,4750.50
316.387,4797.00
317.406,4738.00
318.425,4744.00
319.443,4726.50
320.464,4789.00
321.483,4748.50
322.501,4647.50
323.520,4607.00
324.538,4696.50
325.558,4622.00
326.576,4564.00
327.594,4564.50
328.612,4656.00
329.629,4642.00
330.649,4714.50
331.666,4604.00
332.684,4640.00
333.701,4573.00
334.718,4557.50
335.737,4542.00
336.754,4502.50
337.771,4579.00
338.787,4560.50
339.806,4530.50
340.823,4583.50
341.839,4519.50
342.855,4564.50
343.871,4571.50
344.889,4515.00
345.905,4499.50
346.921,4585.00
347.937,4498.50
348.954,4488.50
349.970,4507.50
350.985,4514.50
352.000,4506.50
353.017,4524.00
354.032,4522.50
355.047,4473.50
356.062,4491.50
357.077,4477.50
358.093,4475.50
359.108,4430.50
360.122,4495.00
361.136,4513.50
362.152,4435.00
363.166,4488.00
364.180,4513.00
365.194,4558.50
366.210,4516.50
367.223,4480.50
368.237,4453.00
369.250,4394.00
370.265,4439.50
371.278,4465.50
372.291,4439.00
373.304,4505.00
374.319,4514.00
375.332,4613.50
376.344,4631.50
377.357,4511.50
378.371,4552.50
379.383,4513.00
380.395,4502.00
381.407,4509.00
382.421,4594.50
383.433,4527.50
384.445,4563.50
385.456,4564.50
386.470,4594.00
387.481,4625.50
388.492,4539.50
389.505,4587.00
390.516,4581.00
391.527,4596.00
392.538,4491.50
393.551,4570.00
394.561,4440.00
395.572,4530.00
396.582,4500.50
397.594,4541.00
398.604,4511.00
399.614,4459.50
400.624,4409.50
401.636,4502.50
402.646,4516.00
403.655,4449.00
404.667,4453.50
405.676,4440.00
406.685,4394.00
407.694,4374.00
408.705,4333.50
409.714,4369.50
410.723,4265.50
411.734,4351.50
412.742,4341.00
413.751,4378.00
414.759,4342.50
415.769,4280.00
416.777,4306.00
417.785,4359.00
418.795,4286.00
419.803,4204.00
420.811,4305.00
421.818,4210.50
422.828,4319.00
423.835,4198.00
424.842,4214.00
425.852,4206.50
426.859,4218.50
427.866,4124.00
428.874,4207.50
429.881,4077.00
430.888,4086.00
431.894,4189.50
432.902,4123.00
433.909,4088.50
434.915,4074.00
435.923,4061.50
436.929,4088.00
437.935,4055.00
438.942,4093.50
439.948,4111.50
440.953,4109.00
441.959,4044.50
442.966,4052.50
443.971,4109.00
444.976,4059.50
445.983,3977.50
446.988,4003.50
447.993,3932.50
448.999,3975.50
450.004,4034.50
451.008,3947.00
452.014,4026.00
453.019,3981.50
454.023,4011.50
455.029,4011.00
456.032,3926.50
457.036,3905.00
458.042,3964.00
459.045,3997.00
460.049,3993.00
461.052,3961.50
462.057,3995.00
463.060,3964.00
464.063,3912.00
465.068,3896.50
466.071,3939.00
467.073,3882.50
468.078,3944.00
469.080,3934.00
470.082,3866.00
471.087,3969.50
472.089,3935.50
473.091,3919.50
474.095,3926.00
475.096,3930.00
476.098,3927.50
477.101,3886.00
478.103,3972.50
479.104,3930.00
480.107,3847.00
481.108,3824.00
482.109,3865.00
483.112,3965.00
484.113,3905.00
485.114,3868.00
486.116,3838.50
487.117,3906.00
488.117,3846.00
489.119,3924.50
490.119,3883.50
491.121,3909.00
492.121,3819.00
493.121,3773.50
494.123,3809.00
495.122,3835.00
496.122,3837.00
497.123,3842.50
498.122,3862.50
499.121,3769.00
500.122,3727.50
501.121,3790.00
502.120,3795.00
503.121,3775.00
504.119,3752.00
505.118,3788.00
506.118,3779.00
507.117,3797.00
508.115,3685.00
509.115,3664.00
510.113,3689.00
511.112,3747.50
512.110,3650.00
513.108,3631.00
514.107,3701.00
515.105,3671.50
516.102,3692.00
517.101,3610.00
518.098,3600.00
519.095,3647.00
520.094,3635.00
521.091,3649.00
522.089,3623.50
523.086,3630.50
524.082,3598.00
525.081,3637.00
526.077,3533.50
527.073,3617.00
528.071,3532.00
529.067,3634.50
530.064,3587.00
531.060,3615.00
532.056,3561.50
533.053,3596.00
534.048,3607.00
535.044,3552.50
536.041,3557.50
537.036,3545.00
538.030,3565.50
539.027,3562.50
540.022,3574.50
541.019,3579.50
542.013,3563.50
543.007,3498.50
544.004,3484.50
544.998,3493.50
545.994,3510.50
546.988,3534.00
547.981,3557.00
548.977,3544.50
549.971,3515.00
550.964,3508.50
551.960,3431.50
552.953,3489.00
553.948,3421.00
554.941,3466.50
555.934,3506.00
556.929,3413.50
557.922,3406.50
558.916,3479.00
559.909,3412.00
560.901,3446.00
561.895,3388.00
562.888,3428.50
563.880,3379.50
564.874,3358.50
565.865,3398.00
566.859,3430.00
567.851,3342.00
568.842,3319.50
569.836,3309.50
570.827,3304.50
571.820,3388.50
572.811,3378.50
573.802,3384.00
574.795,3379.50
575.786,3307.00
576.779,3343.50
577.769,3341.50
578.760,3316.00
579.752,3319.00
580.742,3305.50
581.735,3311.50
582.725,3277.50
583.714,3318.50
584.706,3314.50
585.696,3286.50
586.688,3272.50
587.677,3291.00
588.667,3252.00
589.658,3263.00
590.647,3215.00
591.638,3212.00
592.627,3245.00
593.616,3224.50
594.607,3218.50
595.595,3170.50
596.586,3223.00
597.574,3227.00
598.562,3124.50
599.553,3101.50
600.541,3192.00
601.531,3150.00
602.519,3160.00
603.508,3118.00
604.496,3143.00
605.484,3123.50
606.473,3115.50
607.460,3065.50
608.450,3145.00
609.437,3136.00
610.424,3057.00
611.413,3041.50
612.400,3071.00
613.388,3015.00
614.375,3047.50
615.361,3054.00
616.350,2957.00
617.336,3019.50
618.324,3002.50
619.310,2883.50
620.298,2958.00
621.284,2976.50
622.270,2935.50
623.257,2945.50
624.243,2984.00
625.230,2961.50
626.216,2858.50
627.203,2968.00
628.188,2877.50
629.173,2874.50
630.160,2920.50
631.145,2855.00
632.131,2856.00
633.116,2807.50
634.102,2855.00
635.087,2807.00
636.071,2805.00
637.057,2862.00
638.041,2810.00
639.027,2851.50
640.011,2782.00
640.995,2797.00
641.980,2810.00
642.964,2752.50
643.949,2728.50
644.932,2752.00
645.918,2747.00
646.901,2740.00
647.886,2686.50
648.868,2729.00
649.851,2762.50
650.836,2690.00
651.818,2647.00
652.803,2700.00
653.785,2694.50
654.769,2608.50
655.751,2613.00
656.733,2643.50
657.717,2626.00
658.699,2664.00
659.683,2605.50
660.664,2603.00
661.648,2540.00
662.629,2595.50
663.611,2572.50
664.594,2606.00
665.575,2536.50
666.558,2562.50
667.539,2564.50
668.521,2538.00
669.502,2479.50
670.484,2604.50
671.465,2532.00
672.445,2507.00
673.427,2513.50
674.407,2543.50
675.390,2443.00
676.369,2497.50
677.351,2484.50
678.331,2437.50
679.312,2483.00
680.292,2465.50
681.271,2483.00
682.253,2475.00
683.232,2495.50
684.213,2415.50
685.192,2404.00
686.172,2429.50
687.151,2419.00
688.132,2369.50
689.110,2433.50
690.089,2398.50
691.069,2332.00
692.047,2303.00
693.027,2356.50
694.005,2414.50
694.985,2359.50
695.963,2289.50
696.943,2307.50
697.920,2292.00
698.898,2253.00
699.877,2344.50
700.854,2271.50
701.833,2278.50
702.810,2301.00
703.789,2276.50
704.766,2266.00
705.745,2266.00
706.721,2260.50
707.698,2208.50
708.676,2266.50
709.653,2227.50
710.631,2300.00
711.607,2258.50
712.585,2201.00
713.561,2224.50
714.539,2218.00
715.514,2247.00
716.492,2215.50
717.467,2198.50
718.443,2175.50
719.420,2126.00
720.395,2186.00
721.372,2138.00
722.347,2208.00
723.324,2223.00
724.298,2256.50
725.275,2141.50
726.250,2015.50
727.226,1973.50
728.200,2125.00
729.176,2198.50
730.151,2148.50
731.125,2211.50
732.100,2197.00
733.074,2141.00
734.050,2169.00
735.023,2117.00
735.999,2130.50
736.972,2136.00
737.947,2131.50
738.921,2068.50
739.896,2103.00
740.869,2120.00
741.841,2119.00
742.816,2100.50
743.789,2092.00
744.763,2083.00
745.736,2070.50
746.710,2110.00
747.682,2064.00
748.656,2092.00
749.628,2153.50
750.602,2151.50
751.574,2037.50
752.548,2054.50
753.519,2120.00
754.491,2018.00
755.464,2038.00
756.435,2077.00
757.408,2039.00
758.379,2067.00
759.352,2040.00
760.323,2011.50
761.296,2033.00
762.267,2021.50
763.239,2045.00
764.209,1998.00
765.182,2019.50
766.152,2006.00
767.124,2056.50
768.094,2031.50
769.064,2007.00
770.036,1968.00
771.005,1959.50
771.977,1975.00
772.947,1956.00
773.918,1989.00
774.887,1973.50
775.858,1955.50
776.827,1942.50
777.798,1992.50
778.767,1938.50
779.738,1925.50
780.707,1969.50
781.677,1855.50
782.646,1922.50
783.614,1925.50
784.584,1875.00
785.552,1855.50
786.522,1858.00
787.490,1898.00
788.460,1877.50
789.428,1873.50
790.397,1864.00
791.365,1791.00
792.334,1886.00
793.302,1843.00
794.271,1881.00
795.238,1799.50
796.207,1784.00
797.174,1811.00
798.143,1837.50
799.109,1877.50
800.076,1824.50
801.044,1796.00
802.011,1806.00
802.979,1837.00
803.945,1806.50
804.913,1844.50
805.879,1793.50
806.847,1785.00
807.813,1742.00
808.780,1781.50
809.746,1807.50
810.713,1728.00
811.678,1766.50
812.646,1803.00
813.611,1750.50
814.578,1740.50
815.543,1720.00
816.510,1740.50
817.474,1732.50
818.439,1729.00
819.405,1720.00
820.370,1722.50
821.336,1770.00
822.300,1702.50
823.266,1648.00
824.230,1783.50
825.196,1727.50
826.160,1692.00
827.126,1651.50
828.089,1726.00
829.055,1700.50
830.018,1712.00
830.983,1719.00
831.946,1651.50
832.911,1697.50
833.874,1650.50
834.837,1688.50
835.802,1728.00
836.765,1678.50
837.729,1684.00
838.691,1689.50
839.656,1675.50
840.618,1698.50
841.582,1711.00
842.544,1725.50
843.508,1705.50
844.470,1701.50
845.434,1722.50
846.395,1739.00
847.359,1654.50
848.320,1705.00
849.283,1676.50
850.245,1682.50
851.208,1718.50
852.169,1673.50
853.130,1698.00
854.092,1700.50
855.053,1690.50
856.016,1735.50
856.976,1734.00
857.938,1702.00
858.899,1664.00
859.861,1674.00
860.821,1718.50
861.783,1662.00
862.743,1747.50
863.704,1720.00
864.664,1701.50
865.626,1674.50
866.585,1670.50
867.546,1734.00
868.506,1729.00
869.467,1690.00
870.426,1691.00
871.387,1759.50
872.346,1757.00
873.304,1711.50
874.265,1757.00
875.223,1749.50
876.184,1747.00
877.142,1715.00
878.102,1701.00
879.060,1756.50
880.021,1702.50
880.978,1737.00
881.938,1738.50
882.896,1751.50
883.856,1777.00
884.813,1754.00
885.772,1790.50
886.730,1855.50
887.689,1778.00
888.646,1753.00
889.603,1754.00
890.562,1803.50
891.519,1759.00
892.477,1783.00
893.434,1841.50
894.392,1794.00
895.349,1847.50
896.307,1814.50
897.263,1747.50
898.221,1814.50
899.177,1835.00
900.135,1893.50
901.091,1819.50
902.048,1890.00
903.004,1846.00
903.961,1841.00
904.917,1871.00
905.874,1841.50
906.829,1968.50
907.784,1876.00
908.741,1905.50
909.696,1925.00
910.653,1905.50
911.607,1924.50
912.564,1868.00
913.518,1920.50
914.475,1943.00
915.429,1879.00
916.385,1892.50
917.339,1880.50
918.295,1925.00
919.249,1996.00
920.205,1920.00
921.158,1987.50
922.114,1933.50
923.067,1947.00
924.020,1998.00
924.976,1971.00
925.929,1997.00
926.884,1944.00
927.837,1984.00
928.791,1960.00
929.744,2002.50
930.699,2051.50
931.651,1946.00
932.606,1952.00
933.558,1995.50
934.512,2034.50
935.464,2011.50
936.418,2030.50
937.370,2010.00
938.322,2032.50
939.276,2030.50
940.227,2044.50
941.181,2061.00
942.132,2012.50
943.085,2003.50
944.036,2043.00
944.990,1981.00
945.941,2005.00
946.893,2036.00
947.844,2027.00
948.797,2040.00
949.747,2007.00
950.700,2065.00
951.650,2068.00
952.601,1991.00
953.553,1996.50
954.503,2066.50
955.455,2005.00
956.405,2023.50
957.356,2045.00
958.306,2058.50
959.258,2081.00
960.207,2013.50
961.158,2008.50
962.108,1980.50
963.059,2060.00
964.008,2030.00
964.959,1992.50
965.908,1995.50
966.856,1973.50
967.807,1978.50
968.756,1874.50
969.706,2017.50
970.654,1933.50
971.605,1963.50
972.553,1989.50
973.503,1967.50
974.451,1907.50
975.401,1914.50
976.348,1956.50
977.296,1949.00
978.246,1921.00
979.193,1898.50
980.142,1894.50
981.090,1938.00
982.039,1939.00
982.986,1882.50
983.935,1900.50
984.882,1844.50
985.830,1873.00
986.777,1853.50
987.725,1892.50
988.672,1868.50
989.618,1805.00
990.567,1861.00
991.513,1886.00
992.461,1828.50
993.407,1794.50
994.354,1831.50
995.300,1784.00
996.248,1779.00
997.193,1825.00
998.141,1822.50
999.086,1849.50
1000.031,1756.50
1000.978,1833.50
1001.924,1753.50
1002.870,1780.00
1003.815,1793.00
1004.762,1744.50
1005.707,1777.00
1006.653,1733.50
1007.598,1761.00
1008.542,1726.50
1009.488,1727.50
1010.432,1753.50
1011.378,1713.00
1012.322,1781.00
1013.268,1729.50
1014.212,1684.00
1015.157,1703.00
1016.101,1679.00
1017.046,1693.50
1017.990,1662.50
1018.933,1705.00
1019.878,1598.50
1020.821,1738.50
1021.766,1648.50
1022.709,1677.00
1023.654,1677.00
1024.596,1676.00
1025.541,1684.50
1026.483,1629.00
1027.425,1661.00
1028.370,1703.00
1029.312,1638.00
1030.256,1657.50
1031.198,1658.00
1032.141,1618.50
1033.083,1574.00
1034.027,1629.50
1034.968,1630.50
1035.910,1597.00
1036.853,1621.00
1037.794,1587.50
1038.738,1550.00
1039.679,1634.00
1040.621,1579.00
1041.562,1580.50
1042.503,1587.00
1043.446,1534.50
1044.386,1591.00
1045.329,1549.50
1046.269,1547.50
1047.211,1526.00
1048.151,1566.50
1049.093,1585.00
1050.033,1611.00
1050.973,1600.50
1051.915,1570.00
1052.854,1515.00
1053.796,1554.00
1054.735,1558.00
1055.677,1546.50
1056.616,1526.00
1057.555,1568.50
1058.496,1564.00
1059.435,1603.00
1060.376,1522.50
1061.315,1627.50
1062.255,1551.00
1063.194,1549.50
1064.132,1549.50
1065.073,1602.50
1066.011,1540.50
1066.951,1594.00
1067.889,1548.50
1068.829,1585.00
1069.767,1532.50
1070.705,1552.50
1071.644,1541.50
1072.582,1589.50
1073.521,1566.50
1074.459,1514.00
1075.398,1496.50
1076.335,1516.50
1077.272,1486.00
1078.211,1607.50
1079.148,1562.00
1080.087,1548.00
1081.023,1503.00
1081.962,1590.00
1082.898,1477.00
1083.835,1547.50
1084.773,1557.50
1085.709,1588.00
1086.647,1503.00
1087.583,1577.00
1088.519,1561.50
1089.457,1460.50
1090.392,1503.00
1091.330,1515.00
1092.266,1543.50
1093.203,1507.50
1094.138,1543.50
1095.073,1530.00
1096.010,1456.00
1096.945,1524.00
1097.882,1486.00
1098.817,1524.50
1099.752,1497.50
1100.688,1548.00
1101.623,1472.00
1102.559,1451.50
1103.493,1482.00
1104.430,1481.00
1105.364,1513.50
1106.298,1455.00
1107.234,1461.50
1108.167,1486.00
1109.094,1503.00
1110.019,1495.50
1110.945,1457.00
1111.869,1475.50
1112.795,1419.00
1113.720,1446.00
1114.646,1456.50
1115.571,1432.50
1116.495,1438.50
1117.420,1384.00
1118.345,1400.50
1119.270,1434.50
1120.195,1406.00
1121.118,1423.50
1122.042,1368.00
1122.967,1395.50
1123.891,1422.50
1124.816,1410.00
1125.738,1426.00
1126.663,1390.50
1127.587,1425.00
1128.511,1331.50
1129.435,1361.50
1130.357,1398.50
1131.280,1379.50
1132.204,1415.50
1133.128,1394.00
1134.051,1321.50
1134.972,1397.00
1135.896,1351.00
1136.819,1374.50
1137.742,1332.50
1138.665,1320.50
1139.586,1324.00
1140.509,1355.50
1141.431,1309.00
1142.354,1344.50
1143.276,1349.50
1144.197,1299.50
1145.119,1286.50
1146.041,1324.00
1146.964,1303.00
1147.885,1265.50
1148.806,1258.00
1149.727,1307.50
1150.649,1314.50
1151.571,1237.50
1152.492,1274.00
1153.412,1308.00
1154.333,1294.00
1155.254,1315.50
1156.175,1250.00
1157.095,1293.50
1158.016,1275.50
1158.936,1265.00
1159.857,1228.00
1160.778,1286.00
1161.697,1263.50
1162.617,1216.00
1163.537,1314.50
1164.458,1251.50
1165.376,1247.50
1166.296,1232.00
1167.216,1244.00
1168.136,1256.00
1169.056,1232.00
1169.974,1211.00
1170.893,1284.50
1171.813,1246.00
1172.732,1258.50
1173.650,1251.00
1174.569,1214.50
1175.488,1198.50
1176.407,1181.00
1177.326,1196.50
1178.243,1246.00
1179.161,1281.00
1180.080,1277.00
1180.999,1216.50
1181.915,1228.00
1182.834,1217.00
1183.752,1225.50
1184.670,1203.50
1185.586,1227.00
1186.504,1270.00
1187.422,1177.00
1188.340,1244.50
1189.258,1176.00
1190.173,1193.00
1191.091,1177.50
1192.008,1178.00
1192.926,1198.00
1193.841,1187.00
1194.758,1178.00
1195.675,1201.50
1196.592,1198.00
1197.507,1246.50
1198.424,1194.00
1199.340,1203.00
1200.257,1218.00
1201.172,1232.00
1202.088,1182.00
1203.004,1157.00
1203.920,1210.50
1204.835,1216.00
1205.750,1138.00
1206.666,1148.00
1207.582,1191.50
1208.496,1179.00
1209.412,1172.00
1210.327,1169.50
1211.243,1192.50
1212.156,1188.00
1213.071,1179.50
1213.986,1165.00
1214.901,1202.00
1215.814,1194.50
1216.729,1162.00
1217.644,1208.00
1218.559,1136.00
1219.471,1158.00
1220.386,1149.50
1221.300,1154.00
1222.213,1157.00
1223.127,1175.50
1224.041,1180.00
1224.955,1199.00
1225.867,1196.50
1226.781,1132.50
1227.694,1179.00
1228.608,1129.50
1229.520,1193.50
1230.433,1155.50
1231.346,1151.50
1232.260,1191.50
1233.171,1168.00
1234.084,1109.00
1234.997,1163.50
1235.908,1177.50
1236.821,1194.00
1237.733,1094.50
1238.646,1102.00
1239.556,1166.00
1240.469,1149.50
1241.381,1192.00
1242.293,1174.00
1243.203,1112.00
1244.115,1162.00
1245.027,1135.00
1245.937,1209.50
1246.849,1112.00
1247.761,1214.00
1248.672,1155.00
1249.582,1134.50
1250.493,1215.00
1251.404,1148.50
1252.313,1128.00
1253.225,1130.50
1254.135,1126.00
1255.046,1170.50
1255.955,1140.50
1256.866,1161.00
1257.777,1186.00
1258.685,1168.00
1259.596,1155.00
1260.506,1225.50
1261.416,1142.00
1262.324,1143.00
1263.234,1148.00
1264.144,1148.00
1265.052,1149.00
1265.962,1132.00
1266.872,1164.00
1267.779,1174.00
1268.689,1105.50
1269.598,1138.00
1270.507,1196.00
1271.415,1158.50
1272.324,1170.50
1273.233,1191.00
1274.140,1135.00
1275.048,1103.50
1275.957,1154.50
1276.864,1147.00
1277.772,1132.00
1278.681,1133.00
1279.587,1194.00
1280.496,1098.00
1281.404,1171.00
1282.312,1151.00
1283.218,1157.50
1284.126,1113.00
1285.033,1152.00
1285.939,1113.50
1286.847,1225.00
1287.754,1197.00
1288.660,1203.50
1289.567,1085.00
1290.474,1147.00
1291.380,1108.00
1292.286,1119.00
1293.193,1163.00
1294.098,1088.50
1295.005,1119.50
1295.912,1086.00
1296.816,1074.50
1297.723,1165.00
1298.629,1163.50
1299.534,1141.50
1300.440,1163.00
1301.346,1165.50
1302.250,1116.50
1303.156,1169.00
1304.062,1096.50
1304.966,1127.50
1305.871,1120.50
1306.777,1161.50
1307.680,1062.50
1308.586,1113.00
1309.491,1104.50
1310.394,1144.50
1311.299,1134.50
1312.204,1087.50
1313.107,1126.50
1314.012,1128.50
1314.917,1124.50
1315.819,1127.50
1316.724,1058.00
1317.628,1101.00
1318.531,1116.50
1319.435,1042.50
1320.339,1066.00
1321.241,1107.00
1322.145,1063.00
1323.049,1087.00
1323.951,1136.50
1324.854,1175.50
1325.756,1102.00
1326.659,1098.00
1327.563,1072.00
1328.464,1067.50
1329.367,1133.50
1330.271,1096.50
1331.172,1080.50
1332.074,1097.00
1332.977,1067.00
1333.878,1099.00
1334.781,1034.50
1335.683,1062.50
1336.584,1128.50
1337.486,1070.00
1338.387,1082.00
1339.289,1074.50
1340.191,1057.00
1341.091,1111.50
1341.993,1066.00
1342.895,1031.00
1343.794,1040.50
1344.696,1029.00
1345.596,1072.00
1346.497,1080.00
1347.398,1040.50
1348.298,1088.00
1349.199,992.00
1350.100,1042.50
1350.999,1022.50
1351.900,1061.50
1352.799,1029.00
1353.699,1023.00
1354.600,1030.50
1355.499,1114.00
1356.399,1006.00
1357.297,996.00
1358.198,960.50
1359.098,1006.50
1359.996,958.00
1360.896,1059.50
1361.796,1034.00
1362.694,1049.00
1363.593,1040.00
1364.491,1022.00
1365.391,1020.00
1366.290,1062.50
1367.187,1037.00
1368.086,1018.00
1368.984,1026.50
1369.883,985.50
1370.782,1008.00
1371.679,1056.50
1372.577,1005.00
1373.474,996.50
1374.373,1013.00
1375.269,948.00
1376.168,970.50
1377.066,967.50
1377.962,1026.00
1378.860,944.50
1379.756,1015.50
1380.654,933.50
1381.552,1014.00
1382.448,907.50
1383.346,916.00
1384.241,958.00
1385.139,946.50
1386.036,926.00
1386.931,952.00
1387.829,983.50
1388.724,912.50
1389.621,977.00
1390.516,976.50
1391.413,926.00
1392.309,938.50
1393.204,978.50
1394.101,962.50
1394.995,961.50
1395.891,973.00
1396.786,959.50
1397.682,982.50
1398.578,972.50
1399.472,936.00
1400.368,953.50
1401.262,985.00
1402.158,933.50
1403.051,975.00
1403.947,935.00
1404.840,1002.00
1405.736,975.00
1406.631,949.00
1407.524,974.50
1408.419,979.00
1409.312,963.00
1410.207,976.00
1411.100,886.50
1411.995,972.00
1412.888,995.50
1413.782,974.50
1414.675,933.50
1415.569,908.00
1416.463,935.00
1417.355,941.00
1418.249,957.00
1419.141,965.50
1420.035,942.50
1420.927,893.50
1421.821,925.50
1422.713,957.00
1423.606,903.50
1424.498,889.00
1425.391,940.00
1426.282,873.50
1427.175,911.00
1428.068,929.00
1428.960,853.50
1429.852,886.50
1430.743,910.00
1431.636,939.50
1432.527,881.50
1433.419,931.50
1434.310,900.50
1435.202,905.00
1436.092,950.00
1436.984,939.00
1437.875,875.00
1438.767,879.00
1439.657,878.00
1440.548,878.00
1441.438,882.50
1442.330,991.50
1443.219,945.50
1444.111,905.00
1445.000,912.50
1445.891,925.00
1446.781,946.00
1447.672,897.50
1448.561,903.50
1449.452,935.00
1450.340,906.50
1451.231,912.00
1452.120,909.50
1453.010,915.50
1453.899,855.50
1454.789,895.00
1455.677,900.00
1456.568,932.00
1457.456,942.00
1458.346,880.00
1459.234,915.00
1460.123,933.00
1461.011,879.00
1461.901,881.00
1462.788,875.00
1463.678,846.50
1464.565,850.50
1465.454,904.50
1466.342,889.50
1467.231,904.00
1468.118,906.50
1469.006,916.50
1469.893,869.50
1470.782,871.00
1471.669,817.50
1472.557,869.00
1473.444,933.00
1474.330,906.00
1475.218,844.50
1476.105,898.50
1476.993,913.00
1477.879,882.50
1478.767,807.50
1479.652,863.00
1480.540,929.50
1481.426,893.50
1482.313,896.00
1483.199,929.50
1484.086,846.50
1484.972,873.00
1485.857,881.00
1486.744,839.00
1487.629,804.50
1488.516,864.50
1489.401,835.00
1490.287,850.00
1491.172,877.00
1492.058,815.50
1492.943,823.00
1493.828,853.50
1494.714,884.50
1495.598,818.00
1496.484,923.50
1497.368,864.00
1498.254,868.50
1499.138,887.50
1500.022,884.50
1500.907,836.00
1501.791,829.50
1502.676,854.00
1503.560,820.50
1504.445,814.50
1505.328,844.50
1506.211,825.00
1507.096,872.50
1507.979,841.50
1508.864,838.00
1509.747,850.00
1510.631,850.00
1511.514,823.00
1512.397,808.00
1513.281,837.00
1514.163,837.50
1515.047,867.00
1515.930,812.50
1516.812,812.00
1517.696,851.00
1518.578,839.00
1519.461,870.00
1520.343,835.50
1521.225,850.50
1522.108,873.50
1522.990,840.50
1523.873,824.00
1524.754,826.50
1525.635,790.00
1526.518,857.50
1527.399,849.00
1528.282,837.00
1529.163,819.00
1530.044,873.50
1530.926,833.00
1531.807,837.00
1532.689,808.50
1533.569,830.00
1534.450,849.00
1535.332,803.50
1536.212,813.50
1537.092,842.00
1537.974,822.00
1538.854,812.50
1539.735,841.00
1540.615,811.00
1541.495,823.50
1542.376,828.50
1543.255,804.50
1544.135,828.00
1545.016,807.00
1545.895,833.50
1546.774,742.50
1547.655,779.00
1548.534,803.00
1549.414,758.50
1550.293,800.00
1551.172,824.00
1552.052,870.00
1552.930,807.00
1553.809,851.00
1554.689,757.50
1555.567,797.00
1556.445,770.00
1557.325,847.00
1558.203,825.50
1559.080,796.00
1559.960,805.00
1560.838,763.00
1561.715,805.00
1562.594,844.00
1563.472,808.50
1564.349,838.50
1565.228,797.50
1566.105,812.50
1566.982,836.50
1567.861,794.00
1568.738,797.00
1569.615,792.50
1570.493,811.00
1571.370,828.50
1572.246,828.50
1573.124,827.00
1574.000,809.50
1574.877,784.50
1575.755,792.00
1576.631,807.00
1577.507,836.50
1578.384,786.00
1579.260,794.00
1580.136,835.00
1581.011,832.00
1581.889,787.00
1582.764,806.00
1583.639,719.00
1584.516,737.00
1585.391,726.50
1586.266,795.50
1587.143,735.50
1588.018,864.00
1588.893,868.00
1589.768,841.50
1590.644,753.00
1591.519,803.50
1592.393,777.50
1593.269,776.50
1594.143,820.00
1595.018,798.50
1595.892,769.00
1596.767,787.50
1597.641,765.50
1598.515,802.00
1599.391,827.00
1600.264,749.50
1601.138,804.00
1602.011,798.00
1602.886,810.50
1603.760,761.00
1604.633,792.00
1605.508,751.50
1606.381,692.00
1607.254,738.50
1608.127,837.00
1609.001,797.50
1609.874,778.50
1610.746,829.00
1611.619,776.00
1612.493,794.50
1613.365,816.50
1614.238,795.50
1615.110,789.00
1615.984,723.50
1616.855,743.00
1617.727,796.00
1618.599,770.00
1619.473,702.50
1620.344,784.00
1621.216,771.00
1622.087,785.00
1622.960,768.00
1623.832,743.00
1624.703,755.50
1625.574,747.00
1626.445,805.00
1627.317,824.00
1628.188,715.00
1629.059,769.50
1629.930,777.00
1630.802,778.50
1631.672,807.00
1632.543,756.00
1633.413,756.50
1634.283,781.50
1635.155,763.50
1636.025,766.00
1636.895,829.50
1637.765,714.00
1638.636,719.00
1639.506,766.50
1640.376,762.00
1641.245,802.50
1642.114,774.50
1642.985,803.00
1643.855,725.50
1644.724,819.50
1645.593,804.00
1646.462,766.00
1647.333,808.50
1648.201,779.00
1649.070,828.00
1649.939,707.50
1650.807,750.50
1651.676,835.00
1652.546,720.00
1653.414,807.50
1654.282,809.00
1655.150,745.50
1656.018,721.00
1656.888,772.50
1657.756,714.50
1658.623,775.50
1659.491,738.50
1660.359,802.50
1661.226,757.00
1662.095,736.50
1662.962,800.00
1663.830,769.50
1664.697,775.50
1665.564,773.50
1666.431,759.00
1667.297,787.50
1668.166,769.50
1669.033,728.50
1669.899,768.50
1670.766,745.50
1671.632,788.00
1672.499,819.00
1673.367,765.50
1674.233,760.00
1675.099,809.50
1675.965,760.50
1676.831,757.50
1677.696,745.50
1678.562,780.00
1679.430,748.00
1680.295,801.00
1681.161,712.50
1682.026,769.50
1682.891,800.00
1683.756,738.00
1684.621,777.50
1685.486,746.50
1686.353,757.50
1687.218,895.00
1688.083,790.50
1688.947,740.00
1689.812,827.50
1690.677,728.00
1691.541,750.50
1692.405,801.00
1693.269,734.00
1694.135,786.50
1694.999,733.50
1695.863,728.00
1696.727,756.00
1697.591,686.00
1698.455,708.50
1699.318,776.50
1700.182,724.00
1701.045,751.50
1701.909,740.50
1702.772,729.50
1703.637,755.00
1704.500,759.50
1705.363,701.50
1706.226,737.50
1707.089,744.00
1707.951,691.00
1708.814,837.50
1709.677,729.50
1710.539,777.00
1711.402,794.00
1712.264,719.50
1713.126,760.50
1713.988,763.00
1714.852,764.50
1715.714,764.00
1716.576,747.50
1717.438,751.50
1718.299,766.00
1719.161,744.50
1720.023,802.00
1720.884,713.50
1721.745,715.50
1722.607,728.50
1723.468,753.00
1724.329,763.00
1725.190,746.50
1726.051,776.50
1726.912,735.50
1727.772,711.00
1728.633,747.50
1729.494,721.50
1730.354,678.50
1731.214,772.00
1732.075,715.50
1732.935,800.50
1733.797,759.50
1734.657,782.00
1735.517,770.50
1736.377,756.00
1737.237,742.00
1738.096,778.00
1738.956,764.50
1739.816,700.00
1740.675,723.50
1741.534,761.50
1742.394,759.50
1743.253,730.00
1744.112,704.00
1744.971,720.50
1745.830,799.00
1746.689,691.50
1747.547,749.00
1748.406,763.50
1749.265,780.50
1750.123,701.50
1750.982,750.00
1751.840,728.00
1752.698,725.50
1753.556,773.50
1754.414,720.50
1755.272,703.00
1756.130,704.50
1756.988,725.00
1757.846,725.00
1758.703,709.50
1759.559,707.00
1760.417,781.50
1761.274,721.50
1762.131,652.50
1762.989,759.00
1763.846,683.00
1764.703,740.50
1765.560,727.00
1766.417,758.50
1767.273,754.50
1768.130,720.50
1768.987,748.50
1769.843,711.00
1770.700,726.00
1771.556,736.00
1772.412,731.00
1773.268,730.00
1774.125,764.50
1774.980,684.50
1775.836,702.50
1776.692,762.50
1777.546,741.00
1778.402,732.50
1779.257,769.50
1780.113,731.50
1780.968,755.50
1781.824,686.00
1782.679,713.00
1783.534,672.00
1784.389,679.00
1785.244,786.00
1786.099,765.50
1786.954,710.00
1787.808,732.50
1788.661,693.00
1789.516,717.50
1790.370,737.00
1791.225,694.00
1792.079,741.50
1792.933,735.00
1793.787,701.00
1794.641,747.50
1795.495,723.50
1796.349,729.50
1797.201,684.00
1798.055,704.00
1798.908,779.50
1799.762,729.50
1800.615,754.50
1801.469,716.00
1802.322,671.00
1803.175,718.50
1804.028,751.00
1804.880,733.00
1805.732,740.50
1806.585,699.00
1807.438,728.50
1808.291,717.50
1809.143,712.50
1809.996,771.50
1810.846,712.00
1811.699,656.50
1812.551,731.50
1813.403,739.50
1814.255,697.50
1815.107,728.50
1815.959,750.00
1816.809,679.00
1817.661,706.00
1818.512,698.00
1819.364,725.00
1820.215,684.50
1821.067,746.50
1821.918,695.50
1822.768,758.50
1823.619,728.50
1824.470,745.00
1825.321,728.50
1826.172,725.50
1827.021,693.50
1827.871,724.50
1828.722,704.00
1829.572,693.00
1830.423,711.00
1831.273,750.50
1832.122,677.00
1832.972,708.50
1833.822,738.00
1834.672,755.50
1835.522,736.00
1836.370,751.50
1837.220,657.50
1838.070,715.00
1838.919,718.50
1839.769,742.50
1840.616,696.00
1841.466,691.00
1842.315,690.00
1843.164,705.50
1844.013,748.50
1844.860,702.50
1845.709,718.50
1846.558,714.00
1847.407,689.00
1848.254,706.00
1849.102,762.50
1849.951,735.00
1850.799,747.00
1851.648,714.50
1852.494,706.50
1853.342,730.00
1854.190,706.00
1855.038,641.50
1855.884,686.50
1856.732,696.00
1857.580,716.00
1858.428,712.00
1859.273,737.00
1860.121,686.50
1860.968,721.50
1861.816,699.00
1862.661,712.50
1863.508,673.50
1864.355,745.50
1865.202,679.00
1866.047,721.00
1866.894,686.00
1867.741,725.00
1868.586,676.00
1869.432,700.00
1870.279,684.50
1871.125,693.00
1871.970,703.00
1872.816,696.00
1873.662,770.50
1874.506,679.00
1875.352,626.00
1876.198,633.00
1877.044,706.50
1877.888,696.00
1878.734,707.00
1879.579,733.50
1880.423,679.00
1881.268,725.50
1882.113,737.00
1882.959,714.00
1883.802,750.00
1884.647,683.50
1885.492,684.50
1886.335,729.00
1887.180,680.50
1888.025,709.50
1888.867,668.00
1889.712,688.50
1890.556,691.50
1891.399,759.50
1892.243,692.50
1893.087,680.50
1893.930,713.50
1894.774,736.00
1895.618,662.50
1896.460,685.50
1897.304,701.00
1898.147,699.00
1898.989,734.50
1899.833,724.00
1900.676,711.50
1901.518,721.50
1902.361,727.50
1903.202,725.50
1904.046,724.50
1904.889,694.50
1905.730,744.00
1906.573,697.00
1907.415,721.50
1908.256,728.50
1909.099,727.50
1909.941,654.50
1910.782,678.00
1911.624,685.00
1912.465,726.00
1913.307,688.50
1914.149,684.50
1914.989,672.50
1915.831,680.50
1916.671,650.00
1917.513,674.00
1918.355,699.50
1919.195,617.00
1920.036,677.50
1920.876,717.50
1921.717,705.50
1922.558,647.00
1923.398,707.00
1924.239,686.00
1925.078,706.50
1925.919,718.50
1926.760,650.00
1927.599,708.50
1928.440,746.00
1929.279,640.50
1930.119,646.00
1930.958,709.50
1931.798,672.50
1932.638,729.00
1933.477,672.50
1934.317,687.00
1935.155,703.50
1935.995,714.00
1936.833,768.50
1937.673,703.50
1938.512,662.00
1939.350,654.00
1940.190,673.50
1941.027,724.50
1941.867,728.50
1942.704,701.00
1943.543,714.50
1944.381,702.50
1945.220,691.00
1946.057,675.00
1946.896,697.00
1947.733,675.00
1948.572,686.50
1949.408,689.00
1950.247,682.50
1951.085,691.50
1951.922,704.50
1952.760,693.00
1953.597,702.50
1954.435,693.00
1955.271,638.00
1956.109,680.00
1956.945,723.00
1957.783,670.50
1958.619,692.50
1959.456,685.00
1960.292,709.50
1961.129,707.00
1961.965,711.50
1962.802,704.00
1963.638,734.00
1964.475,664.00
1965.310,667.50
1966.145,695.00
1966.982,689.00
1967.817,701.50
1968.654,696.00
1969.489,705.50
1970.325,706.50
1971.160,715.50
1971.996,675.00
1972.831,634.00
1973.667,689.50
1974.501,684.50
1975.337,703.00
1976.171,705.50
1977.006,691.50
1977.841,672.00
1978.675,694.00
1979.511,713.00
1980.345,745.00
1981.180,700.50
1982.014,638.00
1982.849,696.50
1983.682,695.50
1984.516,712.00
1985.351,735.50
1986.184,719.00
1987.019,759.00
1987.852,696.50
1988.687,703.50
1989.519,685.00
1990.352,708.00
1991.187,682.00
1992.019,712.50
1992.854,711.00
1993.686,750.00
1994.518,694.00
1995.352,689.50
1996.185,717.00
1997.019,668.50
1997.851,679.00
1998.682,723.00
1999.516,707.50
2000.348,682.00

<< BACKGROUND SPECTRUM >>
Wave[dcm-1],No30
96.716,2562.00
97.759,2375.00
98.802,2293.00
99.846,2944.00
100.886,2563.00
101.929,2717.00
102.972,2739.00
104.015,2639.00
105.057,2777.00
106.100,2202.00
107.142,2638.00
108.184,3010.00
109.226,2878.00
110.268,2999.00
111.310,3340.00
112.352,2941.00
113.393,2969.00
114.435,2789.00
115.476,3111.00
116.517,3108.00
117.558,2595.00
118.599,2943.00
119.640,3243.00
120.681,3238.00
121.722,3225.00
122.762,2910.00
123.803,2754.00
124.843,3123.00
125.883,3341.00
126.923,3602.00
127.963,3337.00
129.001,3585.00
130.041,3966.00
131.080,3271.00
132.120,3160.00
133.159,3551.00
134.199,3626.00
135.238,3161.00
136.277,3507.00
137.316,3713.00
138.355,3599.00
139.393,3217.00
140.432,3335.00
141.470,3459.00
142.509,3206.00
143.547,3787.00
144.585,2975.00
145.623,3410.00
146.661,3122.00
147.699,3493.00
148.736,3607.00
149.774,3199.00
150.811,3477.00
151.849,3933.00
152.886,3446.00
153.923,3659.00
154.960,3147.00
155.997,3951.00
157.034,4915.00
158.072,3576.00
159.109,4067.00
160.145,4238.00
161.182,3230.00
162.218,3499.00
163.254,3300.00
164.290,3294.00
165.326,3985.00
166.361,3872.00
167.397,3502.00
168.432,3728.00
169.468,3396.00
170.503,3734.00
171.538,3373.00
172.573,3765.00
173.608,3216.00
174.643,3781.00
175.677,3629.00
176.712,3770.00
177.746,3831.00
178.781,3324.00
179.815,2742.00
180.849,3811.00
181.883,3272.00
182.917,2802.00
183.951,3092.00
184.984,3852.00
186.020,3295.00
187.053,3629.00
188.087,3288.00
189.120,3532.00
190.153,3668.00
191.186,3694.00
192.219,3779.00
193.251,3713.00
194.284,3765.00
195.317,3828.00
196.349,10752.00
197.381,3463.00
198.413,3466.00
199.445,3247.00
200.477,3593.00
201.509,3516.00
202.543,3582.00
203.575,3981.00
204.606,3707.00
205.637,4415.00
206.669,3149.00
207.700,3776.00
208.731,3578.00
209.762,3250.00
210.792,3263.00
211.823,3642.00
212.854,3252.00
213.884,4380.00
214.914,3689.00
215.947,3583.00
216.977,3673.00
218.007,3589.00
219.037,3841.00
220.066,3351.00
221.096,3826.00
222.126,3142.00
223.155,3387.00
224.184,3787.00
225.214,4286.00
226.245,3933.00
227.274,3336.00
228.302,3667.00
229.331,3779.00
230.360,3420.00
231.388,3383.00
232.417,3233.00
233.445,3615.00
234.473,3422.00
235.501,3724.00
236.531,3723.00
237.559,3695.00
238.587,3343.00
239.614,3348.00
240.642,3637.00
241.669,3691.00
242.696,3690.00
243.724,3651.00
244.753,4057.00
245.780,3434.00
246.806,3258.00
247.833,3624.00
248.860,3450.00
249.886,3574.00
250.913,3261.00
251.939,3564.00
252.967,3469.00
253.993,3517.00
255.019,3932.00
256.045,3590.00
257.070,4037.00
258.096,3298.00
259.121,3690.00
260.147,3580.00
261.174,3497.00
262.199,3430.00
263.224,3616.00
264.249,3877.00
265.274,4097.00
266.298,3550.00
267.323,3637.00
268.349,3880.00
269.374,3234.00
270.398,3259.00
271.422,3689.00
272.446,3295.00
273.470,3136.00
274.496,3792.00
275.519,3774.00
276.543,3854.00
277.566,3943.00
278.589,3852.00
279.613,3752.00
280.636,3744.00
281.661,3817.00
282.684,3838.00
283.706,3945.00
284.729,4184.00
285.751,2985.00
286.774,3987.00
287.798,3353.00
288.820,2994.00
289.842,3317.00
290.864,3375.00
291.886,3679.00
292.910,3471.00
293.932,4124.00
294.953,3546.00
295.974,3559.00
296.996,3706.00
298.017,3538.00
299.040,3392.00
300.061,3645.00
301.082,3403.00
302.102,3245.00
303.123,3817.00
304.143,3528.00
305.166,3490.00
306.186,3774.00
307.206,3386.00
308.226,3747.00
309.246,3136.00
310.268,3801.00
311.288,3457.00
312.307,3244.00
313.327,3483.00
314.346,3820.00
315.368,3026.00
316.387,3651.00
317.406,3640.00
318.425,3550.00
319.443,3484.00
320.464,3133.00
321.483,4002.00
322.501,3373.00
323.520,3996.00
324.538,3441.00
325.558,4067.00
326.576,3660.00
327.594,3547.00
328.612,3389.00
329.629,3143.00
330.649,3770.00
331.666,3592.00
332.684,3130.00
333.701,3742.00
334.718,3191.00
335.737,3424.00
336.754,3760.00
337.771,3796.00
338.787,3200.00
339.806,3459.00
340.823,3449.00
341.839,3568.00
342.855,3448.00
343.871,3604.00
344.889,3359.00
345.905,3886.00
346.921,3773.00
347.937,4349.00
348.954,4169.00
349.970,3679.00
350.985,3609.00
352.000,3130.00
353.017,3719.00
354.032,3115.00
355.047,3866.00
356.062,3490.00
357.077,3436.00
358.093,3975.00
359.108,3771.00
360.122,3616.00
361.136,3512.00
362.152,3992.00
363.166,3251.00
364.180,3127.00
365.194,3960.00
366.210,3405.00
367.223,3284.00
368.237,3411.00
369.250,3634.00
370.265,3368.00
371.278,3922.00
372.291,3736.00
373.304,3026.00
374.319,3736.00
375.332,3744.00
376.344,4040.00
377.357,3421.00
378.371,3816.00
379.383,3376.00
380.395,4340.00
381.407,4109.00
382.421,3379.00
383.433,3416.00
384.445,3361.00
385.456,3532.00
386.470,3067.00
387.481,3918.00
388.492,3916.00
389.505,3219.00
390.516,3953.00
391.527,3478.00
392.538,3524.00
393.551,3709.00
394.561,4387.00
395.572,3699.00
396.582,3600.00
397.594,3736.00
398.604,3410.00
399.614,3619.00
400.624,3439.00
401.636,3445.00
402.646,3525.00
403.655,3220.00
404.667,3370.00
405.676,3362.00
406.685,4358.00
407.694,3906.00
408.705,3061.00
409.714,3124.00
410.723,3305.00
411.734,3297.00
412.742,3393.00
413.751,3594.00
414.759,3629.00
415.769,3575.00
416.777,3827.00
417.785,3486.00
418.795,3377.00
419.803,3603.00
420.811,3214.00
421.818,3954.00
422.828,3460.00
423.835,3411.00
424.842,3410.00
425.852,3300.00
426.859,3641.00
427.866,3728.00
428.874,3619.00
429.881,3528.00
430.888,3797.00
431.894,3558.00
432.902,3581.00
433.909,4563.00
434.915,3673.00
435.923,4279.00
436.929,3077.00
437.935,3503.00
438.942,3378.00
439.948,3523.00
440.953,4063.00
441.959,3222.00
442.966,3986.00
443.971,3757.00
444.976,3170.00
445.983,3655.00
446.988,3464.00
447.993,4061.00
448.999,3683.00
450.004,3541.00
451.008,3402.00
452.014,4069.00
453.019,3846.00
454.023,3238.00
455.029,3214.00
456.032,4020.00
457.036,3487.00
458.042,2916.00
459.045,3412.00
460.049,3717.00
461.052,4080.00
462.057,3778.00
463.060,3997.00
464.063,3401.00
465.068,3510.00
466.071,3345.00
467.073,3904.00
468.078,3123.00
469.080,3075.00
470.082,3609.00
471.087,3447.00
472.089,3592.00
473.091,3807.00
474.095,4015.00
475.096,3462.00
476.098,3414.00
477.101,3745.00
478.103,3275.00
479.104,4187.00
480.107,3472.00
481.108,3088.00
482.109,4191.00
483.112,4143.00
484.113,4591.00
485.114,3725.00
486.116,3580.00
487.117,3838.00
488.117,3611.00
489.119,3706.00
490.119,3755.00
491.121,3185.00
492.121,3041.00
493.121,2903.00
494.123,3605.00
495.122,3663.00
496.122,3583.00
497.123,4490.00
498.122,3339.00
499.121,3655.00
500.122,3635.00
501.121,3166.00
502.120,3129.00
503.121,3303.00
504.119,3242.00
505.118,3762.00
506.118,3284.00
507.117,3278.00
508.115,3702.00
509.115,3556.00
510.113,3104.00
511.112,3801.00
512.110,3477.00
513.108,3828.00
514.107,3864.00
515.105,3789.00
516.102,3974.00
517.101,3546.00
518.098,3577.00
519.095,4076.00
520.094,3406.00
521.091,3409.00
522.089,3709.00
523.086,3374.00
524.082,3749.00
525.081,3621.00
526.077,4795.00
527.073,4555.00
528.071,3553.00
529.067,3374.00
530.064,3406.00
531.060,3186.00
532.056,3423.00
533.053,3851.00
534.048,3769.00
535.044,3552.00
536.041,3697.00
537.036,3579.00
538.030,3723.00
539.027,3810.00
540.022,3169.00
541.019,3470.00
542.013,3811.00
543.007,3659.00
544.004,3485.00
544.998,3554.00
545.994,4109.00
546.988,3955.00
547.981,3387.00
548.977,4179.00
549.971,3677.00
550.964,3791.00
551.960,3647.00
552.953,3575.00
553.948,3842.00
554.941,3398.00
555.934,3262.00
556.929,3770.00
557.922,3342.00
558.916,3812.00
559.909,4053.00
560.901,3604.00
561.895,3636.00
562.888,3281.00
563.880,3757.00
564.874,3922.00
565.865,3808.00
566.859,3193.00
567.851,4054.00
568.842,3474.00
569.836,3600.00
570.827,3312.00
571.820,3634.00
572.811,3728.00
573.802,3528.00
574.795,3284.00
575.786,3876.00
576.779,3648.00
577.769,3196.00
578.760,3653.00
579.752,3213.00
580.742,3417.00
581.735,3688.00
582.725,3352.00
583.714,3778.00
584.706,3218.00
585.696,3535.00
586.688,3765.00
587.677,3484.00
588.667,3741.00
589.658,3484.00
590.647,3671.00
591.638,3647.00
592.627,3353.00
593.616,3110.00
594.607,3688.00
595.595,3574.00
596.586,3159.00
597.574,3855.00
598.562,3961.00
599.553,3200.00
600.541,3552.00
601.531,3658.00
602.519,3447.00
603.508,3674.00
604.496,3700.00
605.484,3625.00
606.473,3529.00
607.460,3439.00
608.450,3388.00
609.437,3708.00
610.424,3887.00
611.413,3146.00
612.400,3251.00
613.388,3597.00
614.375,3397.00
615.361,3451.00
616.350,3325.00
617.336,8423.00
618.324,3902.00
619.310,3418.00
620.298,3198.00
621.284,3654.00
622.270,3254.00
623.257,3592.00
624.243,3569.00
625.230,3761.00
626.216,3573.00
627.203,3893.00
628.188,3476.00
629.173,3454.00
630.160,3263.00
631.145,2698.00
632.131,3342.00
633.116,3216.00
634.102,3661.00
635.087,3838.00
636.071,3797.00
637.057,3333.00
638.041,3136.00
639.027,3235.00
640.011,3425.00
640.995,3270.00
641.980,3235.00
642.964,3428.00
643.949,3923.00
644.932,2810.00
645.918,3321.00
646.901,3506.00
647.886,3337.00
648.868,3407.00
649.851,3152.00
650.836,2955.00
651.818,3189.00
652.803,3695.00
653.785,3510.00
654.769,3729.00
655.751,3694.00
656.733,3939.00
657.717,3050.00
658.699,3548.00
659.683,3334.00
660.664,3132.00
661.648,3430.00
662.629,3317.00
663.611,3292.00
664.594,3052.00
665.575,3080.00
666.558,3424.00
667.539,3079.00
668.521,3356.00
669.502,3405.00
670.484,3293.00
671.465,3261.00
672.445,3459.00
673.427,3237.00
674.407,3162.00
675.390,3571.00
676.369,3327.00
677.351,2986.00
678.331,3626.00
679.312,3377.00
680.292,3267.00
681.271,2954.00
682.253,3504.00
683.232,3068.00
684.213,3275.00
685.192,3695.00
686.172,3929.00
687.151,3365.00
688.132,3448.00
689.110,3570.00
690.089,3698.00
691.069,2891.00
692.047,2858.00
693.027,2961.00
694.005,3369.00
694.985,4004.00
695.963,3539.00
696.943,3261.00
697.920,2986.00
698.898,3850.00
699.877,3609.00
700.854,3262.00
701.833,3247.00
702.810,3736.00
703.789,3460.00
704.766,4495.00
705.745,3917.00
706.721,3155.00
707.698,3744.00
708.676,3077.00
709.653,3283.00
710.631,3638.00
711.607,3355.00
712.585,3408.00
713.561,3115.00
714.539,3890.00
715.514,3280.00
716.492,3090.00
717.467,3800.00
718.443,3026.00
719.420,3733.00
720.395,3756.00
721.372,3576.00
722.347,3648.00
723.324,3213.00
724.298,3322.00
725.275,3141.00
726.250,3477.00
727.226,3389.00
728.200,2986.00
729.176,3265.00
730.151,3599.00
731.125,3766.00
732.100,2926.00
733.074,3325.00
734.050,3162.00
735.023,3047.00
735.999,3317.00
736.972,3225.00
737.947,3691.00
738.921,3424.00
739.896,3574.00
740.869,3442.00
741.841,3243.00
742.816,3807.00
743.789,3100.00
744.763,3104.00
745.736,3328.00
746.710,3167.00
747.682,3102.00
748.656,3305.00
749.628,3229.00
750.602,3268.00
751.574,3423.00
752.548,4208.00
753.519,3450.00
754.491,2931.00
755.464,3177.00
756.435,3971.00
757.408,3625.00
758.379,3464.00
759.352,2875.00
760.323,3015.00
761.296,3246.00
762.267,3347.00
763.239,3052.00
764.209,3575.00
765.182,4462.00
766.152,3648.00
767.124,3059.00
768.094,3117.00
769.064,3499.00
770.036,2988.00
771.005,3633.00
771.977,3154.00
772.947,3250.00
773.918,3715.00
774.887,3257.00
775.858,3110.00
776.827,3240.00
777.798,3236.00
778.767,3830.00
779.738,3246.00
780.707,3176.00
781.677,3392.00
782.646,3109.00
783.614,3692.00
784.584,3392.00
785.552,3524.00
786.522,2980.00
787.490,3267.00
788.460,3140.00
789.428,3189.00
790.397,3728.00
791.365,3016.00
792.334,3183.00
793.302,3380.00
794.271,3395.00
795.238,3185.00
796.207,3197.00
797.174,3566.00
798.143,3009.00
799.109,3631.00
800.076,3207.00
801.044,2866.00
802.011,3064.00
802.979,3094.00
803.945,3295.00
804.913,3871.00
805.879,3257.00
806.847,2941.00
807.813,3632.00
808.780,3226.00
809.746,3246.00
810.713,3671.00
811.678,2962.00
812.646,3173.00
813.611,3265.00
814.578,2989.00
815.543,3630.00
816.510,2873.00
817.474,3158.00
818.439,3206.00
819.405,3499.00
820.370,3108.00
821.336,2971.00
822.300,3401.00
823.266,3252.00
824.230,3411.00
825.196,3256.00
826.160,3639.00
827.126,3622.00
828.089,3992.00
829.055,3319.00
830.018,3336.00
830.983,4058.00
831.946,3108.00
832.911,3085.00
833.874,3935.00
834.837,3116.00
835.802,3176.00
836.765,3761.00
837.729,3138.00
838.691,3234.00
839.656,3576.00
840.618,3412.00
841.582,3479.00
842.544,3529.00
843.508,3704.00
844.470,2992.00
845.434,2849.00
846.395,2726.00
847.359,3159.00
848.320,2861.00
849.283,3061.00
850.245,3119.00
851.208,3460.00
852.169,3222.00
853.130,2971.00
854.092,3427.00
855.053,3175.00
856.016,3168.00
856.976,4309.00
857.938,3259.00
858.899,3327.00
859.861,2918.00
860.821,3161.00
861.783,2606.00
862.743,3231.00
863.704,3498.00
864.664,2741.00
865.626,3367.00
866.585,3056.00
867.546,3314.00
868.506,3308.00
869.467,2790.00
870.426,3303.00
871.387,3488.00
872.346,3516.00
873.304,3337.00
874.265,3428.00
875.223,3263.00
876.184,3356.00
877.142,3064.00
878.102,3235.00
879.060,3188.00
880.021,3367.00
880.978,2861.00
881.938,3176.00
882.896,3579.00
883.856,3412.00
884.813,3166.00
885.772,3122.00
886.730,3360.00
887.689,3431.00
888.646,3120.00
889.603,3624.00
890.562,3600.00
891.519,3393.00
892.477,3407.00
893.434,3277.00
894.392,2857.00
895.349,3248.00
896.307,3370.00
897.263,3499.00
898.221,3299.00
899.177,3102.00
900.135,3388.00
901.091,3212.00
902.048,3682.00
903.004,3203.00
903.961,3048.00
904.917,3204.00
905.874,3240.00
906.829,2888.00
907.784,3279.00
908.741,3269.00
909.696,3077.00
910.653,2764.00
911.607,3165.00
912.564,3150.00
913.518,3147.00
914.475,3274.00
915.429,4928.00
916.385,2959.00
917.339,3624.00
918.295,3362.00
919.249,3436.00
920.205,3285.00
921.158,3386.00
922.114,3156.00
923.067,3288.00
924.020,3257.00
924.976,3123.00
925.929,3381.00
926.884,3337.00
927.837,3520.00
928.791,3454.00
929.744,2918.00
930.699,3219.00
931.651,3286.00
932.606,2872.00
933.558,3105.00
934.512,3417.00
935.464,3326.00
936.418,3568.00
937.370,3377.00
938.322,3003.00
939.276,3131.00
940.227,3241.00
941.181,3288.00
942.132,3654.00
943.085,3834.00
944.036,2774.00
944.990,3607.00
945.941,3049.00
946.893,3093.00
947.844,2917.00
948.797,3377.00
949.747,3967.00
950.700,3107.00
951.650,2642.00
952.601,3370.00
953.553,3022.00
954.503,3434.00
955.455,3207.00
956.405,3221.00
957.356,2900.00
958.306,3481.00
959.258,3144.00
960.207,3643.00
961.158,3551.00
962.108,3264.00
963.059,2923.00
964.008,2833.00
964.959,3875.00
965.908,3186.00
966.856,2976.00
967.807,2810.00
968.756,3622.00
969.706,3234.00
970.654,3180.00
971.605,3204.00
972.553,3284.00
973.503,3200.00
974.451,3508.00
975.401,3289.00
976.348,3253.00
977.296,3113.00
978.246,3456.00
979.193,3669.00
980.142,2995.00
981.090,3311.00
982.039,3203.00
982.986,3304.00
983.935,3583.00
984.882,3331.00
985.830,3407.00
986.777,3391.00
987.725,3049.00
988.672,3015.00
989.618,3294.00
990.567,2982.00
991.513,3122.00
992.461,3055.00
993.407,3499.00
994.354,3337.00
995.300,3360.00
996.248,3380.00
997.193,3342.00
998.141,3127.00
999.086,3334.00
1000.031,3308.00
1000.978,2801.00
1001.924,3209.00
1002.870,3394.00
1003.815,2641.00
1004.762,3021.00
1005.707,3242.00
1006.653,3146.00
1007.598,3149.00
1008.542,2886.00
1009.488,2854.00
1010.432,3117.00
1011.378,2964.00
1012.322,3570.00
1013.268,2888.00
1014.212,3221.00
1015.157,3311.00
1016.101,3640.00
1017.046,2949.00
1017.990,2937.00
1018.933,3135.00
1019.878,3046.00
1020.821,3004.00
1021.766,2855.00
1022.709,3087.00
1023.654,3143.00
1024.596,3461.00
1025.541,3641.00
1026.483,3618.00
1027.425,3307.00
1028.370,3363.00
1029.312,3391.00
1030.256,3058.00
1031.198,3013.00
1032.141,3090.00
1033.083,3615.00
1034.027,3327.00
1034.968,3361.00
1035.910,2742.00
1036.853,3200.00
1037.794,3307.00
1038.738,2950.00
1039.679,3455.00
1040.621,3105.00
1041.562,3136.00
1042.503,3499.00
1043.446,2940.00
1044.386,3427.00
1045.329,3235.00
1046.269,3328.00
1047.211,3151.00
1048.151,3269.00
1049.093,2902.00
1050.033,3922.00
1050.973,3325.00
1051.915,3146.00
1052.854,3146.00
1053.796,3368.00
1054.735,3060.00
1055.677,3059.00
1056.616,3300.00
1057.555,3264.00
1058.496,2873.00
1059.435,3377.00
1060.376,3079.00
1061.315,2977.00
1062.255,2900.00
1063.194,3131.00
1064.132,2887.00
1065.073,3267.00
1066.011,3235.00
1066.951,3208.00
1067.889,2959.00
1068.829,3307.00
1069.767,3255.00
1070.705,2567.00
1071.644,3081.00
1072.582,2738.00
1073.521,3074.00
1074.459,3155.00
1075.398,3319.00
1076.335,3039.00
1077.272,3856.00
1078.211,3300.00
1079.148,3687.00
1080.087,3191.00
1081.023,3631.00
1081.962,3409.00
1082.898,2781.00
1083.835,3043.00
1084.773,2755.00
1085.709,2790.00
1086.647,3183.00
1087.583,3031.00
1088.519,3298.00
1089.457,3347.00
1090.392,2756.00
1091.330,3186.00
1092.266,3099.00
1093.203,3476.00
1094.138,2806.00
1095.073,3641.00
1096.010,3481.00
1096.945,3103.00
1097.882,2801.00
1098.817,2629.00
1099.752,3335.00
1100.688,3138.00
1101.623,3274.00
1102.559,3267.00
1103.493,3486.00
1104.430,2734.00
1105.364,2817.00
1106.298,3112.00
1107.234,3722.00
1108.167,2909.00
1109.094,3097.00
1110.019,3102.00
1110.945,3273.00
1111.869,3168.00
1112.795,3062.00
1113.720,3190.00
1114.646,3157.00
1115.571,2586.00
1116.495,3201.00
1117.420,3272.00
1118.345,2980.00
1119.270,3095.00
1120.195,3288.00
1121.118,3502.00
1122.042,3457.00
1122.967,3172.00
1123.891,3195.00
1124.816,3204.00
1125.738,3168.00
1126.663,2598.00
1127.587,3033.00
1128.511,3014.00
1129.435,3209.00
1130.357,3208.00
1131.280,3972.00
1132.204,2939.00
1133.128,2969.00
1134.051,3042.00
1134.972,3752.00
1135.896,3032.00
1136.819,3439.00
1137.742,2994.00
1138.665,3301.00
1139.586,3189.00
1140.509,2665.00
1141.431,2998.00
1142.354,3589.00
1143.276,3154.00
1144.197,3535.00
1145.119,3243.00
1146.041,2913.00
1146.964,3343.00
1147.885,3260.00
1148.806,3102.00
1149.727,3178.00
1150.649,2766.00
1151.571,3159.00
1152.492,3352.00
1153.412,3261.00
1154.333,3152.00
1155.254,3004.00
1156.175,3063.00
1157.095,3589.00
1158.016,3155.00
1158.936,2988.00
1159.857,3293.00
1160.778,3074.00
1161.697,2770.00
1162.617,3279.00
1163.537,3768.00
1164.458,3607.00
1165.376,2993.00
1166.296,3389.00
1167.216,3507.00
1168.136,3009.00
1169.056,2903.00
1169.974,3083.00
1170.893,3662.00
1171.813,3330.00
1172.732,3074.00
1173.650,3223.00
1174.569,3990.00
1175.488,3361.00
1176.407,2905.00
1177.326,2937.00
1178.243,3154.00
1179.161,2961.00
1180.080,3011.00
1180.999,3282.00
1181.915,3082.00
1182.834,2713.00
1183.752,3303.00
1184.670,3767.00
1185.586,2677.00
1186.504,2972.00
1187.422,3111.00
1188.340,2827.00
1189.258,3286.00
1190.173,3155.00
1191.091,3481.00
1192.008,2966.00
1192.926,2995.00
1193.841,3252.00
1194.758,3283.00
1195.675,2902.00
1196.592,3428.00
1197.507,2862.00
1198.424,3288.00
1199.340,3618.00
1200.257,3064.00
1201.172,3249.00
1202.088,2596.00
1203.004,3228.00
1203.920,3400.00
1204.835,3725.00
1205.750,3498.00
1206.666,3564.00
1207.582,2913.00
1208.496,2964.00
1209.412,3079.00
1210.327,3005.00
1211.243,3624.00
1212.156,2942.00
1213.071,2921.00
1213.986,3162.00
1214.901,2787.00
1215.814,2797.00
1216.729,2909.00
1217.644,2891.00
1218.559,2932.00
1219.471,3934.00
1220.386,3482.00
1221.300,2947.00
1222.213,3287.00
1223.127,3093.00
1224.041,3529.00
1224.955,2876.00
1225.867,3206.00
1226.781,3418.00
1227.694,3498.00
1228.608,3107.00
1229.520,3393.00
1230.433,3372.00
1231.346,2912.00
1232.260,3325.00
1233.171,2902.00
1234.084,3223.00
1234.997,3564.00
1235.908,3028.00
1236.821,3294.00
1237.733,4356.00
1238.646,3470.00
1239.556,3244.00
1240.469,3144.00
1241.381,2949.00
1242.293,2945.00
1243.203,3637.00
1244.115,3677.00
1245.027,3277.00
1245.937,2975.00
1246.849,3123.00
1247.761,3114.00
1248.672,2946.00
1249.582,3058.00
1250.493,3723.00
1251.404,3174.00
1252.313,3376.00
1253.225,3504.00
1254.135,4109.00
1255.046,3266.00
1255.955,3381.00
1256.866,3665.00
1257.777,3013.00
1258.685,2834.00
1259.596,2600.00
1260.506,3458.00
1261.416,3111.00
1262.324,3391.00
1263.234,3113.00
1264.144,3369.00
1265.052,3265.00
1265.962,3199.00
1266.872,3467.00
1267.779,3379.00
1268.689,2747.00
1269.598,2887.00
1270.507,3050.00
1271.415,3018.00
1272.324,3226.00
1273.233,3114.00
1274.140,3023.00
1275.048,2925.00
1275.957,2685.00
1276.864,2977.00
1277.772,2980.00
1278.681,2659.00
1279.587,2867.00
1280.496,3306.00
1281.404,3886.00
1282.312,3328.00
1283.218,2871.00
1284.126,2938.00
1285.033,3696.00
1285.939,3125.00
1286.847,3180.00
1287.754,3026.00
1288.660,2873.00
1289.567,3780.00
1290.474,3234.00
1291.380,3417.00
1292.286,2832.00
1293.193,3191.00
1294.098,3200.00
1295.005,2989.00
1295.912,3526.00
1296.816,3252.00
1297.723,3095.00
1298.629,2956.00
1299.534,3462.00
1300.440,3200.00
1301.346,2920.00
1302.250,2990.00
1303.156,2681.00
1304.062,3597.00
1304.966,3689.00
1305.871,3469.00
1306.777,2936.00
1307.680,3150.00
1308.586,3291.00
1309.491,3363.00
1310.394,3127.00
1311.299,3421.00
1312.204,3688.00
1313.107,3282.00
1314.012,3215.00
1314.917,2875.00
1315.819,3250.00
1316.724,3716.00
1317.628,3257.00
1318.531,3119.00
1319.435,3563.00
1320.339,5165.00
1321.241,3084.00
1322.145,3214.00
1323.049,3242.00
1323.951,2907.00
1324.854,2887.00
1325.756,3400.00
1326.659,3201.00
1327.563,2961.00
1328.464,3282.00
1329.367,3078.00
1330.271,3516.00
1331.172,2874.00
1332.074,3154.00
1332.977,2948.00
1333.878,3304.00
1334.781,3473.00
1335.683,2949.00
1336.584,3060.00
1337.486,2745.00
1338.387,3280.00
1339.289,2835.00
1340.191,3003.00
1341.091,3060.00
1341.993,2875.00
1342.895,3009.00
1343.794,3251.00
1344.696,3366.00
1345.596,3264.00
1346.497,2875.00
1347.398,3110.00
1348.298,2671.00
1349.199,3733.00
1350.100,3060.00
1350.999,3546.00
1351.900,3324.00
1352.799,3491.00
1353.699,3223.00
1354.600,3117.00
1355.499,3176.00
1356.399,2736.00
1357.297,3115.00
1358.198,3246.00
1359.098,2939.00
1359.996,2865.00
1360.896,3581.00
1361.796,3407.00
1362.694,3265.00
1363.593,3114.00
1364.491,3339.00
1365.391,3663.00
1366.290,3066.00
1367.187,2926.00
1368.086,3368.00
1368.984,3198.00
1369.883,2731.00
1370.782,3168.00
1371.679,3272.00
1372.577,3660.00
1373.474,3177.00
1374.373,3055.00
1375.269,3192.00
1376.168,3101.00
1377.066,3433.00
1377.962,3327.00
1378.860,3530.00
1379.756,3517.00
1380.654,3814.00
1381.552,3382.00
1382.448,3335.00
1383.346,3220.00
1384.241,3318.00
1385.139,3445.00
1386.036,3097.00
1386.931,2754.00
1387.829,3229.00
1388.724,3432.00
1389.621,3031.00
1390.516,3194.00
1391.413,3097.00
1392.309,2935.00
1393.204,3397.00
1394.101,3342.00
1394.995,3336.00
1395.891,3295.00
1396.786,2934.00
1397.682,3111.00
1398.578,3229.00
1399.472,3496.00
1400.368,3175.00
1401.262,3116.00
1402.158,3330.00
1403.051,3082.00
1403.947,3061.00
1404.840,3366.00
1405.736,3357.00
1406.631,2920.00
1407.524,3588.00
1408.419,3183.00
1409.312,3069.00
1410.207,3250.00
1411.100,3048.00
1411.995,2961.00
1412.888,3303.00
1413.782,2810.00
1414.675,3497.00
1415.569,2901.00
1416.463,3083.00
1417.355,3102.00
1418.249,2925.00
1419.141,3222.00
1420.035,3286.00
1420.927,3135.00
1421.821,3509.00
1422.713,3014.00
1423.606,3300.00
1424.498,3204.00
1425.391,3779.00
1426.282,2974.00
1427.175,3109.00
1428.068,2633.00
1428.960,3265.00
1429.852,3274.00
1430.743,2925.00
1431.636,3139.00
1432.527,3483.00
1433.419,3322.00
1434.310,3353.00
1435.202,2979.00
1436.092,3083.00
1436.984,3099.00
1437.875,3553.00
1438.767,3139.00
1439.657,2990.00
1440.548,3407.00
1441.438,3242.00
1442.330,3251.00
1443.219,3079.00
1444.111,3400.00
1445.000,3002.00
1445.891,2912.00
1446.781,2935.00
1447.672,3246.00
1448.561,3517.00
1449.452,3293.00
1450.340,2932.00
1451.231,2935.00
1452.120,2904.00
1453.010,3414.00
1453.899,3075.00
1454.789,3328.00
1455.677,3563.00
1456.568,3189.00
1457.456,3172.00
1458.346,3203.00
1459.234,3213.00
1460.123,3478.00
1461.011,3183.00
1461.901,3544.00
1462.788,3582.00
1463.678,3314.00
1464.565,3208.00
1465.454,3082.00
1466.342,3253.00
1467.231,2525.00
1468.118,3425.00
1469.006,3573.00
1469.893,2888.00
1470.782,3347.00
1471.669,3539.00
1472.557,3431.00
1473.444,3159.00
1474.330,3340.00
1475.218,3514.00
1476.105,3087.00
1476.993,3175.00
1477.879,3410.00
1478.767,3153.00
1479.652,2944.00
1480.540,3222.00
1481.426,3375.00
1482.313,3285.00
1483.199,3506.00
1484.086,3412.00
1484.972,2872.00
1485.857,2875.00
1486.744,3271.00
1487.629,2793.00
1488.516,3057.00
1489.401,3393.00
1490.287,3203.00
1491.172,2795.00
1492.058,3138.00
1492.943,2983.00
1493.828,2999.00
1494.714,3330.00
1495.598,3571.00
1496.484,3980.00
1497.368,2843.00
1498.254,3151.00
1499.138,3180.00
1500.022,3150.00
1500.907,3325.00
1501.791,3935.00
1502.676,3179.00
1503.560,3077.00
1504.445,3741.00
1505.328,3302.00
1506.211,3574.00
1507.096,3118.00
1507.979,3446.00
1508.864,3134.00
1509.747,3336.00
1510.631,3236.00
1511.514,3332.00
1512.397,3464.00
1513.281,3668.00
1514.163,3421.00
1515.047,3048.00
1515.930,2916.00
1516.812,3228.00
1517.696,3328.00
1518.578,3135.00
1519.461,3236.00
1520.343,3676.00
1521.225,2996.00
1522.108,3069.00
1522.990,3482.00
1523.873,3608.00
1524.754,2805.00
1525.635,2696.00
1526.518,3318.00
1527.399,3124.00
1528.282,3197.00
1529.163,3319.00
1530.044,3153.00
1530.926,2864.00
1531.807,2944.00
1532.689,3274.00
1533.569,2995.00
1534.450,4235.00
1535.332,3381.00
1536.212,3097.00
1537.092,3472.00
1537.974,2882.00
1538.854,3110.00
1539.735,3683.00
1540.615,3386.00
1541.495,2961.00
1542.376,3588.00
1543.255,2905.00
1544.135,3119.00
1545.016,3193.00
1545.895,2958.00
1546.774,3473.00
1547.655,2762.00
1548.534,3191.00
1549.414,3138.00
1550.293,2864.00
1551.172,3239.00
1552.052,3128.00
1552.930,3043.00
1553.809,3640.00
1554.689,3121.00
1555.567,3107.00
1556.445,3096.00
1557.325,3499.00
1558.203,2761.00
1559.080,3175.00
1559.960,3094.00
1560.838,3876.00
1561.715,3099.00
1562.594,3475.00
1563.472,3354.00
1564.349,3304.00
1565.228,2765.00
1566.105,2966.00
1566.982,3206.00
1567.861,3452.00
1568.738,3120.00
1569.615,2787.00
1570.493,3032.00
1571.370,3041.00
1572.246,2620.00
1573.124,3144.00
1574.000,3130.00
1574.877,3432.00
1575.755,3059.00
1576.631,2928.00
1577.507,3560.00
1578.384,3556.00
1579.260,3292.00
1580.136,3750.00
1581.011,3168.00
1581.889,3149.00
1582.764,3145.00
1583.639,3540.00
1584.516,3353.00
1585.391,3124.00
1586.266,3199.00
1587.143,3691.00
1588.018,3289.00
1588.893,3542.00
1589.768,4496.00
1590.644,3938.00
1591.519,2910.00
1592.393,3347.00
1593.269,3452.00
1594.143,2989.00
1595.018,3136.00
1595.892,3061.00
1596.767,2706.00
1597.641,2708.00
1598.515,2834.00
1599.391,3333.00
1600.264,3055.00
1601.138,2953.00
1602.011,2548.00
1602.886,3680.00
1603.760,3491.00
1604.633,3414.00
1605.508,3447.00
1606.381,3321.00
1607.254,3217.00
1608.127,3259.00
1609.001,2913.00
1609.874,3515.00
1610.746,3410.00
1611.619,3198.00
1612.493,3390.00
1613.365,2983.00
1614.238,3194.00
1615.110,3185.00
1615.984,3229.00
1616.855,3021.00
1617.727,3423.00
1618.599,3048.00
1619.473,3530.00
1620.344,2550.00
1621.216,3214.00
1622.087,3230.00
1622.960,3220.00
1623.832,3209.00
1624.703,3317.00
1625.574,3396.00
1626.445,3200.00
1627.317,3193.00
1628.188,3466.00
1629.059,3118.00
1629.930,3545.00
1630.802,3152.00
1631.672,3330.00
1632.543,3296.00
1633.413,3201.00
1634.283,3651.00
1635.155,3284.00
1636.025,3264.00
1636.895,3209.00
1637.765,2766.00
1638.636,3210.00
1639.506,3341.00
1640.376,3949.00
1641.245,3099.00
1642.114,3224.00
1642.985,2632.00
1643.855,2974.00
1644.724,3047.00
1645.593,3334.00
1646.462,3312.00
1647.333,3220.00
1648.201,3073.00
1649.070,3234.00
1649.939,3413.00
1650.807,2984.00
1651.676,3348.00
1652.546,3446.00
1653.414,3477.00
1654.282,3167.00
1655.150,3096.00
1656.018,3189.00
1656.888,3800.00
1657.756,3207.00
1658.623,2835.00
1659.491,2777.00
1660.359,3526.00
1661.226,3041.00
1662.095,3367.00
1662.962,3058.00
1663.830,3134.00
1664.697,2988.00
1665.564,3159.00
1666.431,3358.00
1667.297,2921.00
1668.166,2912.00
1669.033,2789.00
1669.899,3071.00
1670.766,2865.00
1671.632,3039.00
1672.499,3492.00
1673.367,3226.00
1674.233,3410.00
1675.099,3154.00
1675.965,2870.00
1676.831,3113.00
1677.696,3520.00
1678.562,4933.00
1679.430,2745.00
1680.295,2840.00
1681.161,3003.00
1682.026,2976.00
1682.891,3042.00
1683.756,3107.00
1684.621,3217.00
1685.486,3231.00
1686.353,3168.00
1687.218,3237.00
1688.083,3146.00
1688.947,3458.00
1689.812,3082.00
1690.677,3048.00
1691.541,3290.00
1692.405,2504.00
1693.269,3660.00
1694.135,3349.00
1694.999,3221.00
1695.863,3713.00
1696.727,3040.00
1697.591,3092.00
1698.455,3299.00
1699.318,3027.00
1700.182,4458.00
1701.045,3209.00
1701.909,3236.00
1702.772,3670.00
1703.637,3042.00
1704.500,2765.00
1705.363,3478.00
1706.226,3252.00
1707.089,3321.00
1707.951,3389.00
1708.814,3858.00
1709.677,3964.00
1710.539,3432.00
1711.402,3415.00
1712.264,3191.00
1713.126,3097.00
1713.988,3452.00
1714.852,3444.00
1715.714,2595.00
1716.576,2782.00
1717.438,3446.00
1718.299,2724.00
1719.161,3581.00
1720.023,3106.00
1720.884,3648.00
1721.745,3180.00
1722.607,3096.00
1723.468,2699.00
1724.329,3425.00
1725.190,3181.00
1726.051,3369.00
1726.912,3028.00
1727.772,3290.00
1728.633,3135.00
1729.494,3266.00
1730.354,3491.00
1731.214,2908.00
1732.075,3041.00
1732.935,3027.00
1733.797,3028.00
1734.657,3651.00
1735.517,3852.00
1736.377,3443.00
1737.237,3115.00
1738.096,3825.00
1738.956,3114.00
1739.816,3108.00
1740.675,3139.00
1741.534,2679.00
1742.394,3219.00
1743.253,2960.00
1744.112,3244.00
1744.971,3047.00
1745.830,3270.00
1746.689,3386.00
1747.547,3433.00
1748.406,2825.00
1749.265,3043.00
1750.123,3105.00
1750.982,3392.00
1751.840,3195.00
1752.698,3266.00
1753.556,2994.00
1754.414,3231.00
1755.272,3141.00
1756.130,3222.00
1756.988,3184.00
1757.846,3373.00
1758.703,3038.00
1759.559,3502.00
1760.417,2896.00
1761.274,3849.00
1762.131,3614.00
1762.989,3692.00
1763.846,3661.00
1764.703,3269.00
1765.560,3751.00
1766.417,3221.00
1767.273,2948.00
1768.130,3190.00
1768.987,3059.00
1769.843,3450.00
1770.700,3562.00
1771.556,3065.00
1772.412,3577.00
1773.268,3126.00
1774.125,3480.00
1774.980,3260.00
1775.836,3526.00
1776.692,3082.00
1777.546,3001.00
1778.402,3425.00
1779.257,3240.00
1780.113,3004.00
1780.968,3276.00
1781.824,3487.00
1782.679,2830.00
1783.534,3089.00
1784.389,3728.00
1785.244,3272.00
1786.099,3103.00
1786.954,3468.00
1787.808,3202.00
1788.661,3268.00
1789.516,3629.00
1790.370,3218.00
1791.225,3101.00
1792.079,2832.00
1792.933,3948.00
1793.787,3355.00
1794.641,3277.00
1795.495,3183.00
1796.349,3252.00
1797.201,3104.00
1798.055,3026.00
1798.908,3162.00
1799.762,3590.00
1800.615,3393.00
1801.469,3429.00
1802.322,3641.00
1803.175,3037.00
1804.028,2784.00
1804.880,3747.00
1805.732,3358.00
1806.585,3207.00
1807.438,3219.00
1808.291,2729.00
1809.143,2962.00
1809.996,2824.00
1810.846,3979.00
1811.699,3363.00
1812.551,3110.00
1813.403,3408.00
1814.255,3276.00
1815.107,3262.00
1815.959,3842.00
1816.809,3348.00
1817.661,3365.00
1818.512,3209.00
1819.364,3281.00
1820.215,3364.00
1821.067,2984.00
1821.918,3063.00
1822.768,3458.00
1823.619,3482.00
1824.470,3097.00
1825.321,3349.00
1826.172,3170.00
1827.021,3348.00
1827.871,3481.00
1828.722,3250.00
1829.572,3270.00
1830.423,3228.00
1831.273,3041.00
1832.122,3246.00
1832.972,3184.00
1833.822,2888.00
1834.672,3349.00
1835.522,3399.00
1836.370,2981.00
1837.220,3380.00
1838.070,2780.00
1838.919,2547.00
1839.769,3002.00
1840.616,3478.00
1841.466,3392.00
1842.315,2949.00
1843.164,3838.00
1844.013,2985.00
1844.860,2884.00
1845.709,2972.00
1846.558,3487.00
1847.407,2913.00
1848.254,3331.00
1849.102,3221.00
1849.951,2972.00
1850.799,2638.00
1851.648,3058.00
1852.494,3254.00
1853.342,3295.00
1854.190,3557.00
1855.038,3601.00
1855.884,3213.00
1856.732,4081.00
1857.580,3647.00
1858.428,3062.00
1859.273,2902.00
1860.121,2995.00
1860.968,4083.00
1861.816,3591.00
1862.661,3576.00
1863.508,3837.00
1864.355,3418.00
1865.202,3522.00
1866.047,3302.00
1866.894,3593.00
1867.741,3778.00
1868.586,3340.00
1869.432,3313.00
1870.279,3164.00
1871.125,3063.00
1871.970,3872.00
1872.816,3325.00
1873.662,2718.00
1874.506,3376.00
1875.352,3575.00
1876.198,3704.00
1877.044,3790.00
1877.888,3161.00
1878.734,3236.00
1879.579,3019.00
1880.423,2916.00
1881.268,3084.00
1882.113,3447.00
1882.959,3172.00
1883.802,3007.00
1884.647,3557.00
1885.492,3289.00
1886.335,3178.00
1887.180,3076.00
1888.025,3255.00
1888.867,3039.00
1889.712,3395.00
1890.556,3009.00
1891.399,3488.00
1892.243,3587.00
1893.087,3086.00
1893.930,3350.00
1894.774,3346.00
1895.618,3593.00
1896.460,2858.00
1897.304,3165.00
1898.147,3080.00
1898.989,2912.00
1899.833,3434.00
1900.676,3056.00
1901.518,3491.00
1902.361,3545.00
1903.202,3116.00
1904.046,3024.00
1904.889,3177.00
1905.730,3114.00
1906.573,2894.00
1907.415,3280.00
1908.256,3629.00
1909.099,3350.00
1909.941,3388.00
1910.782,3409.00
1911.624,3044.00
1912.465,3383.00
1913.307,3269.00
1914.149,2973.00
1914.989,3526.00
1915.831,3184.00
1916.671,3703.00
1917.513,3151.00
1918.355,3322.00
1919.195,3512.00
1920.036,3320.00
1920.876,3207.00
1921.717,3403.00
1922.558,3268.00
1923.398,3253.00
1924.239,3252.00
1925.078,3575.00
1925.919,2915.00
1926.760,3393.00
1927.599,3094.00
1928.440,3440.00
1929.279,3295.00
1930.119,3719.00
1930.958,3131.00
1931.798,3257.00
1932.638,3128.00
1933.477,3255.00
1934.317,3023.00
1935.155,3062.00
1935.995,3334.00
1936.833,2992.00
1937.673,3042.00
1938.512,3702.00
1939.350,2889.00
1940.190,3169.00
1941.027,3117.00
1941.867,3101.00
1942.704,3201.00
1943.543,3210.00
1944.381,3391.00
1945.220,3606.00
1946.057,3326.00
1946.896,3563.00
1947.733,3260.00
1948.572,3035.00
1949.408,3636.00
1950.247,3320.00
1951.085,3407.00
1951.922,3556.00
1952.760,3018.00
1953.597,3624.00
1954.435,2600.00
1955.271,3458.00
1956.109,3141.00
1956.945,2845.00
1957.783,3389.00
1958.619,3080.00
1959.456,3216.00
1960.292,3295.00
1961.129,3586.00
1961.965,3762.00
1962.802,3021.00
1963.638,2972.00
1964.475,3307.00
1965.310,3289.00
1966.145,3281.00
1966.982,3054.00
1967.817,2965.00
1968.654,3234.00
1969.489,3026.00
1970.325,3290.00
1971.160,2969.00
1971.996,3430.00
1972.831,3533.00
1973.667,3128.00
1974.501,3669.00
1975.337,3518.00
1976.171,3113.00
1977.006,3523.00
1977.841,3172.00
1978.675,3503.00
1979.511,3888.00
1980.345,2991.00
1981.180,3447.00
1982.014,3273.00
1982.849,2974.00
1983.682,3109.00
1984.516,3090.00
1985.351,2834.00
1986.184,2727.00
1987.019,2720.00
1987.852,2559.00
1988.687,2757.00
1989.519,3013.00
1990.352,3250.00
1991.187,2732.00
1992.019,3027.00
1992.854,3391.00
1993.686,2938.00
1994.518,3068.00
1995.352,2593.00
1996.185,2327.00
1997.019,2946.00
1997.851,2717.00
1998.682,2768.00
1999.516,2766.00
2000.348,2522.00
