RamanScope Measure Spectrum Data V3.72

<< MEASURE CONDITION >>
Exposure Type,Aver
Exposure Time [sec],20
Exposure Count,2
Measure Time,2024/02/15 20:53:33
Data Name,""
Data Comment,""
Rayleigh Wave[nm],532.0

<< SAMPLE SPECTRUM >>
Wave[dcm-1],No28
96.716,-1.50
97.759,-34.50
98.802,24.50
99.846,48.00
100.886,14.00
101.929,-25.50
102.972,-0.50
104.015,15.50
105.057,9.00
106.100,22.50
107.142,-2.50
108.184,-21.00
109.226,39.00
110.268,31.00
111.310,18.00
112.352,7.00
113.393,25.00
114.435,8.00
115.476,30.50
116.517,-9.50
117.558,24.00
118.599,34.50
119.640,23.00
120.681,36.50
121.722,16.50
122.762,29.50
123.803,57.00
124.843,65.00
125.883,40.50
126.923,-1.00
127.963,22.50
129.001,48.00
130.041,7.50
131.080,50.50
132.120,21.50
133.159,46.00
134.199,-3.50
135.238,22.50
136.277,53.00
137.316,19.50
138.355,-4.50
139.393,-16.00
140.432,63.50
141.470,42.00
142.509,6.50
143.547,25.50
144.585,25.50
145.623,87.50
146.661,156.00
147.699,146.00
148.736,213.00
149.774,277.00
150.811,299.00
151.849,396.50
152.886,502.00
153.923,701.50
154.960,815.50
155.997,1001.50
157.034,1194.00
158.072,1297.00
159.109,1569.50
160.145,1757.50
161.182,2000.50
162.218,2133.50
163.254,2344.00
164.290,2522.00
165.326,2647.50
166.361,2751.50
167.397,2868.00
168.432,2943.00
169.468,3052.00
170.503,3157.50
171.538,3202.50
172.573,3226.00
173.608,3232.50
174.643,3354.50
175.677,3439.00
176.712,3413.50
177.746,3448.00
178.781,3549.00
179.815,3655.00
180.849,3685.50
181.883,3718.50
182.917,3761.00
183.951,3921.50
184.984,3863.00
186.020,3888.50
187.053,3970.00
188.087,4014.50
189.120,4024.50
190.153,4040.00
191.186,3931.00
192.219,3941.00
193.251,3882.00
194.284,3870.00
195.317,3947.00
196.349,3903.50
197.381,3930.50
198.413,3965.00
199.445,3972.00
200.477,3957.00
201.509,4056.00
202.543,4082.50
203.575,4059.00
204.606,4103.00
205.637,4152.50
206.669,4201.50
207.700,4254.50
208.731,4265.50
209.762,4380.00
210.792,4447.50
211.823,4477.00
212.854,4504.00
213.884,4539.00
214.914,4607.50
215.947,4678.00
216.977,4700.00
218.007,4756.50
219.037,4796.00
220.066,4900.00
221.096,4957.50
222.126,4954.50
223.155,4990.50
224.184,5005.50
225.214,5111.50
226.245,4918.50
227.274,5092.50
228.302,5011.00
229.331,4950.50
230.360,4996.50
231.388,4963.50
232.417,4910.00
233.445,4943.00
234.473,4866.00
235.501,4776.00
236.531,4763.50
237.559,4741.00
238.587,4642.00
239.614,4624.50
240.642,4622.50
241.669,4634.00
242.696,4650.50
243.724,4576.00
244.753,4502.00
245.780,4598.50
246.806,4591.50
247.833,4610.50
248.860,4573.00
249.886,4539.00
250.913,4570.00
251.939,4612.50
252.967,4600.50
253.993,4561.00
255.019,4568.00
256.045,4696.00
257.070,4715.50
258.096,4684.00
259.121,4649.00
260.147,4665.50
261.174,4686.00
262.199,4729.50
263.224,4738.50
264.249,4768.00
265.274,4710.00
266.298,4759.00
267.323,4876.00
268.349,4847.50
269.374,4817.00
270.398,4850.00
271.422,4886.00
272.446,4931.50
273.470,4915.50
274.496,4869.00
275.519,5003.50
276.543,4924.50
277.566,5037.50
278.589,5020.00
279.613,4992.50
280.636,5149.50
281.661,5090.00
282.684,5135.00
283.706,4996.50
284.729,5089.00
285.751,5018.50
286.774,4912.50
287.798,5000.50
288.820,4938.00
289.842,4936.50
290.864,4899.50
291.886,4815.00
292.910,4799.50
293.932,4803.00
294.953,4680.00
295.974,4646.50
296.996,4751.00
298.017,4689.50
299.040,4595.00
300.061,4464.00
301.082,4563.00
302.102,4477.50
303.123,4445.50
304.143,4397.00
305.166,4460.00
306.186,4396.00
307.206,4425.00
308.226,4335.00
309.246,4294.50
310.268,4280.00
311.288,4220.50
312.307,4206.00
313.327,4225.50
314.346,4206.50
315.368,4196.50
316.387,4184.00
317.406,4152.50
318.425,4106.00
319.443,4097.00
320.464,4096.50
321.483,4093.50
322.501,4122.00
323.520,4101.00
324.538,4098.50
325.558,4086.00
326.576,4094.00
327.594,4147.00
328.612,4122.50
329.629,4085.00
330.649,4053.00
331.666,4046.50
332.684,4042.00
333.701,4060.00
334.718,4046.00
335.737,3982.00
336.754,4028.50
337.771,3962.00
338.787,4086.50
339.806,4030.00
340.823,4050.50
341.839,4066.50
342.855,4000.50
343.871,4013.50
344.889,4054.50
345.905,4002.00
346.921,4042.00
347.937,3963.50
348.954,3905.00
349.970,3990.50
350.985,4022.50
352.000,3991.00
353.017,3905.50
354.032,4010.00
355.047,4026.00
356.062,3945.50
357.077,4010.50
358.093,3920.00
359.108,3977.50
360.122,3992.50
361.136,3962.00
362.152,3934.00
363.166,3984.50
364.180,3967.50
365.194,3940.00
366.210,3904.00
367.223,4034.00
368.237,3963.50
369.250,3943.50
370.265,3971.50
371.278,3957.50
372.291,3957.50
373.304,3932.00
374.319,3930.50
375.332,3979.00
376.344,4012.50
377.357,4008.50
378.371,3916.50
379.383,4020.50
380.395,4026.50
381.407,3964.00
382.421,3948.00
383.433,3972.50
384.445,4018.50
385.456,4004.50
386.470,3947.50
387.481,4009.50
388.492,3986.00
389.505,3945.00
390.516,4026.50
391.527,3974.00
392.538,3951.00
393.551,3931.00
394.561,3943.50
395.572,3972.50
396.582,3922.50
397.594,3920.00
398.604,3896.50
399.614,3900.00
400.624,3901.00
401.636,3783.00
402.646,3884.50
403.655,3835.50
404.667,3864.50
405.676,3852.00
406.685,3922.50
407.694,3800.50
408.705,3828.50
409.714,3767.00
410.723,3817.00
411.734,3768.00
412.742,3775.50
413.751,3713.00
414.759,3785.00
415.769,3773.00
416.777,3675.00
417.785,3678.00
418.795,3692.00
419.803,3605.50
420.811,3666.50
421.818,3676.50
422.828,3725.50
423.835,3642.00
424.842,3596.50
425.852,3632.50
426.859,3661.00
427.866,3597.00
428.874,3604.00
429.881,3620.50
430.888,3573.00
431.894,3483.50
432.902,3521.00
433.909,3556.50
434.915,3543.50
435.923,3542.00
436.929,3575.50
437.935,3493.00
438.942,3517.00
439.948,3542.50
440.953,3554.00
441.959,3458.00
442.966,3466.50
443.971,3516.00
444.976,3537.50
445.983,3445.00
446.988,3501.50
447.993,3472.00
448.999,3413.00
450.004,3472.00
451.008,3444.50
452.014,3420.00
453.019,3459.00
454.023,3495.50
455.029,3390.50
456.032,3438.00
457.036,3388.00
458.042,3464.50
459.045,3429.50
460.049,3427.50
461.052,3448.50
462.057,3444.00
463.060,3389.50
464.063,3388.50
465.068,3450.50
466.071,3468.50
467.073,3412.50
468.078,3422.00
469.080,3399.50
470.082,3439.00
471.087,3367.00
472.089,3425.00
473.091,3411.00
474.095,3426.00
475.096,3381.00
476.098,3393.50
477.101,3426.00
478.103,3494.00
479.104,3413.00
480.107,3454.50
481.108,3420.00
482.109,3389.00
483.112,3377.00
484.113,3458.50
485.114,3319.50
486.116,3358.50
487.117,3346.50
488.117,3336.00
489.119,3358.00
490.119,3371.00
491.121,3340.50
492.121,3336.50
493.121,3355.00
494.123,3314.00
495.122,3311.50
496.122,3356.00
497.123,3383.00
498.122,3364.50
499.121,3354.00
500.122,3264.00
501.121,3353.00
502.120,3354.00
503.121,3312.00
504.119,3332.00
505.118,3330.50
506.118,3326.00
507.117,3233.00
508.115,3332.50
509.115,3213.50
510.113,3284.50
511.112,3295.00
512.110,3212.00
513.108,3220.50
514.107,3259.00
515.105,3277.00
516.102,3179.00
517.101,3236.50
518.098,3216.00
519.095,3235.00
520.094,3174.00
521.091,3228.00
522.089,3226.00
523.086,3221.50
524.082,3218.00
525.081,3208.00
526.077,3158.50
527.073,3240.00
528.071,3160.00
529.067,3209.50
530.064,3193.50
531.060,3204.00
532.056,3136.50
533.053,3197.00
534.048,3196.50
535.044,3229.00
536.041,3156.00
537.036,3145.50
538.030,3228.50
539.027,3221.00
540.022,3196.50
541.019,3194.50
542.013,3185.50
543.007,3189.50
544.004,3161.50
544.998,3132.50
545.994,3208.50
546.988,3147.50
547.981,3170.00
548.977,3113.50
549.971,3139.50
550.964,3135.50
551.960,3124.50
552.953,3171.50
553.948,3210.00
554.941,3124.00
555.934,3124.50
556.929,3074.50
557.922,3135.00
558.916,3183.00
559.909,3152.50
560.901,3107.00
561.895,3081.50
562.888,3161.00
563.880,3066.00
564.874,3086.00
565.865,3090.50
566.859,3043.50
567.851,3156.50
568.842,3064.00
569.836,3126.00
570.827,3128.00
571.820,3094.50
572.811,3098.00
573.802,2991.50
574.795,2986.00
575.786,3043.50
576.779,2982.00
577.769,3016.50
578.760,3049.50
579.752,3090.00
580.742,3116.00
581.735,3005.00
582.725,2991.00
583.714,3021.00
584.706,3031.50
585.696,3056.00
586.688,3075.50
587.677,3019.50
588.667,3012.00
589.658,3032.50
590.647,3053.00
591.638,3030.50
592.627,2973.00
593.616,2967.00
594.607,2949.50
595.595,3037.00
596.586,2974.50
597.574,2971.50
598.562,2963.50
599.553,2921.50
600.541,2939.00
601.531,2974.50
602.519,2995.00
603.508,2923.50
604.496,3004.50
605.484,2959.00
606.473,2926.50
607.460,2922.50
608.450,2918.00
609.437,2911.00
610.424,2957.50
611.413,2910.50
612.400,2924.50
613.388,2922.50
614.375,2880.00
615.361,2971.50
616.350,2910.00
617.336,2903.00
618.324,2869.50
619.310,2859.50
620.298,2866.00
621.284,2853.00
622.270,2906.00
623.257,2821.50
624.243,2784.50
625.230,2767.00
626.216,2804.00
627.203,2815.50
628.188,2825.50
629.173,2761.50
630.160,2728.50
631.145,2786.00
632.131,2703.00
633.116,2719.50
634.102,2651.00
635.087,2738.50
636.071,2673.00
637.057,2682.50
638.041,2647.00
639.027,2685.00
640.011,2616.00
640.995,2661.00
641.980,2584.00
642.964,2620.50
643.949,2623.50
644.932,2630.00
645.918,2587.50
646.901,2539.50
647.886,2574.50
648.868,2567.00
649.851,2525.50
650.836,2561.50
651.818,2608.50
652.803,2533.00
653.785,2554.00
654.769,2526.00
655.751,2539.00
656.733,2539.00
657.717,2511.50
658.699,2548.00
659.683,2463.50
660.664,2488.50
661.648,2431.50
662.629,2395.50
663.611,2459.50
664.594,2480.50
665.575,2431.50
666.558,2454.50
667.539,2469.00
668.521,2495.00
669.502,2433.50
670.484,2389.50
671.465,2401.50
672.445,2419.00
673.427,2386.50
674.407,2412.00
675.390,2346.50
676.369,2363.00
677.351,2361.00
678.331,2350.50
679.312,2347.00
680.292,2392.00
681.271,2365.50
682.253,2393.50
683.232,2390.00
684.213,2327.00
685.192,2272.00
686.172,2309.50
687.151,2303.50
688.132,2350.50
689.110,2240.00
690.089,2266.00
691.069,2212.00
692.047,2265.00
693.027,2299.00
694.005,2219.50
694.985,2262.50
695.963,2227.50
696.943,2222.50
697.920,2208.00
698.898,2247.50
699.877,2199.00
700.854,2179.00
701.833,2205.50
702.810,2164.50
703.789,2146.00
704.766,2118.50
705.745,2182.00
706.721,2129.50
707.698,2146.50
708.676,2191.00
709.653,2138.50
710.631,2119.00
711.607,2124.50
712.585,2185.00
713.561,2157.00
714.539,2098.50
715.514,2107.00
716.492,2106.00
717.467,2096.50
718.443,2065.50
719.420,2115.50
720.395,2123.00
721.372,2092.00
722.347,2037.50
723.324,2000.50
724.298,2061.00
725.275,2137.50
726.250,2044.00
727.226,2043.50
728.200,2053.50
729.176,2047.50
730.151,2048.50
731.125,2017.00
732.100,2000.00
733.074,2021.50
734.050,2046.50
735.023,2011.00
735.999,2020.00
736.972,2066.50
737.947,2074.00
738.921,2021.50
739.896,2006.50
740.869,2028.00
741.841,2041.00
742.816,1979.00
743.789,1960.50
744.763,1980.00
745.736,2013.00
746.710,1994.00
747.682,1988.50
748.656,1962.00
749.628,1946.50
750.602,2003.50
751.574,1974.50
752.548,1952.00
753.519,1966.00
754.491,1916.00
755.464,1917.00
756.435,1960.00
757.408,1925.50
758.379,1919.50
759.352,1873.00
760.323,1884.50
761.296,1888.00
762.267,1901.00
763.239,1924.00
764.209,1885.50
765.182,1871.00
766.152,1931.00
767.124,1928.50
768.094,1876.50
769.064,1867.00
770.036,1856.50
771.005,1901.50
771.977,1846.50
772.947,1827.50
773.918,1854.00
774.887,1841.00
775.858,1860.00
776.827,1814.00
777.798,1827.00
778.767,1830.00
779.738,1801.00
780.707,1847.00
781.677,1824.50
782.646,1814.50
783.614,1780.00
784.584,1772.00
785.552,1795.50
786.522,1827.00
787.490,1730.00
788.460,1770.00
789.428,1768.00
790.397,1781.00
791.365,1716.50
792.334,1778.50
793.302,1736.00
794.271,1715.00
795.238,1768.00
796.207,1769.50
797.174,1683.50
798.143,1794.00
799.109,1742.50
800.076,1790.50
801.044,1756.00
802.011,1717.50
802.979,1715.50
803.945,1703.00
804.913,1703.50
805.879,1660.00
806.847,1695.50
807.813,1696.50
808.780,1726.00
809.746,1687.00
810.713,1642.50
811.678,1658.00
812.646,1695.00
813.611,1694.50
814.578,1737.00
815.543,1632.50
816.510,1653.00
817.474,1651.00
818.439,1682.50
819.405,1655.00
820.370,1583.50
821.336,1634.00
822.300,1585.00
823.266,1674.00
824.230,1693.50
825.196,1663.00
826.160,1654.50
827.126,1640.00
828.089,1626.00
829.055,1621.00
830.018,1646.00
830.983,1625.50
831.946,1661.50
832.911,1642.00
833.874,1643.50
834.837,1636.00
835.802,1650.00
836.765,1655.50
837.729,1579.50
838.691,1651.00
839.656,1671.00
840.618,1645.50
841.582,1580.00
842.544,1589.50
843.508,1592.50
844.470,1664.50
845.434,1600.50
846.395,1615.50
847.359,1589.50
848.320,1567.00
849.283,1594.50
850.245,1643.00
851.208,1641.00
852.169,1632.50
853.130,1592.00
854.092,1595.00
855.053,1576.00
856.016,1667.50
856.976,1601.00
857.938,1614.50
858.899,1638.50
859.861,1607.00
860.821,1635.00
861.783,1624.00
862.743,1600.00
863.704,1584.00
864.664,1636.50
865.626,1706.00
866.585,1675.50
867.546,1625.00
868.506,1578.50
869.467,1646.00
870.426,1641.50
871.387,1696.00
872.346,1627.00
873.304,1638.00
874.265,1567.00
875.223,1582.00
876.184,1601.50
877.142,1669.00
878.102,1635.00
879.060,1630.50
880.021,1635.50
880.978,1620.00
881.938,1643.00
882.896,1615.00
883.856,1597.00
884.813,1652.00
885.772,1645.00
886.730,1609.00
887.689,1660.00
888.646,1672.50
889.603,1685.00
890.562,1634.50
891.519,1682.50
892.477,1674.50
893.434,1629.50
894.392,1633.00
895.349,1663.50
896.307,1661.50
897.263,1655.00
898.221,1645.50
899.177,1702.50
900.135,1703.50
901.091,1671.50
902.048,1621.50
903.004,1675.00
903.961,1709.00
904.917,1682.50
905.874,1622.00
906.829,1682.00
907.784,1721.50
908.741,1712.00
909.696,1715.00
910.653,1729.50
911.607,1662.00
912.564,1723.50
913.518,1701.50
914.475,1735.50
915.429,1658.00
916.385,1646.00
917.339,1692.00
918.295,1693.00
919.249,1756.50
920.205,1743.50
921.158,1746.00
922.114,1721.00
923.067,1770.00
924.020,1753.50
924.976,1684.50
925.929,1746.50
926.884,1756.50
927.837,1774.50
928.791,1740.00
929.744,1773.50
930.699,1759.50
931.651,1751.50
932.606,1737.50
933.558,1756.50
934.512,1763.00
935.464,1758.50
936.418,1698.00
937.370,1753.50
938.322,1725.00
939.276,1732.00
940.227,1772.50
941.181,1755.00
942.132,1777.00
943.085,1751.00
944.036,1772.50
944.990,1747.00
945.941,1752.00
946.893,1771.50
947.844,1753.50
948.797,1739.50
949.747,1848.00
950.700,1772.00
951.650,1765.00
952.601,1758.00
953.553,1766.50
954.503,1756.50
955.455,1740.50
956.405,1686.00
957.356,1782.00
958.306,1778.50
959.258,1723.50
960.207,1724.00
961.158,1714.00
962.108,1766.50
963.059,1694.00
964.008,1725.50
964.959,1691.50
965.908,1735.00
966.856,1753.50
967.807,1739.00
968.756,1700.00
969.706,1730.50
970.654,1716.50
971.605,1748.50
972.553,1735.00
973.503,1715.50
974.451,1701.50
975.401,1696.00
976.348,1740.50
977.296,1710.00
978.246,1720.50
979.193,1650.00
980.142,1634.00
981.090,1682.50
982.039,1604.50
982.986,1655.50
983.935,1621.50
984.882,1701.50
985.830,1669.00
986.777,1630.50
987.725,1648.00
988.672,1648.50
989.618,1641.50
990.567,1631.50
991.513,1639.50
992.461,1666.50
993.407,1698.00
994.354,1606.00
995.300,1660.00
996.248,1641.00
997.193,1602.50
998.141,1611.50
999.086,1621.00
1000.031,1650.00
1000.978,1578.50
1001.924,1626.50
1002.870,1664.00
1003.815,1642.50
1004.762,1633.00
1005.707,1538.50
1006.653,1556.00
1007.598,1569.50
1008.542,1520.00
1009.488,1597.00
1010.432,1643.00
1011.378,1568.00
1012.322,1540.50
1013.268,1566.50
1014.212,1562.50
1015.157,1526.00
1016.101,1547.00
1017.046,1549.50
1017.990,1520.00
1018.933,1539.00
1019.878,1551.50
1020.821,1564.50
1021.766,1559.50
1022.709,1569.50
1023.654,1566.50
1024.596,1547.00
1025.541,1516.00
1026.483,1496.50
1027.425,1555.50
1028.370,1477.00
1029.312,1555.00
1030.256,1554.50
1031.198,1548.50
1032.141,1473.00
1033.083,1522.50
1034.027,1521.50
1034.968,1521.00
1035.910,1470.00
1036.853,1509.00
1037.794,1562.50
1038.738,1550.00
1039.679,1496.00
1040.621,1519.00
1041.562,1538.00
1042.503,1499.00
1043.446,1538.50
1044.386,1521.50
1045.329,1558.50
1046.269,1510.00
1047.211,1496.00
1048.151,1483.50
1049.093,1482.00
1050.033,1497.50
1050.973,1452.00
1051.915,1497.00
1052.854,1493.50
1053.796,1446.50
1054.735,1467.50
1055.677,1504.50
1056.616,1467.00
1057.555,1488.00
1058.496,1484.50
1059.435,1495.00
1060.376,1493.00
1061.315,1482.00
1062.255,1507.00
1063.194,1495.00
1064.132,1467.00
1065.073,1485.00
1066.011,1416.00
1066.951,1409.50
1067.889,1463.50
1068.829,1509.50
1069.767,1468.50
1070.705,1464.50
1071.644,1519.00
1072.582,1472.50
1073.521,1481.00
1074.459,1471.00
1075.398,1489.50
1076.335,1464.50
1077.272,1480.50
1078.211,1516.00
1079.148,1408.00
1080.087,1450.50
1081.023,1446.00
1081.962,1474.50
1082.898,1486.50
1083.835,1483.00
1084.773,1508.50
1085.709,1467.50
1086.647,1442.00
1087.583,1453.50
1088.519,1477.50
1089.457,1480.00
1090.392,1489.00
1091.330,1483.00
1092.266,1513.50
1093.203,1424.50
1094.138,1442.50
1095.073,1455.50
1096.010,1473.00
1096.945,1475.50
1097.882,1469.50
1098.817,1443.50
1099.752,1591.00
1100.688,1494.00
1101.623,1481.50
1102.559,1509.00
1103.493,1407.50
1104.430,1459.50
1105.364,1465.50
1106.298,1473.00
1107.234,1504.50
1108.167,1441.00
1109.094,1424.50
1110.019,1443.50
1110.945,1424.50
1111.869,1434.00
1112.795,1435.50
1113.720,1432.50
1114.646,1423.00
1115.571,1464.00
1116.495,1384.00
1117.420,1459.50
1118.345,1395.50
1119.270,1427.00
1120.195,1400.00
1121.118,1421.00
1122.042,1429.50
1122.967,1339.00
1123.891,1399.00
1124.816,1401.00
1125.738,1334.00
1126.663,1342.50
1127.587,1395.50
1128.511,1391.50
1129.435,1395.50
1130.357,1414.00
1131.280,1350.50
1132.204,1365.00
1133.128,1416.50
1134.051,1372.00
1134.972,1381.00
1135.896,1372.00
1136.819,1378.50
1137.742,1358.00
1138.665,1402.00
1139.586,1370.50
1140.509,1344.50
1141.431,1338.50
1142.354,1306.50
1143.276,1344.50
1144.197,1340.50
1145.119,1347.00
1146.041,1395.50
1146.964,1375.50
1147.885,1288.00
1148.806,1307.50
1149.727,1339.00
1150.649,1378.50
1151.571,1364.00
1152.492,1334.50
1153.412,1323.50
1154.333,1336.50
1155.254,1337.50
1156.175,1336.00
1157.095,1336.50
1158.016,1323.50
1158.936,1292.00
1159.857,1279.00
1160.778,1320.50
1161.697,1330.00
1162.617,1318.50
1163.537,1319.00
1164.458,1275.50
1165.376,1298.00
1166.296,1344.50
1167.216,1271.00
1168.136,1281.00
1169.056,1322.00
1169.974,1306.50
1170.893,1273.00
1171.813,1292.50
1172.732,1287.50
1173.650,1296.50
1174.569,1296.50
1175.488,1273.00
1176.407,1355.00
1177.326,1277.00
1178.243,1256.50
1179.161,1291.00
1180.080,1308.50
1180.999,1304.00
1181.915,1347.00
1182.834,1320.50
1183.752,1263.50
1184.670,1251.00
1185.586,1296.00
1186.504,1237.50
1187.422,1286.50
1188.340,1270.00
1189.258,1295.00
1190.173,1281.50
1191.091,1217.00
1192.008,1263.00
1192.926,1281.00
1193.841,1306.00
1194.758,1320.50
1195.675,1256.50
1196.592,1221.50
1197.507,1297.00
1198.424,1315.50
1199.340,1198.50
1200.257,1244.00
1201.172,1267.00
1202.088,1258.50
1203.004,1260.50
1203.920,1297.00
1204.835,1246.50
1205.750,1319.00
1206.666,1261.50
1207.582,1271.50
1208.496,1275.00
1209.412,1320.00
1210.327,1323.00
1211.243,1279.00
1212.156,1279.00
1213.071,1280.50
1213.986,1224.00
1214.901,1240.00
1215.814,1229.50
1216.729,1218.00
1217.644,1263.50
1218.559,1271.00
1219.471,1255.50
1220.386,1289.50
1221.300,1280.50
1222.213,1269.00
1223.127,1273.50
1224.041,1227.50
1224.955,1311.50
1225.867,1254.00
1226.781,1219.50
1227.694,1302.00
1228.608,1263.00
1229.520,1257.00
1230.433,1226.50
1231.346,1280.00
1232.260,1221.00
1233.171,1255.50
1234.084,1287.00
1234.997,1352.00
1235.908,1300.00
1236.821,1243.00
1237.733,1236.00
1238.646,1224.50
1239.556,1277.00
1240.469,1239.50
1241.381,1307.50
1242.293,1241.50
1243.203,1245.00
1244.115,1304.00
1245.027,1280.50
1245.937,1285.50
1246.849,1244.50
1247.761,1253.00
1248.672,1260.50
1249.582,1263.00
1250.493,1291.00
1251.404,1271.50
1252.313,1258.00
1253.225,1210.50
1254.135,1238.50
1255.046,1289.00
1255.955,1320.00
1256.866,1283.50
1257.777,1249.00
1258.685,1258.00
1259.596,1283.50
1260.506,1233.00
1261.416,1244.50
1262.324,1263.50
1263.234,1241.50
1264.144,1261.00
1265.052,1251.00
1265.962,1325.50
1266.872,1227.00
1267.779,1268.50
1268.689,1254.00
1269.598,1240.50
1270.507,1255.50
1271.415,1282.50
1272.324,1287.50
1273.233,1291.50
1274.140,1209.00
1275.048,1234.50
1275.957,1252.00
1276.864,1239.50
1277.772,1251.50
1278.681,1218.00
1279.587,1220.00
1280.496,1263.50
1281.404,1250.00
1282.312,1311.50
1283.218,1251.50
1284.126,1280.50
1285.033,1289.00
1285.939,1238.00
1286.847,1285.50
1287.754,1248.00
1288.660,1287.50
1289.567,1257.50
1290.474,1268.50
1291.380,1289.50
1292.286,1273.00
1293.193,1241.00
1294.098,1278.00
1295.005,1276.50
1295.912,1240.50
1296.816,1249.00
1297.723,1207.00
1298.629,1301.50
1299.534,1257.50
1300.440,1237.50
1301.346,1181.50
1302.250,1217.50
1303.156,1262.00
1304.062,1273.50
1304.966,1274.00
1305.871,1225.50
1306.777,1250.00
1307.680,1243.00
1308.586,1237.50
1309.491,1238.50
1310.394,1227.00
1311.299,1211.00
1312.204,1227.00
1313.107,1202.50
1314.012,1183.50
1314.917,1236.00
1315.819,1175.50
1316.724,1200.50
1317.628,1238.50
1318.531,1221.00
1319.435,1196.50
1320.339,1196.50
1321.241,1208.50
1322.145,1221.00
1323.049,1242.00
1323.951,1199.00
1324.854,1186.50
1325.756,1168.00
1326.659,1210.50
1327.563,1178.50
1328.464,1214.50
1329.367,1221.50
1330.271,1210.50
1331.172,1148.00
1332.074,1214.00
1332.977,1194.50
1333.878,1245.00
1334.781,1207.00
1335.683,1168.00
1336.584,1178.50
1337.486,1221.00
1338.387,1117.50
1339.289,1155.00
1340.191,1234.50
1341.091,1162.50
1341.993,1208.50
1342.895,1164.00
1343.794,1217.00
1344.696,1161.50
1345.596,1206.00
1346.497,1174.00
1347.398,1156.00
1348.298,1164.00
1349.199,1097.50
1350.100,1137.50
1350.999,1166.50
1351.900,1110.00
1352.799,1149.00
1353.699,1179.50
1354.600,1128.00
1355.499,1119.50
1356.399,1110.50
1357.297,1155.00
1358.198,1103.50
1359.098,1162.00
1359.996,1116.00
1360.896,1104.00
1361.796,1119.00
1362.694,1113.50
1363.593,1142.50
1364.491,1124.50
1365.391,1077.50
1366.290,1142.50
1367.187,1122.00
1368.086,1076.50
1368.984,1169.50
1369.883,1132.00
1370.782,1146.50
1371.679,1116.00
1372.577,1069.50
1373.474,1093.00
1374.373,1120.00
1375.269,1132.50
1376.168,1125.50
1377.066,1144.00
1377.962,1070.00
1378.860,1112.00
1379.756,1113.00
1380.654,1150.50
1381.552,1130.00
1382.448,1051.00
1383.346,1066.50
1384.241,1123.00
1385.139,1114.50
1386.036,1095.00
1386.931,1103.50
1387.829,1063.00
1388.724,1070.50
1389.621,1102.50
1390.516,1065.50
1391.413,1085.00
1392.309,1042.50
1393.204,1079.00
1394.101,1103.00
1394.995,1115.00
1395.891,1074.00
1396.786,1113.00
1397.682,1061.50
1398.578,1042.50
1399.472,1063.00
1400.368,1060.50
1401.262,1059.50
1402.158,1102.00
1403.051,1053.00
1403.947,1056.50
1404.840,1119.00
1405.736,1124.50
1406.631,1047.50
1407.524,1087.50
1408.419,1092.50
1409.312,1084.00
1410.207,1102.50
1411.100,1099.00
1411.995,1066.50
1412.888,1038.00
1413.782,1110.00
1414.675,1072.00
1415.569,1079.00
1416.463,1053.00
1417.355,1069.00
1418.249,1027.00
1419.141,1102.00
1420.035,1078.50
1420.927,1079.50
1421.821,1071.00
1422.713,1093.00
1423.606,1081.00
1424.498,1005.00
1425.391,1044.00
1426.282,1052.50
1427.175,1004.00
1428.068,1066.50
1428.960,1010.00
1429.852,1085.50
1430.743,969.00
1431.636,1012.00
1432.527,1061.00
1433.419,994.00
1434.310,1069.50
1435.202,1029.00
1436.092,1044.00
1436.984,1013.50
1437.875,1004.00
1438.767,1073.00
1439.657,1002.50
1440.548,1023.00
1441.438,1065.00
1442.330,1039.00
1443.219,1032.50
1444.111,1034.00
1445.000,1106.00
1445.891,1072.50
1446.781,1055.00
1447.672,1028.00
1448.561,1034.00
1449.452,1055.00
1450.340,982.50
1451.231,1068.00
1452.120,1015.50
1453.010,1024.50
1453.899,1038.00
1454.789,1022.50
1455.677,1044.50
1456.568,1063.50
1457.456,1000.50
1458.346,983.50
1459.234,1006.00
1460.123,978.50
1461.011,1024.50
1461.901,1034.50
1462.788,991.50
1463.678,1022.50
1464.565,1008.50
1465.454,1000.00
1466.342,1033.50
1467.231,1024.50
1468.118,975.50
1469.006,951.50
1469.893,1028.50
1470.782,1029.50
1471.669,1025.50
1472.557,959.00
1473.444,944.50
1474.330,976.00
1475.218,1058.50
1476.105,1014.50
1476.993,1014.50
1477.879,989.00
1478.767,1008.00
1479.652,1021.00
1480.540,1027.50
1481.426,1062.00
1482.313,994.50
1483.199,1016.00
1484.086,1053.50
1484.972,992.00
1485.857,1049.50
1486.744,987.00
1487.629,1002.00
1488.516,1022.00
1489.401,983.50
1490.287,1015.50
1491.172,987.50
1492.058,991.00
1492.943,1038.00
1493.828,1047.00
1494.714,1076.00
1495.598,1030.50
1496.484,1019.00
1497.368,965.50
1498.254,982.00
1499.138,930.50
1500.022,1001.50
1500.907,946.00
1501.791,942.50
1502.676,977.00
1503.560,1022.00
1504.445,984.00
1505.328,1045.00
1506.211,971.50
1507.096,1014.00
1507.979,958.50
1508.864,970.50
1509.747,984.00
1510.631,990.50
1511.514,985.00
1512.397,990.50
1513.281,984.00
1514.163,960.00
1515.047,956.50
1515.930,951.00
1516.812,976.00
1517.696,906.00
1518.578,928.00
1519.461,952.50
1520.343,950.00
1521.225,1031.50
1522.108,951.00
1522.990,952.00
1523.873,967.00
1524.754,982.00
1525.635,1004.00
1526.518,989.00
1527.399,939.00
1528.282,978.50
1529.163,975.00
1530.044,988.50
1530.926,977.00
1531.807,965.00
1532.689,923.00
1533.569,976.00
1534.450,971.50
1535.332,957.00
1536.212,936.00
1537.092,965.00
1537.974,954.00
1538.854,1022.00
1539.735,971.00
1540.615,954.00
1541.495,902.50
1542.376,937.00
1543.255,964.50
1544.135,957.50
1545.016,889.00
1545.895,931.50
1546.774,946.50
1547.655,979.00
1548.534,922.50
1549.414,890.50
1550.293,967.50
1551.172,952.50
1552.052,957.00
1552.930,973.50
1553.809,991.50
1554.689,944.00
1555.567,918.50
1556.445,983.00
1557.325,973.00
1558.203,931.50
1559.080,952.00
1559.960,979.00
1560.838,919.50
1561.715,937.00
1562.594,991.00
1563.472,910.00
1564.349,958.00
1565.228,916.50
1566.105,960.50
1566.982,873.00
1567.861,962.00
1568.738,970.00
1569.615,918.00
1570.493,901.50
1571.370,936.50
1572.246,949.50
1573.124,995.00
1574.000,978.50
1574.877,919.00
1575.755,964.50
1576.631,966.50
1577.507,890.50
1578.384,970.50
1579.260,925.50
1580.136,913.00
1581.011,1013.50
1581.889,932.50
1582.764,956.50
1583.639,923.50
1584.516,942.50
1585.391,983.50
1586.266,930.50
1587.143,912.00
1588.018,896.00
1588.893,959.50
1589.768,1396.00
1590.644,932.00
1591.519,947.50
1592.393,940.50
1593.269,915.50
1594.143,994.00
1595.018,929.50
1595.892,959.00
1596.767,915.00
1597.641,930.00
1598.515,919.50
1599.391,922.50
1600.264,925.50
1601.138,952.00
1602.011,935.50
1602.886,964.00
1603.760,944.50
1604.633,984.00
1605.508,957.50
1606.381,867.00
1607.254,938.50
1608.127,906.00
1609.001,903.00
1609.874,871.50
1610.746,906.50
1611.619,917.00
1612.493,986.50
1613.365,976.00
1614.238,919.50
1615.110,937.00
1615.984,940.00
1616.855,936.00
1617.727,940.00
1618.599,915.00
1619.473,908.00
1620.344,975.50
1621.216,967.50
1622.087,950.50
1622.960,889.50
1623.832,902.00
1624.703,932.50
1625.574,937.00
1626.445,892.00
1627.317,917.00
1628.188,926.00
1629.059,925.50
1629.930,913.00
1630.802,941.00
1631.672,892.00
1632.543,918.50
1633.413,934.00
1634.283,906.50
1635.155,933.50
1636.025,943.50
1636.895,907.50
1637.765,922.50
1638.636,863.50
1639.506,895.50
1640.376,941.50
1641.245,916.50
1642.114,910.00
1642.985,888.00
1643.855,909.00
1644.724,917.50
1645.593,934.00
1646.462,986.50
1647.333,896.50
1648.201,906.00
1649.070,939.50
1649.939,925.50
1650.807,942.50
1651.676,869.50
1652.546,926.50
1653.414,908.50
1654.282,910.00
1655.150,928.50
1656.018,914.00
1656.888,974.50
1657.756,970.00
1658.623,905.50
1659.491,926.00
1660.359,930.50
1661.226,920.00
1662.095,905.50
1662.962,890.00
1663.830,914.00
1664.697,887.50
1665.564,899.00
1666.431,903.50
1667.297,927.50
1668.166,940.50
1669.033,945.00
1669.899,902.50
1670.766,920.00
1671.632,912.50
1672.499,932.00
1673.367,930.50
1674.233,922.00
1675.099,978.50
1675.965,911.50
1676.831,962.50
1677.696,958.50
1678.562,910.00
1679.430,931.50
1680.295,935.00
1681.161,924.00
1682.026,914.00
1682.891,873.00
1683.756,874.50
1684.621,896.00
1685.486,881.00
1686.353,882.00
1687.218,893.00
1688.083,888.50
1688.947,896.50
1689.812,925.50
1690.677,891.50
1691.541,872.00
1692.405,878.50
1693.269,858.00
1694.135,922.00
1694.999,904.00
1695.863,880.00
1696.727,890.50
1697.591,923.50
1698.455,845.50
1699.318,854.00
1700.182,878.50
1701.045,872.00
1701.909,925.00
1702.772,913.50
1703.637,914.00
1704.500,848.00
1705.363,937.00
1706.226,912.00
1707.089,915.00
1707.951,939.00
1708.814,907.00
1709.677,879.50
1710.539,928.50
1711.402,906.50
1712.264,874.00
1713.126,868.50
1713.988,871.00
1714.852,850.00
1715.714,918.50
1716.576,883.00
1717.438,842.00
1718.299,907.00
1719.161,925.50
1720.023,925.50
1720.884,911.00
1721.745,895.00
1722.607,943.50
1723.468,890.00
1724.329,924.50
1725.190,906.50
1726.051,906.00
1726.912,867.50
1727.772,894.50
1728.633,925.00
1729.494,939.50
1730.354,905.50
1731.214,895.50
1732.075,885.00
1732.935,920.00
1733.797,927.50
1734.657,923.50
1735.517,861.00
1736.377,886.50
1737.237,863.00
1738.096,902.00
1738.956,926.50
1739.816,902.00
1740.675,862.50
1741.534,885.00
1742.394,925.00
1743.253,921.50
1744.112,892.50
1744.971,963.00
1745.830,909.00
1746.689,941.00
1747.547,931.00
1748.406,966.50
1749.265,920.50
1750.123,928.00
1750.982,894.00
1751.840,916.00
1752.698,920.50
1753.556,861.00
1754.414,882.00
1755.272,868.00
1756.130,901.50
1756.988,887.00
1757.846,917.50
1758.703,878.50
1759.559,857.00
1760.417,930.00
1761.274,831.50
1762.131,930.50
1762.989,907.00
1763.846,874.50
1764.703,928.00
1765.560,896.50
1766.417,880.50
1767.273,921.00
1768.130,900.50
1768.987,881.50
1769.843,864.50
1770.700,924.00
1771.556,900.50
1772.412,913.50
1773.268,918.00
1774.125,935.00
1774.980,877.50
1775.836,912.00
1776.692,949.00
1777.546,897.00
1778.402,889.00
1779.257,936.50
1780.113,906.50
1780.968,922.00
1781.824,875.50
1782.679,875.00
1783.534,922.50
1784.389,897.50
1785.244,865.50
1786.099,903.50
1786.954,901.00
1787.808,920.00
1788.661,891.50
1789.516,925.50
1790.370,902.50
1791.225,927.00
1792.079,917.50
1792.933,900.00
1793.787,870.50
1794.641,812.50
1795.495,885.00
1796.349,902.00
1797.201,911.50
1798.055,876.00
1798.908,931.00
1799.762,899.50
1800.615,905.50
1801.469,921.50
1802.322,929.50
1803.175,922.00
1804.028,890.50
1804.880,893.00
1805.732,863.50
1806.585,905.00
1807.438,872.50
1808.291,892.50
1809.143,907.00
1809.996,858.00
1810.846,916.00
1811.699,932.50
1812.551,935.00
1813.403,940.50
1814.255,876.50
1815.107,844.50
1815.959,906.00
1816.809,904.50
1817.661,899.50
1818.512,907.50
1819.364,893.50
1820.215,846.50
1821.067,879.00
1821.918,922.00
1822.768,874.00
1823.619,943.50
1824.470,924.00
1825.321,869.50
1826.172,866.50
1827.021,909.50
1827.871,876.50
1828.722,912.00
1829.572,909.00
1830.423,900.50
1831.273,916.00
1832.122,861.00
1832.972,897.00
1833.822,913.00
1834.672,898.50
1835.522,870.50
1836.370,885.50
1837.220,906.50
1838.070,896.00
1838.919,867.00
1839.769,885.00
1840.616,925.50
1841.466,858.50
1842.315,908.00
1843.164,869.50
1844.013,927.50
1844.860,872.50
1845.709,919.50
1846.558,864.00
1847.407,899.00
1848.254,843.00
1849.102,856.50
1849.951,929.00
1850.799,892.00
1851.648,879.00
1852.494,957.00
1853.342,883.00
1854.190,906.00
1855.038,888.00
1855.884,919.50
1856.732,862.50
1857.580,909.50
1858.428,919.00
1859.273,910.50
1860.121,855.50
1860.968,898.00
1861.816,872.00
1862.661,908.00
1863.508,880.00
1864.355,848.50
1865.202,874.50
1866.047,913.50
1866.894,910.00
1867.741,912.50
1868.586,843.50
1869.432,873.00
1870.279,871.00
1871.125,857.50
1871.970,917.00
1872.816,946.00
1873.662,876.50
1874.506,880.00
1875.352,908.00
1876.198,894.50
1877.044,836.50
1877.888,888.50
1878.734,854.00
1879.579,921.50
1880.423,868.00
1881.268,874.50
1882.113,847.50
1882.959,914.00
1883.802,895.50
1884.647,898.50
1885.492,833.50
1886.335,874.00
1887.180,859.00
1888.025,846.50
1888.867,923.50
1889.712,860.50
1890.556,875.50
1891.399,933.50
1892.243,874.00
1893.087,867.50
1893.930,917.50
1894.774,869.50
1895.618,944.50
1896.460,857.50
1897.304,856.00
1898.147,848.00
1898.989,921.00
1899.833,910.00
1900.676,897.50
1901.518,857.00
1902.361,908.50
1903.202,928.00
1904.046,919.00
1904.889,934.00
1905.730,888.50
1906.573,883.50
1907.415,854.00
1908.256,821.50
1909.099,907.00
1909.941,931.50
1910.782,870.00
1911.624,832.50
1912.465,825.00
1913.307,844.00
1914.149,898.00
1914.989,845.50
1915.831,929.50
1916.671,889.50
1917.513,895.00
1918.355,876.50
1919.195,937.50
1920.036,868.00
1920.876,894.50
1921.717,895.00
1922.558,873.00
1923.398,943.00
1924.239,939.00
1925.078,846.00
1925.919,895.00
1926.760,922.50
1927.599,889.50
1928.440,899.00
1929.279,838.00
1930.119,896.50
1930.958,938.50
1931.798,880.00
1932.638,842.00
1933.477,928.50
1934.317,884.00
1935.155,852.00
1935.995,848.00
1936.833,879.50
1937.673,928.50
1938.512,903.00
1939.350,922.00
1940.190,854.00
1941.027,869.00
1941.867,849.50
1942.704,859.00
1943.543,894.00
1944.381,879.50
1945.220,902.00
1946.057,900.00
1946.896,838.50
1947.733,869.50
1948.572,905.50
1949.408,865.50
1950.247,886.50
1951.085,919.00
1951.922,873.00
1952.760,910.50
1953.597,869.00
1954.435,893.50
1955.271,874.50
1956.109,899.00
1956.945,934.50
1957.783,873.00
1958.619,890.50
1959.456,871.50
1960.292,917.00
1961.129,933.50
1961.965,869.50
1962.802,919.50
1963.638,886.50
1964.475,877.50
1965.310,868.00
1966.145,863.50
1966.982,837.50
1967.817,894.50
1968.654,894.00
1969.489,918.00
1970.325,893.00
1971.160,888.50
1971.996,877.00
1972.831,932.00
1973.667,872.00
1974.501,954.00
1975.337,927.50
1976.171,922.50
1977.006,969.00
1977.841,908.00
1978.675,929.50
1979.511,942.50
1980.345,928.50
1981.180,905.50
1982.014,867.00
1982.849,927.00
1983.682,908.00
1984.516,895.50
1985.351,918.50
1986.184,922.00
1987.019,923.00
1987.852,927.00
1988.687,930.50
1989.519,917.00
1990.352,909.00
1991.187,919.50
1992.019,944.50
1992.854,844.00
1993.686,939.50
1994.518,916.50
1995.352,926.00
1996.185,943.00
1997.019,939.00
1997.851,905.00
1998.682,887.00
1999.516,951.50
2000.348,912.50

<< BACKGROUND SPECTRUM >>
Wave[dcm-1],No28
96.716,2574.00
97.759,2399.00
98.802,2283.00
99.846,2879.00
100.886,2560.00
101.929,2765.00
102.972,2746.00
104.015,2638.00
105.057,2735.00
106.100,2220.00
107.142,2638.00
108.184,3032.00
109.226,2869.00
110.268,3035.00
111.310,3317.00
112.352,2901.00
113.393,2957.00
114.435,2847.00
115.476,3058.00
116.517,3130.00
117.558,2587.00
118.599,2914.00
119.640,3274.00
120.681,3237.00
121.722,3185.00
122.762,2891.00
123.803,2717.00
124.843,3085.00
125.883,3363.00
126.923,3590.00
127.963,3283.00
129.001,3558.00
130.041,4003.00
131.080,3243.00
132.120,3141.00
133.159,3534.00
134.199,3628.00
135.238,3171.00
136.277,3502.00
137.316,3686.00
138.355,3625.00
139.393,3260.00
140.432,3298.00
141.470,3400.00
142.509,3217.00
143.547,3782.00
144.585,2993.00
145.623,3372.00
146.661,3108.00
147.699,3499.00
148.736,3564.00
149.774,3198.00
150.811,3509.00
151.849,3944.00
152.886,3443.00
153.923,3665.00
154.960,3141.00
155.997,3907.00
157.034,4893.00
158.072,3631.00
159.109,4062.00
160.145,4214.00
161.182,3223.00
162.218,3519.00
163.254,3343.00
164.290,3293.00
165.326,4008.00
166.361,3874.00
167.397,3526.00
168.432,3738.00
169.468,3403.00
170.503,3656.00
171.538,3353.00
172.573,3736.00
173.608,3256.00
174.643,3746.00
175.677,3641.00
176.712,3826.00
177.746,3845.00
178.781,3333.00
179.815,2696.00
180.849,3807.00
181.883,3325.00
182.917,2838.00
183.951,3047.00
184.984,3880.00
186.020,3331.00
187.053,3647.00
188.087,3224.00
189.120,3487.00
190.153,3645.00
191.186,3711.00
192.219,3794.00
193.251,3736.00
194.284,3810.00
195.317,3810.00
196.349,10543.00
197.381,3448.00
198.413,3469.00
199.445,3280.00
200.477,3633.00
201.509,3531.00
202.543,3553.00
203.575,3967.00
204.606,3685.00
205.637,4394.00
206.669,3123.00
207.700,3731.00
208.731,3563.00
209.762,3187.00
210.792,3248.00
211.823,3711.00
212.854,3275.00
213.884,4403.00
214.914,3679.00
215.947,3549.00
216.977,3667.00
218.007,3590.00
219.037,3842.00
220.066,3334.00
221.096,3795.00
222.126,3198.00
223.155,3413.00
224.184,3757.00
225.214,4233.00
226.245,3939.00
227.274,3281.00
228.302,3679.00
229.331,3735.00
230.360,3407.00
231.388,3382.00
232.417,3179.00
233.445,3603.00
234.473,3390.00
235.501,3739.00
236.531,3744.00
237.559,3658.00
238.587,3359.00
239.614,3296.00
240.642,3614.00
241.669,3701.00
242.696,3684.00
243.724,3647.00
244.753,4076.00
245.780,3429.00
246.806,3223.00
247.833,3581.00
248.860,3463.00
249.886,3589.00
250.913,3223.00
251.939,3535.00
252.967,3491.00
253.993,3583.00
255.019,3935.00
256.045,3583.00
257.070,4002.00
258.096,3271.00
259.121,3699.00
260.147,3547.00
261.174,3475.00
262.199,3444.00
263.224,3562.00
264.249,3887.00
265.274,4099.00
266.298,3575.00
267.323,3617.00
268.349,3868.00
269.374,3251.00
270.398,3266.00
271.422,3706.00
272.446,3315.00
273.470,3124.00
274.496,3778.00
275.519,3657.00
276.543,3896.00
277.566,3874.00
278.589,3861.00
279.613,3824.00
280.636,3694.00
281.661,3841.00
282.684,3797.00
283.706,3978.00
284.729,4109.00
285.751,3009.00
286.774,4022.00
287.798,3402.00
288.820,3008.00
289.842,3298.00
290.864,3338.00
291.886,3684.00
292.910,3492.00
293.932,4077.00
294.953,3564.00
295.974,3589.00
296.996,3728.00
298.017,3520.00
299.040,3386.00
300.061,3705.00
301.082,3382.00
302.102,3217.00
303.123,3808.00
304.143,3564.00
305.166,3478.00
306.186,3765.00
307.206,3354.00
308.226,3732.00
309.246,3148.00
310.268,3852.00
311.288,3526.00
312.307,3229.00
313.327,3457.00
314.346,3749.00
315.368,3020.00
316.387,3632.00
317.406,3650.00
318.425,3583.00
319.443,3490.00
320.464,3181.00
321.483,4029.00
322.501,3357.00
323.520,3970.00
324.538,3456.00
325.558,4059.00
326.576,3643.00
327.594,3490.00
328.612,3372.00
329.629,3152.00
330.649,3839.00
331.666,3562.00
332.684,3129.00
333.701,3716.00
334.718,3181.00
335.737,3446.00
336.754,3701.00
337.771,3811.00
338.787,3180.00
339.806,3479.00
340.823,3452.00
341.839,3547.00
342.855,3502.00
343.871,3592.00
344.889,3322.00
345.905,3856.00
346.921,3742.00
347.937,4400.00
348.954,4189.00
349.970,3681.00
350.985,3552.00
352.000,3141.00
353.017,3796.00
354.032,3107.00
355.047,3854.00
356.062,3464.00
357.077,3418.00
358.093,4024.00
359.108,3731.00
360.122,3628.00
361.136,3509.00
362.152,3925.00
363.166,3268.00
364.180,3134.00
365.194,4005.00
366.210,3431.00
367.223,3282.00
368.237,3376.00
369.250,3604.00
370.265,3367.00
371.278,3923.00
372.291,3705.00
373.304,3052.00
374.319,3749.00
375.332,3835.00
376.344,4075.00
377.357,3447.00
378.371,3896.00
379.383,3295.00
380.395,4318.00
381.407,4123.00
382.421,3442.00
383.433,3425.00
384.445,3395.00
385.456,3513.00
386.470,3111.00
387.481,3933.00
388.492,3934.00
389.505,3274.00
390.516,3939.00
391.527,3486.00
392.538,3515.00
393.551,3692.00
394.561,4369.00
395.572,3699.00
396.582,3584.00
397.594,3783.00
398.604,3420.00
399.614,3606.00
400.624,3391.00
401.636,3452.00
402.646,3542.00
403.655,3192.00
404.667,3372.00
405.676,3367.00
406.685,4296.00
407.694,3889.00
408.705,3005.00
409.714,3140.00
410.723,3247.00
411.734,3309.00
412.742,3370.00
413.751,3618.00
414.759,3600.00
415.769,3526.00
416.777,3819.00
417.785,3524.00
418.795,3369.00
419.803,3613.00
420.811,3276.00
421.818,3962.00
422.828,3429.00
423.835,3395.00
424.842,3407.00
425.852,3257.00
426.859,3652.00
427.866,3698.00
428.874,3618.00
429.881,3491.00
430.888,3770.00
431.894,3665.00
432.902,3565.00
433.909,4528.00
434.915,3654.00
435.923,4225.00
436.929,3046.00
437.935,3499.00
438.942,3384.00
439.948,3545.00
440.953,4054.00
441.959,3200.00
442.966,3998.00
443.971,3744.00
444.976,3158.00
445.983,3621.00
446.988,3433.00
447.993,3988.00
448.999,3649.00
450.004,3545.00
451.008,3386.00
452.014,4066.00
453.019,3816.00
454.023,3239.00
455.029,3254.00
456.032,3977.00
457.036,3497.00
458.042,2884.00
459.045,3434.00
460.049,3740.00
461.052,4050.00
462.057,3743.00
463.060,4036.00
464.063,3425.00
465.068,3441.00
466.071,3321.00
467.073,3874.00
468.078,3144.00
469.080,3102.00
470.082,3551.00
471.087,3486.00
472.089,3576.00
473.091,3832.00
474.095,4004.00
475.096,3470.00
476.098,3393.00
477.101,3761.00
478.103,3261.00
479.104,4169.00
480.107,3412.00
481.108,3051.00
482.109,4203.00
483.112,4191.00
484.113,4586.00
485.114,3800.00
486.116,3598.00
487.117,3886.00
488.117,3623.00
489.119,3724.00
490.119,3736.00
491.121,3261.00
492.121,3057.00
493.121,2923.00
494.123,3612.00
495.122,3669.00
496.122,3554.00
497.123,4467.00
498.122,3366.00
499.121,3613.00
500.122,3618.00
501.121,3184.00
502.120,3135.00
503.121,3240.00
504.119,3258.00
505.118,3776.00
506.118,3264.00
507.117,3302.00
508.115,3676.00
509.115,3589.00
510.113,3097.00
511.112,3801.00
512.110,3508.00
513.108,3817.00
514.107,3894.00
515.105,3807.00
516.102,3979.00
517.101,3564.00
518.098,3575.00
519.095,4056.00
520.094,3442.00
521.091,3414.00
522.089,3744.00
523.086,3371.00
524.082,3732.00
525.081,3665.00
526.077,4788.00
527.073,4556.00
528.071,3550.00
529.067,3385.00
530.064,3431.00
531.060,3165.00
532.056,3452.00
533.053,3880.00
534.048,3771.00
535.044,3502.00
536.041,3734.00
537.036,3608.00
538.030,3724.00
539.027,3799.00
540.022,3112.00
541.019,3440.00
542.013,3792.00
543.007,3652.00
544.004,3495.00
544.998,3541.00
545.994,4097.00
546.988,3968.00
547.981,3441.00
548.977,4178.00
549.971,3682.00
550.964,3818.00
551.960,3637.00
552.953,3555.00
553.948,3772.00
554.941,3385.00
555.934,3241.00
556.929,3791.00
557.922,3310.00
558.916,3789.00
559.909,4038.00
560.901,3603.00
561.895,3650.00
562.888,3265.00
563.880,3759.00
564.874,3921.00
565.865,3774.00
566.859,3200.00
567.851,3998.00
568.842,3466.00
569.836,3526.00
570.827,3228.00
571.820,3597.00
572.811,3724.00
573.802,3617.00
574.795,3312.00
575.786,3865.00
576.779,3679.00
577.769,3212.00
578.760,3642.00
579.752,3221.00
580.742,3338.00
581.735,3702.00
582.725,3372.00
583.714,3824.00
584.706,3247.00
585.696,3492.00
586.688,3721.00
587.677,3493.00
588.667,3724.00
589.658,3487.00
590.647,3680.00
591.638,3583.00
592.627,3398.00
593.616,3129.00
594.607,3678.00
595.595,3549.00
596.586,3207.00
597.574,3889.00
598.562,3915.00
599.553,3168.00
600.541,3619.00
601.531,3679.00
602.519,3427.00
603.508,3726.00
604.496,3677.00
605.484,3630.00
606.473,3527.00
607.460,3394.00
608.450,3473.00
609.437,3795.00
610.424,3885.00
611.413,3139.00
612.400,3257.00
613.388,3542.00
614.375,3443.00
615.361,3426.00
616.350,3282.00
617.336,8358.00
618.324,3900.00
619.310,3335.00
620.298,3216.00
621.284,3628.00
622.270,3241.00
623.257,3580.00
624.243,3567.00
625.230,3809.00
626.216,3528.00
627.203,3895.00
628.188,3448.00
629.173,3402.00
630.160,3286.00
631.145,2676.00
632.131,3355.00
633.116,3180.00
634.102,3640.00
635.087,3765.00
636.071,3788.00
637.057,3334.00
638.041,3120.00
639.027,3236.00
640.011,3427.00
640.995,3241.00
641.980,3297.00
642.964,3388.00
643.949,3885.00
644.932,2806.00
645.918,3363.00
646.901,3543.00
647.886,3345.00
648.868,3403.00
649.851,3209.00
650.836,2950.00
651.818,3183.00
652.803,3710.00
653.785,3483.00
654.769,3682.00
655.751,3665.00
656.733,3939.00
657.717,3061.00
658.699,3542.00
659.683,3317.00
660.664,3162.00
661.648,3403.00
662.629,3382.00
663.611,3277.00
664.594,3079.00
665.575,3116.00
666.558,3407.00
667.539,3072.00
668.521,3338.00
669.502,3366.00
670.484,3332.00
671.465,3246.00
672.445,3452.00
673.427,3200.00
674.407,3144.00
675.390,3573.00
676.369,3344.00
677.351,2969.00
678.331,3625.00
679.312,3413.00
680.292,3255.00
681.271,2965.00
682.253,3507.00
683.232,3062.00
684.213,3255.00
685.192,3718.00
686.172,3918.00
687.151,3394.00
688.132,3448.00
689.110,3594.00
690.089,3721.00
691.069,2912.00
692.047,2813.00
693.027,2948.00
694.005,3445.00
694.985,3954.00
695.963,3509.00
696.943,3230.00
697.920,2997.00
698.898,3746.00
699.877,3624.00
700.854,3258.00
701.833,3200.00
702.810,3762.00
703.789,3444.00
704.766,4512.00
705.745,3960.00
706.721,3204.00
707.698,3725.00
708.676,3036.00
709.653,3301.00
710.631,3684.00
711.607,3361.00
712.585,3358.00
713.561,3089.00
714.539,3895.00
715.514,3317.00
716.492,3103.00
717.467,3808.00
718.443,3027.00
719.420,3670.00
720.395,3746.00
721.372,3510.00
722.347,3692.00
723.324,3243.00
724.298,3381.00
725.275,3113.00
726.250,3324.00
727.226,3168.00
728.200,2990.00
729.176,3323.00
730.151,3595.00
731.125,3849.00
732.100,2941.00
733.074,3348.00
734.050,3167.00
735.023,3070.00
735.999,3286.00
736.972,3178.00
737.947,3672.00
738.921,3398.00
739.896,3576.00
740.869,3428.00
741.841,3233.00
742.816,3784.00
743.789,3093.00
744.763,3088.00
745.736,3321.00
746.710,3166.00
747.682,3084.00
748.656,3299.00
749.628,3264.00
750.602,3259.00
751.574,3384.00
752.548,4185.00
753.519,3475.00
754.491,2908.00
755.464,3139.00
756.435,3937.00
757.408,3603.00
758.379,3479.00
759.352,2900.00
760.323,3034.00
761.296,3238.00
762.267,3347.00
763.239,3087.00
764.209,3597.00
765.182,4480.00
766.152,3617.00
767.124,3058.00
768.094,3150.00
769.064,3526.00
770.036,2984.00
771.005,3575.00
771.977,3169.00
772.947,3280.00
773.918,3720.00
774.887,3289.00
775.858,3119.00
776.827,3250.00
777.798,3249.00
778.767,3812.00
779.738,3274.00
780.707,3187.00
781.677,3352.00
782.646,3086.00
783.614,3700.00
784.584,3393.00
785.552,3523.00
786.522,2944.00
787.490,3321.00
788.460,3149.00
789.428,3147.00
790.397,3723.00
791.365,3016.00
792.334,3214.00
793.302,3398.00
794.271,3431.00
795.238,3158.00
796.207,3144.00
797.174,3592.00
798.143,2989.00
799.109,3654.00
800.076,3160.00
801.044,2888.00
802.011,3068.00
802.979,3091.00
803.945,3285.00
804.913,3904.00
805.879,3256.00
806.847,2940.00
807.813,3607.00
808.780,3210.00
809.746,3244.00
810.713,3688.00
811.678,2964.00
812.646,3194.00
813.611,3228.00
814.578,2940.00
815.543,3649.00
816.510,2865.00
817.474,3177.00
818.439,3185.00
819.405,3532.00
820.370,3134.00
821.336,2998.00
822.300,3438.00
823.266,3175.00
824.230,3409.00
825.196,3277.00
826.160,3632.00
827.126,3621.00
828.089,4015.00
829.055,3295.00
830.018,3338.00
830.983,4076.00
831.946,3079.00
832.911,3059.00
833.874,3867.00
834.837,3124.00
835.802,3164.00
836.765,3718.00
837.729,3143.00
838.691,3187.00
839.656,3568.00
840.618,3397.00
841.582,3541.00
842.544,3546.00
843.508,3742.00
844.470,2972.00
845.434,2883.00
846.395,2787.00
847.359,3152.00
848.320,2917.00
849.283,3077.00
850.245,3079.00
851.208,3487.00
852.169,3225.00
853.130,3031.00
854.092,3462.00
855.053,3218.00
856.016,3187.00
856.976,4362.00
857.938,3270.00
858.899,3284.00
859.861,2937.00
860.821,3143.00
861.783,2560.00
862.743,3245.00
863.704,3552.00
864.664,2730.00
865.626,3335.00
866.585,3053.00
867.546,3331.00
868.506,3340.00
869.467,2761.00
870.426,3267.00
871.387,3471.00
872.346,3567.00
873.304,3317.00
874.265,3463.00
875.223,3319.00
876.184,3351.00
877.142,3051.00
878.102,3202.00
879.060,3210.00
880.021,3307.00
880.978,2867.00
881.938,3167.00
882.896,3584.00
883.856,3437.00
884.813,3163.00
885.772,3135.00
886.730,3439.00
887.689,3392.00
888.646,3042.00
889.603,3595.00
890.562,3670.00
891.519,3274.00
892.477,3368.00
893.434,3320.00
894.392,2850.00
895.349,3272.00
896.307,3388.00
897.263,3492.00
898.221,3316.00
899.177,3076.00
900.135,3404.00
901.091,3192.00
902.048,3697.00
903.004,3201.00
903.961,3008.00
904.917,3205.00
905.874,3253.00
906.829,2931.00
907.784,3251.00
908.741,3273.00
909.696,3119.00
910.653,2731.00
911.607,3170.00
912.564,3114.00
913.518,3187.00
914.475,3279.00
915.429,4971.00
916.385,2960.00
917.339,3620.00
918.295,3378.00
919.249,3403.00
920.205,3267.00
921.158,3357.00
922.114,3124.00
923.067,3252.00
924.020,3274.00
924.976,3127.00
925.929,3358.00
926.884,3288.00
927.837,3500.00
928.791,3420.00
929.744,2930.00
930.699,3256.00
931.651,3252.00
932.606,2860.00
933.558,3100.00
934.512,3400.00
935.464,3289.00
936.418,3625.00
937.370,3384.00
938.322,3017.00
939.276,3177.00
940.227,3255.00
941.181,3310.00
942.132,3636.00
943.085,3819.00
944.036,2782.00
944.990,3586.00
945.941,3024.00
946.893,3109.00
947.844,2891.00
948.797,3364.00
949.747,3920.00
950.700,3104.00
951.650,2667.00
952.601,3343.00
953.553,3013.00
954.503,3456.00
955.455,3192.00
956.405,3298.00
957.356,2919.00
958.306,3475.00
959.258,3220.00
960.207,3621.00
961.158,3556.00
962.108,3278.00
963.059,2947.00
964.008,2880.00
964.959,3863.00
965.908,3184.00
966.856,2960.00
967.807,2810.00
968.756,3577.00
969.706,3235.00
970.654,3140.00
971.605,3185.00
972.553,3312.00
973.503,3211.00
974.451,3498.00
975.401,3284.00
976.348,3255.00
977.296,3124.00
978.246,3455.00
979.193,3700.00
980.142,3025.00
981.090,3303.00
982.039,3264.00
982.986,3322.00
983.935,3585.00
984.882,3291.00
985.830,3411.00
986.777,3381.00
987.725,3116.00
988.672,3031.00
989.618,3258.00
990.567,2983.00
991.513,3138.00
992.461,2996.00
993.407,3419.00
994.354,3369.00
995.300,3326.00
996.248,3316.00
997.193,3401.00
998.141,3159.00
999.086,3339.00
1000.031,3297.00
1000.978,2840.00
1001.924,3207.00
1002.870,3322.00
1003.815,2650.00
1004.762,2995.00
1005.707,3285.00
1006.653,3151.00
1007.598,3185.00
1008.542,2925.00
1009.488,2803.00
1010.432,3051.00
1011.378,2974.00
1012.322,3627.00
1013.268,2954.00
1014.212,3210.00
1015.157,3322.00
1016.101,3641.00
1017.046,2898.00
1017.990,2956.00
1018.933,3164.00
1019.878,2985.00
1020.821,3006.00
1021.766,2864.00
1022.709,3065.00
1023.654,3156.00
1024.596,3463.00
1025.541,3657.00
1026.483,3601.00
1027.425,3294.00
1028.370,3433.00
1029.312,3367.00
1030.256,3086.00
1031.198,3023.00
1032.141,3117.00
1033.083,3586.00
1034.027,3295.00
1034.968,3376.00
1035.910,2770.00
1036.853,3190.00
1037.794,3229.00
1038.738,2911.00
1039.679,3484.00
1040.621,3056.00
1041.562,3140.00
1042.503,3499.00
1043.446,2878.00
1044.386,3421.00
1045.329,3172.00
1046.269,3292.00
1047.211,3138.00
1048.151,3292.00
1049.093,2894.00
1050.033,3936.00
1050.973,3337.00
1051.915,3112.00
1052.854,3088.00
1053.796,3420.00
1054.735,3024.00
1055.677,3030.00
1056.616,3281.00
1057.555,3260.00
1058.496,2893.00
1059.435,3404.00
1060.376,3045.00
1061.315,3051.00
1062.255,2868.00
1063.194,3122.00
1064.132,2888.00
1065.073,3279.00
1066.011,3274.00
1066.951,3317.00
1067.889,2941.00
1068.829,3309.00
1069.767,3290.00
1070.705,2580.00
1071.644,3038.00
1072.582,2763.00
1073.521,3095.00
1074.459,3124.00
1075.398,3280.00
1076.335,3028.00
1077.272,3823.00
1078.211,3287.00
1079.148,3733.00
1080.087,3205.00
1081.023,3608.00
1081.962,3427.00
1082.898,2706.00
1083.835,3074.00
1084.773,2747.00
1085.709,2821.00
1086.647,3151.00
1087.583,3056.00
1088.519,3305.00
1089.457,3290.00
1090.392,2754.00
1091.330,3187.00
1092.266,3084.00
1093.203,3499.00
1094.138,2852.00
1095.073,3665.00
1096.010,3443.00
1096.945,3092.00
1097.882,2790.00
1098.817,2648.00
1099.752,3295.00
1100.688,3162.00
1101.623,3248.00
1102.559,3217.00
1103.493,3504.00
1104.430,2699.00
1105.364,2837.00
1106.298,3085.00
1107.234,3658.00
1108.167,2941.00
1109.094,3079.00
1110.019,3114.00
1110.945,3318.00
1111.869,3165.00
1112.795,3023.00
1113.720,3195.00
1114.646,3169.00
1115.571,2592.00
1116.495,3251.00
1117.420,3222.00
1118.345,2958.00
1119.270,3111.00
1120.195,3321.00
1121.118,3547.00
1122.042,3380.00
1122.967,3173.00
1123.891,3206.00
1124.816,3215.00
1125.738,3231.00
1126.663,2613.00
1127.587,3039.00
1128.511,2989.00
1129.435,3135.00
1130.357,3206.00
1131.280,4011.00
1132.204,2947.00
1133.128,2943.00
1134.051,3038.00
1134.972,3757.00
1135.896,3043.00
1136.819,3430.00
1137.742,2963.00
1138.665,3276.00
1139.586,3126.00
1140.509,2686.00
1141.431,2969.00
1142.354,3634.00
1143.276,3152.00
1144.197,3549.00
1145.119,3221.00
1146.041,2858.00
1146.964,3316.00
1147.885,3273.00
1148.806,3106.00
1149.727,3174.00
1150.649,2745.00
1151.571,3140.00
1152.492,3342.00
1153.412,3276.00
1154.333,3152.00
1155.254,3018.00
1156.175,3016.00
1157.095,3601.00
1158.016,3172.00
1158.936,3016.00
1159.857,3312.00
1160.778,3076.00
1161.697,2763.00
1162.617,3241.00
1163.537,3801.00
1164.458,3621.00
1165.376,2984.00
1166.296,3342.00
1167.216,3507.00
1168.136,3014.00
1169.056,2855.00
1169.974,3052.00
1170.893,3736.00
1171.813,3322.00
1172.732,3049.00
1173.650,3218.00
1174.569,3953.00
1175.488,3340.00
1176.407,2825.00
1177.326,2934.00
1178.243,3181.00
1179.161,3030.00
1180.080,3028.00
1180.999,3278.00
1181.915,3073.00
1182.834,2703.00
1183.752,3301.00
1184.670,3749.00
1185.586,2625.00
1186.504,3031.00
1187.422,3115.00
1188.340,2826.00
1189.258,3258.00
1190.173,3119.00
1191.091,3467.00
1192.008,2966.00
1192.926,2984.00
1193.841,3220.00
1194.758,3231.00
1195.675,2910.00
1196.592,3453.00
1197.507,2909.00
1198.424,3285.00
1199.340,3643.00
1200.257,3108.00
1201.172,3291.00
1202.088,2598.00
1203.004,3207.00
1203.920,3382.00
1204.835,3728.00
1205.750,3447.00
1206.666,3576.00
1207.582,2914.00
1208.496,2949.00
1209.412,3048.00
1210.327,2986.00
1211.243,3648.00
1212.156,2917.00
1213.071,2926.00
1213.986,3176.00
1214.901,2812.00
1215.814,2809.00
1216.729,2947.00
1217.644,2944.00
1218.559,2888.00
1219.471,3917.00
1220.386,3486.00
1221.300,2954.00
1222.213,3273.00
1223.127,3105.00
1224.041,3546.00
1224.955,2872.00
1225.867,3217.00
1226.781,3427.00
1227.694,3483.00
1228.608,3093.00
1229.520,3368.00
1230.433,3410.00
1231.346,2899.00
1232.260,3327.00
1233.171,2911.00
1234.084,3232.00
1234.997,3501.00
1235.908,2990.00
1236.821,3271.00
1237.733,4354.00
1238.646,3452.00
1239.556,3235.00
1240.469,3149.00
1241.381,2927.00
1242.293,2933.00
1243.203,3600.00
1244.115,3658.00
1245.027,3211.00
1245.937,3022.00
1246.849,3079.00
1247.761,3176.00
1248.672,2932.00
1249.582,3043.00
1250.493,3720.00
1251.404,3150.00
1252.313,3360.00
1253.225,3529.00
1254.135,4114.00
1255.046,3268.00
1255.955,3341.00
1256.866,3633.00
1257.777,3034.00
1258.685,2824.00
1259.596,2581.00
1260.506,3515.00
1261.416,3107.00
1262.324,3397.00
1263.234,3145.00
1264.144,3367.00
1265.052,3263.00
1265.962,3126.00
1266.872,3462.00
1267.779,3355.00
1268.689,2727.00
1269.598,2862.00
1270.507,3100.00
1271.415,3004.00
1272.324,3202.00
1273.233,3127.00
1274.140,3029.00
1275.048,2909.00
1275.957,2649.00
1276.864,2984.00
1277.772,2998.00
1278.681,2639.00
1279.587,2918.00
1280.496,3247.00
1281.404,3880.00
1282.312,3296.00
1283.218,2883.00
1284.126,2896.00
1285.033,3650.00
1285.939,3093.00
1286.847,3216.00
1287.754,3046.00
1288.660,2888.00
1289.567,3709.00
1290.474,3174.00
1291.380,3376.00
1292.286,2824.00
1293.193,3205.00
1294.098,3143.00
1295.005,2965.00
1295.912,3501.00
1296.816,3229.00
1297.723,3147.00
1298.629,2939.00
1299.534,3482.00
1300.440,3270.00
1301.346,2991.00
1302.250,2991.00
1303.156,2682.00
1304.062,3556.00
1304.966,3656.00
1305.871,3442.00
1306.777,2979.00
1307.680,3061.00
1308.586,3256.00
1309.491,3376.00
1310.394,3136.00
1311.299,3431.00
1312.204,3654.00
1313.107,3285.00
1314.012,3220.00
1314.917,2861.00
1315.819,3299.00
1316.724,3680.00
1317.628,3259.00
1318.531,3097.00
1319.435,3502.00
1320.339,5175.00
1321.241,3117.00
1322.145,3155.00
1323.049,3250.00
1323.951,2953.00
1324.854,2915.00
1325.756,3443.00
1326.659,3186.00
1327.563,2944.00
1328.464,3246.00
1329.367,3110.00
1330.271,3506.00
1331.172,2909.00
1332.074,3133.00
1332.977,2937.00
1333.878,3257.00
1334.781,3440.00
1335.683,2927.00
1336.584,3078.00
1337.486,2730.00
1338.387,3363.00
1339.289,2865.00
1340.191,2950.00
1341.091,3069.00
1341.993,2860.00
1342.895,3010.00
1343.794,3239.00
1344.696,3360.00
1345.596,3275.00
1346.497,2857.00
1347.398,3116.00
1348.298,2679.00
1349.199,3740.00
1350.100,3059.00
1350.999,3506.00
1351.900,3381.00
1352.799,3482.00
1353.699,3200.00
1354.600,3131.00
1355.499,3220.00
1356.399,2750.00
1357.297,3104.00
1358.198,3220.00
1359.098,2907.00
1359.996,2817.00
1360.896,3656.00
1361.796,3433.00
1362.694,3288.00
1363.593,3110.00
1364.491,3334.00
1365.391,3725.00
1366.290,3106.00
1367.187,2929.00
1368.086,3365.00
1368.984,3216.00
1369.883,2722.00
1370.782,3169.00
1371.679,3327.00
1372.577,3682.00
1373.474,3188.00
1374.373,3089.00
1375.269,3155.00
1376.168,3067.00
1377.066,3393.00
1377.962,3396.00
1378.860,3506.00
1379.756,3526.00
1380.654,3707.00
1381.552,3346.00
1382.448,3320.00
1383.346,3220.00
1384.241,3292.00
1385.139,3407.00
1386.036,3057.00
1386.931,2745.00
1387.829,3233.00
1388.724,3400.00
1389.621,3007.00
1390.516,3199.00
1391.413,3039.00
1392.309,2914.00
1393.204,3453.00
1394.101,3335.00
1394.995,3319.00
1395.891,3326.00
1396.786,2917.00
1397.682,3111.00
1398.578,3262.00
1399.472,3487.00
1400.368,3188.00
1401.262,3135.00
1402.158,3306.00
1403.051,3084.00
1403.947,3050.00
1404.840,3377.00
1405.736,3363.00
1406.631,2917.00
1407.524,3593.00
1408.419,3181.00
1409.312,3019.00
1410.207,3263.00
1411.100,3002.00
1411.995,2999.00
1412.888,3391.00
1413.782,2778.00
1414.675,3490.00
1415.569,2885.00
1416.463,3102.00
1417.355,3098.00
1418.249,2968.00
1419.141,3196.00
1420.035,3250.00
1420.927,3113.00
1421.821,3496.00
1422.713,3037.00
1423.606,3293.00
1424.498,3193.00
1425.391,3750.00
1426.282,2956.00
1427.175,3151.00
1428.068,2638.00
1428.960,3230.00
1429.852,3229.00
1430.743,2952.00
1431.636,3218.00
1432.527,3473.00
1433.419,3353.00
1434.310,3354.00
1435.202,2961.00
1436.092,3108.00
1436.984,3115.00
1437.875,3579.00
1438.767,3157.00
1439.657,2974.00
1440.548,3344.00
1441.438,3210.00
1442.330,3275.00
1443.219,3114.00
1444.111,3417.00
1445.000,2965.00
1445.891,2904.00
1446.781,2935.00
1447.672,3224.00
1448.561,3503.00
1449.452,3303.00
1450.340,2957.00
1451.231,2950.00
1452.120,2893.00
1453.010,3426.00
1453.899,3039.00
1454.789,3343.00
1455.677,3556.00
1456.568,3178.00
1457.456,3205.00
1458.346,3231.00
1459.234,3270.00
1460.123,3541.00
1461.011,3169.00
1461.901,3499.00
1462.788,3610.00
1463.678,3304.00
1464.565,3211.00
1465.454,3135.00
1466.342,3250.00
1467.231,2541.00
1468.118,3448.00
1469.006,3606.00
1469.893,2878.00
1470.782,3324.00
1471.669,3466.00
1472.557,3444.00
1473.444,3225.00
1474.330,3412.00
1475.218,3449.00
1476.105,3093.00
1476.993,3200.00
1477.879,3406.00
1478.767,3080.00
1479.652,2914.00
1480.540,3238.00
1481.426,3345.00
1482.313,3344.00
1483.199,3548.00
1484.086,3361.00
1484.972,2921.00
1485.857,2851.00
1486.744,3269.00
1487.629,2753.00
1488.516,3058.00
1489.401,3383.00
1490.287,3186.00
1491.172,2795.00
1492.058,3114.00
1492.943,2965.00
1493.828,2922.00
1494.714,3313.00
1495.598,3523.00
1496.484,3977.00
1497.368,2863.00
1498.254,3149.00
1499.138,3234.00
1500.022,3162.00
1500.907,3310.00
1501.791,3947.00
1502.676,3211.00
1503.560,3008.00
1504.445,3700.00
1505.328,3284.00
1506.211,3594.00
1507.096,3102.00
1507.979,3500.00
1508.864,3116.00
1509.747,3328.00
1510.631,3237.00
1511.514,3352.00
1512.397,3445.00
1513.281,3681.00
1514.163,3449.00
1515.047,3079.00
1515.930,2928.00
1516.812,3163.00
1517.696,3391.00
1518.578,3166.00
1519.461,3251.00
1520.343,3661.00
1521.225,2959.00
1522.108,3122.00
1522.990,3496.00
1523.873,3611.00
1524.754,2798.00
1525.635,2635.00
1526.518,3320.00
1527.399,3137.00
1528.282,3194.00
1529.163,3285.00
1530.044,3166.00
1530.926,2873.00
1531.807,2930.00
1532.689,3256.00
1533.569,2946.00
1534.450,4256.00
1535.332,3422.00
1536.212,3092.00
1537.092,3476.00
1537.974,2861.00
1538.854,3068.00
1539.735,3704.00
1540.615,3352.00
1541.495,2988.00
1542.376,3618.00
1543.255,2908.00
1544.135,3133.00
1545.016,3273.00
1545.895,2972.00
1546.774,3432.00
1547.655,2721.00
1548.534,3219.00
1549.414,3146.00
1550.293,2844.00
1551.172,3269.00
1552.052,3167.00
1552.930,3006.00
1553.809,3652.00
1554.689,3100.00
1555.567,3119.00
1556.445,3051.00
1557.325,3501.00
1558.203,2796.00
1559.080,3160.00
1559.960,3127.00
1560.838,3871.00
1561.715,3119.00
1562.594,3448.00
1563.472,3364.00
1564.349,3314.00
1565.228,2779.00
1566.105,2942.00
1566.982,3276.00
1567.861,3428.00
1568.738,3097.00
1569.615,2782.00
1570.493,3080.00
1571.370,3064.00
1572.246,2625.00
1573.124,3130.00
1574.000,3104.00
1574.877,3404.00
1575.755,3069.00
1576.631,2939.00
1577.507,3604.00
1578.384,3509.00
1579.260,3277.00
1580.136,3767.00
1581.011,3110.00
1581.889,3145.00
1582.764,3147.00
1583.639,3490.00
1584.516,3326.00
1585.391,3044.00
1586.266,3215.00
1587.143,3686.00
1588.018,3357.00
1588.893,3552.00
1589.768,4073.00
1590.644,3887.00
1591.519,2917.00
1592.393,3350.00
1593.269,3428.00
1594.143,2971.00
1595.018,3119.00
1595.892,3083.00
1596.767,2716.00
1597.641,2729.00
1598.515,2839.00
1599.391,3319.00
1600.264,3051.00
1601.138,2985.00
1602.011,2555.00
1602.886,3674.00
1603.760,3479.00
1604.633,3419.00
1605.508,3319.00
1606.381,3274.00
1607.254,3200.00
1608.127,3327.00
1609.001,2907.00
1609.874,3534.00
1610.746,3436.00
1611.619,3217.00
1612.493,3378.00
1613.365,2954.00
1614.238,3216.00
1615.110,3229.00
1615.984,3182.00
1616.855,2996.00
1617.727,3433.00
1618.599,3073.00
1619.473,3494.00
1620.344,2549.00
1621.216,3189.00
1622.087,3178.00
1622.960,3231.00
1623.832,3189.00
1624.703,3299.00
1625.574,3387.00
1626.445,3225.00
1627.317,3243.00
1628.188,3450.00
1629.059,3134.00
1629.930,3571.00
1630.802,3126.00
1631.672,3367.00
1632.543,3308.00
1633.413,3204.00
1634.283,3694.00
1635.155,3277.00
1636.025,3247.00
1636.895,3228.00
1637.765,2712.00
1638.636,3204.00
1639.506,3346.00
1640.376,3962.00
1641.245,3121.00
1642.114,3224.00
1642.985,2680.00
1643.855,2932.00
1644.724,3076.00
1645.593,3362.00
1646.462,3276.00
1647.333,3240.00
1648.201,3088.00
1649.070,3260.00
1649.939,3353.00
1650.807,2945.00
1651.676,3412.00
1652.546,3360.00
1653.414,3541.00
1654.282,3195.00
1655.150,3055.00
1656.018,3164.00
1656.888,3781.00
1657.756,3187.00
1658.623,2855.00
1659.491,2734.00
1660.359,3516.00
1661.226,3070.00
1662.095,3395.00
1662.962,3074.00
1663.830,3153.00
1664.697,3044.00
1665.564,3221.00
1666.431,3334.00
1667.297,2917.00
1668.166,2894.00
1669.033,2737.00
1669.899,3070.00
1670.766,2845.00
1671.632,3059.00
1672.499,3516.00
1673.367,3214.00
1674.233,3396.00
1675.099,3154.00
1675.965,2854.00
1676.831,3084.00
1677.696,3493.00
1678.562,4976.00
1679.430,2728.00
1680.295,2825.00
1681.161,2953.00
1682.026,2947.00
1682.891,3076.00
1683.756,3101.00
1684.621,3218.00
1685.486,3242.00
1686.353,3202.00
1687.218,3320.00
1688.083,3171.00
1688.947,3480.00
1689.812,3129.00
1690.677,3041.00
1691.541,3301.00
1692.405,2507.00
1693.269,3701.00
1694.135,3338.00
1694.999,3186.00
1695.863,3710.00
1696.727,3075.00
1697.591,3059.00
1698.455,3317.00
1699.318,3081.00
1700.182,4444.00
1701.045,3238.00
1701.909,3223.00
1702.772,3678.00
1703.637,3034.00
1704.500,2800.00
1705.363,3432.00
1706.226,3243.00
1707.089,3321.00
1707.951,3329.00
1708.814,3856.00
1709.677,3941.00
1710.539,3418.00
1711.402,3446.00
1712.264,3195.00
1713.126,3120.00
1713.988,3470.00
1714.852,3501.00
1715.714,2577.00
1716.576,2751.00
1717.438,3468.00
1718.299,2717.00
1719.161,3571.00
1720.023,3142.00
1720.884,3619.00
1721.745,3176.00
1722.607,3059.00
1723.468,2703.00
1724.329,3421.00
1725.190,3170.00
1726.051,3388.00
1726.912,3078.00
1727.772,3254.00
1728.633,3098.00
1729.494,3240.00
1730.354,3449.00
1731.214,2916.00
1732.075,3077.00
1732.935,3044.00
1733.797,3024.00
1734.657,3666.00
1735.517,3889.00
1736.377,3474.00
1737.237,3168.00
1738.096,3849.00
1738.956,3101.00
1739.816,3106.00
1740.675,3169.00
1741.534,2676.00
1742.394,3234.00
1743.253,2950.00
1744.112,3208.00
1744.971,2974.00
1745.830,3328.00
1746.689,3317.00
1747.547,3385.00
1748.406,2777.00
1749.265,3068.00
1750.123,3084.00
1750.982,3426.00
1751.840,3142.00
1752.698,3243.00
1753.556,3056.00
1754.414,3205.00
1755.272,3140.00
1756.130,3201.00
1756.988,3171.00
1757.846,3357.00
1758.703,3030.00
1759.559,3513.00
1760.417,2883.00
1761.274,3867.00
1762.131,3531.00
1762.989,3704.00
1763.846,3606.00
1764.703,3254.00
1765.560,3739.00
1766.417,3239.00
1767.273,2941.00
1768.130,3205.00
1768.987,3077.00
1769.843,3455.00
1770.700,3546.00
1771.556,3098.00
1772.412,3566.00
1773.268,3087.00
1774.125,3514.00
1774.980,3269.00
1775.836,3529.00
1776.692,3077.00
1777.546,3031.00
1778.402,3389.00
1779.257,3227.00
1780.113,3002.00
1780.968,3291.00
1781.824,3487.00
1782.679,2850.00
1783.534,3035.00
1784.389,3668.00
1785.244,3347.00
1786.099,3130.00
1786.954,3420.00
1787.808,3211.00
1788.661,3252.00
1789.516,3582.00
1790.370,3229.00
1791.225,3032.00
1792.079,2819.00
1792.933,3948.00
1793.787,3329.00
1794.641,3339.00
1795.495,3189.00
1796.349,3251.00
1797.201,3033.00
1798.055,3015.00
1798.908,3155.00
1799.762,3591.00
1800.615,3403.00
1801.469,3454.00
1802.322,3571.00
1803.175,3031.00
1804.028,2779.00
1804.880,3759.00
1805.732,3380.00
1806.585,3191.00
1807.438,3222.00
1808.291,2703.00
1809.143,2959.00
1809.996,2869.00
1810.846,3974.00
1811.699,3325.00
1812.551,3082.00
1813.403,3358.00
1814.255,3254.00
1815.107,3280.00
1815.959,3838.00
1816.809,3312.00
1817.661,3340.00
1818.512,3176.00
1819.364,3272.00
1820.215,3360.00
1821.067,2984.00
1821.918,3036.00
1822.768,3497.00
1823.619,3444.00
1824.470,3092.00
1825.321,3353.00
1826.172,3168.00
1827.021,3327.00
1827.871,3485.00
1828.722,3289.00
1829.572,3243.00
1830.423,3217.00
1831.273,3047.00
1832.122,3214.00
1832.972,3191.00
1833.822,2890.00
1834.672,3375.00
1835.522,3418.00
1836.370,3009.00
1837.220,3326.00
1838.070,2773.00
1838.919,2558.00
1839.769,3033.00
1840.616,3426.00
1841.466,3369.00
1842.315,2922.00
1843.164,3869.00
1844.013,3027.00
1844.860,2929.00
1845.709,2950.00
1846.558,3509.00
1847.407,2866.00
1848.254,3366.00
1849.102,3283.00
1849.951,2964.00
1850.799,2666.00
1851.648,3081.00
1852.494,3192.00
1853.342,3295.00
1854.190,3529.00
1855.038,3537.00
1855.884,3187.00
1856.732,4104.00
1857.580,3627.00
1858.428,3070.00
1859.273,2926.00
1860.121,3002.00
1860.968,4064.00
1861.816,3583.00
1862.661,3568.00
1863.508,3813.00
1864.355,3489.00
1865.202,3504.00
1866.047,3283.00
1866.894,3576.00
1867.741,3734.00
1868.586,3366.00
1869.432,3317.00
1870.279,3150.00
1871.125,3065.00
1871.970,3872.00
1872.816,3272.00
1873.662,2770.00
1874.506,3364.00
1875.352,3506.00
1876.198,3644.00
1877.044,3852.00
1877.888,3165.00
1878.734,3292.00
1879.579,3049.00
1880.423,2876.00
1881.268,3153.00
1882.113,3510.00
1882.959,3180.00
1883.802,3014.00
1884.647,3608.00
1885.492,3302.00
1886.335,3189.00
1887.180,3064.00
1888.025,3269.00
1888.867,2984.00
1889.712,3369.00
1890.556,3015.00
1891.399,3489.00
1892.243,3535.00
1893.087,3104.00
1893.930,3346.00
1894.774,3386.00
1895.618,3527.00
1896.460,2863.00
1897.304,3161.00
1898.147,3136.00
1898.989,2909.00
1899.833,3414.00
1900.676,3034.00
1901.518,3522.00
1902.361,3552.00
1903.202,3083.00
1904.046,3037.00
1904.889,3157.00
1905.730,3140.00
1906.573,2876.00
1907.415,3327.00
1908.256,3715.00
1909.099,3362.00
1909.941,3384.00
1910.782,3393.00
1911.624,3078.00
1912.465,3454.00
1913.307,3289.00
1914.149,2997.00
1914.989,3539.00
1915.831,3120.00
1916.671,3629.00
1917.513,3163.00
1918.355,3334.00
1919.195,3434.00
1920.036,3325.00
1920.876,3235.00
1921.717,3379.00
1922.558,3224.00
1923.398,3268.00
1924.239,3219.00
1925.078,3582.00
1925.919,2930.00
1926.760,3336.00
1927.599,3133.00
1928.440,3438.00
1929.279,3312.00
1930.119,3680.00
1930.958,3077.00
1931.798,3270.00
1932.638,3145.00
1933.477,3212.00
1934.317,3036.00
1935.155,3119.00
1935.995,3372.00
1936.833,3051.00
1937.673,3001.00
1938.512,3672.00
1939.350,2830.00
1940.190,3180.00
1941.027,3166.00
1941.867,3126.00
1942.704,3236.00
1943.543,3209.00
1944.381,3397.00
1945.220,3576.00
1946.057,3300.00
1946.896,3588.00
1947.733,3283.00
1948.572,2986.00
1949.408,3637.00
1950.247,3328.00
1951.085,3369.00
1951.922,3603.00
1952.760,2997.00
1953.597,3651.00
1954.435,2636.00
1955.271,3406.00
1956.109,3127.00
1956.945,2811.00
1957.783,3446.00
1958.619,3065.00
1959.456,3236.00
1960.292,3299.00
1961.129,3546.00
1961.965,3777.00
1962.802,3010.00
1963.638,3017.00
1964.475,3291.00
1965.310,3304.00
1966.145,3282.00
1966.982,3084.00
1967.817,2959.00
1968.654,3230.00
1969.489,2997.00
1970.325,3269.00
1971.160,3001.00
1971.996,3403.00
1972.831,3441.00
1973.667,3143.00
1974.501,3619.00
1975.337,3514.00
1976.171,3146.00
1977.006,3491.00
1977.841,3142.00
1978.675,3479.00
1979.511,3849.00
1980.345,2989.00
1981.180,3451.00
1982.014,3244.00
1982.849,2919.00
1983.682,3078.00
1984.516,3090.00
1985.351,2835.00
1986.184,2705.00
1987.019,2731.00
1987.852,2548.00
1988.687,2769.00
1989.519,2978.00
1990.352,3258.00
1991.187,2719.00
1992.019,3012.00
1992.854,3430.00
1993.686,2937.00
1994.518,3064.00
1995.352,2578.00
1996.185,2316.00
1997.019,2909.00
1997.851,2698.00
1998.682,2785.00
1999.516,2753.00
2000.348,2504.00
