RamanScope Measure Spectrum Data V3.72

<< MEASURE CONDITION >>
Exposure Type,Aver
Exposure Time [sec],20
Exposure Count,2
Measure Time,2024/02/15 21:26:58
Data Name,""
Data Comment,""
Rayleigh Wave[nm],532.0

<< SAMPLE SPECTRUM >>
Wave[dcm-1],No50
96.716,18.00
97.759,18.00
98.802,-3.50
99.846,31.00
100.886,48.00
101.929,9.00
102.972,-3.00
104.015,-3.00
105.057,-6.00
106.100,-23.50
107.142,31.50
108.184,0.00
109.226,-16.00
110.268,-4.50
111.310,13.50
112.352,35.00
113.393,6.00
114.435,45.50
115.476,18.50
116.517,-4.50
117.558,19.00
118.599,-1.50
119.640,-26.50
120.681,64.50
121.722,13.00
122.762,-3.50
123.803,47.50
124.843,-66.50
125.883,6.50
126.923,12.50
127.963,20.50
129.001,-0.50
130.041,56.50
131.080,65.50
132.120,22.00
133.159,-3.00
134.199,62.50
135.238,12.00
136.277,56.50
137.316,15.00
138.355,-9.00
139.393,3.50
140.432,44.50
141.470,-14.50
142.509,21.00
143.547,55.50
144.585,118.00
145.623,107.50
146.661,128.00
147.699,169.00
148.736,257.00
149.774,298.50
150.811,379.50
151.849,461.50
152.886,602.00
153.923,744.00
154.960,880.00
155.997,1142.50
157.034,1326.50
158.072,1554.00
159.109,1709.50
160.145,2050.00
161.182,2322.00
162.218,2496.00
163.254,2667.00
164.290,2891.00
165.326,3044.50
166.361,3207.50
167.397,3336.50
168.432,3364.50
169.468,3544.00
170.503,3685.50
171.538,3667.00
172.573,3664.00
173.608,3745.50
174.643,3836.00
175.677,3887.50
176.712,3986.00
177.746,4005.50
178.781,4109.50
179.815,4176.00
180.849,4239.50
181.883,4371.00
182.917,4355.50
183.951,4378.50
184.984,4384.50
186.020,4487.50
187.053,4578.50
188.087,4621.50
189.120,4466.50
190.153,4565.50
191.186,4597.00
192.219,4513.00
193.251,4455.00
194.284,4471.50
195.317,4403.00
196.349,4554.50
197.381,4420.50
198.413,4555.00
199.445,4572.00
200.477,4464.50
201.509,4617.50
202.543,4590.00
203.575,4548.00
204.606,4581.00
205.637,4716.00
206.669,4696.50
207.700,4720.00
208.731,4757.50
209.762,4882.00
210.792,4835.50
211.823,4872.00
212.854,4924.50
213.884,4918.00
214.914,4884.50
215.947,4983.00
216.977,5043.00
218.007,4975.50
219.037,5112.00
220.066,5096.50
221.096,5184.50
222.126,5144.50
223.155,5116.00
224.184,5210.50
225.214,5169.50
226.245,5194.50
227.274,5203.00
228.302,5166.50
229.331,5123.50
230.360,5162.00
231.388,5204.50
232.417,5122.00
233.445,5154.00
234.473,5068.00
235.501,5026.00
236.531,5037.50
237.559,4986.00
238.587,4953.50
239.614,4959.50
240.642,4925.50
241.669,4922.50
242.696,4904.50
243.724,4891.00
244.753,4882.50
245.780,4865.00
246.806,4916.50
247.833,4878.00
248.860,4911.00
249.886,4826.00
250.913,4805.50
251.939,4864.50
252.967,4763.00
253.993,4832.00
255.019,4829.00
256.045,4811.00
257.070,4913.50
258.096,4953.00
259.121,4909.00
260.147,4882.50
261.174,4895.00
262.199,4823.50
263.224,4857.50
264.249,4952.50
265.274,4897.00
266.298,4999.00
267.323,4998.00
268.349,4980.50
269.374,5000.00
270.398,5056.50
271.422,5078.50
272.446,4988.50
273.470,5094.50
274.496,5098.50
275.519,5054.50
276.543,5054.00
277.566,5049.00
278.589,5067.50
279.613,5130.00
280.636,5100.00
281.661,5119.50
282.684,5191.50
283.706,5111.00
284.729,5171.50
285.751,5082.00
286.774,5080.00
287.798,5067.00
288.820,5132.50
289.842,5054.50
290.864,5070.00
291.886,5000.50
292.910,5026.50
293.932,5026.50
294.953,5004.50
295.974,4932.00
296.996,5021.00
298.017,4931.00
299.040,4878.50
300.061,4880.50
301.082,4720.50
302.102,4769.50
303.123,4740.50
304.143,4740.00
305.166,4809.50
306.186,4759.50
307.206,4754.50
308.226,4738.00
309.246,4740.50
310.268,4635.00
311.288,4652.00
312.307,4638.50
313.327,4596.00
314.346,4577.50
315.368,4526.00
316.387,4478.00
317.406,4559.00
318.425,4562.50
319.443,4559.50
320.464,4561.50
321.483,4480.50
322.501,4589.50
323.520,4453.50
324.538,4448.00
325.558,4458.00
326.576,4498.00
327.594,4483.50
328.612,4535.50
329.629,4584.00
330.649,4530.00
331.666,4516.00
332.684,4558.50
333.701,4500.00
334.718,4480.50
335.737,4505.50
336.754,4452.00
337.771,4454.00
338.787,4486.50
339.806,4496.50
340.823,4510.00
341.839,4449.50
342.855,4523.50
343.871,4472.50
344.889,4444.00
345.905,4427.00
346.921,4454.00
347.937,4491.50
348.954,4367.50
349.970,4444.00
350.985,4404.50
352.000,4402.50
353.017,4419.50
354.032,4525.00
355.047,4434.50
356.062,4503.50
357.077,4461.00
358.093,4386.00
359.108,4391.50
360.122,4477.50
361.136,4335.50
362.152,4404.50
363.166,4381.50
364.180,4374.00
365.194,4438.00
366.210,4415.50
367.223,4446.50
368.237,4435.50
369.250,4373.00
370.265,4520.50
371.278,4479.50
372.291,4421.00
373.304,4465.00
374.319,4382.00
375.332,4439.00
376.344,4437.50
377.357,4396.50
378.371,4306.50
379.383,4436.50
380.395,4380.00
381.407,4381.00
382.421,4385.50
383.433,4460.00
384.445,4436.50
385.456,4486.00
386.470,4433.50
387.481,4515.00
388.492,4433.50
389.505,4406.50
390.516,4473.00
391.527,4424.00
392.538,4398.00
393.551,4455.50
394.561,4359.00
395.572,4398.50
396.582,4396.00
397.594,4426.00
398.604,4419.50
399.614,4336.00
400.624,4345.00
401.636,4353.00
402.646,4370.50
403.655,4379.50
404.667,4340.50
405.676,4396.50
406.685,4296.50
407.694,4356.00
408.705,4292.50
409.714,4278.00
410.723,4342.00
411.734,4337.00
412.742,4321.00
413.751,4296.50
414.759,4265.50
415.769,4226.00
416.777,4270.50
417.785,4235.50
418.795,4231.50
419.803,4205.50
420.811,4233.00
421.818,4251.50
422.828,4227.50
423.835,4232.50
424.842,4149.50
425.852,4244.50
426.859,4228.50
427.866,4176.00
428.874,4197.00
429.881,4135.00
430.888,4149.50
431.894,4193.50
432.902,4225.00
433.909,4208.00
434.915,4167.50
435.923,4135.00
436.929,4129.00
437.935,4173.50
438.942,4160.50
439.948,4081.50
440.953,4125.50
441.959,4109.00
442.966,4127.00
443.971,4151.00
444.976,4105.50
445.983,4100.00
446.988,4051.50
447.993,4089.00
448.999,4067.50
450.004,4077.00
451.008,4118.50
452.014,4113.00
453.019,4093.00
454.023,4081.50
455.029,4080.00
456.032,4034.50
457.036,4019.00
458.042,4031.00
459.045,4037.50
460.049,4033.50
461.052,4030.00
462.057,4109.50
463.060,4062.00
464.063,3992.50
465.068,4075.00
466.071,4001.50
467.073,4042.50
468.078,4056.00
469.080,3983.50
470.082,3996.00
471.087,4018.00
472.089,4025.00
473.091,3981.00
474.095,4050.50
475.096,3972.00
476.098,3953.50
477.101,3947.50
478.103,3973.00
479.104,4064.00
480.107,4014.50
481.108,3961.50
482.109,4001.00
483.112,3894.50
484.113,3849.00
485.114,3927.50
486.116,3968.50
487.117,3917.50
488.117,3959.50
489.119,3963.00
490.119,3927.50
491.121,3913.00
492.121,3894.50
493.121,3885.50
494.123,3877.50
495.122,3863.50
496.122,3842.50
497.123,3909.50
498.122,3908.50
499.121,3913.00
500.122,3835.50
501.121,3850.00
502.120,3783.50
503.121,3776.50
504.119,3754.00
505.118,3797.00
506.118,3771.00
507.117,3823.00
508.115,3761.50
509.115,3696.00
510.113,3736.50
511.112,3697.00
512.110,3744.50
513.108,3765.00
514.107,3668.00
515.105,3727.00
516.102,3720.00
517.101,3649.50
518.098,3632.50
519.095,3578.50
520.094,3640.00
521.091,3617.00
522.089,3609.00
523.086,3592.50
524.082,3638.00
525.081,3610.50
526.077,3607.50
527.073,3591.50
528.071,3608.00
529.067,3532.50
530.064,3576.50
531.060,3617.00
532.056,3553.50
533.053,3572.00
534.048,3559.00
535.044,3459.00
536.041,3483.00
537.036,3434.50
538.030,3534.00
539.027,3543.00
540.022,3553.50
541.019,3534.00
542.013,3486.50
543.007,3494.00
544.004,3411.50
544.998,3450.50
545.994,3495.00
546.988,3510.50
547.981,3482.00
548.977,3439.00
549.971,3425.00
550.964,3413.50
551.960,3416.50
552.953,3387.00
553.948,3372.00
554.941,3338.00
555.934,3426.00
556.929,3386.50
557.922,3452.00
558.916,3397.00
559.909,3353.50
560.901,3381.00
561.895,3321.50
562.888,3353.50
563.880,3284.00
564.874,3298.00
565.865,3338.50
566.859,3256.50
567.851,3200.00
568.842,3260.00
569.836,3218.00
570.827,3207.00
571.820,3237.50
572.811,3238.00
573.802,3206.00
574.795,3205.50
575.786,3191.50
576.779,3185.50
577.769,3141.50
578.760,3186.50
579.752,3141.50
580.742,3148.50
581.735,3119.00
582.725,3126.50
583.714,3089.50
584.706,3127.50
585.696,3075.50
586.688,3140.00
587.677,3081.00
588.667,3131.50
589.658,3054.00
590.647,3052.50
591.638,3034.00
592.627,2964.00
593.616,3063.50
594.607,3036.00
595.595,3039.00
596.586,2998.00
597.574,2998.00
598.562,2955.00
599.553,3023.50
600.541,2988.50
601.531,2917.50
602.519,2947.00
603.508,2946.00
604.496,2905.00
605.484,2922.50
606.473,2899.00
607.460,2840.50
608.450,2872.00
609.437,2911.50
610.424,2874.00
611.413,2908.00
612.400,2863.50
613.388,2762.50
614.375,2746.00
615.361,2816.00
616.350,2815.50
617.336,2768.00
618.324,2754.50
619.310,2746.50
620.298,2719.00
621.284,2710.50
622.270,2737.50
623.257,2756.00
624.243,2765.00
625.230,2730.00
626.216,2736.50
627.203,2734.00
628.188,2736.00
629.173,2654.50
630.160,2713.50
631.145,2623.00
632.131,2679.00
633.116,2628.50
634.102,2586.50
635.087,2639.00
636.071,2637.50
637.057,2606.00
638.041,2649.50
639.027,2632.50
640.011,2586.00
640.995,2591.00
641.980,2604.50
642.964,2626.50
643.949,2512.50
644.932,2569.50
645.918,2572.00
646.901,2545.00
647.886,2524.50
648.868,2495.00
649.851,2547.00
650.836,2515.00
651.818,2527.00
652.803,2451.00
653.785,2472.50
654.769,2481.50
655.751,2502.00
656.733,2480.50
657.717,2493.00
658.699,2474.50
659.683,2405.50
660.664,2390.50
661.648,2427.50
662.629,2467.00
663.611,2431.00
664.594,2447.50
665.575,2406.00
666.558,2416.50
667.539,2450.00
668.521,2438.50
669.502,2386.00
670.484,2386.00
671.465,2341.50
672.445,2317.50
673.427,2347.00
674.407,2381.50
675.390,2329.50
676.369,2332.00
677.351,2376.50
678.331,2332.00
679.312,2325.50
680.292,2302.50
681.271,2263.50
682.253,2242.50
683.232,2295.00
684.213,2349.00
685.192,2293.00
686.172,2297.50
687.151,2226.00
688.132,2308.00
689.110,2267.00
690.089,2312.00
691.069,2222.50
692.047,2261.00
693.027,2228.50
694.005,2263.50
694.985,2217.00
695.963,2219.00
696.943,2278.00
697.920,2210.00
698.898,2188.50
699.877,2275.50
700.854,2276.00
701.833,2248.00
702.810,2162.50
703.789,2197.50
704.766,2196.50
705.745,2221.00
706.721,2169.00
707.698,2176.50
708.676,2202.00
709.653,2144.00
710.631,2137.00
711.607,2154.00
712.585,2144.00
713.561,2210.00
714.539,2150.00
715.514,2129.50
716.492,2151.00
717.467,2107.50
718.443,2150.00
719.420,2082.00
720.395,2058.50
721.372,2098.00
722.347,2084.00
723.324,2132.00
724.298,2053.50
725.275,2104.00
726.250,2118.00
727.226,2018.00
728.200,2031.50
729.176,2042.50
730.151,2105.00
731.125,2062.50
732.100,2043.00
733.074,2069.00
734.050,1999.50
735.023,2006.00
735.999,2087.00
736.972,2094.50
737.947,2006.00
738.921,1977.00
739.896,1993.00
740.869,2031.00
741.841,1994.50
742.816,2049.00
743.789,1979.00
744.763,2076.00
745.736,2059.00
746.710,2033.00
747.682,2006.00
748.656,2028.50
749.628,2015.00
750.602,2020.00
751.574,1967.50
752.548,1983.50
753.519,2014.50
754.491,1965.50
755.464,1972.00
756.435,1996.50
757.408,1978.50
758.379,1940.50
759.352,1999.50
760.323,1946.50
761.296,2012.00
762.267,1911.50
763.239,1983.50
764.209,1929.00
765.182,1895.50
766.152,1949.00
767.124,1938.00
768.094,1941.50
769.064,1971.00
770.036,1903.00
771.005,1915.50
771.977,1873.00
772.947,1919.50
773.918,1813.50
774.887,1841.00
775.858,1889.00
776.827,1865.00
777.798,1921.50
778.767,1859.50
779.738,1839.00
780.707,1880.00
781.677,1864.00
782.646,1853.50
783.614,1882.50
784.584,1859.50
785.552,1815.50
786.522,1876.00
787.490,1799.00
788.460,1830.50
789.428,1890.50
790.397,1854.00
791.365,1846.50
792.334,1799.00
793.302,1809.00
794.271,1821.50
795.238,1840.50
796.207,1816.00
797.174,1789.00
798.143,1776.00
799.109,1757.00
800.076,1754.00
801.044,1797.00
802.011,1757.50
802.979,1831.50
803.945,1788.00
804.913,1824.50
805.879,1690.50
806.847,1793.50
807.813,1729.00
808.780,1797.00
809.746,1732.00
810.713,1725.00
811.678,1680.00
812.646,1680.50
813.611,1731.50
814.578,1748.00
815.543,1724.00
816.510,1640.50
817.474,1689.00
818.439,1695.50
819.405,1713.00
820.370,1671.00
821.336,1693.50
822.300,1719.00
823.266,1670.00
824.230,1715.50
825.196,1692.00
826.160,1714.50
827.126,1677.00
828.089,1692.00
829.055,1630.00
830.018,1716.50
830.983,1697.50
831.946,1645.00
832.911,1687.50
833.874,1659.50
834.837,1764.00
835.802,1730.50
836.765,1673.00
837.729,1650.50
838.691,1628.50
839.656,1727.00
840.618,1627.00
841.582,1700.50
842.544,1754.50
843.508,1648.00
844.470,1707.50
845.434,1710.00
846.395,1747.00
847.359,1716.50
848.320,1678.50
849.283,1661.00
850.245,1671.00
851.208,1710.50
852.169,1691.00
853.130,1677.00
854.092,1681.00
855.053,1726.50
856.016,1728.00
856.976,1733.50
857.938,1721.00
858.899,1692.00
859.861,1679.00
860.821,1696.00
861.783,1703.50
862.743,1695.50
863.704,1679.00
864.664,1717.50
865.626,1706.00
866.585,1705.50
867.546,1671.50
868.506,1764.50
869.467,1756.50
870.426,1752.50
871.387,1748.00
872.346,1683.00
873.304,1763.50
874.265,1737.00
875.223,1766.50
876.184,1762.50
877.142,1818.00
878.102,1832.50
879.060,1851.00
880.021,1778.00
880.978,1865.00
881.938,1826.00
882.896,1808.00
883.856,1850.00
884.813,1798.00
885.772,1832.50
886.730,1779.50
887.689,1809.00
888.646,1841.00
889.603,1890.50
890.562,1873.50
891.519,1914.50
892.477,1897.00
893.434,1893.00
894.392,1866.00
895.349,1869.00
896.307,1906.00
897.263,1919.50
898.221,1940.00
899.177,1893.50
900.135,1955.00
901.091,1858.00
902.048,1879.00
903.004,1956.00
903.961,1892.00
904.917,1954.00
905.874,1918.00
906.829,1932.00
907.784,1996.00
908.741,1998.00
909.696,1955.50
910.653,1991.50
911.607,1991.00
912.564,1974.50
913.518,2006.00
914.475,1998.50
915.429,1971.00
916.385,1999.00
917.339,1979.50
918.295,2027.00
919.249,2040.00
920.205,2052.50
921.158,2019.50
922.114,2022.00
923.067,2056.00
924.020,2058.50
924.976,2054.00
925.929,2075.00
926.884,2083.50
927.837,2066.00
928.791,2023.00
929.744,2077.50
930.699,2046.00
931.651,2075.00
932.606,2058.50
933.558,2091.50
934.512,2083.50
935.464,2025.50
936.418,2111.00
937.370,2110.50
938.322,2134.00
939.276,2106.00
940.227,2193.50
941.181,2142.50
942.132,2139.00
943.085,2092.50
944.036,2154.00
944.990,2094.50
945.941,2115.50
946.893,2126.00
947.844,2108.00
948.797,2134.50
949.747,2093.00
950.700,2125.50
951.650,2117.50
952.601,2106.00
953.553,2100.00
954.503,2125.50
955.455,2153.00
956.405,2064.50
957.356,2139.00
958.306,2060.50
959.258,2125.00
960.207,2060.00
961.158,2057.00
962.108,2097.00
963.059,2066.00
964.008,2089.50
964.959,1972.50
965.908,2087.00
966.856,2001.00
967.807,2090.50
968.756,1999.50
969.706,2052.50
970.654,2069.50
971.605,2085.50
972.553,2053.00
973.503,1942.50
974.451,1951.00
975.401,1999.50
976.348,1987.50
977.296,1993.00
978.246,1973.00
979.193,1968.50
980.142,1980.50
981.090,1968.00
982.039,1947.00
982.986,1991.50
983.935,1984.00
984.882,2002.00
985.830,1929.50
986.777,1932.00
987.725,1913.50
988.672,1880.00
989.618,1909.00
990.567,1950.50
991.513,1905.50
992.461,1951.50
993.407,1867.00
994.354,1898.00
995.300,1881.00
996.248,1844.00
997.193,1820.50
998.141,1864.00
999.086,1877.50
1000.031,1858.00
1000.978,1791.00
1001.924,1879.50
1002.870,1807.50
1003.815,1856.50
1004.762,1807.50
1005.707,1799.50
1006.653,1808.00
1007.598,1752.50
1008.542,1755.50
1009.488,1816.50
1010.432,1749.50
1011.378,1721.00
1012.322,1763.50
1013.268,1763.50
1014.212,1744.50
1015.157,1802.00
1016.101,1729.00
1017.046,1750.50
1017.990,1712.00
1018.933,1696.00
1019.878,1734.50
1020.821,1706.50
1021.766,1688.00
1022.709,1689.00
1023.654,1685.50
1024.596,1739.00
1025.541,1694.50
1026.483,1715.00
1027.425,1672.50
1028.370,1595.00
1029.312,1703.50
1030.256,1637.50
1031.198,1733.50
1032.141,1669.00
1033.083,1650.00
1034.027,1601.00
1034.968,1636.00
1035.910,1638.50
1036.853,1667.50
1037.794,1630.50
1038.738,1614.50
1039.679,1601.50
1040.621,1565.00
1041.562,1564.50
1042.503,1673.50
1043.446,1542.50
1044.386,1569.00
1045.329,1631.50
1046.269,1597.50
1047.211,1595.50
1048.151,1609.50
1049.093,1573.00
1050.033,1611.50
1050.973,1593.00
1051.915,1568.00
1052.854,1587.00
1053.796,1590.50
1054.735,1571.50
1055.677,1552.00
1056.616,1611.50
1057.555,1547.50
1058.496,1568.00
1059.435,1563.00
1060.376,1532.00
1061.315,1538.50
1062.255,1561.50
1063.194,1545.50
1064.132,1508.50
1065.073,1549.00
1066.011,1522.00
1066.951,1519.00
1067.889,1556.00
1068.829,1503.50
1069.767,1485.50
1070.705,1530.50
1071.644,1525.00
1072.582,1540.50
1073.521,1559.00
1074.459,1530.00
1075.398,1532.50
1076.335,1518.00
1077.272,1453.50
1078.211,1497.00
1079.148,1506.00
1080.087,1524.00
1081.023,1486.50
1081.962,1562.00
1082.898,1519.00
1083.835,1524.50
1084.773,1497.50
1085.709,1528.50
1086.647,1498.00
1087.583,1433.00
1088.519,1451.50
1089.457,1518.00
1090.392,1510.00
1091.330,1458.50
1092.266,1506.50
1093.203,1484.50
1094.138,1519.00
1095.073,1542.50
1096.010,1429.00
1096.945,1504.00
1097.882,1481.50
1098.817,1428.50
1099.752,1504.00
1100.688,1450.00
1101.623,1479.50
1102.559,1444.00
1103.493,1454.00
1104.430,1447.00
1105.364,1504.00
1106.298,1461.00
1107.234,1461.50
1108.167,1429.50
1109.094,1419.50
1110.019,1454.50
1110.945,1370.50
1111.869,1416.00
1112.795,1423.50
1113.720,1421.50
1114.646,1434.50
1115.571,1393.00
1116.495,1413.00
1117.420,1394.50
1118.345,1431.50
1119.270,1402.00
1120.195,1393.50
1121.118,1445.00
1122.042,1369.50
1122.967,1353.50
1123.891,1329.00
1124.816,1383.00
1125.738,1388.50
1126.663,1361.00
1127.587,1370.00
1128.511,1320.50
1129.435,1404.00
1130.357,1332.50
1131.280,1378.00
1132.204,1326.50
1133.128,1346.00
1134.051,1311.50
1134.972,1274.50
1135.896,1377.50
1136.819,1354.00
1137.742,1392.00
1138.665,1350.50
1139.586,1375.00
1140.509,1352.50
1141.431,1316.00
1142.354,1285.00
1143.276,1326.00
1144.197,1269.00
1145.119,1297.50
1146.041,1356.50
1146.964,1312.00
1147.885,1323.50
1148.806,1272.00
1149.727,1279.00
1150.649,1324.50
1151.571,1286.50
1152.492,1247.00
1153.412,1291.00
1154.333,1271.50
1155.254,1258.50
1156.175,1279.00
1157.095,1279.00
1158.016,1233.00
1158.936,1253.50
1159.857,1269.00
1160.778,1255.00
1161.697,1240.00
1162.617,1248.00
1163.537,1268.50
1164.458,1280.00
1165.376,1269.00
1166.296,1291.50
1167.216,1279.00
1168.136,1268.50
1169.056,1257.00
1169.974,1181.00
1170.893,1276.00
1171.813,1239.00
1172.732,1206.00
1173.650,1227.50
1174.569,1333.50
1175.488,1285.00
1176.407,1295.50
1177.326,1227.00
1178.243,1267.50
1179.161,1243.50
1180.080,1246.00
1180.999,1165.50
1181.915,1228.00
1182.834,1237.00
1183.752,1219.50
1184.670,1228.00
1185.586,1211.00
1186.504,1168.00
1187.422,1206.00
1188.340,1236.00
1189.258,1186.50
1190.173,1185.00
1191.091,1200.50
1192.008,1233.50
1192.926,1194.00
1193.841,1173.50
1194.758,1194.50
1195.675,1194.00
1196.592,1194.00
1197.507,1166.00
1198.424,1195.00
1199.340,1177.50
1200.257,1171.00
1201.172,1197.50
1202.088,1181.00
1203.004,1173.00
1203.920,1182.00
1204.835,1227.00
1205.750,1180.00
1206.666,1221.50
1207.582,1177.00
1208.496,1145.00
1209.412,1178.50
1210.327,1187.00
1211.243,1185.00
1212.156,1214.00
1213.071,1186.00
1213.986,1134.50
1214.901,1177.50
1215.814,1150.00
1216.729,1185.00
1217.644,1181.00
1218.559,1158.00
1219.471,1151.00
1220.386,1157.00
1221.300,1197.00
1222.213,1202.50
1223.127,1184.00
1224.041,1126.50
1224.955,1168.50
1225.867,1205.00
1226.781,1196.50
1227.694,1226.50
1228.608,1171.00
1229.520,1194.00
1230.433,1241.50
1231.346,1172.00
1232.260,1177.50
1233.171,1153.50
1234.084,1173.00
1234.997,1183.50
1235.908,1195.50
1236.821,1149.50
1237.733,1137.00
1238.646,1159.50
1239.556,1166.50
1240.469,1148.00
1241.381,1160.50
1242.293,1183.50
1243.203,1143.00
1244.115,1201.50
1245.027,1118.00
1245.937,1145.00
1246.849,1186.00
1247.761,1151.50
1248.672,1216.00
1249.582,1157.50
1250.493,1095.00
1251.404,1169.00
1252.313,1148.50
1253.225,1160.50
1254.135,1131.00
1255.046,1150.00
1255.955,1174.00
1256.866,1118.00
1257.777,1178.50
1258.685,1202.50
1259.596,1198.50
1260.506,1152.50
1261.416,1178.00
1262.324,1201.00
1263.234,1139.50
1264.144,1125.50
1265.052,1165.50
1265.962,1152.50
1266.872,1225.00
1267.779,1168.50
1268.689,1154.50
1269.598,1153.00
1270.507,1148.00
1271.415,1190.50
1272.324,1250.50
1273.233,1181.00
1274.140,1243.50
1275.048,1129.00
1275.957,1170.50
1276.864,1215.50
1277.772,1159.00
1278.681,1183.50
1279.587,1134.50
1280.496,1127.50
1281.404,1167.00
1282.312,1188.00
1283.218,1186.00
1284.126,1229.00
1285.033,1133.00
1285.939,1184.50
1286.847,1147.50
1287.754,1137.50
1288.660,1155.00
1289.567,1163.50
1290.474,1153.00
1291.380,1170.50
1292.286,1140.50
1293.193,1135.00
1294.098,1113.00
1295.005,1141.00
1295.912,1162.00
1296.816,1135.50
1297.723,1174.00
1298.629,1132.50
1299.534,1150.00
1300.440,1125.00
1301.346,1158.00
1302.250,1140.50
1303.156,1144.50
1304.062,1125.00
1304.966,1122.50
1305.871,1085.50
1306.777,1148.00
1307.680,1124.50
1308.586,1127.00
1309.491,1089.50
1310.394,1125.00
1311.299,1090.00
1312.204,1161.00
1313.107,1144.00
1314.012,1223.50
1314.917,1114.50
1315.819,1151.00
1316.724,1147.50
1317.628,1116.50
1318.531,1137.00
1319.435,1062.00
1320.339,1160.50
1321.241,1140.50
1322.145,1134.00
1323.049,1109.50
1323.951,1193.50
1324.854,1146.50
1325.756,1169.00
1326.659,1113.50
1327.563,1132.00
1328.464,1154.50
1329.367,1163.50
1330.271,1122.50
1331.172,1137.50
1332.074,1110.00
1332.977,1119.50
1333.878,1088.50
1334.781,1103.00
1335.683,1113.50
1336.584,1094.00
1337.486,1150.50
1338.387,1121.50
1339.289,1072.50
1340.191,1156.00
1341.091,1121.50
1341.993,1076.50
1342.895,1138.50
1343.794,1088.00
1344.696,1134.50
1345.596,1069.00
1346.497,1038.50
1347.398,1098.00
1348.298,1154.00
1349.199,1061.00
1350.100,1072.00
1350.999,1050.50
1351.900,1106.50
1352.799,1072.50
1353.699,1081.00
1354.600,1014.50
1355.499,1071.00
1356.399,1105.50
1357.297,1066.50
1358.198,1064.50
1359.098,1038.50
1359.996,1060.00
1360.896,1072.00
1361.796,1118.00
1362.694,1062.00
1363.593,1058.50
1364.491,1072.50
1365.391,1004.50
1366.290,1065.50
1367.187,1058.00
1368.086,1119.50
1368.984,1098.00
1369.883,1052.00
1370.782,1017.50
1371.679,1079.00
1372.577,1032.00
1373.474,1078.00
1374.373,1040.50
1375.269,1032.50
1376.168,1025.00
1377.066,1031.00
1377.962,1013.50
1378.860,1049.50
1379.756,1028.50
1380.654,1023.00
1381.552,997.00
1382.448,1004.50
1383.346,1007.00
1384.241,1065.00
1385.139,1038.50
1386.036,1088.50
1386.931,1093.50
1387.829,1041.00
1388.724,1037.00
1389.621,1045.50
1390.516,1043.50
1391.413,1047.00
1392.309,1039.50
1393.204,1075.00
1394.101,1012.00
1394.995,1005.50
1395.891,1019.00
1396.786,1040.50
1397.682,1032.00
1398.578,992.00
1399.472,976.50
1400.368,1036.50
1401.262,1012.50
1402.158,1002.00
1403.051,985.50
1403.947,1005.50
1404.840,956.50
1405.736,959.50
1406.631,1028.50
1407.524,988.00
1408.419,997.00
1409.312,1010.00
1410.207,1013.00
1411.100,992.00
1411.995,1028.50
1412.888,979.50
1413.782,997.00
1414.675,960.00
1415.569,1053.50
1416.463,1037.00
1417.355,974.50
1418.249,994.50
1419.141,966.50
1420.035,971.50
1420.927,1005.50
1421.821,1042.00
1422.713,977.00
1423.606,977.00
1424.498,994.00
1425.391,1014.50
1426.282,938.50
1427.175,954.50
1428.068,1018.00
1428.960,1032.00
1429.852,1008.50
1430.743,1037.00
1431.636,968.00
1432.527,1002.50
1433.419,981.00
1434.310,967.50
1435.202,981.00
1436.092,990.00
1436.984,970.50
1437.875,962.50
1438.767,971.00
1439.657,970.00
1440.548,974.00
1441.438,984.50
1442.330,963.50
1443.219,993.50
1444.111,938.50
1445.000,964.50
1445.891,940.50
1446.781,948.50
1447.672,1002.00
1448.561,966.00
1449.452,991.00
1450.340,980.00
1451.231,998.00
1452.120,980.50
1453.010,951.00
1453.899,988.00
1454.789,896.00
1455.677,1014.00
1456.568,982.50
1457.456,1003.00
1458.346,982.00
1459.234,982.00
1460.123,975.50
1461.011,967.00
1461.901,932.00
1462.788,955.50
1463.678,951.50
1464.565,955.50
1465.454,937.00
1466.342,943.00
1467.231,957.00
1468.118,930.50
1469.006,955.50
1469.893,969.00
1470.782,986.50
1471.669,909.50
1472.557,907.00
1473.444,946.50
1474.330,946.00
1475.218,914.00
1476.105,955.50
1476.993,938.00
1477.879,954.00
1478.767,933.00
1479.652,953.00
1480.540,918.00
1481.426,963.00
1482.313,935.50
1483.199,941.00
1484.086,929.00
1484.972,955.00
1485.857,905.50
1486.744,948.50
1487.629,958.00
1488.516,912.50
1489.401,869.50
1490.287,886.50
1491.172,894.00
1492.058,916.50
1492.943,900.00
1493.828,960.50
1494.714,936.50
1495.598,934.50
1496.484,979.50
1497.368,961.50
1498.254,940.00
1499.138,890.50
1500.022,917.50
1500.907,921.00
1501.791,874.50
1502.676,926.50
1503.560,922.00
1504.445,926.00
1505.328,960.50
1506.211,923.00
1507.096,985.00
1507.979,953.00
1508.864,904.50
1509.747,983.00
1510.631,925.50
1511.514,972.00
1512.397,901.50
1513.281,936.50
1514.163,945.50
1515.047,921.50
1515.930,984.00
1516.812,927.00
1517.696,967.00
1518.578,897.50
1519.461,908.50
1520.343,947.00
1521.225,882.00
1522.108,949.00
1522.990,924.00
1523.873,883.50
1524.754,925.50
1525.635,948.00
1526.518,948.50
1527.399,870.00
1528.282,869.00
1529.163,905.50
1530.044,925.00
1530.926,891.50
1531.807,926.50
1532.689,951.50
1533.569,906.50
1534.450,835.00
1535.332,929.00
1536.212,918.00
1537.092,900.50
1537.974,945.00
1538.854,909.00
1539.735,877.50
1540.615,924.50
1541.495,908.50
1542.376,907.50
1543.255,893.50
1544.135,861.50
1545.016,911.50
1545.895,918.00
1546.774,838.00
1547.655,932.50
1548.534,958.50
1549.414,916.00
1550.293,933.50
1551.172,885.00
1552.052,879.00
1552.930,889.00
1553.809,937.50
1554.689,888.50
1555.567,914.50
1556.445,864.50
1557.325,855.50
1558.203,895.50
1559.080,898.00
1559.960,906.50
1560.838,923.50
1561.715,929.50
1562.594,957.00
1563.472,901.00
1564.349,921.00
1565.228,889.50
1566.105,894.50
1566.982,929.50
1567.861,941.50
1568.738,874.50
1569.615,865.00
1570.493,887.00
1571.370,937.50
1572.246,884.50
1573.124,916.00
1574.000,858.50
1574.877,878.50
1575.755,843.50
1576.631,899.00
1577.507,886.00
1578.384,867.00
1579.260,877.50
1580.136,877.50
1581.011,907.00
1581.889,878.00
1582.764,853.00
1583.639,892.50
1584.516,889.00
1585.391,878.00
1586.266,910.50
1587.143,868.50
1588.018,881.50
1588.893,918.00
1589.768,847.00
1590.644,916.00
1591.519,895.00
1592.393,910.00
1593.269,872.50
1594.143,890.50
1595.018,862.00
1595.892,881.00
1596.767,898.00
1597.641,855.50
1598.515,900.00
1599.391,874.00
1600.264,868.50
1601.138,927.50
1602.011,931.50
1602.886,885.50
1603.760,900.50
1604.633,823.50
1605.508,901.00
1606.381,911.50
1607.254,912.50
1608.127,889.50
1609.001,852.00
1609.874,913.00
1610.746,932.50
1611.619,895.00
1612.493,923.00
1613.365,872.50
1614.238,871.00
1615.110,846.50
1615.984,836.00
1616.855,825.00
1617.727,886.50
1618.599,890.00
1619.473,871.50
1620.344,904.50
1621.216,908.00
1622.087,848.00
1622.960,856.00
1623.832,883.50
1624.703,884.50
1625.574,887.50
1626.445,889.00
1627.317,863.50
1628.188,803.00
1629.059,918.50
1629.930,850.00
1630.802,879.00
1631.672,943.50
1632.543,868.50
1633.413,960.00
1634.283,943.50
1635.155,887.00
1636.025,837.00
1636.895,877.00
1637.765,901.00
1638.636,858.00
1639.506,877.50
1640.376,867.00
1641.245,922.50
1642.114,889.00
1642.985,879.00
1643.855,875.50
1644.724,897.00
1645.593,853.50
1646.462,885.00
1647.333,899.50
1648.201,893.50
1649.070,886.50
1649.939,821.50
1650.807,914.00
1651.676,846.50
1652.546,878.50
1653.414,906.50
1654.282,883.00
1655.150,887.50
1656.018,879.00
1656.888,848.00
1657.756,870.50
1658.623,898.00
1659.491,835.00
1660.359,869.50
1661.226,907.50
1662.095,866.00
1662.962,899.00
1663.830,890.50
1664.697,873.00
1665.564,862.50
1666.431,854.50
1667.297,881.50
1668.166,885.50
1669.033,890.00
1669.899,910.00
1670.766,835.00
1671.632,838.50
1672.499,862.00
1673.367,867.50
1674.233,907.00
1675.099,893.50
1675.965,881.50
1676.831,851.50
1677.696,812.50
1678.562,835.50
1679.430,886.00
1680.295,852.50
1681.161,891.50
1682.026,852.50
1682.891,843.00
1683.756,835.50
1684.621,833.50
1685.486,891.50
1686.353,871.50
1687.218,923.00
1688.083,886.00
1688.947,854.00
1689.812,884.50
1690.677,886.00
1691.541,836.00
1692.405,865.50
1693.269,864.50
1694.135,842.00
1694.999,874.00
1695.863,828.50
1696.727,930.50
1697.591,895.50
1698.455,867.00
1699.318,877.00
1700.182,838.00
1701.045,863.00
1701.909,848.50
1702.772,815.50
1703.637,844.50
1704.500,901.50
1705.363,820.00
1706.226,856.00
1707.089,879.00
1707.951,911.50
1708.814,849.00
1709.677,875.00
1710.539,923.50
1711.402,844.50
1712.264,919.00
1713.126,891.50
1713.988,856.00
1714.852,835.50
1715.714,906.50
1716.576,824.00
1717.438,826.00
1718.299,905.00
1719.161,834.50
1720.023,851.00
1720.884,856.00
1721.745,910.50
1722.607,914.00
1723.468,846.50
1724.329,827.00
1725.190,810.50
1726.051,833.00
1726.912,865.00
1727.772,909.50
1728.633,790.00
1729.494,890.50
1730.354,885.50
1731.214,863.00
1732.075,891.00
1732.935,867.00
1733.797,878.00
1734.657,894.50
1735.517,873.00
1736.377,816.50
1737.237,885.00
1738.096,873.00
1738.956,869.50
1739.816,810.00
1740.675,897.50
1741.534,833.50
1742.394,862.00
1743.253,867.00
1744.112,855.50
1744.971,836.50
1745.830,866.00
1746.689,835.00
1747.547,875.50
1748.406,867.00
1749.265,890.50
1750.123,828.50
1750.982,861.50
1751.840,830.00
1752.698,890.50
1753.556,830.50
1754.414,825.00
1755.272,857.50
1756.130,886.00
1756.988,860.00
1757.846,828.00
1758.703,897.00
1759.559,841.00
1760.417,828.50
1761.274,833.00
1762.131,872.50
1762.989,813.00
1763.846,889.00
1764.703,743.50
1765.560,888.50
1766.417,834.50
1767.273,875.50
1768.130,821.50
1768.987,856.00
1769.843,868.50
1770.700,872.00
1771.556,847.50
1772.412,908.00
1773.268,872.00
1774.125,855.00
1774.980,861.50
1775.836,895.00
1776.692,878.50
1777.546,845.50
1778.402,865.00
1779.257,821.50
1780.113,881.50
1780.968,868.00
1781.824,895.00
1782.679,815.50
1783.534,855.50
1784.389,878.00
1785.244,845.50
1786.099,873.00
1786.954,888.50
1787.808,884.00
1788.661,869.50
1789.516,889.00
1790.370,890.00
1791.225,864.00
1792.079,853.00
1792.933,873.50
1793.787,848.00
1794.641,823.00
1795.495,858.50
1796.349,851.50
1797.201,940.00
1798.055,861.00
1798.908,826.00
1799.762,903.00
1800.615,839.50
1801.469,863.50
1802.322,875.00
1803.175,828.50
1804.028,857.00
1804.880,808.50
1805.732,840.50
1806.585,857.50
1807.438,820.50
1808.291,851.00
1809.143,840.50
1809.996,844.00
1810.846,798.00
1811.699,894.50
1812.551,892.00
1813.403,875.00
1814.255,907.00
1815.107,868.00
1815.959,948.00
1816.809,793.50
1817.661,833.50
1818.512,884.00
1819.364,859.50
1820.215,919.50
1821.067,845.00
1821.918,858.00
1822.768,883.00
1823.619,856.00
1824.470,880.50
1825.321,854.00
1826.172,860.50
1827.021,876.00
1827.871,813.50
1828.722,851.00
1829.572,825.00
1830.423,860.00
1831.273,903.00
1832.122,881.00
1832.972,895.50
1833.822,821.00
1834.672,864.00
1835.522,882.50
1836.370,829.00
1837.220,824.00
1838.070,836.00
1838.919,822.50
1839.769,878.00
1840.616,836.50
1841.466,805.00
1842.315,869.00
1843.164,868.50
1844.013,808.00
1844.860,829.00
1845.709,823.00
1846.558,856.00
1847.407,783.50
1848.254,829.00
1849.102,822.50
1849.951,857.50
1850.799,868.00
1851.648,805.50
1852.494,874.50
1853.342,847.00
1854.190,822.00
1855.038,843.50
1855.884,875.00
1856.732,818.50
1857.580,898.50
1858.428,849.00
1859.273,861.50
1860.121,802.00
1860.968,835.00
1861.816,861.00
1862.661,823.00
1863.508,820.00
1864.355,855.50
1865.202,877.00
1866.047,777.00
1866.894,865.50
1867.741,803.00
1868.586,885.50
1869.432,871.50
1870.279,883.50
1871.125,850.00
1871.970,773.50
1872.816,855.00
1873.662,864.50
1874.506,844.50
1875.352,889.00
1876.198,781.00
1877.044,803.50
1877.888,844.50
1878.734,835.50
1879.579,887.50
1880.423,867.00
1881.268,773.50
1882.113,877.50
1882.959,796.00
1883.802,848.50
1884.647,838.50
1885.492,839.50
1886.335,828.50
1887.180,802.50
1888.025,917.00
1888.867,869.50
1889.712,910.00
1890.556,817.50
1891.399,854.00
1892.243,844.00
1893.087,891.00
1893.930,837.00
1894.774,783.50
1895.618,852.50
1896.460,848.00
1897.304,820.50
1898.147,870.00
1898.989,860.50
1899.833,844.00
1900.676,856.50
1901.518,855.50
1902.361,848.50
1903.202,885.00
1904.046,805.50
1904.889,823.00
1905.730,811.50
1906.573,826.00
1907.415,840.50
1908.256,872.00
1909.099,845.00
1909.941,854.00
1910.782,860.00
1911.624,841.50
1912.465,874.00
1913.307,860.00
1914.149,891.50
1914.989,799.00
1915.831,894.50
1916.671,833.00
1917.513,841.00
1918.355,859.00
1919.195,929.00
1920.036,869.50
1920.876,823.00
1921.717,898.50
1922.558,894.00
1923.398,805.50
1924.239,835.50
1925.078,859.50
1925.919,863.50
1926.760,838.00
1927.599,859.50
1928.440,833.00
1929.279,868.00
1930.119,903.50
1930.958,883.00
1931.798,908.00
1932.638,851.00
1933.477,857.00
1934.317,810.00
1935.155,807.50
1935.995,824.00
1936.833,826.50
1937.673,772.50
1938.512,803.00
1939.350,848.50
1940.190,834.50
1941.027,874.50
1941.867,837.50
1942.704,836.00
1943.543,820.50
1944.381,804.00
1945.220,815.50
1946.057,833.00
1946.896,861.50
1947.733,809.50
1948.572,870.50
1949.408,844.50
1950.247,814.50
1951.085,838.00
1951.922,878.50
1952.760,831.50
1953.597,815.00
1954.435,843.50
1955.271,809.50
1956.109,896.50
1956.945,907.50
1957.783,865.00
1958.619,868.00
1959.456,806.50
1960.292,915.50
1961.129,802.50
1961.965,846.00
1962.802,872.00
1963.638,860.50
1964.475,894.50
1965.310,866.00
1966.145,847.00
1966.982,831.50
1967.817,879.50
1968.654,880.50
1969.489,861.00
1970.325,867.00
1971.160,859.00
1971.996,901.00
1972.831,861.50
1973.667,875.50
1974.501,870.00
1975.337,874.00
1976.171,869.00
1977.006,843.50
1977.841,837.50
1978.675,870.00
1979.511,861.50
1980.345,829.00
1981.180,866.50
1982.014,853.00
1982.849,885.00
1983.682,864.50
1984.516,853.50
1985.351,883.50
1986.184,928.50
1987.019,884.50
1987.852,858.00
1988.687,875.00
1989.519,842.00
1990.352,865.00
1991.187,856.00
1992.019,889.00
1992.854,862.00
1993.686,857.50
1994.518,871.50
1995.352,822.00
1996.185,877.50
1997.019,871.50
1997.851,871.50
1998.682,892.00
1999.516,890.50
2000.348,866.00

<< BACKGROUND SPECTRUM >>
Wave[dcm-1],No50
96.716,2545.00
97.759,2372.00
98.802,2322.00
99.846,2932.00
100.886,2537.00
101.929,2746.00
102.972,2764.00
104.015,2652.00
105.057,2772.00
106.100,2246.00
107.142,2621.00
108.184,3020.00
109.226,2881.00
110.268,3081.00
111.310,3360.00
112.352,2902.00
113.393,3000.00
114.435,2819.00
115.476,3095.00
116.517,3116.00
117.558,2604.00
118.599,2976.00
119.640,3298.00
120.681,3211.00
121.722,3221.00
122.762,2916.00
123.803,2744.00
124.843,3172.00
125.883,3403.00
126.923,3578.00
127.963,3293.00
129.001,3596.00
130.041,3969.00
131.080,3230.00
132.120,3125.00
133.159,3559.00
134.199,3593.00
135.238,3175.00
136.277,3509.00
137.316,3738.00
138.355,3638.00
139.393,3218.00
140.432,3330.00
141.470,3486.00
142.509,3221.00
143.547,3769.00
144.585,2965.00
145.623,3372.00
146.661,3137.00
147.699,3491.00
148.736,3599.00
149.774,3210.00
150.811,3468.00
151.849,3943.00
152.886,3439.00
153.923,3674.00
154.960,3176.00
155.997,3949.00
157.034,4939.00
158.072,3606.00
159.109,4105.00
160.145,4189.00
161.182,3218.00
162.218,3507.00
163.254,3360.00
164.290,3267.00
165.326,4030.00
166.361,3877.00
167.397,3506.00
168.432,3776.00
169.468,3439.00
170.503,3672.00
171.538,3399.00
172.573,3761.00
173.608,3252.00
174.643,3771.00
175.677,3652.00
176.712,3827.00
177.746,3851.00
178.781,3336.00
179.815,2730.00
180.849,3776.00
181.883,3310.00
182.917,2838.00
183.951,3129.00
184.984,3852.00
186.020,3328.00
187.053,3628.00
188.087,3172.00
189.120,3535.00
190.153,3672.00
191.186,3677.00
192.219,3817.00
193.251,3693.00
194.284,3826.00
195.317,3893.00
196.349,10682.00
197.381,3510.00
198.413,3483.00
199.445,3269.00
200.477,3590.00
201.509,3520.00
202.543,3577.00
203.575,3990.00
204.606,3699.00
205.637,5268.00
206.669,3213.00
207.700,3762.00
208.731,3537.00
209.762,3195.00
210.792,3281.00
211.823,3670.00
212.854,3276.00
213.884,4322.00
214.914,3702.00
215.947,3579.00
216.977,3660.00
218.007,3608.00
219.037,3857.00
220.066,3381.00
221.096,3806.00
222.126,3164.00
223.155,3456.00
224.184,3746.00
225.214,3358.00
226.245,3921.00
227.274,3341.00
228.302,3716.00
229.331,3740.00
230.360,3437.00
231.388,3399.00
232.417,3230.00
233.445,3628.00
234.473,3421.00
235.501,3794.00
236.531,3738.00
237.559,3732.00
238.587,3353.00
239.614,3295.00
240.642,3613.00
241.669,3721.00
242.696,3704.00
243.724,3726.00
244.753,4063.00
245.780,3418.00
246.806,3183.00
247.833,3612.00
248.860,3469.00
249.886,3606.00
250.913,3257.00
251.939,3531.00
252.967,3560.00
253.993,3538.00
255.019,3924.00
256.045,3630.00
257.070,4026.00
258.096,3253.00
259.121,3693.00
260.147,3552.00
261.174,3500.00
262.199,3468.00
263.224,3619.00
264.249,3878.00
265.274,4096.00
266.298,3541.00
267.323,3620.00
268.349,3899.00
269.374,3232.00
270.398,3244.00
271.422,3694.00
272.446,3372.00
273.470,3147.00
274.496,3764.00
275.519,3717.00
276.543,3865.00
277.566,3952.00
278.589,3898.00
279.613,3752.00
280.636,3735.00
281.661,3827.00
282.684,3837.00
283.706,3953.00
284.729,4141.00
285.751,3042.00
286.774,4002.00
287.798,3422.00
288.820,2994.00
289.842,3359.00
290.864,3373.00
291.886,3700.00
292.910,3480.00
293.932,4109.00
294.953,3547.00
295.974,3563.00
296.996,3708.00
298.017,3532.00
299.040,3431.00
300.061,3675.00
301.082,3410.00
302.102,3253.00
303.123,3816.00
304.143,3599.00
305.166,3482.00
306.186,3756.00
307.206,3335.00
308.226,3720.00
309.246,3094.00
310.268,3917.00
311.288,3469.00
312.307,3191.00
313.327,3492.00
314.346,3772.00
315.368,3067.00
316.387,3670.00
317.406,3639.00
318.425,3572.00
319.443,3504.00
320.464,3183.00
321.483,4064.00
322.501,3343.00
323.520,4020.00
324.538,3492.00
325.558,4071.00
326.576,3609.00
327.594,3542.00
328.612,3396.00
329.629,3125.00
330.649,3847.00
331.666,3551.00
332.684,3105.00
333.701,3724.00
334.718,3206.00
335.737,3431.00
336.754,3738.00
337.771,3778.00
338.787,3240.00
339.806,3481.00
340.823,3430.00
341.839,3569.00
342.855,3461.00
343.871,3617.00
344.889,3358.00
345.905,3885.00
346.921,3746.00
347.937,4346.00
348.954,4194.00
349.970,3705.00
350.985,3602.00
352.000,3136.00
353.017,3756.00
354.032,3113.00
355.047,3902.00
356.062,3508.00
357.077,3413.00
358.093,4004.00
359.108,3719.00
360.122,3636.00
361.136,3532.00
362.152,3946.00
363.166,3261.00
364.180,3179.00
365.194,4000.00
366.210,3408.00
367.223,3301.00
368.237,3418.00
369.250,3582.00
370.265,3336.00
371.278,3908.00
372.291,3703.00
373.304,2997.00
374.319,3769.00
375.332,3817.00
376.344,4068.00
377.357,3450.00
378.371,3890.00
379.383,3342.00
380.395,4375.00
381.407,4097.00
382.421,3436.00
383.433,3384.00
384.445,3397.00
385.456,3523.00
386.470,3075.00
387.481,3936.00
388.492,3913.00
389.505,3275.00
390.516,3955.00
391.527,3498.00
392.538,3461.00
393.551,3686.00
394.561,4375.00
395.572,3726.00
396.582,3649.00
397.594,3743.00
398.604,3408.00
399.614,3643.00
400.624,3409.00
401.636,3479.00
402.646,3542.00
403.655,3192.00
404.667,3370.00
405.676,3342.00
406.685,4394.00
407.694,3929.00
408.705,3025.00
409.714,3160.00
410.723,3277.00
411.734,3285.00
412.742,3403.00
413.751,3643.00
414.759,3649.00
415.769,3635.00
416.777,3814.00
417.785,3559.00
418.795,3378.00
419.803,3618.00
420.811,3302.00
421.818,3944.00
422.828,3454.00
423.835,3445.00
424.842,3456.00
425.852,3280.00
426.859,3681.00
427.866,3733.00
428.874,3623.00
429.881,3524.00
430.888,3760.00
431.894,3570.00
432.902,3522.00
433.909,4506.00
434.915,3657.00
435.923,4268.00
436.929,3056.00
437.935,3513.00
438.942,3404.00
439.948,3566.00
440.953,4069.00
441.959,3201.00
442.966,3962.00
443.971,3736.00
444.976,3200.00
445.983,3611.00
446.988,3515.00
447.993,4029.00
448.999,3669.00
450.004,3540.00
451.008,3374.00
452.014,4019.00
453.019,3842.00
454.023,3286.00
455.029,3200.00
456.032,3973.00
457.036,3499.00
458.042,2905.00
459.045,3476.00
460.049,3757.00
461.052,4058.00
462.057,3735.00
463.060,3991.00
464.063,3409.00
465.068,3454.00
466.071,3269.00
467.073,3867.00
468.078,3139.00
469.080,3106.00
470.082,3572.00
471.087,3459.00
472.089,3622.00
473.091,3842.00
474.095,4009.00
475.096,3469.00
476.098,3371.00
477.101,3737.00
478.103,3312.00
479.104,4162.00
480.107,3466.00
481.108,3074.00
482.109,4202.00
483.112,4196.00
484.113,3777.00
485.114,3776.00
486.116,3549.00
487.117,3885.00
488.117,3600.00
489.119,3735.00
490.119,3772.00
491.121,3238.00
492.121,3047.00
493.121,2892.00
494.123,3591.00
495.122,3696.00
496.122,3576.00
497.123,4498.00
498.122,3377.00
499.121,3618.00
500.122,3568.00
501.121,3153.00
502.120,3152.00
503.121,3291.00
504.119,3272.00
505.118,3773.00
506.118,3274.00
507.117,3249.00
508.115,3714.00
509.115,3568.00
510.113,3094.00
511.112,3804.00
512.110,3434.00
513.108,3777.00
514.107,3912.00
515.105,3777.00
516.102,3936.00
517.101,3520.00
518.098,3590.00
519.095,4092.00
520.094,3363.00
521.091,3429.00
522.089,3725.00
523.086,3365.00
524.082,3712.00
525.081,3670.00
526.077,4739.00
527.073,4547.00
528.071,3502.00
529.067,3400.00
530.064,3425.00
531.060,3139.00
532.056,3442.00
533.053,3860.00
534.048,3776.00
535.044,3583.00
536.041,3715.00
537.036,3629.00
538.030,3697.00
539.027,3792.00
540.022,3143.00
541.019,3502.00
542.013,3795.00
543.007,3666.00
544.004,3501.00
544.998,3515.00
545.994,4088.00
546.988,3915.00
547.981,3417.00
548.977,4175.00
549.971,3702.00
550.964,3833.00
551.960,3631.00
552.953,3579.00
553.948,3818.00
554.941,3429.00
555.934,3203.00
556.929,3723.00
557.922,3290.00
558.916,3808.00
559.909,4063.00
560.901,3614.00
561.895,3622.00
562.888,3257.00
563.880,3765.00
564.874,3902.00
565.865,3764.00
566.859,3269.00
567.851,4095.00
568.842,3462.00
569.836,3585.00
570.827,3264.00
571.820,3598.00
572.811,3739.00
573.802,3592.00
574.795,3299.00
575.786,3837.00
576.779,3672.00
577.769,3231.00
578.760,3636.00
579.752,3206.00
580.742,3379.00
581.735,3684.00
582.725,3351.00
583.714,3832.00
584.706,3256.00
585.696,3530.00
586.688,3733.00
587.677,3526.00
588.667,3680.00
589.658,3516.00
590.647,3665.00
591.638,3618.00
592.627,3420.00
593.616,3112.00
594.607,3660.00
595.595,3571.00
596.586,3185.00
597.574,3884.00
598.562,3944.00
599.553,3141.00
600.541,3566.00
601.531,3683.00
602.519,3465.00
603.508,3709.00
604.496,3726.00
605.484,3657.00
606.473,3518.00
607.460,3418.00
608.450,3434.00
609.437,3709.00
610.424,3867.00
611.413,3120.00
612.400,3236.00
613.388,3624.00
614.375,3455.00
615.361,3462.00
616.350,3289.00
617.336,8408.00
618.324,3925.00
619.310,3378.00
620.298,3276.00
621.284,3639.00
622.270,3273.00
623.257,3555.00
624.243,3565.00
625.230,3756.00
626.216,3523.00
627.203,3939.00
628.188,3482.00
629.173,3418.00
630.160,3277.00
631.145,2699.00
632.131,3327.00
633.116,3184.00
634.102,3645.00
635.087,3767.00
636.071,3755.00
637.057,3302.00
638.041,3120.00
639.027,3267.00
640.011,3435.00
640.995,3246.00
641.980,3272.00
642.964,3373.00
643.949,3943.00
644.932,2799.00
645.918,3333.00
646.901,3545.00
647.886,3307.00
648.868,3395.00
649.851,3178.00
650.836,2971.00
651.818,3195.00
652.803,3755.00
653.785,3510.00
654.769,3673.00
655.751,3679.00
656.733,3950.00
657.717,3054.00
658.699,3537.00
659.683,3306.00
660.664,3194.00
661.648,3400.00
662.629,3289.00
663.611,3310.00
664.594,3068.00
665.575,3112.00
666.558,3409.00
667.539,3110.00
668.521,3340.00
669.502,3409.00
670.484,3344.00
671.465,3274.00
672.445,3465.00
673.427,3228.00
674.407,3191.00
675.390,3557.00
676.369,3344.00
677.351,2931.00
678.331,3640.00
679.312,3406.00
680.292,3271.00
681.271,2977.00
682.253,3595.00
683.232,3113.00
684.213,3240.00
685.192,3674.00
686.172,3966.00
687.151,3418.00
688.132,3399.00
689.110,3601.00
690.089,3705.00
691.069,2909.00
692.047,2836.00
693.027,2958.00
694.005,3403.00
694.985,4019.00
695.963,3527.00
696.943,3189.00
697.920,3012.00
698.898,3819.00
699.877,3583.00
700.854,3231.00
701.833,3231.00
702.810,3780.00
703.789,3470.00
704.766,4503.00
705.745,3922.00
706.721,3186.00
707.698,3713.00
708.676,3065.00
709.653,3283.00
710.631,3712.00
711.607,3384.00
712.585,3395.00
713.561,3078.00
714.539,3874.00
715.514,3285.00
716.492,3073.00
717.467,3815.00
718.443,3009.00
719.420,3709.00
720.395,3819.00
721.372,3527.00
722.347,3662.00
723.324,3175.00
724.298,3415.00
725.275,3102.00
726.250,3303.00
727.226,3176.00
728.200,2983.00
729.176,3331.00
730.151,3605.00
731.125,3822.00
732.100,2961.00
733.074,3303.00
734.050,3202.00
735.023,3062.00
735.999,3260.00
736.972,3186.00
737.947,3751.00
738.921,3433.00
739.896,3552.00
740.869,3445.00
741.841,3273.00
742.816,3766.00
743.789,3107.00
744.763,3073.00
745.736,3274.00
746.710,3166.00
747.682,3085.00
748.656,3306.00
749.628,3271.00
750.602,3281.00
751.574,3433.00
752.548,4163.00
753.519,3485.00
754.491,2931.00
755.464,3150.00
756.435,3983.00
757.408,3575.00
758.379,3475.00
759.352,2858.00
760.323,3044.00
761.296,3226.00
762.267,3378.00
763.239,3086.00
764.209,3601.00
765.182,4452.00
766.152,3628.00
767.124,3100.00
768.094,3112.00
769.064,3518.00
770.036,2993.00
771.005,3661.00
771.977,3184.00
772.947,3256.00
773.918,3757.00
774.887,3282.00
775.858,3134.00
776.827,3237.00
777.798,3244.00
778.767,3822.00
779.738,3288.00
780.707,3200.00
781.677,3410.00
782.646,3132.00
783.614,3693.00
784.584,3381.00
785.552,3521.00
786.522,2960.00
787.490,3340.00
788.460,3155.00
789.428,3155.00
790.397,3671.00
791.365,2952.00
792.334,3212.00
793.302,3414.00
794.271,3398.00
795.238,3194.00
796.207,3141.00
797.174,3577.00
798.143,3036.00
799.109,3700.00
800.076,3232.00
801.044,2854.00
802.011,3059.00
802.979,3081.00
803.945,3285.00
804.913,3864.00
805.879,3280.00
806.847,2930.00
807.813,3614.00
808.780,3226.00
809.746,3268.00
810.713,3669.00
811.678,2937.00
812.646,3212.00
813.611,3241.00
814.578,3021.00
815.543,3635.00
816.510,2890.00
817.474,3148.00
818.439,3242.00
819.405,3523.00
820.370,3098.00
821.336,2984.00
822.300,3388.00
823.266,3217.00
824.230,3463.00
825.196,3305.00
826.160,3609.00
827.126,3609.00
828.089,4031.00
829.055,3338.00
830.018,3358.00
830.983,4066.00
831.946,3099.00
832.911,3091.00
833.874,3909.00
834.837,3065.00
835.802,3197.00
836.765,3726.00
837.729,3151.00
838.691,3267.00
839.656,3558.00
840.618,3458.00
841.582,3484.00
842.544,3479.00
843.508,3750.00
844.470,2981.00
845.434,2868.00
846.395,2733.00
847.359,3139.00
848.320,2900.00
849.283,3083.00
850.245,3157.00
851.208,3502.00
852.169,3219.00
853.130,3012.00
854.092,3463.00
855.053,3150.00
856.016,3212.00
856.976,3127.00
857.938,3232.00
858.899,3314.00
859.861,2969.00
860.821,3173.00
861.783,2582.00
862.743,3241.00
863.704,3540.00
864.664,2743.00
865.626,3366.00
866.585,3100.00
867.546,3386.00
868.506,3320.00
869.467,2767.00
870.426,3292.00
871.387,3504.00
872.346,3584.00
873.304,3340.00
874.265,3438.00
875.223,3285.00
876.184,3352.00
877.142,3053.00
878.102,3185.00
879.060,3177.00
880.021,3298.00
880.978,2813.00
881.938,3202.00
882.896,3575.00
883.856,3383.00
884.813,3184.00
885.772,3118.00
886.730,3457.00
887.689,3415.00
888.646,3050.00
889.603,3580.00
890.562,3596.00
891.519,3283.00
892.477,3375.00
893.434,3248.00
894.392,2848.00
895.349,3300.00
896.307,3343.00
897.263,3463.00
898.221,3309.00
899.177,3125.00
900.135,3432.00
901.091,3255.00
902.048,3679.00
903.004,3178.00
903.961,3078.00
904.917,3209.00
905.874,3263.00
906.829,2978.00
907.784,3257.00
908.741,3244.00
909.696,3119.00
910.653,2751.00
911.607,3152.00
912.564,3150.00
913.518,3140.00
914.475,3267.00
915.429,4942.00
916.385,2936.00
917.339,3620.00
918.295,3313.00
919.249,3447.00
920.205,3264.00
921.158,3401.00
922.114,3149.00
923.067,3282.00
924.020,3286.00
924.976,3133.00
925.929,3402.00
926.884,3311.00
927.837,3548.00
928.791,3496.00
929.744,2955.00
930.699,3297.00
931.651,3242.00
932.606,2920.00
933.558,3117.00
934.512,3438.00
935.464,3391.00
936.418,3612.00
937.370,3393.00
938.322,3015.00
939.276,3173.00
940.227,3198.00
941.181,3308.00
942.132,3639.00
943.085,3834.00
944.036,2803.00
944.990,3597.00
945.941,3032.00
946.893,3102.00
947.844,2884.00
948.797,3354.00
949.747,4019.00
950.700,3124.00
951.650,2661.00
952.601,3340.00
953.553,3036.00
954.503,3455.00
955.455,3197.00
956.405,3243.00
957.356,2885.00
958.306,3564.00
959.258,3207.00
960.207,3630.00
961.158,3542.00
962.108,3251.00
963.059,2948.00
964.008,2883.00
964.959,3872.00
965.908,3148.00
966.856,3006.00
967.807,2804.00
968.756,3594.00
969.706,3261.00
970.654,3129.00
971.605,3217.00
972.553,3296.00
973.503,3253.00
974.451,3554.00
975.401,3286.00
976.348,3266.00
977.296,3133.00
978.246,3490.00
979.193,3624.00
980.142,2981.00
981.090,3292.00
982.039,3211.00
982.986,3313.00
983.935,3541.00
984.882,3266.00
985.830,3445.00
986.777,3378.00
987.725,3086.00
988.672,3062.00
989.618,3245.00
990.567,2943.00
991.513,3117.00
992.461,2988.00
993.407,3481.00
994.354,3315.00
995.300,3366.00
996.248,3322.00
997.193,3397.00
998.141,3147.00
999.086,3339.00
1000.031,3292.00
1000.978,2853.00
1001.924,3194.00
1002.870,3339.00
1003.815,2643.00
1004.762,3025.00
1005.707,3255.00
1006.653,3113.00
1007.598,3207.00
1008.542,2914.00
1009.488,2803.00
1010.432,3102.00
1011.378,3003.00
1012.322,3594.00
1013.268,2912.00
1014.212,3191.00
1015.157,3272.00
1016.101,3631.00
1017.046,2897.00
1017.990,2932.00
1018.933,3162.00
1019.878,2948.00
1020.821,3034.00
1021.766,2890.00
1022.709,3072.00
1023.654,3193.00
1024.596,3440.00
1025.541,3649.00
1026.483,3569.00
1027.425,3280.00
1028.370,3427.00
1029.312,3373.00
1030.256,3118.00
1031.198,3011.00
1032.141,3104.00
1033.083,3634.00
1034.027,3306.00
1034.968,3404.00
1035.910,2759.00
1036.853,3169.00
1037.794,3292.00
1038.738,2908.00
1039.679,3501.00
1040.621,3090.00
1041.562,3183.00
1042.503,3464.00
1043.446,2969.00
1044.386,3466.00
1045.329,3185.00
1046.269,3314.00
1047.211,3104.00
1048.151,3222.00
1049.093,2932.00
1050.033,3970.00
1050.973,3317.00
1051.915,3140.00
1052.854,3112.00
1053.796,3368.00
1054.735,3044.00
1055.677,3059.00
1056.616,3257.00
1057.555,3289.00
1058.496,2872.00
1059.435,3413.00
1060.376,3039.00
1061.315,3047.00
1062.255,2894.00
1063.194,3101.00
1064.132,2938.00
1065.073,3254.00
1066.011,3234.00
1066.951,3180.00
1067.889,2939.00
1068.829,3356.00
1069.767,3277.00
1070.705,2580.00
1071.644,3085.00
1072.582,2746.00
1073.521,3073.00
1074.459,3135.00
1075.398,3277.00
1076.335,3030.00
1077.272,3864.00
1078.211,3318.00
1079.148,3702.00
1080.087,3170.00
1081.023,3612.00
1081.962,3401.00
1082.898,2684.00
1083.835,3044.00
1084.773,2765.00
1085.709,2793.00
1086.647,3166.00
1087.583,3112.00
1088.519,3328.00
1089.457,3315.00
1090.392,2711.00
1091.330,3220.00
1092.266,3132.00
1093.203,3461.00
1094.138,2795.00
1095.073,3630.00
1096.010,3448.00
1096.945,3089.00
1097.882,2810.00
1098.817,2702.00
1099.752,3884.00
1100.688,3173.00
1101.623,3247.00
1102.559,3285.00
1103.493,3452.00
1104.430,2700.00
1105.364,2823.00
1106.298,3075.00
1107.234,3703.00
1108.167,2945.00
1109.094,3085.00
1110.019,3086.00
1110.945,3322.00
1111.869,3158.00
1112.795,3058.00
1113.720,3174.00
1114.646,3157.00
1115.571,2597.00
1116.495,3196.00
1117.420,3233.00
1118.345,2952.00
1119.270,3119.00
1120.195,3267.00
1121.118,3497.00
1122.042,3446.00
1122.967,3180.00
1123.891,3255.00
1124.816,3210.00
1125.738,3186.00
1126.663,2580.00
1127.587,3081.00
1128.511,3034.00
1129.435,3128.00
1130.357,3245.00
1131.280,3984.00
1132.204,2962.00
1133.128,2984.00
1134.051,3061.00
1134.972,3839.00
1135.896,3033.00
1136.819,3424.00
1137.742,2937.00
1138.665,3279.00
1139.586,3119.00
1140.509,2671.00
1141.431,2960.00
1142.354,3619.00
1143.276,3155.00
1144.197,3558.00
1145.119,3254.00
1146.041,2860.00
1146.964,3354.00
1147.885,3219.00
1148.806,3081.00
1149.727,3169.00
1150.649,2737.00
1151.571,3168.00
1152.492,3370.00
1153.412,3259.00
1154.333,3147.00
1155.254,3035.00
1156.175,3040.00
1157.095,3605.00
1158.016,3227.00
1158.936,2998.00
1159.857,3270.00
1160.778,3093.00
1161.697,2758.00
1162.617,3270.00
1163.537,3805.00
1164.458,3577.00
1165.376,2966.00
1166.296,3333.00
1167.216,3452.00
1168.136,2991.00
1169.056,2866.00
1169.974,3113.00
1170.893,3659.00
1171.813,3304.00
1172.732,3063.00
1173.650,3229.00
1174.569,3907.00
1175.488,3290.00
1176.407,2833.00
1177.326,2919.00
1178.243,3118.00
1179.161,3002.00
1180.080,3049.00
1180.999,3306.00
1181.915,3099.00
1182.834,2704.00
1183.752,3344.00
1184.670,3714.00
1185.586,2681.00
1186.504,3010.00
1187.422,3112.00
1188.340,2836.00
1189.258,3280.00
1190.173,3131.00
1191.091,3476.00
1192.008,2949.00
1192.926,2993.00
1193.841,3264.00
1194.758,3254.00
1195.675,2901.00
1196.592,3438.00
1197.507,2934.00
1198.424,3296.00
1199.340,3632.00
1200.257,3106.00
1201.172,3265.00
1202.088,2597.00
1203.004,3224.00
1203.920,3360.00
1204.835,3709.00
1205.750,3483.00
1206.666,3499.00
1207.582,2912.00
1208.496,2989.00
1209.412,3078.00
1210.327,2999.00
1211.243,3634.00
1212.156,2929.00
1213.071,2935.00
1213.986,3197.00
1214.901,2827.00
1215.814,2809.00
1216.729,2894.00
1217.644,2958.00
1218.559,2907.00
1219.471,3931.00
1220.386,3507.00
1221.300,2972.00
1222.213,3288.00
1223.127,3126.00
1224.041,3562.00
1224.955,2894.00
1225.867,3233.00
1226.781,3397.00
1227.694,3504.00
1228.608,3105.00
1229.520,3377.00
1230.433,3315.00
1231.346,2903.00
1232.260,3328.00
1233.171,2915.00
1234.084,3254.00
1234.997,3570.00
1235.908,2979.00
1236.821,3296.00
1237.733,4378.00
1238.646,3413.00
1239.556,3245.00
1240.469,3151.00
1241.381,2921.00
1242.293,2937.00
1243.203,3631.00
1244.115,3706.00
1245.027,3246.00
1245.937,3058.00
1246.849,3063.00
1247.761,3171.00
1248.672,2916.00
1249.582,3077.00
1250.493,3780.00
1251.404,3162.00
1252.313,3339.00
1253.225,3472.00
1254.135,4110.00
1255.046,3300.00
1255.955,3396.00
1256.866,3683.00
1257.777,3021.00
1258.685,2808.00
1259.596,2604.00
1260.506,3528.00
1261.416,3098.00
1262.324,3370.00
1263.234,3140.00
1264.144,3376.00
1265.052,3260.00
1265.962,3180.00
1266.872,3409.00
1267.779,3389.00
1268.689,2725.00
1269.598,2853.00
1270.507,3117.00
1271.415,2994.00
1272.324,3167.00
1273.233,3118.00
1274.140,2999.00
1275.048,2923.00
1275.957,2657.00
1276.864,2934.00
1277.772,2992.00
1278.681,2638.00
1279.587,2942.00
1280.496,3270.00
1281.404,3877.00
1282.312,3297.00
1283.218,2873.00
1284.126,2852.00
1285.033,3684.00
1285.939,3074.00
1286.847,3223.00
1287.754,3095.00
1288.660,2929.00
1289.567,3757.00
1290.474,3213.00
1291.380,3415.00
1292.286,2847.00
1293.193,3203.00
1294.098,3182.00
1295.005,2983.00
1295.912,3462.00
1296.816,3282.00
1297.723,3123.00
1298.629,2988.00
1299.534,3495.00
1300.440,3284.00
1301.346,2957.00
1302.250,2994.00
1303.156,2713.00
1304.062,3619.00
1304.966,3664.00
1305.871,3511.00
1306.777,2984.00
1307.680,3091.00
1308.586,3246.00
1309.491,3396.00
1310.394,3147.00
1311.299,3468.00
1312.204,3646.00
1313.107,3293.00
1314.012,3180.00
1314.917,2874.00
1315.819,3289.00
1316.724,3685.00
1317.628,3254.00
1318.531,3112.00
1319.435,3580.00
1320.339,5134.00
1321.241,3139.00
1322.145,3172.00
1323.049,3229.00
1323.951,2893.00
1324.854,2925.00
1325.756,3367.00
1326.659,3205.00
1327.563,2918.00
1328.464,3235.00
1329.367,3098.00
1330.271,3514.00
1331.172,2866.00
1332.074,3153.00
1332.977,2926.00
1333.878,3309.00
1334.781,3452.00
1335.683,2896.00
1336.584,3102.00
1337.486,2737.00
1338.387,3278.00
1339.289,2876.00
1340.191,2968.00
1341.091,3037.00
1341.993,2879.00
1342.895,2981.00
1343.794,3257.00
1344.696,3364.00
1345.596,3279.00
1346.497,2923.00
1347.398,3086.00
1348.298,2647.00
1349.199,3717.00
1350.100,3051.00
1350.999,3551.00
1351.900,3324.00
1352.799,3470.00
1353.699,3214.00
1354.600,3146.00
1355.499,3207.00
1356.399,2692.00
1357.297,3105.00
1358.198,3204.00
1359.098,2941.00
1359.996,2823.00
1360.896,3625.00
1361.796,3366.00
1362.694,3272.00
1363.593,3135.00
1364.491,3330.00
1365.391,3718.00
1366.290,3085.00
1367.187,2945.00
1368.086,3330.00
1368.984,3173.00
1369.883,2752.00
1370.782,3206.00
1371.679,3295.00
1372.577,3648.00
1373.474,3162.00
1374.373,3084.00
1375.269,3181.00
1376.168,3123.00
1377.066,3417.00
1377.962,3389.00
1378.860,3504.00
1379.756,3495.00
1380.654,3742.00
1381.552,3394.00
1382.448,3315.00
1383.346,3216.00
1384.241,3315.00
1385.139,3400.00
1386.036,3004.00
1386.931,2710.00
1387.829,3217.00
1388.724,3410.00
1389.621,3040.00
1390.516,3168.00
1391.413,3052.00
1392.309,2903.00
1393.204,3417.00
1394.101,3364.00
1394.995,3332.00
1395.891,3292.00
1396.786,2919.00
1397.682,3098.00
1398.578,3248.00
1399.472,3497.00
1400.368,3160.00
1401.262,3147.00
1402.158,3321.00
1403.051,3109.00
1403.947,3062.00
1404.840,3413.00
1405.736,3422.00
1406.631,2898.00
1407.524,3606.00
1408.419,3221.00
1409.312,3039.00
1410.207,3312.00
1411.100,3016.00
1411.995,2976.00
1412.888,3395.00
1413.782,2811.00
1414.675,3536.00
1415.569,2873.00
1416.463,3084.00
1417.355,3135.00
1418.249,2950.00
1419.141,3260.00
1420.035,3294.00
1420.927,3105.00
1421.821,3446.00
1422.713,3049.00
1423.606,3341.00
1424.498,3196.00
1425.391,3707.00
1426.282,2996.00
1427.175,3114.00
1428.068,2650.00
1428.960,3177.00
1429.852,3263.00
1430.743,2876.00
1431.636,3149.00
1432.527,3452.00
1433.419,3347.00
1434.310,3370.00
1435.202,2980.00
1436.092,3087.00
1436.984,3129.00
1437.875,3554.00
1438.767,3208.00
1439.657,2985.00
1440.548,3339.00
1441.438,3239.00
1442.330,3296.00
1443.219,3097.00
1444.111,3406.00
1445.000,3010.00
1445.891,2915.00
1446.781,2973.00
1447.672,3210.00
1448.561,3520.00
1449.452,3320.00
1450.340,2911.00
1451.231,2934.00
1452.120,2876.00
1453.010,3476.00
1453.899,3004.00
1454.789,3383.00
1455.677,3520.00
1456.568,3181.00
1457.456,3192.00
1458.346,3172.00
1459.234,3227.00
1460.123,3485.00
1461.011,3199.00
1461.901,3557.00
1462.788,3573.00
1463.678,3331.00
1464.565,3182.00
1465.454,3107.00
1466.342,3266.00
1467.231,2539.00
1468.118,3459.00
1469.006,3584.00
1469.893,2882.00
1470.782,3312.00
1471.669,3511.00
1472.557,3450.00
1473.444,3237.00
1474.330,3392.00
1475.218,3521.00
1476.105,3114.00
1476.993,3212.00
1477.879,3382.00
1478.767,3108.00
1479.652,2915.00
1480.540,3269.00
1481.426,3352.00
1482.313,3329.00
1483.199,3561.00
1484.086,3426.00
1484.972,2891.00
1485.857,2913.00
1486.744,3275.00
1487.629,2727.00
1488.516,3068.00
1489.401,3423.00
1490.287,3211.00
1491.172,2819.00
1492.058,3142.00
1492.943,3016.00
1493.828,2975.00
1494.714,3371.00
1495.598,3570.00
1496.484,4000.00
1497.368,2813.00
1498.254,3123.00
1499.138,3231.00
1500.022,3204.00
1500.907,3332.00
1501.791,3943.00
1502.676,3194.00
1503.560,3031.00
1504.445,3705.00
1505.328,3312.00
1506.211,3602.00
1507.096,3085.00
1507.979,3458.00
1508.864,3114.00
1509.747,3309.00
1510.631,3253.00
1511.514,3326.00
1512.397,3489.00
1513.281,3653.00
1514.163,3399.00
1515.047,3058.00
1515.930,2873.00
1516.812,3171.00
1517.696,3307.00
1518.578,3158.00
1519.461,3253.00
1520.343,3639.00
1521.225,3054.00
1522.108,3110.00
1522.990,3504.00
1523.873,3642.00
1524.754,2803.00
1525.635,2648.00
1526.518,3308.00
1527.399,3144.00
1528.282,3225.00
1529.163,3322.00
1530.044,3177.00
1530.926,2884.00
1531.807,2944.00
1532.689,3219.00
1533.569,2961.00
1534.450,4302.00
1535.332,3365.00
1536.212,3081.00
1537.092,3451.00
1537.974,2867.00
1538.854,3105.00
1539.735,3739.00
1540.615,3358.00
1541.495,2947.00
1542.376,3599.00
1543.255,2927.00
1544.135,3130.00
1545.016,3204.00
1545.895,2986.00
1546.774,3442.00
1547.655,2727.00
1548.534,3145.00
1549.414,3081.00
1550.293,2833.00
1551.172,3276.00
1552.052,3199.00
1552.930,3058.00
1553.809,3687.00
1554.689,3099.00
1555.567,3092.00
1556.445,3086.00
1557.325,3529.00
1558.203,2802.00
1559.080,3190.00
1559.960,3129.00
1560.838,3852.00
1561.715,3090.00
1562.594,3484.00
1563.472,3348.00
1564.349,3338.00
1565.228,2772.00
1566.105,2953.00
1566.982,3221.00
1567.861,3437.00
1568.738,3136.00
1569.615,2825.00
1570.493,3047.00
1571.370,3046.00
1572.246,2627.00
1573.124,3156.00
1574.000,3130.00
1574.877,3430.00
1575.755,3100.00
1576.631,2962.00
1577.507,3577.00
1578.384,3569.00
1579.260,3308.00
1580.136,3768.00
1581.011,3160.00
1581.889,3126.00
1582.764,3203.00
1583.639,3493.00
1584.516,3337.00
1585.391,3072.00
1586.266,3200.00
1587.143,3678.00
1588.018,3366.00
1588.893,3566.00
1589.768,3992.00
1590.644,3889.00
1591.519,2912.00
1592.393,3324.00
1593.269,3472.00
1594.143,2984.00
1595.018,3159.00
1595.892,3073.00
1596.767,2685.00
1597.641,2716.00
1598.515,2840.00
1599.391,3319.00
1600.264,3038.00
1601.138,2931.00
1602.011,2536.00
1602.886,3697.00
1603.760,3502.00
1604.633,3500.00
1605.508,3371.00
1606.381,3240.00
1607.254,3167.00
1608.127,3340.00
1609.001,2941.00
1609.874,3518.00
1610.746,3401.00
1611.619,3214.00
1612.493,3376.00
1613.365,2986.00
1614.238,3245.00
1615.110,3243.00
1615.984,3213.00
1616.855,3033.00
1617.727,3425.00
1618.599,3039.00
1619.473,3490.00
1620.344,2562.00
1621.216,3199.00
1622.087,3287.00
1622.960,3242.00
1623.832,3176.00
1624.703,3301.00
1625.574,3379.00
1626.445,3203.00
1627.317,3253.00
1628.188,3488.00
1629.059,3095.00
1629.930,3566.00
1630.802,3166.00
1631.672,3334.00
1632.543,3316.00
1633.413,3151.00
1634.283,3629.00
1635.155,3281.00
1636.025,3297.00
1636.895,3241.00
1637.765,2675.00
1638.636,3183.00
1639.506,3331.00
1640.376,3983.00
1641.245,3098.00
1642.114,3218.00
1642.985,2663.00
1643.855,2958.00
1644.724,3071.00
1645.593,3348.00
1646.462,3352.00
1647.333,3227.00
1648.201,3072.00
1649.070,3258.00
1649.939,3416.00
1650.807,2968.00
1651.676,3411.00
1652.546,3409.00
1653.414,3489.00
1654.282,3176.00
1655.150,3053.00
1656.018,3183.00
1656.888,3866.00
1657.756,3231.00
1658.623,2853.00
1659.491,2786.00
1660.359,3559.00
1661.226,3045.00
1662.095,3350.00
1662.962,3066.00
1663.830,3108.00
1664.697,3022.00
1665.564,3195.00
1666.431,3376.00
1667.297,2933.00
1668.166,2924.00
1669.033,2744.00
1669.899,3030.00
1670.766,2881.00
1671.632,3083.00
1672.499,3541.00
1673.367,3265.00
1674.233,3377.00
1675.099,3183.00
1675.965,2894.00
1676.831,3135.00
1677.696,3543.00
1678.562,6095.00
1679.430,2747.00
1680.295,2849.00
1681.161,2954.00
1682.026,2967.00
1682.891,3067.00
1683.756,3131.00
1684.621,3246.00
1685.486,3220.00
1686.353,3174.00
1687.218,3318.00
1688.083,3159.00
1688.947,3500.00
1689.812,3137.00
1690.677,3052.00
1691.541,3285.00
1692.405,2535.00
1693.269,3676.00
1694.135,3391.00
1694.999,3197.00
1695.863,3750.00
1696.727,3039.00
1697.591,3012.00
1698.455,3306.00
1699.318,3043.00
1700.182,4468.00
1701.045,3210.00
1701.909,3225.00
1702.772,3717.00
1703.637,3054.00
1704.500,2765.00
1705.363,3445.00
1706.226,3243.00
1707.089,3314.00
1707.951,3348.00
1708.814,3894.00
1709.677,3934.00
1710.539,3431.00
1711.402,3444.00
1712.264,3133.00
1713.126,3101.00
1713.988,3440.00
1714.852,3494.00
1715.714,2573.00
1716.576,2794.00
1717.438,3491.00
1718.299,2717.00
1719.161,3577.00
1720.023,3162.00
1720.884,3637.00
1721.745,3158.00
1722.607,3099.00
1723.468,2727.00
1724.329,3480.00
1725.190,3222.00
1726.051,3429.00
1726.912,3038.00
1727.772,3230.00
1728.633,3184.00
1729.494,3253.00
1730.354,3435.00
1731.214,2921.00
1732.075,3041.00
1732.935,3048.00
1733.797,3075.00
1734.657,3667.00
1735.517,3871.00
1736.377,3506.00
1737.237,3121.00
1738.096,3846.00
1738.956,3142.00
1739.816,3111.00
1740.675,3140.00
1741.534,2679.00
1742.394,3233.00
1743.253,2925.00
1744.112,3215.00
1744.971,3037.00
1745.830,3322.00
1746.689,3346.00
1747.547,3415.00
1748.406,2807.00
1749.265,3039.00
1750.123,3132.00
1750.982,3409.00
1751.840,3219.00
1752.698,3254.00
1753.556,3067.00
1754.414,3236.00
1755.272,3114.00
1756.130,3215.00
1756.988,3156.00
1757.846,3391.00
1758.703,3029.00
1759.559,3525.00
1760.417,2930.00
1761.274,3873.00
1762.131,3578.00
1762.989,3710.00
1763.846,3607.00
1764.703,3352.00
1765.560,3746.00
1766.417,3265.00
1767.273,2945.00
1768.130,3219.00
1768.987,3069.00
1769.843,3465.00
1770.700,3571.00
1771.556,3094.00
1772.412,3575.00
1773.268,3103.00
1774.125,3547.00
1774.980,3227.00
1775.836,3508.00
1776.692,3106.00
1777.546,3063.00
1778.402,3407.00
1779.257,3282.00
1780.113,3009.00
1780.968,3301.00
1781.824,3455.00
1782.679,2863.00
1783.534,3044.00
1784.389,3670.00
1785.244,3327.00
1786.099,3151.00
1786.954,3443.00
1787.808,3209.00
1788.661,3249.00
1789.516,3611.00
1790.370,3203.00
1791.225,3091.00
1792.079,2843.00
1792.933,3950.00
1793.787,3359.00
1794.641,3291.00
1795.495,3178.00
1796.349,3275.00
1797.201,2996.00
1798.055,3023.00
1798.908,3215.00
1799.762,3568.00
1800.615,3450.00
1801.469,3465.00
1802.322,3590.00
1803.175,3050.00
1804.028,2821.00
1804.880,3809.00
1805.732,3403.00
1806.585,3177.00
1807.438,3245.00
1808.291,2735.00
1809.143,2971.00
1809.996,2871.00
1810.846,4015.00
1811.699,3307.00
1812.551,3079.00
1813.403,3387.00
1814.255,3234.00
1815.107,3215.00
1815.959,3783.00
1816.809,3363.00
1817.661,3339.00
1818.512,3192.00
1819.364,3267.00
1820.215,3295.00
1821.067,2975.00
1821.918,3066.00
1822.768,3461.00
1823.619,3474.00
1824.470,3103.00
1825.321,3375.00
1826.172,3180.00
1827.021,3307.00
1827.871,3481.00
1828.722,3290.00
1829.572,3283.00
1830.423,3213.00
1831.273,3038.00
1832.122,3175.00
1832.972,3161.00
1833.822,2926.00
1834.672,3387.00
1835.522,3400.00
1836.370,3054.00
1837.220,3347.00
1838.070,2776.00
1838.919,2582.00
1839.769,2992.00
1840.616,3460.00
1841.466,3418.00
1842.315,2928.00
1843.164,3817.00
1844.013,3048.00
1844.860,2937.00
1845.709,2977.00
1846.558,3496.00
1847.407,2918.00
1848.254,3353.00
1849.102,3266.00
1849.951,2983.00
1850.799,2629.00
1851.648,3108.00
1852.494,3254.00
1853.342,3293.00
1854.190,3582.00
1855.038,3543.00
1855.884,3201.00
1856.732,4105.00
1857.580,3602.00
1858.428,3077.00
1859.273,2930.00
1860.121,3023.00
1860.968,4094.00
1861.816,3597.00
1862.661,3610.00
1863.508,3857.00
1864.355,3459.00
1865.202,3493.00
1866.047,3315.00
1866.894,3585.00
1867.741,3770.00
1868.586,3314.00
1869.432,3323.00
1870.279,3175.00
1871.125,3050.00
1871.970,3873.00
1872.816,3344.00
1873.662,2735.00
1874.506,3363.00
1875.352,3513.00
1876.198,3711.00
1877.044,3849.00
1877.888,3171.00
1878.734,3250.00
1879.579,3047.00
1880.423,2858.00
1881.268,3158.00
1882.113,3474.00
1882.959,3232.00
1883.802,3055.00
1884.647,3612.00
1885.492,3280.00
1886.335,3221.00
1887.180,3076.00
1888.025,3218.00
1888.867,2996.00
1889.712,3345.00
1890.556,3022.00
1891.399,3532.00
1892.243,3564.00
1893.087,3060.00
1893.930,3375.00
1894.774,3416.00
1895.618,3572.00
1896.460,2845.00
1897.304,3176.00
1898.147,3086.00
1898.989,2945.00
1899.833,3429.00
1900.676,3046.00
1901.518,3524.00
1902.361,3560.00
1903.202,3099.00
1904.046,3055.00
1904.889,3228.00
1905.730,3172.00
1906.573,2956.00
1907.415,3322.00
1908.256,3655.00
1909.099,3329.00
1909.941,3389.00
1910.782,3349.00
1911.624,3064.00
1912.465,3398.00
1913.307,3250.00
1914.149,2939.00
1914.989,3562.00
1915.831,3149.00
1916.671,3696.00
1917.513,3156.00
1918.355,3306.00
1919.195,3429.00
1920.036,3338.00
1920.876,3256.00
1921.717,3360.00
1922.558,3241.00
1923.398,3295.00
1924.239,3272.00
1925.078,3549.00
1925.919,2940.00
1926.760,3391.00
1927.599,3098.00
1928.440,3493.00
1929.279,3247.00
1930.119,3656.00
1930.958,3135.00
1931.798,3233.00
1932.638,3139.00
1933.477,3246.00
1934.317,3044.00
1935.155,3099.00
1935.995,3347.00
1936.833,3090.00
1937.673,3088.00
1938.512,3728.00
1939.350,2855.00
1940.190,3166.00
1941.027,3109.00
1941.867,3108.00
1942.704,3221.00
1943.543,3231.00
1944.381,3424.00
1945.220,3634.00
1946.057,3317.00
1946.896,3519.00
1947.733,3290.00
1948.572,2984.00
1949.408,3609.00
1950.247,3362.00
1951.085,3407.00
1951.922,3557.00
1952.760,3048.00
1953.597,3643.00
1954.435,2632.00
1955.271,3439.00
1956.109,3131.00
1956.945,2824.00
1957.783,3406.00
1958.619,3032.00
1959.456,3287.00
1960.292,3290.00
1961.129,3617.00
1961.965,3785.00
1962.802,3029.00
1963.638,3023.00
1964.475,3297.00
1965.310,3278.00
1966.145,3294.00
1966.982,3095.00
1967.817,2958.00
1968.654,3223.00
1969.489,3044.00
1970.325,3276.00
1971.160,2994.00
1971.996,3388.00
1972.831,3462.00
1973.667,3133.00
1974.501,3644.00
1975.337,3501.00
1976.171,3133.00
1977.006,3548.00
1977.841,3174.00
1978.675,3500.00
1979.511,3871.00
1980.345,3050.00
1981.180,3429.00
1982.014,3293.00
1982.849,2964.00
1983.682,3103.00
1984.516,3117.00
1985.351,2826.00
1986.184,2722.00
1987.019,2744.00
1987.852,2546.00
1988.687,2751.00
1989.519,3008.00
1990.352,3257.00
1991.187,2748.00
1992.019,3041.00
1992.854,3434.00
1993.686,2973.00
1994.518,3091.00
1995.352,2609.00
1996.185,2339.00
1997.019,2917.00
1997.851,2690.00
1998.682,2754.00
1999.516,2774.00
2000.348,2494.00
