RamanScope Measure Spectrum Data V3.72

<< MEASURE CONDITION >>
Exposure Type,Aver
Exposure Time [sec],1
Exposure Count,1
Measure Time,2024/02/15 21:01:29
Data Name,""
Data Comment,""
Rayleigh Wave[nm],532.0

<< SAMPLE SPECTRUM >>
Wave[dcm-1],No34
96.716,-4.50
97.759,-14.00
98.802,6.50
99.846,-16.00
100.886,3.00
101.929,-10.00
102.972,26.00
104.015,2.50
105.057,19.50
106.100,-37.00
107.142,-47.00
108.184,-17.50
109.226,-23.00
110.268,18.00
111.310,7.50
112.352,-12.00
113.393,7.50
114.435,-2.00
115.476,22.50
116.517,25.00
117.558,36.50
118.599,-7.50
119.640,12.50
120.681,22.50
121.722,3.00
122.762,23.00
123.803,10.50
124.843,16.50
125.883,35.00
126.923,39.50
127.963,59.50
129.001,-37.00
130.041,2.00
131.080,-40.00
132.120,20.00
133.159,3.00
134.199,54.50
135.238,19.00
136.277,31.00
137.316,0.00
138.355,81.00
139.393,-2.50
140.432,26.00
141.470,96.50
142.509,0.50
143.547,64.50
144.585,29.00
145.623,45.00
146.661,71.00
147.699,138.00
148.736,136.00
149.774,218.50
150.811,262.50
151.849,353.00
152.886,456.00
153.923,516.00
154.960,702.00
155.997,840.00
157.034,1008.00
158.072,1186.00
159.109,1309.00
160.145,1515.50
161.182,1677.00
162.218,1788.00
163.254,2030.50
164.290,2262.00
165.326,2278.50
166.361,2420.50
167.397,2508.50
168.432,2627.00
169.468,2617.00
170.503,2786.50
171.538,2800.00
172.573,2806.00
173.608,2798.50
174.643,2972.00
175.677,2986.50
176.712,3004.00
177.746,3063.00
178.781,2999.50
179.815,3126.00
180.849,3211.00
181.883,3169.50
182.917,3304.00
183.951,3333.00
184.984,3438.50
186.020,3447.50
187.053,3378.00
188.087,3387.50
189.120,3336.00
190.153,3326.00
191.186,3402.00
192.219,3289.50
193.251,3247.50
194.284,3325.00
195.317,3271.50
196.349,3311.00
197.381,3339.00
198.413,3293.50
199.445,3291.50
200.477,3359.00
201.509,3360.00
202.543,3359.50
203.575,3328.00
204.606,3344.50
205.637,3562.50
206.669,3447.00
207.700,3440.00
208.731,3490.50
209.762,3490.00
210.792,3533.50
211.823,3545.00
212.854,3540.00
213.884,3612.00
214.914,3571.00
215.947,3586.00
216.977,3608.00
218.007,3645.50
219.037,3687.50
220.066,3721.00
221.096,3736.00
222.126,3774.50
223.155,3800.00
224.184,3755.50
225.214,3757.00
226.245,3837.00
227.274,3816.50
228.302,3810.50
229.331,3811.00
230.360,3950.00
231.388,3837.00
232.417,3836.00
233.445,3884.00
234.473,3804.50
235.501,3828.00
236.531,3802.50
237.559,3751.50
238.587,3644.00
239.614,3714.50
240.642,3679.50
241.669,3688.00
242.696,3659.50
243.724,3569.00
244.753,3642.50
245.780,3585.50
246.806,3613.00
247.833,3605.00
248.860,3620.50
249.886,3495.50
250.913,3522.00
251.939,3599.50
252.967,3605.00
253.993,3487.50
255.019,3550.50
256.045,3587.00
257.070,3597.50
258.096,3578.50
259.121,3543.00
260.147,3561.00
261.174,3586.50
262.199,3622.50
263.224,3518.50
264.249,3533.50
265.274,3579.00
266.298,3546.00
267.323,3690.50
268.349,3589.50
269.374,3631.00
270.398,3646.00
271.422,3608.00
272.446,3610.00
273.470,3687.00
274.496,3638.50
275.519,3612.50
276.543,3649.00
277.566,3711.00
278.589,3687.50
279.613,3688.50
280.636,3761.50
281.661,3772.50
282.684,3764.00
283.706,3815.00
284.729,3790.50
285.751,3791.00
286.774,3799.50
287.798,3824.00
288.820,3776.50
289.842,3789.00
290.864,3721.00
291.886,3781.50
292.910,3752.50
293.932,3741.50
294.953,3710.50
295.974,3620.50
296.996,3673.50
298.017,3707.50
299.040,3620.50
300.061,3625.00
301.082,3492.00
302.102,3545.50
303.123,3540.00
304.143,3478.50
305.166,3483.00
306.186,3451.50
307.206,3479.00
308.226,3403.00
309.246,3414.50
310.268,3364.50
311.288,3352.00
312.307,3295.00
313.327,3300.50
314.346,3280.50
315.368,3322.00
316.387,3246.50
317.406,3180.00
318.425,3253.50
319.443,3205.00
320.464,3225.50
321.483,3168.00
322.501,3152.50
323.520,3222.00
324.538,3163.50
325.558,3119.50
326.576,3170.00
327.594,3145.00
328.612,3147.50
329.629,3105.50
330.649,3128.00
331.666,3142.00
332.684,3109.50
333.701,3157.00
334.718,3140.50
335.737,3112.00
336.754,3063.00
337.771,3113.50
338.787,3095.50
339.806,3121.50
340.823,3092.50
341.839,3179.00
342.855,3124.50
343.871,3142.00
344.889,3082.00
345.905,3128.00
346.921,3026.00
347.937,3060.50
348.954,3100.00
349.970,3065.50
350.985,3077.00
352.000,3044.00
353.017,3119.50
354.032,3014.50
355.047,3055.50
356.062,3086.50
357.077,3044.50
358.093,3051.00
359.108,3047.50
360.122,3084.00
361.136,3051.00
362.152,2996.50
363.166,3011.50
364.180,3052.50
365.194,2996.00
366.210,3070.00
367.223,3061.50
368.237,3019.50
369.250,2984.00
370.265,2993.50
371.278,3036.50
372.291,3072.00
373.304,3011.00
374.319,3009.50
375.332,3089.50
376.344,3030.00
377.357,3061.50
378.371,3037.00
379.383,3046.50
380.395,3037.00
381.407,3044.50
382.421,3088.00
383.433,3080.00
384.445,3148.00
385.456,3084.00
386.470,3067.00
387.481,3113.50
388.492,3055.50
389.505,3101.50
390.516,3056.50
391.527,3088.50
392.538,3066.00
393.551,3140.00
394.561,3114.50
395.572,3109.50
396.582,3075.50
397.594,3154.50
398.604,3076.50
399.614,3142.00
400.624,3189.00
401.636,3072.50
402.646,3045.50
403.655,3094.00
404.667,3078.00
405.676,3123.50
406.685,3095.50
407.694,3052.00
408.705,3059.50
409.714,3010.50
410.723,3020.00
411.734,3086.50
412.742,3081.00
413.751,3031.50
414.759,2936.00
415.769,2933.50
416.777,2998.00
417.785,2968.00
418.795,2978.50
419.803,2927.50
420.811,2940.50
421.818,3001.00
422.828,2912.00
423.835,3027.00
424.842,2915.00
425.852,2947.00
426.859,2858.50
427.866,2886.50
428.874,2857.00
429.881,2876.50
430.888,2854.00
431.894,2904.50
432.902,2850.50
433.909,2924.50
434.915,2849.00
435.923,2824.50
436.929,2849.00
437.935,2914.00
438.942,2842.00
439.948,2855.00
440.953,2832.50
441.959,2752.00
442.966,2815.00
443.971,2906.00
444.976,2815.50
445.983,2804.50
446.988,2747.00
447.993,2806.50
448.999,2742.50
450.004,2802.00
451.008,2792.50
452.014,2810.00
453.019,2826.50
454.023,2785.50
455.029,2856.50
456.032,2713.50
457.036,2754.00
458.042,2840.00
459.045,2808.00
460.049,2799.00
461.052,2752.50
462.057,2763.00
463.060,2745.00
464.063,2651.50
465.068,2802.00
466.071,2788.50
467.073,2747.50
468.078,2777.00
469.080,2756.50
470.082,2794.00
471.087,2808.50
472.089,2735.50
473.091,2772.50
474.095,2776.00
475.096,2743.50
476.098,2745.00
477.101,2764.00
478.103,2756.00
479.104,2785.50
480.107,2846.50
481.108,2782.50
482.109,2716.50
483.112,2704.50
484.113,2771.50
485.114,2747.50
486.116,2752.00
487.117,2776.50
488.117,2745.50
489.119,2805.50
490.119,2754.50
491.121,2715.00
492.121,2726.00
493.121,2732.50
494.123,2721.50
495.122,2778.00
496.122,2713.00
497.123,2772.00
498.122,2744.50
499.121,2747.00
500.122,2683.50
501.121,2760.50
502.120,2729.00
503.121,2772.50
504.119,2656.00
505.118,2684.50
506.118,2686.00
507.117,2693.50
508.115,2677.00
509.115,2663.50
510.113,2633.00
511.112,2633.00
512.110,2669.00
513.108,2731.50
514.107,2699.50
515.105,2635.50
516.102,2698.50
517.101,2675.50
518.098,2574.00
519.095,2672.00
520.094,2665.50
521.091,2687.00
522.089,2604.00
523.086,2617.00
524.082,2654.00
525.081,2660.50
526.077,2635.50
527.073,2673.00
528.071,2596.00
529.067,2580.50
530.064,2623.50
531.060,2632.00
532.056,2639.00
533.053,2631.50
534.048,2655.50
535.044,2590.00
536.041,2635.50
537.036,2574.50
538.030,2664.50
539.027,2617.00
540.022,2651.00
541.019,2569.00
542.013,2631.50
543.007,2595.00
544.004,2611.00
544.998,2637.00
545.994,2616.00
546.988,2575.00
547.981,2568.00
548.977,2552.00
549.971,2620.50
550.964,2572.50
551.960,2583.00
552.953,2574.50
553.948,2632.00
554.941,2622.50
555.934,2666.50
556.929,2671.00
557.922,2604.00
558.916,2609.00
559.909,2627.00
560.901,2618.50
561.895,2569.50
562.888,2602.50
563.880,2546.50
564.874,2542.50
565.865,2532.50
566.859,2567.00
567.851,2592.50
568.842,2521.50
569.836,2538.00
570.827,2523.50
571.820,2527.50
572.811,2540.00
573.802,2523.50
574.795,2510.00
575.786,2480.50
576.779,2548.50
577.769,2519.50
578.760,2514.50
579.752,2505.00
580.742,2534.00
581.735,2451.50
582.725,2501.00
583.714,2459.00
584.706,2489.50
585.696,2513.50
586.688,2487.50
587.677,2459.00
588.667,2500.00
589.658,2442.00
590.647,2381.50
591.638,2429.00
592.627,2459.50
593.616,2394.00
594.607,2419.00
595.595,2426.00
596.586,2433.50
597.574,2373.00
598.562,2343.50
599.553,2446.50
600.541,2383.50
601.531,2437.00
602.519,2386.00
603.508,2343.00
604.496,2354.00
605.484,2362.00
606.473,2300.50
607.460,2307.00
608.450,2391.00
609.437,2362.00
610.424,2353.50
611.413,2283.50
612.400,2259.00
613.388,2332.50
614.375,2316.50
615.361,2235.50
616.350,2314.50
617.336,2262.00
618.324,2233.50
619.310,2247.50
620.298,2216.00
621.284,2272.00
622.270,2228.50
623.257,2196.50
624.243,2174.50
625.230,2180.00
626.216,2219.50
627.203,2145.50
628.188,2209.00
629.173,2186.50
630.160,2223.50
631.145,2130.50
632.131,2138.50
633.116,2081.50
634.102,2109.50
635.087,2107.00
636.071,2134.00
637.057,2055.50
638.041,2085.50
639.027,2110.50
640.011,1994.00
640.995,2120.00
641.980,2045.50
642.964,2055.50
643.949,1990.50
644.932,2062.50
645.918,2065.50
646.901,1997.00
647.886,2078.00
648.868,2040.00
649.851,1999.00
650.836,1975.50
651.818,1992.50
652.803,2024.00
653.785,1976.00
654.769,1970.00
655.751,1929.50
656.733,1961.50
657.717,1936.50
658.699,1926.00
659.683,1898.50
660.664,1938.50
661.648,1913.50
662.629,1909.00
663.611,1906.00
664.594,1939.50
665.575,1887.00
666.558,1873.50
667.539,1852.00
668.521,1912.50
669.502,1886.00
670.484,1851.50
671.465,1904.50
672.445,1888.00
673.427,1834.50
674.407,1863.50
675.390,1832.50
676.369,1852.00
677.351,1896.50
678.331,1851.50
679.312,1778.00
680.292,1826.00
681.271,1815.00
682.253,1777.50
683.232,1764.00
684.213,1842.50
685.192,1798.00
686.172,1798.50
687.151,1783.50
688.132,1780.00
689.110,1734.00
690.089,1763.50
691.069,1728.50
692.047,1710.00
693.027,1738.00
694.005,1737.50
694.985,1708.50
695.963,1717.50
696.943,1734.50
697.920,1712.00
698.898,1653.00
699.877,1653.00
700.854,1686.00
701.833,1694.50
702.810,1653.50
703.789,1596.00
704.766,1681.50
705.745,1667.50
706.721,1608.50
707.698,1620.50
708.676,1627.00
709.653,1629.50
710.631,1620.00
711.607,1576.50
712.585,1574.50
713.561,1544.00
714.539,1626.00
715.514,1568.00
716.492,1532.00
717.467,1532.00
718.443,1609.50
719.420,1588.50
720.395,1547.50
721.372,1558.00
722.347,1520.50
723.324,1547.50
724.298,1499.00
725.275,1536.50
726.250,1515.00
727.226,1532.50
728.200,1481.50
729.176,1458.50
730.151,1518.00
731.125,1483.00
732.100,1489.00
733.074,1463.00
734.050,1454.50
735.023,1417.00
735.999,1424.50
736.972,1457.00
737.947,1471.00
738.921,1449.50
739.896,1457.00
740.869,1443.00
741.841,1409.50
742.816,1417.50
743.789,1359.50
744.763,1416.00
745.736,1428.50
746.710,1457.00
747.682,1453.50
748.656,1405.50
749.628,1385.50
750.602,1350.50
751.574,1371.00
752.548,1361.00
753.519,1353.00
754.491,1393.00
755.464,1392.00
756.435,1366.00
757.408,1376.00
758.379,1355.50
759.352,1315.00
760.323,1378.50
761.296,1347.50
762.267,1384.00
763.239,1334.00
764.209,1311.50
765.182,1293.00
766.152,1334.50
767.124,1344.00
768.094,1271.50
769.064,1306.50
770.036,1340.50
771.005,1256.50
771.977,1291.00
772.947,1267.00
773.918,1330.00
774.887,1235.50
775.858,1212.00
776.827,1271.00
777.798,1315.50
778.767,1273.00
779.738,1309.00
780.707,1291.50
781.677,1201.00
782.646,1271.50
783.614,1269.50
784.584,1210.50
785.552,1248.00
786.522,1264.50
787.490,1247.50
788.460,1247.50
789.428,1160.50
790.397,1181.00
791.365,1145.50
792.334,1220.00
793.302,1183.50
794.271,1236.00
795.238,1229.50
796.207,1236.50
797.174,1183.00
798.143,1268.50
799.109,1211.00
800.076,1229.00
801.044,1155.50
802.011,1144.50
802.979,1208.00
803.945,1163.50
804.913,1165.00
805.879,1197.00
806.847,1188.00
807.813,1204.50
808.780,1114.50
809.746,1164.00
810.713,1167.00
811.678,1103.00
812.646,1161.50
813.611,1190.50
814.578,1128.00
815.543,1166.00
816.510,1185.50
817.474,1131.50
818.439,1118.00
819.405,1176.00
820.370,1181.00
821.336,1081.00
822.300,1136.50
823.266,1150.00
824.230,1138.00
825.196,1093.00
826.160,1108.50
827.126,1174.00
828.089,1130.50
829.055,1125.50
830.018,1091.00
830.983,1138.50
831.946,1086.00
832.911,1123.50
833.874,1070.50
834.837,1173.00
835.802,1102.50
836.765,1132.00
837.729,1089.50
838.691,1104.50
839.656,1110.00
840.618,1131.00
841.582,1141.00
842.544,1076.00
843.508,1121.00
844.470,1120.00
845.434,1091.00
846.395,1154.50
847.359,1182.00
848.320,1145.00
849.283,1121.50
850.245,1142.50
851.208,1139.00
852.169,1177.00
853.130,1151.00
854.092,1162.00
855.053,1181.50
856.016,1159.00
856.976,1171.50
857.938,1133.00
858.899,1162.00
859.861,1147.00
860.821,1159.00
861.783,1148.50
862.743,1185.50
863.704,1157.00
864.664,1178.50
865.626,1182.50
866.585,1203.00
867.546,1192.50
868.506,1224.50
869.467,1174.00
870.426,1210.00
871.387,1234.50
872.346,1255.00
873.304,1211.50
874.265,1173.00
875.223,1248.00
876.184,1198.50
877.142,1226.00
878.102,1280.00
879.060,1281.00
880.021,1225.00
880.978,1246.50
881.938,1290.00
882.896,1277.00
883.856,1271.50
884.813,1265.00
885.772,1264.50
886.730,1319.00
887.689,1264.00
888.646,1220.00
889.603,1304.50
890.562,1285.00
891.519,1254.50
892.477,1253.00
893.434,1287.00
894.392,1286.50
895.349,1318.50
896.307,1264.00
897.263,1307.00
898.221,1338.50
899.177,1360.00
900.135,1307.50
901.091,1285.50
902.048,1290.00
903.004,1288.50
903.961,1314.50
904.917,1300.50
905.874,1296.50
906.829,1296.50
907.784,1323.00
908.741,1410.50
909.696,1311.00
910.653,1306.00
911.607,1367.50
912.564,1281.00
913.518,1301.50
914.475,1403.50
915.429,1260.50
916.385,1359.50
917.339,1237.50
918.295,1349.00
919.249,1345.00
920.205,1319.50
921.158,1266.00
922.114,1337.50
923.067,1314.50
924.020,1302.50
924.976,1337.00
925.929,1320.50
926.884,1331.00
927.837,1352.50
928.791,1304.00
929.744,1322.50
930.699,1342.00
931.651,1287.00
932.606,1296.00
933.558,1335.00
934.512,1355.00
935.464,1291.50
936.418,1308.00
937.370,1353.50
938.322,1297.00
939.276,1336.50
940.227,1326.00
941.181,1275.50
942.132,1346.50
943.085,1281.00
944.036,1355.00
944.990,1345.50
945.941,1286.50
946.893,1272.50
947.844,1347.00
948.797,1306.50
949.747,1331.00
950.700,1286.00
951.650,1267.00
952.601,1275.00
953.553,1281.50
954.503,1227.00
955.455,1312.00
956.405,1285.50
957.356,1240.00
958.306,1263.00
959.258,1318.00
960.207,1212.00
961.158,1294.50
962.108,1319.00
963.059,1238.50
964.008,1244.50
964.959,1227.50
965.908,1227.00
966.856,1215.50
967.807,1209.50
968.756,1193.50
969.706,1242.00
970.654,1222.00
971.605,1206.50
972.553,1189.50
973.503,1223.00
974.451,1149.50
975.401,1249.50
976.348,1166.00
977.296,1185.00
978.246,1193.50
979.193,1164.00
980.142,1213.50
981.090,1159.50
982.039,1211.00
982.986,1189.50
983.935,1181.50
984.882,1171.50
985.830,1161.50
986.777,1164.00
987.725,1233.00
988.672,1226.00
989.618,1181.00
990.567,1130.50
991.513,1181.50
992.461,1130.50
993.407,1227.50
994.354,1140.50
995.300,1164.00
996.248,1126.00
997.193,1153.50
998.141,1153.50
999.086,1079.50
1000.031,1154.50
1000.978,1151.50
1001.924,1151.00
1002.870,1182.50
1003.815,1165.00
1004.762,1085.50
1005.707,1119.50
1006.653,1155.50
1007.598,1167.00
1008.542,1140.00
1009.488,1140.00
1010.432,1157.00
1011.378,1155.00
1012.322,1106.00
1013.268,1118.00
1014.212,1099.50
1015.157,1133.50
1016.101,1116.50
1017.046,1095.00
1017.990,1106.00
1018.933,1102.50
1019.878,1141.00
1020.821,1112.50
1021.766,1144.00
1022.709,1113.50
1023.654,1098.00
1024.596,1122.50
1025.541,1081.50
1026.483,1084.50
1027.425,1074.50
1028.370,1102.00
1029.312,1083.00
1030.256,1137.00
1031.198,1093.00
1032.141,1091.00
1033.083,1059.00
1034.027,1098.00
1034.968,1094.00
1035.910,1117.00
1036.853,1122.00
1037.794,1115.50
1038.738,1116.50
1039.679,1133.50
1040.621,1117.50
1041.562,1065.50
1042.503,1090.00
1043.446,1119.50
1044.386,1038.00
1045.329,1082.00
1046.269,1123.00
1047.211,1066.00
1048.151,1100.50
1049.093,1095.50
1050.033,1037.50
1050.973,1133.00
1051.915,1089.50
1052.854,1086.50
1053.796,1090.00
1054.735,1083.50
1055.677,1073.50
1056.616,1137.00
1057.555,1066.50
1058.496,1089.50
1059.435,1066.00
1060.376,1065.50
1061.315,1091.00
1062.255,1119.50
1063.194,1036.00
1064.132,1055.50
1065.073,1088.00
1066.011,1092.00
1066.951,1062.00
1067.889,1054.00
1068.829,1124.00
1069.767,1059.00
1070.705,1106.00
1071.644,1075.50
1072.582,1085.50
1073.521,1093.50
1074.459,1051.50
1075.398,1089.00
1076.335,1113.00
1077.272,1056.50
1078.211,1057.50
1079.148,1064.50
1080.087,1060.50
1081.023,1059.00
1081.962,1059.00
1082.898,1137.50
1083.835,1084.50
1084.773,1094.00
1085.709,1080.00
1086.647,1086.50
1087.583,1064.50
1088.519,1110.00
1089.457,1041.50
1090.392,1084.50
1091.330,1058.00
1092.266,1070.50
1093.203,1046.50
1094.138,1102.00
1095.073,1116.00
1096.010,1023.00
1096.945,1070.50
1097.882,1086.50
1098.817,1052.00
1099.752,1081.50
1100.688,1074.00
1101.623,1060.50
1102.559,1016.00
1103.493,1092.50
1104.430,1059.50
1105.364,1039.00
1106.298,1048.00
1107.234,1023.00
1108.167,1021.00
1109.094,1054.00
1110.019,1063.50
1110.945,1011.50
1111.869,1052.00
1112.795,1019.00
1113.720,1031.00
1114.646,1046.00
1115.571,1038.50
1116.495,1009.50
1117.420,1000.00
1118.345,979.50
1119.270,986.50
1120.195,1015.50
1121.118,968.00
1122.042,995.50
1122.967,987.00
1123.891,986.00
1124.816,982.00
1125.738,963.00
1126.663,945.50
1127.587,964.50
1128.511,966.00
1129.435,934.50
1130.357,895.50
1131.280,949.00
1132.204,911.50
1133.128,935.00
1134.051,929.50
1134.972,888.50
1135.896,882.00
1136.819,872.50
1137.742,890.50
1138.665,882.50
1139.586,859.00
1140.509,827.50
1141.431,880.00
1142.354,847.50
1143.276,878.00
1144.197,858.00
1145.119,859.00
1146.041,881.00
1146.964,808.00
1147.885,851.00
1148.806,824.00
1149.727,804.50
1150.649,833.50
1151.571,824.00
1152.492,856.00
1153.412,818.00
1154.333,823.00
1155.254,827.50
1156.175,853.00
1157.095,803.50
1158.016,858.00
1158.936,833.00
1159.857,782.00
1160.778,813.50
1161.697,794.50
1162.617,829.00
1163.537,818.00
1164.458,773.50
1165.376,801.50
1166.296,826.00
1167.216,815.50
1168.136,819.50
1169.056,799.00
1169.974,760.50
1170.893,766.50
1171.813,765.00
1172.732,768.00
1173.650,778.00
1174.569,797.00
1175.488,788.00
1176.407,818.00
1177.326,732.00
1178.243,759.50
1179.161,719.00
1180.080,754.50
1180.999,770.50
1181.915,756.00
1182.834,741.50
1183.752,772.00
1184.670,741.50
1185.586,783.50
1186.504,802.00
1187.422,762.00
1188.340,729.00
1189.258,720.00
1190.173,765.50
1191.091,745.50
1192.008,823.00
1192.926,744.00
1193.841,726.00
1194.758,734.00
1195.675,758.00
1196.592,768.00
1197.507,753.00
1198.424,744.00
1199.340,746.00
1200.257,759.00
1201.172,734.50
1202.088,691.00
1203.004,754.50
1203.920,664.00
1204.835,795.00
1205.750,733.00
1206.666,724.00
1207.582,758.50
1208.496,672.50
1209.412,720.00
1210.327,738.50
1211.243,748.50
1212.156,664.00
1213.071,739.00
1213.986,739.00
1214.901,747.00
1215.814,703.00
1216.729,713.00
1217.644,741.00
1218.559,689.00
1219.471,747.00
1220.386,706.00
1221.300,721.00
1222.213,697.00
1223.127,747.00
1224.041,716.50
1224.955,728.00
1225.867,707.50
1226.781,704.50
1227.694,735.00
1228.608,774.50
1229.520,677.50
1230.433,774.50
1231.346,711.00
1232.260,721.50
1233.171,743.00
1234.084,744.50
1234.997,734.50
1235.908,764.00
1236.821,717.50
1237.733,706.50
1238.646,697.00
1239.556,709.50
1240.469,722.50
1241.381,724.00
1242.293,695.50
1243.203,737.50
1244.115,709.00
1245.027,738.50
1245.937,728.50
1246.849,728.50
1247.761,707.50
1248.672,768.00
1249.582,717.00
1250.493,761.50
1251.404,709.50
1252.313,767.50
1253.225,755.00
1254.135,779.50
1255.046,739.00
1255.955,762.00
1256.866,708.00
1257.777,678.50
1258.685,752.00
1259.596,716.50
1260.506,712.00
1261.416,719.00
1262.324,739.00
1263.234,722.50
1264.144,751.00
1265.052,716.50
1265.962,758.00
1266.872,694.00
1267.779,736.00
1268.689,761.50
1269.598,709.50
1270.507,721.50
1271.415,726.50
1272.324,703.50
1273.233,765.00
1274.140,715.00
1275.048,647.00
1275.957,748.00
1276.864,774.50
1277.772,694.00
1278.681,718.00
1279.587,747.50
1280.496,708.50
1281.404,830.00
1282.312,718.00
1283.218,746.50
1284.126,735.00
1285.033,753.00
1285.939,695.00
1286.847,708.00
1287.754,742.50
1288.660,729.00
1289.567,758.00
1290.474,692.50
1291.380,746.50
1292.286,814.50
1293.193,769.00
1294.098,711.00
1295.005,751.00
1295.912,712.00
1296.816,730.00
1297.723,764.00
1298.629,734.00
1299.534,705.50
1300.440,746.00
1301.346,734.00
1302.250,746.00
1303.156,729.50
1304.062,716.00
1304.966,732.00
1305.871,728.00
1306.777,745.00
1307.680,723.00
1308.586,721.00
1309.491,735.00
1310.394,697.50
1311.299,706.00
1312.204,743.00
1313.107,679.00
1314.012,726.50
1314.917,740.50
1315.819,742.00
1316.724,726.50
1317.628,781.50
1318.531,754.00
1319.435,745.50
1320.339,716.50
1321.241,680.00
1322.145,731.00
1323.049,745.50
1323.951,738.00
1324.854,695.00
1325.756,688.00
1326.659,738.00
1327.563,735.00
1328.464,712.00
1329.367,721.00
1330.271,720.00
1331.172,691.00
1332.074,730.00
1332.977,725.50
1333.878,723.00
1334.781,669.00
1335.683,730.50
1336.584,686.50
1337.486,731.50
1338.387,692.50
1339.289,666.00
1340.191,706.00
1341.091,683.50
1341.993,623.50
1342.895,642.50
1343.794,646.50
1344.696,679.50
1345.596,622.00
1346.497,633.50
1347.398,709.50
1348.298,678.00
1349.199,632.50
1350.100,646.50
1350.999,648.00
1351.900,710.50
1352.799,674.50
1353.699,651.00
1354.600,665.50
1355.499,665.00
1356.399,640.00
1357.297,684.50
1358.198,633.50
1359.098,654.50
1359.996,629.00
1360.896,659.00
1361.796,694.50
1362.694,599.00
1363.593,656.50
1364.491,610.00
1365.391,613.50
1366.290,613.00
1367.187,644.50
1368.086,666.50
1368.984,659.50
1369.883,587.00
1370.782,621.50
1371.679,667.00
1372.577,605.50
1373.474,617.50
1374.373,609.50
1375.269,587.00
1376.168,579.50
1377.066,603.00
1377.962,570.00
1378.860,633.50
1379.756,584.50
1380.654,611.50
1381.552,628.00
1382.448,627.50
1383.346,634.50
1384.241,615.50
1385.139,652.50
1386.036,581.00
1386.931,578.50
1387.829,553.00
1388.724,614.00
1389.621,539.00
1390.516,605.50
1391.413,531.50
1392.309,618.00
1393.204,621.00
1394.101,572.50
1394.995,522.50
1395.891,591.50
1396.786,578.00
1397.682,625.50
1398.578,614.00
1399.472,589.00
1400.368,579.50
1401.262,579.50
1402.158,555.50
1403.051,609.00
1403.947,566.50
1404.840,584.00
1405.736,556.50
1406.631,538.00
1407.524,560.50
1408.419,554.50
1409.312,585.50
1410.207,531.50
1411.100,556.50
1411.995,557.50
1412.888,545.00
1413.782,573.00
1414.675,550.50
1415.569,546.00
1416.463,505.50
1417.355,571.00
1418.249,583.50
1419.141,554.50
1420.035,629.50
1420.927,533.50
1421.821,523.50
1422.713,521.00
1423.606,542.00
1424.498,564.00
1425.391,616.00
1426.282,538.50
1427.175,520.00
1428.068,532.50
1428.960,505.50
1429.852,570.50
1430.743,533.00
1431.636,500.00
1432.527,523.00
1433.419,592.50
1434.310,519.50
1435.202,538.00
1436.092,533.50
1436.984,580.00
1437.875,548.00
1438.767,545.00
1439.657,535.00
1440.548,536.50
1441.438,536.50
1442.330,516.50
1443.219,540.00
1444.111,540.00
1445.000,550.50
1445.891,572.00
1446.781,514.00
1447.672,538.50
1448.561,499.50
1449.452,570.00
1450.340,540.00
1451.231,532.00
1452.120,565.50
1453.010,585.00
1453.899,552.00
1454.789,508.50
1455.677,564.50
1456.568,511.50
1457.456,523.50
1458.346,498.00
1459.234,488.50
1460.123,524.50
1461.011,495.00
1461.901,481.50
1462.788,477.00
1463.678,539.50
1464.565,537.00
1465.454,527.00
1466.342,512.50
1467.231,537.50
1468.118,479.00
1469.006,533.50
1469.893,533.00
1470.782,541.50
1471.669,464.50
1472.557,473.00
1473.444,493.50
1474.330,522.00
1475.218,488.00
1476.105,491.50
1476.993,473.50
1477.879,499.50
1478.767,476.00
1479.652,480.00
1480.540,464.50
1481.426,514.50
1482.313,530.50
1483.199,493.50
1484.086,433.00
1484.972,468.50
1485.857,444.00
1486.744,494.00
1487.629,505.50
1488.516,508.50
1489.401,455.50
1490.287,443.50
1491.172,456.00
1492.058,480.50
1492.943,465.00
1493.828,499.50
1494.714,479.50
1495.598,425.50
1496.484,580.50
1497.368,502.50
1498.254,489.00
1499.138,493.00
1500.022,474.00
1500.907,475.00
1501.791,435.00
1502.676,529.50
1503.560,496.50
1504.445,511.50
1505.328,487.00
1506.211,457.50
1507.096,450.00
1507.979,481.00
1508.864,437.50
1509.747,514.50
1510.631,452.50
1511.514,408.00
1512.397,495.00
1513.281,461.50
1514.163,506.50
1515.047,488.00
1515.930,465.00
1516.812,457.00
1517.696,508.50
1518.578,494.50
1519.461,475.50
1520.343,446.50
1521.225,501.50
1522.108,426.50
1522.990,492.50
1523.873,452.50
1524.754,447.00
1525.635,490.00
1526.518,459.00
1527.399,482.00
1528.282,449.50
1529.163,541.00
1530.044,459.00
1530.926,468.00
1531.807,470.50
1532.689,521.50
1533.569,454.00
1534.450,403.50
1535.332,457.00
1536.212,500.50
1537.092,466.50
1537.974,454.00
1538.854,421.50
1539.735,455.00
1540.615,414.50
1541.495,445.00
1542.376,414.50
1543.255,457.00
1544.135,472.50
1545.016,444.00
1545.895,445.50
1546.774,473.50
1547.655,478.00
1548.534,456.50
1549.414,444.50
1550.293,471.50
1551.172,414.50
1552.052,459.50
1552.930,473.50
1553.809,472.00
1554.689,465.00
1555.567,445.50
1556.445,447.50
1557.325,472.00
1558.203,463.00
1559.080,482.00
1559.960,466.00
1560.838,438.50
1561.715,437.00
1562.594,464.50
1563.472,424.50
1564.349,445.50
1565.228,459.50
1566.105,430.00
1566.982,413.50
1567.861,408.00
1568.738,397.50
1569.615,437.50
1570.493,430.50
1571.370,422.00
1572.246,430.00
1573.124,453.00
1574.000,444.50
1574.877,449.50
1575.755,419.00
1576.631,406.50
1577.507,428.00
1578.384,439.50
1579.260,416.50
1580.136,449.00
1581.011,372.50
1581.889,456.50
1582.764,453.50
1583.639,467.50
1584.516,441.00
1585.391,382.00
1586.266,432.00
1587.143,435.50
1588.018,414.00
1588.893,429.50
1589.768,407.50
1590.644,384.50
1591.519,366.00
1592.393,424.00
1593.269,395.50
1594.143,406.00
1595.018,453.00
1595.892,413.00
1596.767,421.50
1597.641,450.00
1598.515,429.50
1599.391,455.50
1600.264,322.50
1601.138,161.00
1602.011,376.50
1602.886,384.00
1603.760,459.50
1604.633,409.00
1605.508,381.50
1606.381,437.50
1607.254,453.00
1608.127,427.50
1609.001,377.00
1609.874,435.00
1610.746,394.00
1611.619,425.50
1612.493,431.50
1613.365,428.00
1614.238,414.50
1615.110,395.00
1615.984,414.00
1616.855,463.50
1617.727,444.00
1618.599,423.50
1619.473,380.50
1620.344,438.50
1621.216,434.00
1622.087,343.00
1622.960,383.50
1623.832,422.50
1624.703,431.00
1625.574,403.00
1626.445,417.50
1627.317,407.50
1628.188,431.50
1629.059,445.50
1629.930,389.00
1630.802,427.50
1631.672,406.50
1632.543,467.00
1633.413,432.00
1634.283,404.00
1635.155,379.00
1636.025,482.50
1636.895,451.00
1637.765,415.00
1638.636,391.00
1639.506,429.00
1640.376,429.50
1641.245,371.50
1642.114,390.50
1642.985,397.50
1643.855,417.50
1644.724,354.00
1645.593,426.00
1646.462,429.50
1647.333,415.00
1648.201,388.50
1649.070,420.00
1649.939,370.50
1650.807,387.00
1651.676,431.00
1652.546,428.00
1653.414,393.50
1654.282,426.00
1655.150,412.00
1656.018,366.50
1656.888,379.00
1657.756,423.50
1658.623,387.50
1659.491,386.00
1660.359,384.50
1661.226,405.50
1662.095,371.50
1662.962,389.00
1663.830,420.00
1664.697,432.00
1665.564,394.50
1666.431,466.00
1667.297,404.00
1668.166,416.00
1669.033,417.00
1669.899,421.50
1670.766,390.00
1671.632,411.50
1672.499,398.50
1673.367,367.00
1674.233,456.50
1675.099,428.00
1675.965,401.00
1676.831,395.50
1677.696,393.50
1678.562,426.00
1679.430,411.00
1680.295,381.00
1681.161,350.00
1682.026,374.50
1682.891,375.50
1683.756,340.50
1684.621,391.50
1685.486,386.50
1686.353,456.50
1687.218,333.00
1688.083,394.50
1688.947,351.50
1689.812,397.00
1690.677,353.50
1691.541,405.00
1692.405,347.00
1693.269,403.00
1694.135,386.50
1694.999,448.00
1695.863,368.50
1696.727,397.50
1697.591,383.00
1698.455,397.00
1699.318,461.00
1700.182,393.00
1701.045,356.00
1701.909,436.00
1702.772,409.00
1703.637,371.50
1704.500,409.50
1705.363,409.50
1706.226,401.00
1707.089,360.00
1707.951,401.00
1708.814,410.00
1709.677,393.50
1710.539,394.50
1711.402,353.00
1712.264,379.00
1713.126,378.50
1713.988,410.00
1714.852,372.00
1715.714,371.00
1716.576,428.00
1717.438,406.50
1718.299,413.50
1719.161,447.00
1720.023,397.50
1720.884,393.50
1721.745,402.00
1722.607,396.50
1723.468,391.50
1724.329,393.00
1725.190,361.00
1726.051,326.00
1726.912,395.50
1727.772,326.00
1728.633,338.00
1729.494,362.50
1730.354,470.00
1731.214,342.50
1732.075,346.00
1732.935,411.00
1733.797,378.50
1734.657,394.50
1735.517,397.00
1736.377,400.50
1737.237,388.50
1738.096,387.00
1738.956,404.00
1739.816,369.00
1740.675,412.00
1741.534,365.50
1742.394,400.50
1743.253,358.00
1744.112,368.00
1744.971,381.00
1745.830,401.00
1746.689,355.00
1747.547,385.00
1748.406,412.50
1749.265,361.00
1750.123,367.00
1750.982,382.00
1751.840,359.00
1752.698,374.50
1753.556,358.00
1754.414,410.00
1755.272,348.00
1756.130,360.50
1756.988,397.00
1757.846,370.50
1758.703,381.00
1759.559,390.00
1760.417,380.50
1761.274,372.00
1762.131,358.00
1762.989,337.00
1763.846,399.50
1764.703,364.00
1765.560,335.00
1766.417,380.50
1767.273,379.00
1768.130,352.00
1768.987,403.50
1769.843,354.50
1770.700,381.00
1771.556,391.50
1772.412,412.50
1773.268,348.00
1774.125,355.00
1774.980,402.50
1775.836,324.00
1776.692,441.00
1777.546,372.00
1778.402,335.00
1779.257,369.50
1780.113,399.00
1780.968,377.00
1781.824,387.00
1782.679,315.00
1783.534,383.00
1784.389,398.00
1785.244,404.50
1786.099,309.00
1786.954,311.00
1787.808,368.00
1788.661,398.00
1789.516,397.00
1790.370,367.50
1791.225,386.50
1792.079,376.00
1792.933,361.00
1793.787,332.00
1794.641,388.00
1795.495,374.00
1796.349,370.50
1797.201,366.00
1798.055,395.00
1798.908,374.50
1799.762,377.00
1800.615,339.50
1801.469,304.50
1802.322,388.00
1803.175,374.50
1804.028,353.50
1804.880,371.00
1805.732,368.50
1806.585,373.00
1807.438,370.00
1808.291,360.50
1809.143,365.00
1809.996,350.00
1810.846,370.50
1811.699,384.50
1812.551,370.50
1813.403,381.50
1814.255,380.50
1815.107,330.50
1815.959,408.50
1816.809,277.50
1817.661,358.00
1818.512,359.50
1819.364,375.50
1820.215,320.50
1821.067,345.50
1821.918,391.00
1822.768,345.00
1823.619,346.50
1824.470,346.50
1825.321,357.50
1826.172,352.50
1827.021,325.00
1827.871,322.50
1828.722,356.50
1829.572,336.50
1830.423,349.50
1831.273,350.50
1832.122,366.00
1832.972,342.00
1833.822,335.00
1834.672,355.50
1835.522,315.50
1836.370,368.50
1837.220,360.00
1838.070,390.00
1838.919,390.50
1839.769,346.50
1840.616,317.50
1841.466,337.00
1842.315,325.00
1843.164,351.50
1844.013,346.00
1844.860,331.50
1845.709,340.00
1846.558,351.50
1847.407,366.00
1848.254,337.00
1849.102,421.00
1849.951,391.50
1850.799,339.50
1851.648,350.50
1852.494,348.00
1853.342,363.50
1854.190,363.50
1855.038,393.00
1855.884,375.00
1856.732,330.00
1857.580,317.50
1858.428,367.00
1859.273,364.00
1860.121,303.00
1860.968,299.50
1861.816,389.50
1862.661,354.00
1863.508,372.50
1864.355,365.00
1865.202,316.00
1866.047,330.00
1866.894,323.00
1867.741,316.50
1868.586,356.00
1869.432,346.00
1870.279,325.50
1871.125,391.50
1871.970,321.50
1872.816,314.00
1873.662,362.50
1874.506,332.00
1875.352,348.50
1876.198,373.50
1877.044,361.00
1877.888,382.50
1878.734,352.00
1879.579,364.00
1880.423,328.50
1881.268,373.00
1882.113,342.50
1882.959,371.00
1883.802,347.00
1884.647,313.00
1885.492,352.00
1886.335,345.00
1887.180,347.00
1888.025,361.00
1888.867,323.50
1889.712,357.00
1890.556,325.00
1891.399,358.00
1892.243,352.50
1893.087,309.50
1893.930,378.00
1894.774,347.00
1895.618,335.50
1896.460,371.50
1897.304,351.50
1898.147,373.50
1898.989,282.00
1899.833,305.50
1900.676,346.50
1901.518,365.50
1902.361,312.50
1903.202,368.00
1904.046,402.50
1904.889,368.50
1905.730,351.00
1906.573,403.50
1907.415,345.50
1908.256,320.00
1909.099,383.50
1909.941,400.00
1910.782,319.00
1911.624,395.50
1912.465,344.00
1913.307,358.50
1914.149,320.00
1914.989,356.00
1915.831,286.50
1916.671,401.50
1917.513,368.50
1918.355,309.00
1919.195,351.00
1920.036,335.50
1920.876,340.50
1921.717,360.50
1922.558,362.00
1923.398,330.00
1924.239,332.50
1925.078,364.50
1925.919,382.50
1926.760,294.50
1927.599,352.00
1928.440,305.00
1929.279,349.50
1930.119,360.50
1930.958,365.00
1931.798,329.50
1932.638,347.00
1933.477,303.00
1934.317,332.00
1935.155,353.00
1935.995,335.00
1936.833,315.50
1937.673,312.50
1938.512,320.50
1939.350,368.50
1940.190,364.50
1941.027,363.00
1941.867,349.00
1942.704,372.00
1943.543,373.00
1944.381,327.00
1945.220,318.50
1946.057,309.50
1946.896,294.50
1947.733,265.00
1948.572,326.50
1949.408,345.50
1950.247,339.50
1951.085,364.00
1951.922,294.50
1952.760,346.00
1953.597,353.00
1954.435,329.50
1955.271,330.00
1956.109,376.00
1956.945,341.50
1957.783,286.50
1958.619,318.50
1959.456,327.00
1960.292,303.00
1961.129,377.00
1961.965,362.00
1962.802,302.00
1963.638,321.00
1964.475,339.00
1965.310,329.00
1966.145,340.50
1966.982,312.50
1967.817,286.50
1968.654,382.50
1969.489,343.00
1970.325,332.00
1971.160,316.00
1971.996,295.00
1972.831,319.50
1973.667,284.00
1974.501,346.00
1975.337,377.00
1976.171,354.00
1977.006,320.00
1977.841,373.50
1978.675,348.50
1979.511,313.50
1980.345,364.50
1981.180,334.50
1982.014,317.50
1982.849,324.50
1983.682,344.50
1984.516,369.50
1985.351,323.50
1986.184,352.50
1987.019,314.00
1987.852,382.00
1988.687,395.00
1989.519,335.50
1990.352,359.00
1991.187,371.00
1992.019,332.50
1992.854,332.00
1993.686,332.50
1994.518,387.50
1995.352,318.00
1996.185,320.50
1997.019,333.50
1997.851,346.00
1998.682,331.00
1999.516,361.00
2000.348,348.50

<< BACKGROUND SPECTRUM >>
Wave[dcm-1],No34
96.716,2578.00
97.759,2385.00
98.802,2305.00
99.846,2932.00
100.886,2575.00
101.929,2769.00
102.972,2743.00
104.015,2647.00
105.057,2749.00
106.100,2254.00
107.142,2663.00
108.184,3026.00
109.226,2895.00
110.268,3075.00
111.310,3329.00
112.352,2919.00
113.393,2980.00
114.435,2854.00
115.476,3074.00
116.517,3095.00
117.558,2590.00
118.599,2965.00
119.640,3256.00
120.681,3225.00
121.722,3191.00
122.762,2877.00
123.803,2779.00
124.843,3097.00
125.883,3374.00
126.923,3571.00
127.963,3255.00
129.001,3602.00
130.041,4007.00
131.080,3305.00
132.120,3163.00
133.159,3519.00
134.199,3584.00
135.238,3155.00
136.277,3499.00
137.316,3702.00
138.355,3567.00
139.393,3196.00
140.432,3303.00
141.470,3378.00
142.509,3196.00
143.547,3754.00
144.585,2980.00
145.623,3399.00
146.661,3148.00
147.699,3472.00
148.736,3605.00
149.774,3196.00
150.811,3498.00
151.849,3944.00
152.886,3412.00
153.923,3686.00
154.960,3113.00
155.997,3920.00
157.034,4892.00
158.072,3573.00
159.109,4084.00
160.145,4219.00
161.182,3225.00
162.218,3536.00
163.254,3334.00
164.290,3225.00
165.326,4063.00
166.361,3898.00
167.397,3528.00
168.432,3704.00
169.468,3423.00
170.503,3667.00
171.538,3368.00
172.573,3728.00
173.608,3264.00
174.643,3742.00
175.677,3643.00
176.712,3781.00
177.746,3821.00
178.781,3364.00
179.815,2712.00
180.849,3779.00
181.883,3343.00
182.917,2827.00
183.951,3093.00
184.984,3796.00
186.020,3279.00
187.053,3679.00
188.087,3219.00
189.120,3534.00
190.153,3725.00
191.186,3671.00
192.219,3815.00
193.251,3734.00
194.284,3796.00
195.317,3867.00
196.349,10574.00
197.381,3411.00
198.413,3488.00
199.445,3301.00
200.477,3526.00
201.509,3560.00
202.543,3571.00
203.575,3968.00
204.606,3691.00
205.637,4380.00
206.669,3172.00
207.700,3743.00
208.731,3552.00
209.762,3198.00
210.792,3280.00
211.823,3660.00
212.854,3282.00
213.884,4372.00
214.914,3713.00
215.947,3596.00
216.977,3692.00
218.007,3589.00
219.037,3813.00
220.066,3375.00
221.096,3801.00
222.126,3180.00
223.155,3415.00
224.184,3778.00
225.214,4314.00
226.245,3906.00
227.274,3329.00
228.302,3714.00
229.331,3753.00
230.360,3413.00
231.388,3429.00
232.417,3198.00
233.445,3589.00
234.473,3426.00
235.501,3747.00
236.531,3698.00
237.559,3681.00
238.587,3354.00
239.614,3269.00
240.642,3595.00
241.669,3697.00
242.696,3694.00
243.724,3665.00
244.753,4027.00
245.780,3438.00
246.806,3207.00
247.833,3632.00
248.860,3414.00
249.886,3650.00
250.913,3281.00
251.939,3519.00
252.967,3484.00
253.993,3536.00
255.019,3953.00
256.045,3578.00
257.070,4026.00
258.096,3296.00
259.121,3732.00
260.147,3575.00
261.174,3468.00
262.199,3413.00
263.224,3641.00
264.249,3933.00
265.274,4059.00
266.298,3569.00
267.323,3591.00
268.349,3914.00
269.374,3239.00
270.398,3251.00
271.422,3703.00
272.446,3343.00
273.470,3124.00
274.496,3758.00
275.519,3746.00
276.543,3862.00
277.566,3950.00
278.589,3893.00
279.613,3753.00
280.636,3736.00
281.661,3844.00
282.684,3872.00
283.706,3935.00
284.729,4175.00
285.751,3008.00
286.774,4000.00
287.798,3365.00
288.820,3046.00
289.842,3310.00
290.864,3421.00
291.886,3684.00
292.910,3498.00
293.932,4124.00
294.953,3584.00
295.974,3606.00
296.996,3740.00
298.017,3520.00
299.040,3389.00
300.061,3717.00
301.082,3417.00
302.102,3268.00
303.123,3764.00
304.143,3575.00
305.166,3494.00
306.186,3755.00
307.206,3320.00
308.226,3769.00
309.246,3107.00
310.268,3892.00
311.288,3514.00
312.307,3248.00
313.327,3522.00
314.346,3803.00
315.368,3001.00
316.387,3668.00
317.406,3684.00
318.425,3548.00
319.443,3527.00
320.464,3155.00
321.483,4053.00
322.501,3388.00
323.520,3964.00
324.538,3475.00
325.558,4074.00
326.576,3614.00
327.594,3532.00
328.612,3409.00
329.629,3186.00
330.649,3797.00
331.666,3557.00
332.684,3141.00
333.701,3723.00
334.718,3217.00
335.737,3438.00
336.754,3750.00
337.771,3818.00
338.787,3211.00
339.806,3478.00
340.823,3436.00
341.839,3544.00
342.855,3477.00
343.871,3587.00
344.889,3344.00
345.905,3809.00
346.921,3805.00
347.937,4363.00
348.954,4154.00
349.970,3713.00
350.985,3554.00
352.000,3143.00
353.017,3726.00
354.032,3164.00
355.047,3854.00
356.062,3496.00
357.077,3442.00
358.093,3976.00
359.108,3700.00
360.122,3624.00
361.136,3489.00
362.152,3957.00
363.166,3249.00
364.180,3125.00
365.194,4020.00
366.210,3394.00
367.223,3310.00
368.237,3418.00
369.250,3614.00
370.265,3365.00
371.278,3896.00
372.291,3680.00
373.304,3025.00
374.319,3757.00
375.332,3794.00
376.344,4108.00
377.357,3461.00
378.371,3843.00
379.383,3379.00
380.395,4356.00
381.407,4096.00
382.421,3402.00
383.433,3407.00
384.445,3379.00
385.456,3509.00
386.470,3129.00
387.481,3929.00
388.492,3895.00
389.505,3275.00
390.516,3994.00
391.527,3506.00
392.538,3510.00
393.551,3655.00
394.561,4339.00
395.572,3688.00
396.582,3608.00
397.594,3784.00
398.604,3390.00
399.614,3586.00
400.624,3381.00
401.636,3429.00
402.646,3536.00
403.655,3177.00
404.667,3385.00
405.676,3383.00
406.685,4342.00
407.694,3900.00
408.705,3019.00
409.714,3138.00
410.723,3306.00
411.734,3285.00
412.742,3368.00
413.751,3670.00
414.759,3689.00
415.769,3605.00
416.777,3767.00
417.785,3552.00
418.795,3393.00
419.803,3631.00
420.811,3291.00
421.818,3986.00
422.828,3500.00
423.835,3382.00
424.842,3451.00
425.852,3282.00
426.859,3704.00
427.866,3744.00
428.874,3632.00
429.881,3490.00
430.888,3804.00
431.894,3609.00
432.902,3589.00
433.909,4484.00
434.915,3636.00
435.923,4260.00
436.929,3098.00
437.935,3479.00
438.942,3401.00
439.948,3536.00
440.953,4097.00
441.959,3217.00
442.966,3935.00
443.971,3703.00
444.976,3185.00
445.983,3615.00
446.988,3490.00
447.993,4026.00
448.999,3650.00
450.004,3594.00
451.008,3391.00
452.014,4053.00
453.019,3837.00
454.023,3268.00
455.029,3176.00
456.032,4042.00
457.036,3502.00
458.042,2878.00
459.045,3433.00
460.049,3729.00
461.052,4077.00
462.057,3776.00
463.060,4045.00
464.063,3455.00
465.068,3419.00
466.071,3295.00
467.073,3909.00
468.078,3175.00
469.080,3115.00
470.082,3555.00
471.087,3443.00
472.089,3586.00
473.091,3826.00
474.095,4026.00
475.096,3467.00
476.098,3390.00
477.101,3756.00
478.103,3321.00
479.104,4145.00
480.107,3411.00
481.108,3032.00
482.109,4220.00
483.112,4210.00
484.113,4582.00
485.114,3786.00
486.116,3584.00
487.117,3821.00
488.117,3600.00
489.119,3704.00
490.119,3737.00
491.121,3232.00
492.121,3070.00
493.121,2901.00
494.123,3588.00
495.122,3650.00
496.122,3549.00
497.123,4529.00
498.122,3383.00
499.121,3628.00
500.122,3589.00
501.121,3174.00
502.120,3143.00
503.121,3259.00
504.119,3276.00
505.118,3787.00
506.118,3300.00
507.117,3303.00
508.115,3730.00
509.115,3577.00
510.113,3142.00
511.112,3849.00
512.110,3483.00
513.108,3757.00
514.107,3894.00
515.105,3789.00
516.102,3914.00
517.101,3495.00
518.098,3627.00
519.095,4033.00
520.094,3386.00
521.091,3389.00
522.089,3739.00
523.086,3382.00
524.082,3710.00
525.081,3605.00
526.077,4767.00
527.073,4538.00
528.071,3545.00
529.067,3404.00
530.064,3426.00
531.060,3174.00
532.056,3436.00
533.053,3911.00
534.048,3748.00
535.044,3573.00
536.041,3669.00
537.036,3592.00
538.030,3703.00
539.027,3804.00
540.022,3150.00
541.019,3526.00
542.013,3788.00
543.007,3682.00
544.004,3508.00
544.998,3505.00
545.994,4112.00
546.988,3916.00
547.981,3444.00
548.977,4197.00
549.971,3714.00
550.964,3868.00
551.960,3648.00
552.953,3584.00
553.948,3775.00
554.941,3349.00
555.934,3177.00
556.929,3664.00
557.922,3301.00
558.916,3810.00
559.909,4042.00
560.901,3619.00
561.895,3617.00
562.888,3238.00
563.880,3748.00
564.874,3936.00
565.865,3795.00
566.859,3203.00
567.851,4005.00
568.842,3476.00
569.836,3565.00
570.827,3254.00
571.820,3631.00
572.811,3730.00
573.802,3548.00
574.795,3310.00
575.786,3865.00
576.779,3663.00
577.769,3217.00
578.760,3633.00
579.752,3213.00
580.742,3359.00
581.735,3734.00
582.725,3343.00
583.714,3810.00
584.706,3271.00
585.696,3519.00
586.688,3744.00
587.677,3502.00
588.667,3704.00
589.658,3507.00
590.647,3682.00
591.638,3604.00
592.627,3381.00
593.616,3157.00
594.607,3678.00
595.595,3564.00
596.586,3201.00
597.574,3911.00
598.562,3919.00
599.553,3132.00
600.541,3553.00
601.531,3651.00
602.519,3462.00
603.508,3687.00
604.496,3709.00
605.484,3618.00
606.473,3534.00
607.460,3421.00
608.450,3427.00
609.437,3738.00
610.424,3865.00
611.413,3124.00
612.400,3279.00
613.388,3550.00
614.375,3368.00
615.361,3490.00
616.350,3269.00
617.336,8426.00
618.324,3948.00
619.310,3348.00
620.298,3257.00
621.284,3618.00
622.270,3264.00
623.257,3609.00
624.243,3613.00
625.230,3798.00
626.216,3545.00
627.203,3952.00
628.188,3462.00
629.173,3415.00
630.160,3269.00
631.145,2707.00
632.131,3381.00
633.116,3217.00
634.102,3634.00
635.087,3843.00
636.071,3786.00
637.057,3362.00
638.041,3138.00
639.027,3241.00
640.011,3471.00
640.995,3228.00
641.980,3320.00
642.964,3396.00
643.949,3935.00
644.932,2774.00
645.918,3345.00
646.901,3568.00
647.886,3292.00
648.868,3379.00
649.851,3185.00
650.836,2926.00
651.818,3208.00
652.803,3692.00
653.785,3506.00
654.769,3670.00
655.751,3684.00
656.733,3936.00
657.717,3040.00
658.699,3557.00
659.683,3364.00
660.664,3165.00
661.648,3396.00
662.629,3345.00
663.611,3295.00
664.594,3064.00
665.575,3078.00
666.558,3452.00
667.539,3111.00
668.521,3322.00
669.502,3385.00
670.484,3369.00
671.465,3221.00
672.445,3426.00
673.427,3221.00
674.407,3183.00
675.390,3555.00
676.369,3322.00
677.351,2956.00
678.331,3602.00
679.312,3447.00
680.292,3239.00
681.271,2965.00
682.253,3600.00
683.232,3113.00
684.213,3238.00
685.192,3686.00
686.172,3934.00
687.151,3352.00
688.132,3442.00
689.110,3577.00
690.089,3725.00
691.069,2893.00
692.047,2841.00
693.027,2956.00
694.005,3411.00
694.985,3991.00
695.963,3494.00
696.943,3202.00
697.920,3005.00
698.898,3802.00
699.877,3634.00
700.854,3276.00
701.833,3221.00
702.810,3739.00
703.789,3516.00
704.766,4457.00
705.745,3941.00
706.721,3207.00
707.698,3735.00
708.676,3044.00
709.653,3258.00
710.631,3666.00
711.607,3407.00
712.585,3423.00
713.561,3148.00
714.539,3885.00
715.514,3285.00
716.492,3098.00
717.467,3782.00
718.443,3013.00
719.420,3670.00
720.395,3771.00
721.372,3492.00
722.347,3688.00
723.324,3198.00
724.298,3373.00
725.275,3151.00
726.250,3320.00
727.226,3157.00
728.200,2976.00
729.176,3334.00
730.151,3607.00
731.125,3832.00
732.100,2966.00
733.074,3320.00
734.050,3221.00
735.023,3043.00
735.999,3288.00
736.972,3221.00
737.947,3712.00
738.921,3406.00
739.896,3563.00
740.869,3401.00
741.841,3271.00
742.816,3765.00
743.789,3144.00
744.763,3119.00
745.736,3314.00
746.710,3183.00
747.682,3074.00
748.656,3312.00
749.628,3267.00
750.602,3333.00
751.574,3418.00
752.548,4212.00
753.519,3496.00
754.491,2906.00
755.464,3143.00
756.435,3997.00
757.408,3589.00
758.379,3477.00
759.352,2873.00
760.323,2966.00
761.296,3259.00
762.267,3338.00
763.239,3083.00
764.209,3575.00
765.182,4464.00
766.152,3619.00
767.124,3089.00
768.094,3131.00
769.064,3507.00
770.036,2964.00
771.005,3663.00
771.977,3174.00
772.947,3275.00
773.918,3703.00
774.887,3292.00
775.858,3142.00
776.827,3228.00
777.798,3219.00
778.767,3835.00
779.738,3232.00
780.707,3209.00
781.677,3429.00
782.646,3082.00
783.614,3675.00
784.584,3384.00
785.552,3506.00
786.522,2954.00
787.490,3308.00
788.460,3154.00
789.428,3229.00
790.397,3712.00
791.365,3008.00
792.334,3197.00
793.302,3412.00
794.271,3415.00
795.238,3177.00
796.207,3141.00
797.174,3587.00
798.143,2985.00
799.109,3654.00
800.076,3178.00
801.044,2898.00
802.011,3082.00
802.979,3098.00
803.945,3289.00
804.913,3916.00
805.879,3240.00
806.847,2936.00
807.813,3584.00
808.780,3263.00
809.746,3257.00
810.713,3649.00
811.678,2972.00
812.646,3200.00
813.611,3219.00
814.578,3023.00
815.543,3627.00
816.510,2845.00
817.474,3120.00
818.439,3247.00
819.405,3479.00
820.370,3094.00
821.336,3063.00
822.300,3401.00
823.266,3191.00
824.230,3466.00
825.196,3320.00
826.160,3618.00
827.126,3623.00
828.089,4022.00
829.055,3289.00
830.018,3380.00
830.983,4037.00
831.946,3106.00
832.911,3100.00
833.874,3939.00
834.837,3096.00
835.802,3215.00
836.765,3720.00
837.729,3144.00
838.691,3243.00
839.656,3596.00
840.618,3438.00
841.582,3496.00
842.544,3592.00
843.508,3742.00
844.470,3017.00
845.434,2872.00
846.395,2732.00
847.359,3129.00
848.320,2889.00
849.283,3055.00
850.245,3140.00
851.208,3517.00
852.169,3214.00
853.130,3018.00
854.092,3446.00
855.053,3168.00
856.016,3231.00
856.976,4321.00
857.938,3280.00
858.899,3296.00
859.861,2953.00
860.821,3183.00
861.783,2615.00
862.743,3237.00
863.704,3540.00
864.664,2754.00
865.626,3358.00
866.585,3067.00
867.546,3343.00
868.506,3312.00
869.467,2792.00
870.426,3320.00
871.387,3474.00
872.346,3526.00
873.304,3340.00
874.265,3453.00
875.223,3256.00
876.184,3353.00
877.142,3080.00
878.102,3197.00
879.060,3178.00
880.021,3328.00
880.978,2855.00
881.938,3181.00
882.896,3535.00
883.856,3405.00
884.813,3173.00
885.772,3175.00
886.730,3407.00
887.689,3430.00
888.646,3126.00
889.603,3566.00
890.562,3618.00
891.519,3366.00
892.477,3393.00
893.434,3309.00
894.392,2837.00
895.349,3252.00
896.307,3376.00
897.263,3470.00
898.221,3310.00
899.177,3071.00
900.135,3428.00
901.091,3229.00
902.048,3741.00
903.004,3241.00
903.961,3034.00
904.917,3205.00
905.874,3243.00
906.829,2950.00
907.784,3275.00
908.741,3257.00
909.696,3114.00
910.653,2791.00
911.607,3124.00
912.564,3151.00
913.518,3142.00
914.475,3241.00
915.429,5002.00
916.385,2912.00
917.339,3635.00
918.295,3344.00
919.249,3455.00
920.205,3288.00
921.158,3409.00
922.114,3142.00
923.067,3276.00
924.020,3310.00
924.976,3132.00
925.929,3382.00
926.884,3284.00
927.837,3485.00
928.791,3464.00
929.744,2940.00
930.699,3264.00
931.651,3276.00
932.606,2890.00
933.558,3101.00
934.512,3432.00
935.464,3333.00
936.418,3605.00
937.370,3361.00
938.322,3007.00
939.276,3124.00
940.227,3222.00
941.181,3323.00
942.132,3619.00
943.085,3838.00
944.036,2788.00
944.990,3533.00
945.941,3031.00
946.893,3103.00
947.844,2892.00
948.797,3352.00
949.747,3990.00
950.700,3111.00
951.650,2690.00
952.601,3377.00
953.553,2984.00
954.503,3481.00
955.455,3206.00
956.405,3221.00
957.356,2919.00
958.306,3513.00
959.258,3187.00
960.207,3649.00
961.158,3511.00
962.108,3207.00
963.059,2930.00
964.008,2890.00
964.959,3879.00
965.908,3170.00
966.856,2999.00
967.807,2812.00
968.756,3604.00
969.706,3283.00
970.654,3108.00
971.605,3227.00
972.553,3344.00
973.503,3229.00
974.451,3527.00
975.401,3265.00
976.348,3283.00
977.296,3136.00
978.246,3479.00
979.193,3634.00
980.142,2978.00
981.090,3311.00
982.039,3184.00
982.986,3314.00
983.935,3553.00
984.882,3328.00
985.830,3438.00
986.777,3384.00
987.725,3053.00
988.672,2986.00
989.618,3261.00
990.567,3005.00
991.513,3133.00
992.461,3050.00
993.407,3413.00
994.354,3330.00
995.300,3366.00
996.248,3342.00
997.193,3384.00
998.141,3190.00
999.086,3396.00
1000.031,3312.00
1000.978,2837.00
1001.924,3208.00
1002.870,3317.00
1003.815,2636.00
1004.762,3040.00
1005.707,3250.00
1006.653,3137.00
1007.598,3166.00
1008.542,2869.00
1009.488,2836.00
1010.432,3073.00
1011.378,2947.00
1012.322,3645.00
1013.268,2919.00
1014.212,3197.00
1015.157,3271.00
1016.101,3674.00
1017.046,2919.00
1017.990,2922.00
1018.933,3203.00
1019.878,2970.00
1020.821,3013.00
1021.766,2850.00
1022.709,3109.00
1023.654,3170.00
1024.596,3472.00
1025.541,3662.00
1026.483,3628.00
1027.425,3327.00
1028.370,3381.00
1029.312,3413.00
1030.256,3073.00
1031.198,3108.00
1032.141,3103.00
1033.083,3610.00
1034.027,3298.00
1034.968,3395.00
1035.910,2732.00
1036.853,3178.00
1037.794,3265.00
1038.738,2924.00
1039.679,3483.00
1040.621,3057.00
1041.562,3129.00
1042.503,3499.00
1043.446,2900.00
1044.386,3499.00
1045.329,3218.00
1046.269,3294.00
1047.211,3170.00
1048.151,3233.00
1049.093,2891.00
1050.033,4009.00
1050.973,3317.00
1051.915,3137.00
1052.854,3115.00
1053.796,3411.00
1054.735,3058.00
1055.677,3083.00
1056.616,3254.00
1057.555,3303.00
1058.496,2883.00
1059.435,3413.00
1060.376,3066.00
1061.315,3041.00
1062.255,2894.00
1063.194,3166.00
1064.132,2887.00
1065.073,3264.00
1066.011,3238.00
1066.951,3184.00
1067.889,2944.00
1068.829,3271.00
1069.767,3269.00
1070.705,2553.00
1071.644,3073.00
1072.582,2773.00
1073.521,3087.00
1074.459,3167.00
1075.398,3299.00
1076.335,3039.00
1077.272,3851.00
1078.211,3362.00
1079.148,3683.00
1080.087,3210.00
1081.023,3630.00
1081.962,3443.00
1082.898,2684.00
1083.835,3079.00
1084.773,2777.00
1085.709,2829.00
1086.647,3170.00
1087.583,3085.00
1088.519,3314.00
1089.457,3327.00
1090.392,2754.00
1091.330,3201.00
1092.266,3119.00
1093.203,3488.00
1094.138,2799.00
1095.073,3649.00
1096.010,3486.00
1096.945,3103.00
1097.882,2777.00
1098.817,2654.00
1099.752,3331.00
1100.688,3165.00
1101.623,3259.00
1102.559,3283.00
1103.493,3432.00
1104.430,2718.00
1105.364,2875.00
1106.298,3103.00
1107.234,3734.00
1108.167,2921.00
1109.094,3089.00
1110.019,3107.00
1110.945,3303.00
1111.869,3152.00
1112.795,3023.00
1113.720,3174.00
1114.646,3146.00
1115.571,2583.00
1116.495,3201.00
1117.420,3234.00
1118.345,2997.00
1119.270,3144.00
1120.195,3226.00
1121.118,3551.00
1122.042,3405.00
1122.967,3142.00
1123.891,3225.00
1124.816,3217.00
1125.738,3178.00
1126.663,2606.00
1127.587,3052.00
1128.511,2998.00
1129.435,3178.00
1130.357,3225.00
1131.280,3964.00
1132.204,2952.00
1133.128,2945.00
1134.051,3052.00
1134.972,3767.00
1135.896,3069.00
1136.819,3441.00
1137.742,2970.00
1138.665,3301.00
1139.586,3151.00
1140.509,2739.00
1141.431,2979.00
1142.354,3648.00
1143.276,3154.00
1144.197,3563.00
1145.119,3242.00
1146.041,2891.00
1146.964,3373.00
1147.885,3268.00
1148.806,3098.00
1149.727,3180.00
1150.649,2759.00
1151.571,3187.00
1152.492,3341.00
1153.412,3257.00
1154.333,3136.00
1155.254,3018.00
1156.175,3011.00
1157.095,3619.00
1158.016,3162.00
1158.936,2973.00
1159.857,3313.00
1160.778,3071.00
1161.697,2779.00
1162.617,3209.00
1163.537,3827.00
1164.458,3643.00
1165.376,2966.00
1166.296,3318.00
1167.216,3479.00
1168.136,2999.00
1169.056,2862.00
1169.974,3113.00
1170.893,3684.00
1171.813,3323.00
1172.732,3070.00
1173.650,3204.00
1174.569,3959.00
1175.488,3320.00
1176.407,2866.00
1177.326,2968.00
1178.243,3157.00
1179.161,3030.00
1180.080,3076.00
1180.999,3280.00
1181.915,3108.00
1182.834,2738.00
1183.752,3312.00
1184.670,3736.00
1185.586,2648.00
1186.504,2956.00
1187.422,3096.00
1188.340,2849.00
1189.258,3297.00
1190.173,3132.00
1191.091,3437.00
1192.008,2932.00
1192.926,2998.00
1193.841,3278.00
1194.758,3268.00
1195.675,2899.00
1196.592,3433.00
1197.507,2896.00
1198.424,3292.00
1199.340,3600.00
1200.257,3051.00
1201.172,3282.00
1202.088,2605.00
1203.004,3208.00
1203.920,3437.00
1204.835,3714.00
1205.750,3465.00
1206.666,3546.00
1207.582,2889.00
1208.496,3014.00
1209.412,3065.00
1210.327,3014.00
1211.243,3660.00
1212.156,3007.00
1213.071,2921.00
1213.986,3142.00
1214.901,2820.00
1215.814,2832.00
1216.729,2927.00
1217.644,2939.00
1218.559,2916.00
1219.471,3865.00
1220.386,3504.00
1221.300,2959.00
1222.213,3314.00
1223.127,3108.00
1224.041,3534.00
1224.955,2912.00
1225.867,3231.00
1226.781,3420.00
1227.694,3489.00
1228.608,3073.00
1229.520,3405.00
1230.433,3303.00
1231.346,2924.00
1232.260,3307.00
1233.171,2886.00
1234.084,3207.00
1234.997,3543.00
1235.908,2972.00
1236.821,3294.00
1237.733,4352.00
1238.646,3435.00
1239.556,3258.00
1240.469,3132.00
1241.381,2960.00
1242.293,2956.00
1243.203,3603.00
1244.115,3724.00
1245.027,3213.00
1245.937,3016.00
1246.849,3069.00
1247.761,3210.00
1248.672,2908.00
1249.582,3066.00
1250.493,3708.00
1251.404,3174.00
1252.313,3340.00
1253.225,3456.00
1254.135,4065.00
1255.046,3288.00
1255.955,3345.00
1256.866,3669.00
1257.777,3068.00
1258.685,2818.00
1259.596,2628.00
1260.506,3531.00
1261.416,3094.00
1262.324,3421.00
1263.234,3116.00
1264.144,3345.00
1265.052,3258.00
1265.962,3136.00
1266.872,3454.00
1267.779,3352.00
1268.689,2711.00
1269.598,2880.00
1270.507,3089.00
1271.415,3028.00
1272.324,3241.00
1273.233,3122.00
1274.140,3029.00
1275.048,2962.00
1275.957,2661.00
1276.864,2931.00
1277.772,3013.00
1278.681,2671.00
1279.587,2893.00
1280.496,3310.00
1281.404,3858.00
1282.312,3334.00
1283.218,2886.00
1284.126,2919.00
1285.033,3640.00
1285.939,3121.00
1286.847,3253.00
1287.754,3081.00
1288.660,2926.00
1289.567,3736.00
1290.474,3238.00
1291.380,3370.00
1292.286,2771.00
1293.193,3204.00
1294.098,3189.00
1295.005,2957.00
1295.912,3513.00
1296.816,3243.00
1297.723,3100.00
1298.629,2967.00
1299.534,3523.00
1300.440,3246.00
1301.346,2971.00
1302.250,2969.00
1303.156,2707.00
1304.062,3622.00
1304.966,3712.00
1305.871,3458.00
1306.777,3002.00
1307.680,3107.00
1308.586,3248.00
1309.491,3372.00
1310.394,3165.00
1311.299,3453.00
1312.204,3663.00
1313.107,3312.00
1314.012,3224.00
1314.917,2863.00
1315.819,3299.00
1316.724,3670.00
1317.628,3229.00
1318.531,3077.00
1319.435,3514.00
1320.339,5178.00
1321.241,3157.00
1322.145,3146.00
1323.049,3215.00
1323.951,2925.00
1324.854,2932.00
1325.756,3419.00
1326.659,3220.00
1327.563,2907.00
1328.464,3266.00
1329.367,3145.00
1330.271,3507.00
1331.172,2905.00
1332.074,3150.00
1332.977,2937.00
1333.878,3255.00
1334.781,3474.00
1335.683,2894.00
1336.584,3076.00
1337.486,2734.00
1338.387,3318.00
1339.289,2849.00
1340.191,2984.00
1341.091,3068.00
1341.993,2924.00
1342.895,3037.00
1343.794,3266.00
1344.696,3377.00
1345.596,3321.00
1346.497,2908.00
1347.398,3086.00
1348.298,2677.00
1349.199,3735.00
1350.100,3022.00
1350.999,3524.00
1351.900,3297.00
1352.799,3470.00
1353.699,3246.00
1354.600,3132.00
1355.499,3220.00
1356.399,2722.00
1357.297,3109.00
1358.198,3217.00
1359.098,2929.00
1359.996,2848.00
1360.896,3588.00
1361.796,3395.00
1362.694,3307.00
1363.593,3115.00
1364.491,3344.00
1365.391,3677.00
1366.290,3102.00
1367.187,2950.00
1368.086,3375.00
1368.984,3205.00
1369.883,2775.00
1370.782,3189.00
1371.679,3297.00
1372.577,3682.00
1373.474,3174.00
1374.373,3067.00
1375.269,3207.00
1376.168,3123.00
1377.066,3448.00
1377.962,3404.00
1378.860,3530.00
1379.756,3534.00
1380.654,3714.00
1381.552,3376.00
1382.448,3285.00
1383.346,3189.00
1384.241,3324.00
1385.139,3357.00
1386.036,3061.00
1386.931,2739.00
1387.829,3271.00
1388.724,3400.00
1389.621,3066.00
1390.516,3207.00
1391.413,3098.00
1392.309,2914.00
1393.204,3413.00
1394.101,3340.00
1394.995,3371.00
1395.891,3300.00
1396.786,2948.00
1397.682,3083.00
1398.578,3220.00
1399.472,3471.00
1400.368,3164.00
1401.262,3133.00
1402.158,3330.00
1403.051,3089.00
1403.947,3054.00
1404.840,3416.00
1405.736,3395.00
1406.631,2949.00
1407.524,3598.00
1408.419,3217.00
1409.312,3057.00
1410.207,3298.00
1411.100,3026.00
1411.995,2992.00
1412.888,3358.00
1413.782,2827.00
1414.675,3525.00
1415.569,2892.00
1416.463,3160.00
1417.355,3081.00
1418.249,2927.00
1419.141,3247.00
1420.035,3249.00
1420.927,3132.00
1421.821,3519.00
1422.713,3050.00
1423.606,3314.00
1424.498,3186.00
1425.391,3712.00
1426.282,2971.00
1427.175,3133.00
1428.068,2660.00
1428.960,3237.00
1429.852,3244.00
1430.743,2914.00
1431.636,3191.00
1432.527,3501.00
1433.419,3283.00
1434.310,3372.00
1435.202,2952.00
1436.092,3119.00
1436.984,3082.00
1437.875,3523.00
1438.767,3180.00
1439.657,2972.00
1440.548,3347.00
1441.438,3248.00
1442.330,3310.00
1443.219,3124.00
1444.111,3432.00
1445.000,2995.00
1445.891,2889.00
1446.781,2969.00
1447.672,3244.00
1448.561,3529.00
1449.452,3291.00
1450.340,2911.00
1451.231,2951.00
1452.120,2884.00
1453.010,3406.00
1453.899,3019.00
1454.789,3366.00
1455.677,3542.00
1456.568,3192.00
1457.456,3205.00
1458.346,3214.00
1459.234,3285.00
1460.123,3493.00
1461.011,3213.00
1461.901,3558.00
1462.788,3621.00
1463.678,3302.00
1464.565,3139.00
1465.454,3110.00
1466.342,3241.00
1467.231,2523.00
1468.118,3480.00
1469.006,3559.00
1469.893,2864.00
1470.782,3298.00
1471.669,3503.00
1472.557,3444.00
1473.444,3186.00
1474.330,3372.00
1475.218,3537.00
1476.105,3122.00
1476.993,3229.00
1477.879,3424.00
1478.767,3097.00
1479.652,2951.00
1480.540,3249.00
1481.426,3339.00
1482.313,3309.00
1483.199,3555.00
1484.086,3442.00
1484.972,2911.00
1485.857,2918.00
1486.744,3270.00
1487.629,2746.00
1488.516,3044.00
1489.401,3394.00
1490.287,3221.00
1491.172,2824.00
1492.058,3117.00
1492.943,2992.00
1493.828,2964.00
1494.714,3370.00
1495.598,3597.00
1496.484,3923.00
1497.368,2796.00
1498.254,3140.00
1499.138,3161.00
1500.022,3183.00
1500.907,3306.00
1501.791,3965.00
1502.676,3145.00
1503.560,3026.00
1504.445,3703.00
1505.328,3325.00
1506.211,3567.00
1507.096,3167.00
1507.979,3484.00
1508.864,3138.00
1509.747,3318.00
1510.631,3271.00
1511.514,3403.00
1512.397,3408.00
1513.281,3668.00
1514.163,3385.00
1515.047,3051.00
1515.930,2919.00
1516.812,3212.00
1517.696,3313.00
1518.578,3123.00
1519.461,3251.00
1520.343,3682.00
1521.225,2985.00
1522.108,3123.00
1522.990,3483.00
1523.873,3603.00
1524.754,2825.00
1525.635,2674.00
1526.518,3311.00
1527.399,3103.00
1528.282,3198.00
1529.163,3271.00
1530.044,3176.00
1530.926,2875.00
1531.807,2950.00
1532.689,3200.00
1533.569,2979.00
1534.450,4285.00
1535.332,3383.00
1536.212,3053.00
1537.092,3465.00
1537.974,2903.00
1538.854,3138.00
1539.735,3735.00
1540.615,3399.00
1541.495,2962.00
1542.376,3634.00
1543.255,2897.00
1544.135,3082.00
1545.016,3246.00
1545.895,2977.00
1546.774,3416.00
1547.655,2695.00
1548.534,3165.00
1549.414,3108.00
1550.293,2846.00
1551.172,3265.00
1552.052,3159.00
1552.930,3022.00
1553.809,3668.00
1554.689,3060.00
1555.567,3110.00
1556.445,3098.00
1557.325,3464.00
1558.203,2776.00
1559.080,3152.00
1559.960,3108.00
1560.838,3821.00
1561.715,3140.00
1562.594,3472.00
1563.472,3356.00
1564.349,3329.00
1565.228,2754.00
1566.105,2965.00
1566.982,3252.00
1567.861,3472.00
1568.738,3122.00
1569.615,2772.00
1570.493,3034.00
1571.370,3081.00
1572.246,2629.00
1573.124,3172.00
1574.000,3121.00
1574.877,3384.00
1575.755,3055.00
1576.631,2974.00
1577.507,3557.00
1578.384,3534.00
1579.260,3313.00
1580.136,3730.00
1581.011,3205.00
1581.889,3126.00
1582.764,3176.00
1583.639,3470.00
1584.516,3341.00
1585.391,3099.00
1586.266,3212.00
1587.143,3664.00
1588.018,3337.00
1588.893,3559.00
1589.768,4563.00
1590.644,3920.00
1591.519,2952.00
1592.393,3338.00
1593.269,3478.00
1594.143,3010.00
1595.018,3133.00
1595.892,3072.00
1596.767,2713.00
1597.641,2697.00
1598.515,2853.00
1599.391,3307.00
1600.264,3148.00
1601.138,3211.00
1602.011,2618.00
1602.886,3718.00
1603.760,3450.00
1604.633,3493.00
1605.508,3395.00
1606.381,3240.00
1607.254,3193.00
1608.127,3300.00
1609.001,2943.00
1609.874,3499.00
1610.746,3436.00
1611.619,3179.00
1612.493,3416.00
1613.365,2971.00
1614.238,3222.00
1615.110,3233.00
1615.984,3198.00
1616.855,2992.00
1617.727,3378.00
1618.599,3044.00
1619.473,3558.00
1620.344,2548.00
1621.216,3180.00
1622.087,3277.00
1622.960,3244.00
1623.832,3189.00
1624.703,3312.00
1625.574,3413.00
1626.445,3227.00
1627.317,3248.00
1628.188,3430.00
1629.059,3085.00
1629.930,3567.00
1630.802,3142.00
1631.672,3373.00
1632.543,3284.00
1633.413,3178.00
1634.283,3650.00
1635.155,3284.00
1636.025,3243.00
1636.895,3212.00
1637.765,2713.00
1638.636,3184.00
1639.506,3341.00
1640.376,3942.00
1641.245,3145.00
1642.114,3242.00
1642.985,2673.00
1643.855,2939.00
1644.724,3093.00
1645.593,3347.00
1646.462,3312.00
1647.333,3231.00
1648.201,3095.00
1649.070,3235.00
1649.939,3390.00
1650.807,3005.00
1651.676,3383.00
1652.546,3387.00
1653.414,3527.00
1654.282,3168.00
1655.150,3038.00
1656.018,3198.00
1656.888,3843.00
1657.756,3222.00
1658.623,2857.00
1659.491,2761.00
1660.359,3565.00
1661.226,3067.00
1662.095,3364.00
1662.962,3099.00
1663.830,3126.00
1664.697,2978.00
1665.564,3191.00
1666.431,3296.00
1667.297,2930.00
1668.166,2916.00
1669.033,2756.00
1669.899,3046.00
1670.766,2876.00
1671.632,3069.00
1672.499,3508.00
1673.367,3248.00
1674.233,3353.00
1675.099,3164.00
1675.965,2879.00
1676.831,3132.00
1677.696,3521.00
1678.562,4939.00
1679.430,2745.00
1680.295,2867.00
1681.161,2989.00
1682.026,2987.00
1682.891,3075.00
1683.756,3142.00
1684.621,3239.00
1685.486,3210.00
1686.353,3151.00
1687.218,3371.00
1688.083,3169.00
1688.947,3498.00
1689.812,3144.00
1690.677,3086.00
1691.541,3287.00
1692.405,2543.00
1693.269,3668.00
1694.135,3380.00
1694.999,3172.00
1695.863,3722.00
1696.727,3019.00
1697.591,3064.00
1698.455,3293.00
1699.318,3001.00
1700.182,4464.00
1701.045,3251.00
1701.909,3189.00
1702.772,3650.00
1703.637,3075.00
1704.500,2745.00
1705.363,3423.00
1706.226,3247.00
1707.089,3336.00
1707.951,3395.00
1708.814,3907.00
1709.677,3950.00
1710.539,3430.00
1711.402,3492.00
1712.264,3187.00
1713.126,3106.00
1713.988,3440.00
1714.852,3440.00
1715.714,2625.00
1716.576,2743.00
1717.438,3417.00
1718.299,2729.00
1719.161,3532.00
1720.023,3147.00
1720.884,3599.00
1721.745,3139.00
1722.607,3063.00
1723.468,2733.00
1724.329,3450.00
1725.190,3195.00
1726.051,3435.00
1726.912,3034.00
1727.772,3315.00
1728.633,3188.00
1729.494,3298.00
1730.354,3379.00
1731.214,2921.00
1732.075,3071.00
1732.935,3052.00
1733.797,3077.00
1734.657,3686.00
1735.517,3883.00
1736.377,3466.00
1737.237,3140.00
1738.096,3847.00
1738.956,3120.00
1739.816,3098.00
1740.675,3144.00
1741.534,2688.00
1742.394,3234.00
1743.253,2980.00
1744.112,3252.00
1744.971,3040.00
1745.830,3321.00
1746.689,3360.00
1747.547,3420.00
1748.406,2772.00
1749.265,3068.00
1750.123,3115.00
1750.982,3409.00
1751.840,3180.00
1752.698,3241.00
1753.556,3037.00
1754.414,3183.00
1755.272,3175.00
1756.130,3228.00
1756.988,3175.00
1757.846,3370.00
1758.703,3027.00
1759.559,3475.00
1760.417,2929.00
1761.274,3846.00
1762.131,3584.00
1762.989,3722.00
1763.846,3595.00
1764.703,3299.00
1765.560,3785.00
1766.417,3248.00
1767.273,2977.00
1768.130,3214.00
1768.987,3031.00
1769.843,3486.00
1770.700,3593.00
1771.556,3063.00
1772.412,3548.00
1773.268,3126.00
1774.125,3553.00
1774.980,3222.00
1775.836,3562.00
1776.692,3081.00
1777.546,3001.00
1778.402,3434.00
1779.257,3280.00
1780.113,3009.00
1780.968,3294.00
1781.824,3474.00
1782.679,2884.00
1783.534,3057.00
1784.389,3667.00
1785.244,3288.00
1786.099,3213.00
1786.954,3481.00
1787.808,3203.00
1788.661,3211.00
1789.516,3620.00
1790.370,3235.00
1791.225,3078.00
1792.079,2830.00
1792.933,3971.00
1793.787,3353.00
1794.641,3255.00
1795.495,3165.00
1796.349,3280.00
1797.201,3066.00
1798.055,2983.00
1798.908,3170.00
1799.762,3603.00
1800.615,3456.00
1801.469,3496.00
1802.322,3598.00
1803.175,3045.00
1804.028,2787.00
1804.880,3748.00
1805.732,3393.00
1806.585,3188.00
1807.438,3234.00
1808.291,2723.00
1809.143,2968.00
1809.996,2850.00
1810.846,3984.00
1811.699,3324.00
1812.551,3103.00
1813.403,3397.00
1814.255,3244.00
1815.107,3253.00
1815.959,3821.00
1816.809,3374.00
1817.661,3338.00
1818.512,3196.00
1819.364,3254.00
1820.215,3383.00
1821.067,2996.00
1821.918,3037.00
1822.768,3472.00
1823.619,3481.00
1824.470,3127.00
1825.321,3376.00
1826.172,3150.00
1827.021,3369.00
1827.871,3495.00
1828.722,3263.00
1829.572,3297.00
1830.423,3236.00
1831.273,3066.00
1832.122,3186.00
1832.972,3207.00
1833.822,2926.00
1834.672,3396.00
1835.522,3444.00
1836.370,3008.00
1837.220,3382.00
1838.070,2773.00
1838.919,2541.00
1839.769,3013.00
1840.616,3492.00
1841.466,3405.00
1842.315,2946.00
1843.164,3854.00
1844.013,3050.00
1844.860,2912.00
1845.709,2982.00
1846.558,3489.00
1847.407,2861.00
1848.254,3344.00
1849.102,3233.00
1849.951,2957.00
1850.799,2674.00
1851.648,3090.00
1852.494,3264.00
1853.342,3267.00
1854.190,3550.00
1855.038,3513.00
1855.884,3200.00
1856.732,4089.00
1857.580,3658.00
1858.428,3029.00
1859.273,2927.00
1860.121,3032.00
1860.968,4103.00
1861.816,3564.00
1862.661,3590.00
1863.508,3798.00
1864.355,3453.00
1865.202,3567.00
1866.047,3329.00
1866.894,3624.00
1867.741,3805.00
1868.586,3363.00
1869.432,3335.00
1870.279,3155.00
1871.125,3005.00
1871.970,3878.00
1872.816,3334.00
1873.662,2730.00
1874.506,3378.00
1875.352,3551.00
1876.198,3632.00
1877.044,3817.00
1877.888,3133.00
1878.734,3237.00
1879.579,3071.00
1880.423,2901.00
1881.268,3094.00
1882.113,3483.00
1882.959,3210.00
1883.802,3019.00
1884.647,3630.00
1885.492,3276.00
1886.335,3183.00
1887.180,3076.00
1888.025,3271.00
1888.867,3037.00
1889.712,3356.00
1890.556,3003.00
1891.399,3509.00
1892.243,3534.00
1893.087,3114.00
1893.930,3340.00
1894.774,3363.00
1895.618,3583.00
1896.460,2836.00
1897.304,3160.00
1898.147,3069.00
1898.989,2978.00
1899.833,3442.00
1900.676,3041.00
1901.518,3500.00
1902.361,3607.00
1903.202,3125.00
1904.046,3029.00
1904.889,3155.00
1905.730,3132.00
1906.573,2842.00
1907.415,3303.00
1908.256,3671.00
1909.099,3310.00
1909.941,3349.00
1910.782,3376.00
1911.624,3018.00
1912.465,3439.00
1913.307,3265.00
1914.149,2979.00
1914.989,3528.00
1915.831,3237.00
1916.671,3619.00
1917.513,3143.00
1918.355,3322.00
1919.195,3461.00
1920.036,3306.00
1920.876,3251.00
1921.717,3367.00
1922.558,3249.00
1923.398,3275.00
1924.239,3273.00
1925.078,3559.00
1925.919,2915.00
1926.760,3406.00
1927.599,3102.00
1928.440,3479.00
1929.279,3242.00
1930.119,3683.00
1930.958,3173.00
1931.798,3257.00
1932.638,3158.00
1933.477,3305.00
1934.317,3035.00
1935.155,3086.00
1935.995,3338.00
1936.833,3085.00
1937.673,3046.00
1938.512,3730.00
1939.350,2808.00
1940.190,3140.00
1941.027,3119.00
1941.867,3104.00
1942.704,3192.00
1943.543,3217.00
1944.381,3396.00
1945.220,3646.00
1946.057,3321.00
1946.896,3572.00
1947.733,3315.00
1948.572,3032.00
1949.408,3608.00
1950.247,3342.00
1951.085,3396.00
1951.922,3626.00
1952.760,3020.00
1953.597,3613.00
1954.435,2612.00
1955.271,3440.00
1956.109,3112.00
1956.945,2841.00
1957.783,3434.00
1958.619,3105.00
1959.456,3232.00
1960.292,3329.00
1961.129,3550.00
1961.965,3744.00
1962.802,3078.00
1963.638,3001.00
1964.475,3298.00
1965.310,3297.00
1966.145,3260.00
1966.982,3092.00
1967.817,2974.00
1968.654,3208.00
1969.489,3031.00
1970.325,3237.00
1971.160,2985.00
1971.996,3452.00
1972.831,3492.00
1973.667,3174.00
1974.501,3674.00
1975.337,3499.00
1976.171,3161.00
1977.006,3553.00
1977.841,3141.00
1978.675,3492.00
1979.511,3879.00
1980.345,2986.00
1981.180,3474.00
1982.014,3254.00
1982.849,2977.00
1983.682,3091.00
1984.516,3088.00
1985.351,2852.00
1986.184,2749.00
1987.019,2759.00
1987.852,2515.00
1988.687,2756.00
1989.519,3028.00
1990.352,3247.00
1991.187,2706.00
1992.019,3030.00
1992.854,3380.00
1993.686,2977.00
1994.518,3063.00
1995.352,2589.00
1996.185,2329.00
1997.019,2909.00
1997.851,2687.00
1998.682,2739.00
1999.516,2762.00
2000.348,2479.00
