RamanScope Measure Spectrum Data V3.72

<< MEASURE CONDITION >>
Exposure Type,Aver
Exposure Time [sec],20
Exposure Count,2
Measure Time,2024/02/15 21:33:35
Data Name,""
Data Comment,""
Rayleigh Wave[nm],532.0

<< SAMPLE SPECTRUM >>
Wave[dcm-1],No55
96.716,31.00
97.759,12.50
98.802,30.50
99.846,-3.00
100.886,38.50
101.929,20.00
102.972,10.50
104.015,-20.50
105.057,30.50
106.100,-3.50
107.142,50.00
108.184,-5.00
109.226,41.00
110.268,10.50
111.310,-24.50
112.352,21.00
113.393,13.00
114.435,15.50
115.476,28.50
116.517,38.00
117.558,-23.00
118.599,-33.50
119.640,2.50
120.681,26.50
121.722,30.50
122.762,23.50
123.803,11.00
124.843,-22.00
125.883,41.50
126.923,-37.50
127.963,20.00
129.001,30.00
130.041,31.00
131.080,55.50
132.120,43.50
133.159,33.00
134.199,22.50
135.238,-19.50
136.277,31.50
137.316,5.00
138.355,48.50
139.393,31.50
140.432,44.50
141.470,30.00
142.509,-1.50
143.547,88.50
144.585,36.50
145.623,54.00
146.661,12.00
147.699,70.00
148.736,139.50
149.774,125.00
150.811,292.00
151.849,367.00
152.886,480.50
153.923,562.00
154.960,671.00
155.997,871.50
157.034,986.50
158.072,1206.50
159.109,1256.50
160.145,1597.00
161.182,1720.00
162.218,1897.00
163.254,2008.00
164.290,2242.50
165.326,2242.50
166.361,2453.50
167.397,2562.50
168.432,2597.00
169.468,2695.00
170.503,2771.00
171.538,2781.00
172.573,2843.00
173.608,2921.00
174.643,2911.50
175.677,3006.00
176.712,3055.00
177.746,3079.50
178.781,3141.50
179.815,3253.00
180.849,3270.50
181.883,3373.00
182.917,3361.50
183.951,3453.00
184.984,3476.50
186.020,3569.50
187.053,3485.00
188.087,3441.50
189.120,3430.50
190.153,3428.50
191.186,3385.00
192.219,3393.00
193.251,3391.00
194.284,3366.00
195.317,3422.00
196.349,3304.00
197.381,3367.00
198.413,3409.00
199.445,3419.00
200.477,3518.50
201.509,3473.00
202.543,3528.00
203.575,3480.00
204.606,3561.50
205.637,3645.00
206.669,3625.50
207.700,3657.50
208.731,3720.50
209.762,3775.50
210.792,3807.00
211.823,3874.00
212.854,3869.50
213.884,3904.50
214.914,3985.50
215.947,4105.00
216.977,4035.50
218.007,4108.50
219.037,4244.00
220.066,4166.50
221.096,4212.50
222.126,4342.00
223.155,4325.50
224.184,4387.50
225.214,4331.00
226.245,4420.00
227.274,4415.50
228.302,4375.00
229.331,4350.00
230.360,4392.00
231.388,4356.00
232.417,4299.50
233.445,4281.50
234.473,4240.50
235.501,4229.00
236.531,4206.50
237.559,4199.50
238.587,4053.50
239.614,4076.00
240.642,4068.00
241.669,4020.50
242.696,4081.50
243.724,4012.50
244.753,3995.50
245.780,4026.00
246.806,4010.00
247.833,3978.50
248.860,4006.50
249.886,3977.50
250.913,4025.50
251.939,4029.50
252.967,4013.00
253.993,4032.50
255.019,4019.50
256.045,4089.00
257.070,4036.50
258.096,4131.00
259.121,4063.50
260.147,4132.00
261.174,4204.00
262.199,4156.00
263.224,4107.50
264.249,4117.50
265.274,4146.00
266.298,4185.50
267.323,4207.00
268.349,4148.50
269.374,4297.00
270.398,4318.50
271.422,4327.50
272.446,4371.00
273.470,4361.00
274.496,4343.00
275.519,4370.50
276.543,4301.50
277.566,4434.50
278.589,4492.50
279.613,4498.00
280.636,4515.00
281.661,4492.50
282.684,4515.50
283.706,4500.00
284.729,4482.00
285.751,4495.50
286.774,4442.00
287.798,4484.00
288.820,4428.00
289.842,4396.50
290.864,4326.00
291.886,4349.50
292.910,4341.50
293.932,4309.50
294.953,4196.50
295.974,4153.00
296.996,4142.00
298.017,4153.50
299.040,4028.00
300.061,4041.00
301.082,4041.00
302.102,3980.50
303.123,3869.50
304.143,3885.50
305.166,3863.50
306.186,3762.50
307.206,3846.00
308.226,3846.00
309.246,3837.50
310.268,3762.00
311.288,3709.50
312.307,3682.50
313.327,3668.00
314.346,3659.50
315.368,3615.00
316.387,3598.00
317.406,3638.00
318.425,3617.50
319.443,3622.50
320.464,3630.50
321.483,3562.50
322.501,3528.50
323.520,3577.00
324.538,3473.50
325.558,3527.50
326.576,3478.00
327.594,3484.00
328.612,3498.00
329.629,3551.50
330.649,3440.50
331.666,3514.50
332.684,3452.50
333.701,3504.50
334.718,3496.00
335.737,3408.50
336.754,3444.00
337.771,3439.50
338.787,3500.50
339.806,3488.50
340.823,3429.50
341.839,3523.50
342.855,3536.50
343.871,3510.00
344.889,3435.00
345.905,3381.00
346.921,3444.50
347.937,3513.50
348.954,3434.00
349.970,3432.00
350.985,3388.00
352.000,3420.00
353.017,3444.00
354.032,3526.00
355.047,3466.50
356.062,3488.50
357.077,3418.50
358.093,3420.00
359.108,3406.00
360.122,3355.50
361.136,3350.50
362.152,3396.00
363.166,3390.00
364.180,3484.00
365.194,3439.50
366.210,3475.50
367.223,3483.50
368.237,3442.00
369.250,3395.50
370.265,3462.50
371.278,3471.00
372.291,3415.00
373.304,3417.00
374.319,3447.00
375.332,3383.00
376.344,3517.00
377.357,3465.00
378.371,3417.00
379.383,3439.00
380.395,3525.50
381.407,3458.50
382.421,3465.50
383.433,3425.50
384.445,3528.50
385.456,3541.00
386.470,3503.00
387.481,3563.50
388.492,3443.00
389.505,3487.00
390.516,3487.00
391.527,3499.50
392.538,3420.50
393.551,3467.00
394.561,3523.00
395.572,3446.00
396.582,3474.00
397.594,3446.00
398.604,3401.00
399.614,3465.00
400.624,3405.00
401.636,3392.00
402.646,3402.00
403.655,3386.00
404.667,3393.00
405.676,3396.50
406.685,3443.50
407.694,3350.50
408.705,3310.00
409.714,3296.00
410.723,3292.50
411.734,3357.00
412.742,3264.50
413.751,3262.50
414.759,3248.00
415.769,3256.50
416.777,3300.00
417.785,3213.50
418.795,3229.50
419.803,3183.00
420.811,3177.50
421.818,3131.50
422.828,3187.00
423.835,3184.50
424.842,3091.50
425.852,3156.00
426.859,3108.50
427.866,3080.50
428.874,3174.00
429.881,3091.50
430.888,3114.00
431.894,3085.50
432.902,3022.00
433.909,3088.00
434.915,3040.50
435.923,2985.50
436.929,3095.00
437.935,3090.00
438.942,3027.00
439.948,2999.00
440.953,3024.50
441.959,3013.00
442.966,2989.50
443.971,3019.00
444.976,3014.00
445.983,2951.00
446.988,2994.50
447.993,2947.00
448.999,2908.50
450.004,2972.00
451.008,3005.00
452.014,2915.00
453.019,2975.50
454.023,2891.00
455.029,2985.50
456.032,2971.50
457.036,2883.50
458.042,2910.50
459.045,2962.50
460.049,2965.00
461.052,2952.00
462.057,2957.50
463.060,2899.00
464.063,2993.00
465.068,2965.50
466.071,2943.50
467.073,2910.00
468.078,2937.00
469.080,2972.50
470.082,2974.00
471.087,2912.00
472.089,2906.00
473.091,2951.00
474.095,2862.50
475.096,2918.00
476.098,2868.00
477.101,2960.50
478.103,2896.50
479.104,2995.00
480.107,2916.00
481.108,2916.00
482.109,2939.50
483.112,2875.50
484.113,2913.50
485.114,2842.50
486.116,2906.50
487.117,2879.00
488.117,2823.50
489.119,2912.50
490.119,2855.50
491.121,2914.00
492.121,2880.50
493.121,2885.50
494.123,2852.50
495.122,2875.50
496.122,2883.50
497.123,2828.50
498.122,2887.50
499.121,2898.00
500.122,2793.50
501.121,2891.50
502.120,2811.50
503.121,2820.00
504.119,2823.50
505.118,2848.50
506.118,2860.00
507.117,2771.00
508.115,2822.00
509.115,2821.50
510.113,2758.50
511.112,2761.50
512.110,2775.50
513.108,2744.00
514.107,2801.00
515.105,2772.00
516.102,2764.00
517.101,2767.50
518.098,2799.50
519.095,2723.50
520.094,2731.00
521.091,2726.00
522.089,2750.00
523.086,2725.50
524.082,2702.00
525.081,2708.50
526.077,2711.00
527.073,2742.50
528.071,2735.50
529.067,2759.50
530.064,2734.00
531.060,2689.50
532.056,2731.50
533.053,2694.00
534.048,2644.00
535.044,2727.00
536.041,2682.50
537.036,2701.50
538.030,2721.00
539.027,2725.50
540.022,2737.50
541.019,2661.00
542.013,2745.00
543.007,2695.00
544.004,2700.50
544.998,2770.00
545.994,2685.00
546.988,2751.50
547.981,2677.50
548.977,2725.00
549.971,2635.00
550.964,2703.50
551.960,2653.50
552.953,2634.50
553.948,2642.00
554.941,2739.50
555.934,2709.00
556.929,2643.50
557.922,2690.50
558.916,2721.00
559.909,2672.50
560.901,2685.00
561.895,2618.50
562.888,2650.50
563.880,2643.50
564.874,2723.00
565.865,2647.50
566.859,2613.50
567.851,2582.00
568.842,2658.00
569.836,2663.50
570.827,2627.00
571.820,2664.50
572.811,2626.00
573.802,2598.00
574.795,2695.50
575.786,2597.50
576.779,2669.50
577.769,2675.00
578.760,2659.50
579.752,2634.00
580.742,2622.00
581.735,2623.00
582.725,2606.50
583.714,2587.00
584.706,2628.50
585.696,2650.50
586.688,2641.50
587.677,2614.00
588.667,2596.00
589.658,2616.50
590.647,2645.50
591.638,2566.50
592.627,2537.50
593.616,2580.50
594.607,2628.00
595.595,2600.50
596.586,2624.00
597.574,2588.00
598.562,2574.50
599.553,2537.50
600.541,2512.50
601.531,2553.00
602.519,2492.50
603.508,2496.00
604.496,2599.00
605.484,2524.50
606.473,2543.00
607.460,2501.50
608.450,2501.50
609.437,2507.50
610.424,2466.00
611.413,2519.00
612.400,2513.50
613.388,2470.00
614.375,2440.50
615.361,2424.00
616.350,2510.50
617.336,2413.00
618.324,2424.50
619.310,2407.50
620.298,2379.50
621.284,2366.50
622.270,2382.50
623.257,2331.00
624.243,2355.00
625.230,2299.00
626.216,2378.00
627.203,2303.50
628.188,2343.00
629.173,2343.00
630.160,2303.00
631.145,2346.00
632.131,2282.50
633.116,2244.50
634.102,2293.50
635.087,2211.50
636.071,2218.50
637.057,2274.00
638.041,2263.50
639.027,2227.00
640.011,2258.00
640.995,2226.00
641.980,2210.00
642.964,2262.50
643.949,2188.50
644.932,2216.50
645.918,2258.00
646.901,2166.00
647.886,2155.50
648.868,2101.00
649.851,2195.00
650.836,2199.50
651.818,2150.50
652.803,2150.00
653.785,2136.50
654.769,2135.50
655.751,2094.00
656.733,2088.00
657.717,2063.00
658.699,2108.50
659.683,2091.50
660.664,2049.50
661.648,2056.50
662.629,2100.00
663.611,2043.50
664.594,2048.50
665.575,1954.00
666.558,2018.50
667.539,2052.00
668.521,2087.50
669.502,2020.00
670.484,1980.00
671.465,1991.50
672.445,1985.50
673.427,2003.00
674.407,1951.50
675.390,1962.00
676.369,2017.50
677.351,1992.50
678.331,2000.50
679.312,1948.00
680.292,1967.50
681.271,1888.50
682.253,1903.00
683.232,1922.00
684.213,1964.00
685.192,1906.50
686.172,1887.50
687.151,1866.00
688.132,1858.00
689.110,1946.00
690.089,1856.00
691.069,1859.50
692.047,1860.00
693.027,1827.50
694.005,1817.50
694.985,1830.00
695.963,1852.00
696.943,1857.00
697.920,1837.00
698.898,1813.50
699.877,1851.00
700.854,1803.50
701.833,1786.00
702.810,1762.50
703.789,1787.50
704.766,1736.50
705.745,1779.00
706.721,1780.50
707.698,1791.50
708.676,1767.00
709.653,1738.00
710.631,1728.00
711.607,1733.00
712.585,1770.00
713.561,1746.00
714.539,1703.00
715.514,1592.50
716.492,1750.00
717.467,1733.50
718.443,1686.00
719.420,1694.00
720.395,1673.50
721.372,1739.00
722.347,1761.00
723.324,1652.00
724.298,1738.00
725.275,1676.50
726.250,1688.00
727.226,1657.50
728.200,1695.00
729.176,1661.50
730.151,1641.50
731.125,1747.50
732.100,1628.00
733.074,1672.50
734.050,1643.50
735.023,1646.00
735.999,1636.50
736.972,1652.50
737.947,1636.00
738.921,1568.50
739.896,1619.00
740.869,1686.00
741.841,1600.00
742.816,1595.00
743.789,1692.00
744.763,1504.50
745.736,1606.00
746.710,1653.00
747.682,1570.50
748.656,1652.00
749.628,1563.50
750.602,1611.50
751.574,1580.50
752.548,1566.50
753.519,1546.00
754.491,1597.00
755.464,1589.00
756.435,1574.00
757.408,1583.50
758.379,1596.50
759.352,1570.00
760.323,1536.00
761.296,1509.00
762.267,1540.00
763.239,1527.50
764.209,1572.00
765.182,1608.00
766.152,1490.50
767.124,1515.00
768.094,1488.00
769.064,1558.00
770.036,1501.00
771.005,1519.00
771.977,1478.50
772.947,1509.00
773.918,1508.50
774.887,1528.00
775.858,1502.50
776.827,1514.00
777.798,1450.00
778.767,1531.50
779.738,1479.00
780.707,1478.00
781.677,1479.00
782.646,1523.50
783.614,1470.00
784.584,1483.00
785.552,1447.50
786.522,1420.00
787.490,1518.50
788.460,1455.50
789.428,1456.00
790.397,1493.00
791.365,1438.50
792.334,1438.00
793.302,1371.00
794.271,1441.50
795.238,1419.00
796.207,1434.50
797.174,1383.50
798.143,1463.50
799.109,1439.50
800.076,1451.00
801.044,1373.50
802.011,1394.50
802.979,1430.50
803.945,1412.50
804.913,1361.50
805.879,1408.50
806.847,1359.00
807.813,1340.50
808.780,1401.50
809.746,1396.50
810.713,1348.50
811.678,1376.00
812.646,1337.00
813.611,1338.50
814.578,1341.00
815.543,1329.50
816.510,1300.50
817.474,1372.00
818.439,1372.00
819.405,1327.50
820.370,1359.50
821.336,1345.50
822.300,1328.00
823.266,1352.00
824.230,1358.50
825.196,1325.50
826.160,1330.50
827.126,1312.00
828.089,1335.00
829.055,1282.00
830.018,1314.50
830.983,1348.00
831.946,1329.50
832.911,1357.00
833.874,1280.50
834.837,1298.00
835.802,1311.00
836.765,1299.50
837.729,1339.50
838.691,1276.00
839.656,1310.00
840.618,1302.00
841.582,1290.00
842.544,1326.00
843.508,1306.50
844.470,1367.50
845.434,1333.50
846.395,1308.50
847.359,1243.50
848.320,1291.00
849.283,1300.00
850.245,1330.00
851.208,1307.00
852.169,1253.00
853.130,1298.00
854.092,1305.50
855.053,1303.00
856.016,1313.50
856.976,1304.50
857.938,1312.50
858.899,1228.50
859.861,1294.50
860.821,1296.00
861.783,1256.00
862.743,1309.50
863.704,1290.00
864.664,1264.00
865.626,1341.50
866.585,1324.00
867.546,1304.50
868.506,1262.00
869.467,1266.50
870.426,1300.00
871.387,1353.50
872.346,1329.50
873.304,1260.00
874.265,1348.50
875.223,1320.50
876.184,1269.00
877.142,1298.50
878.102,1357.00
879.060,1316.00
880.021,1280.00
880.978,1317.50
881.938,1347.50
882.896,1289.50
883.856,1292.00
884.813,1336.50
885.772,1292.50
886.730,1248.50
887.689,1347.50
888.646,1258.50
889.603,1314.00
890.562,1338.50
891.519,1345.00
892.477,1318.00
893.434,1321.00
894.392,1325.00
895.349,1328.50
896.307,1359.50
897.263,1337.00
898.221,1376.00
899.177,1370.00
900.135,1380.00
901.091,1336.50
902.048,1361.00
903.004,1392.00
903.961,1361.50
904.917,1365.50
905.874,1314.50
906.829,1394.00
907.784,1400.50
908.741,1342.00
909.696,1358.50
910.653,1341.00
911.607,1349.50
912.564,1348.00
913.518,1375.00
914.475,1366.00
915.429,1365.00
916.385,1379.00
917.339,1353.00
918.295,1382.00
919.249,1358.50
920.205,1360.50
921.158,1425.00
922.114,1294.50
923.067,1429.50
924.020,1405.00
924.976,1383.00
925.929,1383.50
926.884,1341.00
927.837,1395.50
928.791,1396.00
929.744,1390.50
930.699,1457.50
931.651,1360.50
932.606,1414.50
933.558,1441.00
934.512,1458.50
935.464,1463.00
936.418,1419.00
937.370,1369.50
938.322,1407.00
939.276,1398.00
940.227,1431.50
941.181,1406.00
942.132,1430.00
943.085,1429.00
944.036,1413.50
944.990,1433.00
945.941,1423.50
946.893,1388.00
947.844,1404.00
948.797,1407.50
949.747,1429.50
950.700,1431.00
951.650,1390.00
952.601,1417.50
953.553,1373.50
954.503,1365.50
955.455,1414.00
956.405,1435.00
957.356,1404.50
958.306,1349.50
959.258,1410.00
960.207,1387.50
961.158,1391.00
962.108,1457.00
963.059,1412.50
964.008,1337.50
964.959,1457.00
965.908,1379.50
966.856,1360.50
967.807,1380.50
968.756,1317.50
969.706,1386.00
970.654,1382.50
971.605,1334.50
972.553,1354.50
973.503,1350.00
974.451,1363.50
975.401,1400.50
976.348,1354.50
977.296,1349.00
978.246,1326.00
979.193,1337.50
980.142,1362.00
981.090,1311.50
982.039,1295.00
982.986,1340.00
983.935,1407.00
984.882,1292.00
985.830,1333.00
986.777,1362.50
987.725,1351.50
988.672,1390.00
989.618,1315.00
990.567,1265.00
991.513,1280.50
992.461,1336.50
993.407,1319.00
994.354,1304.00
995.300,1261.00
996.248,1304.50
997.193,1338.00
998.141,1317.50
999.086,1343.00
1000.031,1327.50
1000.978,1305.50
1001.924,1269.00
1002.870,1346.00
1003.815,1322.50
1004.762,1254.50
1005.707,1285.00
1006.653,1273.50
1007.598,1270.50
1008.542,1277.00
1009.488,1246.50
1010.432,1274.00
1011.378,1209.50
1012.322,1302.50
1013.268,1209.00
1014.212,1236.50
1015.157,1255.00
1016.101,1239.50
1017.046,1246.50
1017.990,1253.00
1018.933,1245.50
1019.878,1238.00
1020.821,1229.00
1021.766,1259.00
1022.709,1217.00
1023.654,1250.50
1024.596,1183.50
1025.541,1254.00
1026.483,1224.50
1027.425,1207.00
1028.370,1213.50
1029.312,1216.50
1030.256,1282.50
1031.198,1179.00
1032.141,1230.50
1033.083,1258.00
1034.027,1195.00
1034.968,1214.00
1035.910,1204.50
1036.853,1228.00
1037.794,1177.50
1038.738,1212.50
1039.679,1149.50
1040.621,1175.00
1041.562,1258.50
1042.503,1159.00
1043.446,1163.00
1044.386,1171.50
1045.329,1174.00
1046.269,1170.00
1047.211,1191.00
1048.151,1185.50
1049.093,1184.00
1050.033,1107.50
1050.973,1216.50
1051.915,1185.50
1052.854,1180.00
1053.796,1225.00
1054.735,1224.50
1055.677,1175.50
1056.616,1211.00
1057.555,1165.50
1058.496,1216.50
1059.435,1226.50
1060.376,1155.50
1061.315,1141.00
1062.255,1200.00
1063.194,1207.00
1064.132,1188.00
1065.073,1188.50
1066.011,1154.00
1066.951,1211.00
1067.889,1157.00
1068.829,1210.00
1069.767,1161.00
1070.705,1190.00
1071.644,1173.50
1072.582,1177.00
1073.521,1169.50
1074.459,1145.00
1075.398,1149.50
1076.335,1192.50
1077.272,1186.00
1078.211,1154.00
1079.148,1181.00
1080.087,1185.00
1081.023,1230.50
1081.962,1209.50
1082.898,1195.50
1083.835,1224.00
1084.773,1188.50
1085.709,1143.50
1086.647,1189.00
1087.583,1164.50
1088.519,1154.00
1089.457,1147.00
1090.392,1147.50
1091.330,1197.00
1092.266,1183.00
1093.203,1179.50
1094.138,1151.00
1095.073,1154.50
1096.010,1179.50
1096.945,1161.50
1097.882,1183.50
1098.817,1185.00
1099.752,663.00
1100.688,1170.50
1101.623,1159.00
1102.559,1128.00
1103.493,1185.50
1104.430,1191.50
1105.364,1097.50
1106.298,1173.00
1107.234,1074.50
1108.167,1145.00
1109.094,1169.50
1110.019,1169.50
1110.945,1141.50
1111.869,1178.50
1112.795,1130.50
1113.720,1110.00
1114.646,1134.50
1115.571,1121.50
1116.495,1109.50
1117.420,1144.50
1118.345,1144.00
1119.270,1139.00
1120.195,1127.00
1121.118,1100.50
1122.042,1122.00
1122.967,1062.00
1123.891,1086.00
1124.816,1127.00
1125.738,1104.00
1126.663,1131.50
1127.587,1124.50
1128.511,1093.50
1129.435,1109.50
1130.357,1087.00
1131.280,1060.50
1132.204,1097.00
1133.128,1077.50
1134.051,1045.00
1134.972,1082.50
1135.896,1024.00
1136.819,1051.00
1137.742,1050.00
1138.665,1042.50
1139.586,1064.50
1140.509,1032.50
1141.431,1121.50
1142.354,1048.50
1143.276,1035.50
1144.197,1041.00
1145.119,1018.50
1146.041,1043.50
1146.964,1031.00
1147.885,1055.50
1148.806,1051.50
1149.727,1016.50
1150.649,1034.00
1151.571,1009.00
1152.492,996.00
1153.412,997.00
1154.333,1044.50
1155.254,987.00
1156.175,1044.50
1157.095,991.50
1158.016,1075.50
1158.936,1045.50
1159.857,990.50
1160.778,1075.50
1161.697,976.00
1162.617,984.00
1163.537,1000.00
1164.458,984.50
1165.376,1030.50
1166.296,1044.50
1167.216,1019.50
1168.136,1024.00
1169.056,1002.00
1169.974,1012.50
1170.893,971.50
1171.813,1004.50
1172.732,953.00
1173.650,1020.50
1174.569,1010.50
1175.488,957.00
1176.407,1041.50
1177.326,984.00
1178.243,1012.00
1179.161,965.00
1180.080,989.50
1180.999,921.50
1181.915,1012.50
1182.834,995.00
1183.752,982.00
1184.670,937.50
1185.586,953.00
1186.504,944.00
1187.422,969.00
1188.340,961.50
1189.258,957.50
1190.173,956.50
1191.091,953.50
1192.008,954.50
1192.926,976.00
1193.841,938.00
1194.758,940.00
1195.675,983.00
1196.592,920.50
1197.507,1008.50
1198.424,928.00
1199.340,997.00
1200.257,886.50
1201.172,936.00
1202.088,900.00
1203.004,985.00
1203.920,936.50
1204.835,950.50
1205.750,898.00
1206.666,990.50
1207.582,936.00
1208.496,949.00
1209.412,977.50
1210.327,983.00
1211.243,948.50
1212.156,917.00
1213.071,924.50
1213.986,965.00
1214.901,974.50
1215.814,954.50
1216.729,917.00
1217.644,958.50
1218.559,890.50
1219.471,931.50
1220.386,932.00
1221.300,975.50
1222.213,972.50
1223.127,956.50
1224.041,946.50
1224.955,964.50
1225.867,975.50
1226.781,960.00
1227.694,925.00
1228.608,959.50
1229.520,950.50
1230.433,995.00
1231.346,958.50
1232.260,924.00
1233.171,962.00
1234.084,969.00
1234.997,963.00
1235.908,919.50
1236.821,896.00
1237.733,983.50
1238.646,934.00
1239.556,929.00
1240.469,945.00
1241.381,991.50
1242.293,899.50
1243.203,915.00
1244.115,974.00
1245.027,968.00
1245.937,935.50
1246.849,1038.50
1247.761,909.50
1248.672,962.00
1249.582,938.50
1250.493,959.50
1251.404,945.50
1252.313,954.00
1253.225,944.50
1254.135,961.00
1255.046,976.00
1255.955,967.50
1256.866,960.00
1257.777,927.00
1258.685,953.00
1259.596,964.00
1260.506,925.50
1261.416,969.00
1262.324,931.00
1263.234,970.50
1264.144,892.50
1265.052,959.50
1265.962,973.50
1266.872,918.50
1267.779,972.50
1268.689,969.00
1269.598,909.00
1270.507,943.00
1271.415,945.00
1272.324,944.50
1273.233,924.50
1274.140,903.50
1275.048,892.50
1275.957,1000.00
1276.864,938.50
1277.772,969.50
1278.681,925.50
1279.587,917.50
1280.496,923.50
1281.404,917.50
1282.312,977.50
1283.218,940.00
1284.126,936.50
1285.033,955.50
1285.939,912.50
1286.847,949.00
1287.754,989.00
1288.660,967.00
1289.567,942.50
1290.474,948.50
1291.380,932.00
1292.286,986.50
1293.193,909.50
1294.098,973.00
1295.005,956.00
1295.912,955.00
1296.816,940.50
1297.723,928.50
1298.629,959.00
1299.534,954.00
1300.440,886.00
1301.346,920.50
1302.250,899.50
1303.156,960.50
1304.062,870.00
1304.966,940.00
1305.871,890.50
1306.777,917.50
1307.680,911.50
1308.586,937.00
1309.491,891.50
1310.394,921.50
1311.299,922.00
1312.204,939.00
1313.107,947.00
1314.012,928.00
1314.917,973.50
1315.819,916.50
1316.724,943.00
1317.628,907.50
1318.531,897.50
1319.435,895.50
1320.339,875.00
1321.241,860.50
1322.145,923.50
1323.049,901.00
1323.951,879.00
1324.854,905.00
1325.756,870.50
1326.659,875.00
1327.563,893.00
1328.464,877.00
1329.367,932.50
1330.271,917.50
1331.172,838.00
1332.074,870.00
1332.977,880.00
1333.878,884.00
1334.781,853.00
1335.683,851.00
1336.584,848.00
1337.486,851.50
1338.387,877.50
1339.289,837.00
1340.191,891.00
1341.091,818.00
1341.993,895.50
1342.895,858.00
1343.794,852.50
1344.696,849.00
1345.596,883.00
1346.497,850.50
1347.398,814.00
1348.298,857.50
1349.199,819.50
1350.100,847.00
1350.999,791.50
1351.900,873.00
1352.799,825.50
1353.699,877.50
1354.600,877.00
1355.499,853.50
1356.399,838.50
1357.297,884.00
1358.198,810.50
1359.098,811.50
1359.996,861.50
1360.896,824.00
1361.796,877.50
1362.694,841.50
1363.593,830.00
1364.491,803.00
1365.391,768.50
1366.290,789.50
1367.187,808.00
1368.086,839.50
1368.984,807.00
1369.883,814.00
1370.782,817.00
1371.679,790.50
1372.577,775.00
1373.474,869.50
1374.373,789.50
1375.269,781.50
1376.168,795.00
1377.066,811.50
1377.962,845.00
1378.860,832.50
1379.756,845.50
1380.654,762.50
1381.552,743.00
1382.448,776.00
1383.346,807.50
1384.241,778.50
1385.139,797.50
1386.036,768.50
1386.931,792.50
1387.829,790.00
1388.724,816.00
1389.621,734.50
1390.516,758.50
1391.413,793.00
1392.309,754.50
1393.204,766.50
1394.101,780.50
1394.995,762.50
1395.891,828.00
1396.786,768.00
1397.682,760.00
1398.578,791.00
1399.472,804.50
1400.368,721.00
1401.262,755.50
1402.158,796.00
1403.051,787.50
1403.947,788.50
1404.840,784.00
1405.736,779.00
1406.631,717.00
1407.524,752.50
1408.419,722.50
1409.312,770.50
1410.207,701.50
1411.100,851.50
1411.995,767.00
1412.888,741.00
1413.782,731.50
1414.675,738.50
1415.569,781.50
1416.463,760.00
1417.355,742.00
1418.249,778.50
1419.141,730.00
1420.035,806.00
1420.927,781.50
1421.821,696.50
1422.713,719.00
1423.606,715.00
1424.498,735.50
1425.391,777.50
1426.282,724.50
1427.175,758.50
1428.068,797.50
1428.960,730.50
1429.852,751.00
1430.743,770.00
1431.636,753.00
1432.527,727.50
1433.419,728.50
1434.310,720.00
1435.202,750.50
1436.092,699.00
1436.984,732.50
1437.875,703.00
1438.767,705.00
1439.657,704.50
1440.548,727.50
1441.438,715.00
1442.330,745.50
1443.219,738.00
1444.111,764.50
1445.000,765.50
1445.891,717.00
1446.781,687.00
1447.672,708.00
1448.561,716.50
1449.452,745.50
1450.340,749.50
1451.231,714.00
1452.120,751.50
1453.010,696.50
1453.899,743.00
1454.789,742.00
1455.677,720.00
1456.568,743.00
1457.456,702.50
1458.346,773.00
1459.234,682.50
1460.123,689.50
1461.011,688.00
1461.901,673.00
1462.788,699.00
1463.678,701.00
1464.565,753.50
1465.454,703.00
1466.342,749.50
1467.231,710.00
1468.118,674.00
1469.006,744.50
1469.893,682.00
1470.782,738.50
1471.669,648.00
1472.557,715.50
1473.444,710.50
1474.330,702.50
1475.218,702.00
1476.105,674.50
1476.993,712.50
1477.879,694.00
1478.767,678.50
1479.652,701.00
1480.540,677.00
1481.426,684.00
1482.313,741.50
1483.199,695.00
1484.086,711.00
1484.972,689.50
1485.857,654.00
1486.744,689.50
1487.629,671.50
1488.516,691.50
1489.401,673.50
1490.287,669.50
1491.172,663.00
1492.058,687.50
1492.943,664.00
1493.828,683.00
1494.714,742.00
1495.598,701.50
1496.484,670.50
1497.368,678.00
1498.254,653.00
1499.138,661.00
1500.022,696.00
1500.907,641.50
1501.791,680.00
1502.676,679.00
1503.560,685.50
1504.445,685.50
1505.328,672.00
1506.211,655.50
1507.096,657.00
1507.979,672.00
1508.864,651.00
1509.747,621.50
1510.631,652.50
1511.514,655.50
1512.397,661.00
1513.281,715.50
1514.163,581.00
1515.047,651.00
1515.930,673.50
1516.812,673.00
1517.696,654.50
1518.578,655.00
1519.461,645.00
1520.343,637.50
1521.225,638.00
1522.108,649.00
1522.990,651.00
1523.873,574.00
1524.754,614.00
1525.635,695.50
1526.518,676.50
1527.399,622.00
1528.282,664.00
1529.163,718.50
1530.044,632.00
1530.926,655.00
1531.807,640.00
1532.689,667.50
1533.569,639.50
1534.450,637.00
1535.332,661.00
1536.212,629.50
1537.092,680.00
1537.974,637.50
1538.854,663.50
1539.735,624.50
1540.615,638.50
1541.495,670.50
1542.376,657.00
1543.255,673.50
1544.135,635.50
1545.016,614.00
1545.895,658.50
1546.774,624.50
1547.655,616.50
1548.534,671.00
1549.414,596.50
1550.293,666.50
1551.172,648.50
1552.052,657.50
1552.930,612.50
1553.809,635.50
1554.689,676.00
1555.567,646.00
1556.445,668.50
1557.325,633.00
1558.203,648.50
1559.080,584.50
1559.960,625.50
1560.838,603.00
1561.715,620.00
1562.594,552.00
1563.472,599.50
1564.349,629.00
1565.228,620.50
1566.105,624.00
1566.982,629.00
1567.861,618.00
1568.738,658.50
1569.615,626.50
1570.493,611.00
1571.370,658.00
1572.246,619.00
1573.124,644.50
1574.000,669.50
1574.877,590.50
1575.755,655.00
1576.631,613.50
1577.507,633.50
1578.384,627.50
1579.260,639.50
1580.136,636.00
1581.011,591.00
1581.889,673.00
1582.764,657.00
1583.639,657.00
1584.516,565.00
1585.391,643.50
1586.266,614.00
1587.143,577.50
1588.018,599.50
1588.893,601.00
1589.768,657.50
1590.644,647.00
1591.519,626.50
1592.393,617.50
1593.269,617.00
1594.143,626.50
1595.018,628.00
1595.892,594.50
1596.767,623.00
1597.641,631.00
1598.515,585.00
1599.391,609.50
1600.264,615.50
1601.138,624.50
1602.011,576.50
1602.886,648.50
1603.760,576.50
1604.633,580.50
1605.508,557.50
1606.381,613.50
1607.254,614.00
1608.127,553.50
1609.001,577.00
1609.874,542.50
1610.746,631.50
1611.619,581.50
1612.493,605.50
1613.365,576.00
1614.238,628.00
1615.110,620.50
1615.984,641.50
1616.855,636.00
1617.727,630.00
1618.599,579.50
1619.473,631.00
1620.344,615.00
1621.216,633.00
1622.087,574.50
1622.960,569.50
1623.832,602.50
1624.703,592.00
1625.574,610.00
1626.445,696.00
1627.317,649.50
1628.188,586.50
1629.059,588.00
1629.930,614.00
1630.802,594.50
1631.672,575.50
1632.543,581.50
1633.413,627.00
1634.283,613.00
1635.155,622.50
1636.025,613.00
1636.895,628.50
1637.765,587.00
1638.636,601.00
1639.506,624.50
1640.376,528.50
1641.245,636.00
1642.114,587.50
1642.985,570.50
1643.855,627.50
1644.724,588.00
1645.593,564.00
1646.462,601.50
1647.333,652.00
1648.201,610.00
1649.070,649.00
1649.939,561.50
1650.807,598.00
1651.676,573.00
1652.546,621.00
1653.414,580.50
1654.282,603.50
1655.150,632.00
1656.018,614.50
1656.888,567.00
1657.756,587.00
1658.623,588.00
1659.491,584.00
1660.359,636.00
1661.226,610.50
1662.095,616.50
1662.962,576.00
1663.830,601.00
1664.697,625.00
1665.564,627.50
1666.431,559.00
1667.297,627.00
1668.166,588.00
1669.033,605.00
1669.899,603.00
1670.766,595.00
1671.632,571.50
1672.499,581.00
1673.367,550.00
1674.233,608.50
1675.099,581.50
1675.965,579.50
1676.831,580.50
1677.696,616.00
1678.562,600.50
1679.430,595.50
1680.295,566.00
1681.161,616.50
1682.026,526.50
1682.891,583.50
1683.756,583.00
1684.621,586.50
1685.486,584.50
1686.353,582.00
1687.218,514.00
1688.083,579.50
1688.947,563.00
1689.812,630.00
1690.677,617.50
1691.541,570.00
1692.405,569.00
1693.269,606.00
1694.135,569.00
1694.999,551.00
1695.863,546.50
1696.727,600.50
1697.591,600.50
1698.455,616.00
1699.318,569.50
1700.182,574.00
1701.045,577.50
1701.909,598.50
1702.772,618.50
1703.637,518.00
1704.500,563.00
1705.363,580.50
1706.226,625.50
1707.089,531.50
1707.951,618.50
1708.814,552.50
1709.677,616.00
1710.539,592.50
1711.402,557.50
1712.264,597.50
1713.126,578.50
1713.988,556.50
1714.852,551.50
1715.714,569.50
1716.576,555.50
1717.438,565.00
1718.299,543.00
1719.161,560.00
1720.023,551.00
1720.884,574.50
1721.745,614.00
1722.607,554.50
1723.468,527.00
1724.329,569.50
1725.190,557.50
1726.051,622.00
1726.912,553.00
1727.772,577.00
1728.633,564.50
1729.494,613.50
1730.354,604.50
1731.214,584.50
1732.075,622.00
1732.935,595.00
1733.797,645.00
1734.657,569.50
1735.517,651.50
1736.377,596.50
1737.237,599.00
1738.096,548.00
1738.956,603.50
1739.816,598.00
1740.675,592.00
1741.534,544.50
1742.394,631.50
1743.253,614.00
1744.112,586.00
1744.971,611.50
1745.830,553.50
1746.689,583.50
1747.547,538.50
1748.406,558.50
1749.265,583.50
1750.123,569.00
1750.982,589.00
1751.840,575.00
1752.698,580.50
1753.556,565.00
1754.414,590.00
1755.272,535.50
1756.130,623.50
1756.988,543.50
1757.846,588.00
1758.703,601.50
1759.559,599.50
1760.417,606.50
1761.274,566.50
1762.131,580.50
1762.989,575.00
1763.846,541.00
1764.703,502.50
1765.560,561.00
1766.417,526.50
1767.273,532.00
1768.130,589.50
1768.987,631.00
1769.843,577.50
1770.700,538.00
1771.556,540.00
1772.412,552.50
1773.268,589.00
1774.125,566.50
1774.980,554.50
1775.836,545.00
1776.692,575.00
1777.546,616.00
1778.402,568.50
1779.257,555.00
1780.113,568.50
1780.968,587.00
1781.824,536.50
1782.679,564.00
1783.534,577.50
1784.389,622.50
1785.244,577.00
1786.099,547.00
1786.954,524.50
1787.808,531.50
1788.661,535.00
1789.516,583.00
1790.370,535.50
1791.225,557.50
1792.079,559.00
1792.933,595.50
1793.787,672.00
1794.641,558.00
1795.495,579.00
1796.349,563.50
1797.201,609.00
1798.055,572.00
1798.908,548.50
1799.762,537.50
1800.615,507.00
1801.469,575.00
1802.322,602.50
1803.175,574.50
1804.028,593.00
1804.880,572.00
1805.732,554.00
1806.585,616.00
1807.438,547.00
1808.291,590.50
1809.143,584.50
1809.996,576.00
1810.846,577.50
1811.699,515.00
1812.551,513.50
1813.403,550.50
1814.255,574.50
1815.107,580.50
1815.959,556.50
1816.809,545.50
1817.661,557.00
1818.512,579.50
1819.364,567.50
1820.215,577.50
1821.067,544.00
1821.918,575.50
1822.768,585.50
1823.619,602.50
1824.470,492.00
1825.321,569.50
1826.172,567.50
1827.021,546.00
1827.871,542.50
1828.722,527.50
1829.572,551.50
1830.423,594.00
1831.273,549.50
1832.122,571.00
1832.972,599.00
1833.822,614.00
1834.672,570.50
1835.522,573.50
1836.370,552.50
1837.220,505.00
1838.070,538.00
1838.919,581.50
1839.769,547.50
1840.616,573.50
1841.466,547.00
1842.315,559.50
1843.164,603.00
1844.013,555.50
1844.860,562.00
1845.709,609.00
1846.558,524.00
1847.407,566.50
1848.254,573.00
1849.102,572.50
1849.951,519.00
1850.799,517.50
1851.648,580.50
1852.494,576.50
1853.342,571.50
1854.190,511.50
1855.038,548.50
1855.884,563.00
1856.732,544.00
1857.580,593.00
1858.428,538.00
1859.273,562.00
1860.121,553.50
1860.968,540.50
1861.816,537.50
1862.661,547.50
1863.508,520.00
1864.355,541.50
1865.202,505.00
1866.047,548.00
1866.894,630.50
1867.741,547.00
1868.586,522.50
1869.432,562.50
1870.279,542.50
1871.125,569.50
1871.970,584.00
1872.816,519.00
1873.662,523.00
1874.506,560.50
1875.352,543.50
1876.198,547.50
1877.044,595.50
1877.888,523.50
1878.734,519.50
1879.579,546.50
1880.423,547.50
1881.268,551.00
1882.113,573.00
1882.959,571.00
1883.802,569.50
1884.647,565.00
1885.492,571.50
1886.335,569.50
1887.180,559.00
1888.025,508.00
1888.867,567.50
1889.712,517.50
1890.556,555.50
1891.399,563.00
1892.243,520.00
1893.087,566.50
1893.930,548.00
1894.774,603.00
1895.618,507.00
1896.460,544.50
1897.304,542.50
1898.147,609.50
1898.989,582.00
1899.833,552.00
1900.676,495.00
1901.518,550.50
1902.361,557.00
1903.202,552.00
1904.046,602.50
1904.889,540.50
1905.730,549.00
1906.573,572.00
1907.415,548.00
1908.256,572.00
1909.099,524.00
1909.941,566.50
1910.782,484.50
1911.624,555.50
1912.465,571.50
1913.307,624.50
1914.149,504.00
1914.989,510.50
1915.831,537.50
1916.671,537.00
1917.513,559.00
1918.355,510.00
1919.195,568.50
1920.036,531.00
1920.876,538.00
1921.717,521.50
1922.558,545.50
1923.398,553.00
1924.239,588.50
1925.078,520.00
1925.919,541.50
1926.760,560.50
1927.599,546.00
1928.440,534.50
1929.279,543.50
1930.119,554.00
1930.958,532.00
1931.798,526.00
1932.638,523.50
1933.477,555.50
1934.317,575.50
1935.155,560.50
1935.995,554.00
1936.833,581.00
1937.673,533.50
1938.512,613.00
1939.350,529.00
1940.190,545.00
1941.027,524.00
1941.867,521.00
1942.704,538.50
1943.543,609.50
1944.381,512.00
1945.220,591.00
1946.057,544.50
1946.896,513.50
1947.733,570.50
1948.572,562.50
1949.408,492.00
1950.247,497.00
1951.085,568.50
1951.922,556.00
1952.760,537.00
1953.597,605.00
1954.435,566.50
1955.271,505.50
1956.109,521.50
1956.945,531.50
1957.783,557.50
1958.619,544.00
1959.456,596.50
1960.292,586.50
1961.129,525.00
1961.965,596.50
1962.802,571.50
1963.638,595.50
1964.475,549.00
1965.310,581.50
1966.145,511.50
1966.982,565.50
1967.817,554.00
1968.654,519.00
1969.489,575.00
1970.325,524.00
1971.160,520.00
1971.996,535.50
1972.831,552.00
1973.667,569.00
1974.501,566.50
1975.337,490.50
1976.171,591.50
1977.006,566.00
1977.841,558.00
1978.675,554.00
1979.511,618.00
1980.345,593.50
1981.180,542.50
1982.014,535.00
1982.849,538.00
1983.682,559.00
1984.516,591.50
1985.351,567.00
1986.184,546.50
1987.019,584.00
1987.852,563.50
1988.687,574.50
1989.519,597.00
1990.352,566.50
1991.187,599.50
1992.019,549.00
1992.854,582.00
1993.686,569.50
1994.518,582.00
1995.352,573.50
1996.185,580.00
1997.019,592.50
1997.851,542.50
1998.682,592.00
1999.516,564.50
2000.348,567.50

<< BACKGROUND SPECTRUM >>
Wave[dcm-1],No55
96.716,2551.00
97.759,2380.00
98.802,2287.00
99.846,2938.00
100.886,2558.00
101.929,2742.00
102.972,2753.00
104.015,2658.00
105.057,2752.00
106.100,2237.00
107.142,2601.00
108.184,3011.00
109.226,2857.00
110.268,3057.00
111.310,3358.00
112.352,2895.00
113.393,2983.00
114.435,2807.00
115.476,3047.00
116.517,3105.00
117.558,2635.00
118.599,2974.00
119.640,3259.00
120.681,3255.00
121.722,3182.00
122.762,2903.00
123.803,2748.00
124.843,3142.00
125.883,3366.00
126.923,3609.00
127.963,3291.00
129.001,3556.00
130.041,3988.00
131.080,3272.00
132.120,3162.00
133.159,3526.00
134.199,3632.00
135.238,3200.00
136.277,3520.00
137.316,3701.00
138.355,3612.00
139.393,3220.00
140.432,3321.00
141.470,3428.00
142.509,3214.00
143.547,3741.00
144.585,2977.00
145.623,3378.00
146.661,3189.00
147.699,3548.00
148.736,3590.00
149.774,3278.00
150.811,3473.00
151.849,3951.00
152.886,3388.00
153.923,3689.00
154.960,3144.00
155.997,3911.00
157.034,4938.00
158.072,3605.00
159.109,4102.00
160.145,4189.00
161.182,3242.00
162.218,3513.00
163.254,3319.00
164.290,3293.00
165.326,4078.00
166.361,3881.00
167.397,3498.00
168.432,3719.00
169.468,3463.00
170.503,3740.00
171.538,3426.00
172.573,3733.00
173.608,3223.00
174.643,3747.00
175.677,3620.00
176.712,3821.00
177.746,3831.00
178.781,3339.00
179.815,2699.00
180.849,3816.00
181.883,3291.00
182.917,2870.00
183.951,3106.00
184.984,3846.00
186.020,3268.00
187.053,3651.00
188.087,3260.00
189.120,3532.00
190.153,3693.00
191.186,3717.00
192.219,3794.00
193.251,3672.00
194.284,3789.00
195.317,3810.00
196.349,10591.00
197.381,3468.00
198.413,3492.00
199.445,3307.00
200.477,3540.00
201.509,3571.00
202.543,3541.00
203.575,4000.00
204.606,3683.00
205.637,5189.00
206.669,3163.00
207.700,3767.00
208.731,3608.00
209.762,3230.00
210.792,3294.00
211.823,3667.00
212.854,3262.00
213.884,4385.00
214.914,3748.00
215.947,3540.00
216.977,3707.00
218.007,3597.00
219.037,3831.00
220.066,3429.00
221.096,3864.00
222.126,3171.00
223.155,3386.00
224.184,3731.00
225.214,3371.00
226.245,3933.00
227.274,3319.00
228.302,3693.00
229.331,3718.00
230.360,3427.00
231.388,3391.00
232.417,3206.00
233.445,3627.00
234.473,3404.00
235.501,3747.00
236.531,3734.00
237.559,3668.00
238.587,3366.00
239.614,3316.00
240.642,3647.00
241.669,3709.00
242.696,3684.00
243.724,3677.00
244.753,4037.00
245.780,3446.00
246.806,3262.00
247.833,3649.00
248.860,3475.00
249.886,3626.00
250.913,3249.00
251.939,3513.00
252.967,3482.00
253.993,3515.00
255.019,3956.00
256.045,3574.00
257.070,4075.00
258.096,3301.00
259.121,3738.00
260.147,3540.00
261.174,3433.00
262.199,3415.00
263.224,3595.00
264.249,3896.00
265.274,4116.00
266.298,3587.00
267.323,3674.00
268.349,3935.00
269.374,3257.00
270.398,3280.00
271.422,3698.00
272.446,3296.00
273.470,3146.00
274.496,3758.00
275.519,3769.00
276.543,3920.00
277.566,3920.00
278.589,3840.00
279.613,3776.00
280.636,3719.00
281.661,3865.00
282.684,3852.00
283.706,3965.00
284.729,4200.00
285.751,3027.00
286.774,4027.00
287.798,3408.00
288.820,2991.00
289.842,3332.00
290.864,3363.00
291.886,3667.00
292.910,3485.00
293.932,4099.00
294.953,3569.00
295.974,3610.00
296.996,3762.00
298.017,3594.00
299.040,3455.00
300.061,3699.00
301.082,3356.00
302.102,3236.00
303.123,3820.00
304.143,3603.00
305.166,3543.00
306.186,3796.00
307.206,3349.00
308.226,3708.00
309.246,3090.00
310.268,3846.00
311.288,3536.00
312.307,3258.00
313.327,3533.00
314.346,3776.00
315.368,3021.00
316.387,3645.00
317.406,3672.00
318.425,3559.00
319.443,3485.00
320.464,3142.00
321.483,4038.00
322.501,3392.00
323.520,3947.00
324.538,3494.00
325.558,4024.00
326.576,3660.00
327.594,3557.00
328.612,3427.00
329.629,3144.00
330.649,3845.00
331.666,3564.00
332.684,3190.00
333.701,3722.00
334.718,3217.00
335.737,3459.00
336.754,3753.00
337.771,3752.00
338.787,3217.00
339.806,3470.00
340.823,3470.00
341.839,3547.00
342.855,3433.00
343.871,3594.00
344.889,3369.00
345.905,3912.00
346.921,3791.00
347.937,4322.00
348.954,4164.00
349.970,3666.00
350.985,3621.00
352.000,3115.00
353.017,3740.00
354.032,3089.00
355.047,3852.00
356.062,3454.00
357.077,3442.00
358.093,4001.00
359.108,3719.00
360.122,3668.00
361.136,3505.00
362.152,3937.00
363.166,3287.00
364.180,3107.00
365.194,3980.00
366.210,3354.00
367.223,3251.00
368.237,3426.00
369.250,3635.00
370.265,3345.00
371.278,3929.00
372.291,3715.00
373.304,3056.00
374.319,3746.00
375.332,3858.00
376.344,4074.00
377.357,3426.00
378.371,3865.00
379.383,3344.00
380.395,4289.00
381.407,4100.00
382.421,3429.00
383.433,3435.00
384.445,3352.00
385.456,3542.00
386.470,3093.00
387.481,3902.00
388.492,3934.00
389.505,3261.00
390.516,3977.00
391.527,3503.00
392.538,3505.00
393.551,3692.00
394.561,4327.00
395.572,3727.00
396.582,3630.00
397.594,3791.00
398.604,3424.00
399.614,3611.00
400.624,3418.00
401.636,3441.00
402.646,3550.00
403.655,3192.00
404.667,3358.00
405.676,3344.00
406.685,4303.00
407.694,3920.00
408.705,3004.00
409.714,3148.00
410.723,3277.00
411.734,3286.00
412.742,3437.00
413.751,3608.00
414.759,3612.00
415.769,3563.00
416.777,3780.00
417.785,3546.00
418.795,3380.00
419.803,3576.00
420.811,3290.00
421.818,3981.00
422.828,3468.00
423.835,3397.00
424.842,3461.00
425.852,3285.00
426.859,3679.00
427.866,3740.00
428.874,3602.00
429.881,3502.00
430.888,3755.00
431.894,3622.00
432.902,3577.00
433.909,4560.00
434.915,3657.00
435.923,4303.00
436.929,3069.00
437.935,3507.00
438.942,3380.00
439.948,3574.00
440.953,4115.00
441.959,3195.00
442.966,3955.00
443.971,3752.00
444.976,3196.00
445.983,3678.00
446.988,3486.00
447.993,4031.00
448.999,3668.00
450.004,3580.00
451.008,3397.00
452.014,4132.00
453.019,3875.00
454.023,3304.00
455.029,3265.00
456.032,3991.00
457.036,3497.00
458.042,2915.00
459.045,3436.00
460.049,3683.00
461.052,4023.00
462.057,3766.00
463.060,4055.00
464.063,3388.00
465.068,3451.00
466.071,3299.00
467.073,3952.00
468.078,3131.00
469.080,3076.00
470.082,3559.00
471.087,3466.00
472.089,3613.00
473.091,3791.00
474.095,4045.00
475.096,3470.00
476.098,3417.00
477.101,3710.00
478.103,3314.00
479.104,4158.00
480.107,3444.00
481.108,3054.00
482.109,4252.00
483.112,4192.00
484.113,3749.00
485.114,3804.00
486.116,3544.00
487.117,3904.00
488.117,3676.00
489.119,3719.00
490.119,3784.00
491.121,3232.00
492.121,3036.00
493.121,2892.00
494.123,3595.00
495.122,3700.00
496.122,3577.00
497.123,4577.00
498.122,3388.00
499.121,3619.00
500.122,3620.00
501.121,3146.00
502.120,3150.00
503.121,3273.00
504.119,3219.00
505.118,3777.00
506.118,3264.00
507.117,3332.00
508.115,3766.00
509.115,3566.00
510.113,3123.00
511.112,3845.00
512.110,3469.00
513.108,3836.00
514.107,3885.00
515.105,3786.00
516.102,3967.00
517.101,3470.00
518.098,3553.00
519.095,4083.00
520.094,3421.00
521.091,3415.00
522.089,3709.00
523.086,3358.00
524.082,3715.00
525.081,3630.00
526.077,4791.00
527.073,4522.00
528.071,3544.00
529.067,3355.00
530.064,3420.00
531.060,3191.00
532.056,3412.00
533.053,3889.00
534.048,3798.00
535.044,3532.00
536.041,3703.00
537.036,3580.00
538.030,3719.00
539.027,3813.00
540.022,3177.00
541.019,3531.00
542.013,3768.00
543.007,3671.00
544.004,3507.00
544.998,3486.00
545.994,4139.00
546.988,3925.00
547.981,3463.00
548.977,4175.00
549.971,3736.00
550.964,3819.00
551.960,3674.00
552.953,3591.00
553.948,3831.00
554.941,3341.00
555.934,3219.00
556.929,3748.00
557.922,3319.00
558.916,3818.00
559.909,4071.00
560.901,3631.00
561.895,3661.00
562.888,3295.00
563.880,3777.00
564.874,3859.00
565.865,3807.00
566.859,3258.00
567.851,4083.00
568.842,3511.00
569.836,3547.00
570.827,3263.00
571.820,3629.00
572.811,3767.00
573.802,3563.00
574.795,3282.00
575.786,3871.00
576.779,3658.00
577.769,3194.00
578.760,3615.00
579.752,3236.00
580.742,3374.00
581.735,3688.00
582.725,3340.00
583.714,3823.00
584.706,3252.00
585.696,3532.00
586.688,3745.00
587.677,3524.00
588.667,3738.00
589.658,3537.00
590.647,3652.00
591.638,3647.00
592.627,3397.00
593.616,3092.00
594.607,3643.00
595.595,3573.00
596.586,3170.00
597.574,3903.00
598.562,3949.00
599.553,3163.00
600.541,3595.00
601.531,3684.00
602.519,3486.00
603.508,3699.00
604.496,3699.00
605.484,3627.00
606.473,3500.00
607.460,3392.00
608.450,3455.00
609.437,3739.00
610.424,3895.00
611.413,3117.00
612.400,3248.00
613.388,3574.00
614.375,3411.00
615.361,3475.00
616.350,3290.00
617.336,8477.00
618.324,3892.00
619.310,3350.00
620.298,3231.00
621.284,3681.00
622.270,3238.00
623.257,3609.00
624.243,3585.00
625.230,3822.00
626.216,3514.00
627.203,3940.00
628.188,3450.00
629.173,3414.00
630.160,3300.00
631.145,2673.00
632.131,3349.00
633.116,3196.00
634.102,3597.00
635.087,3805.00
636.071,3810.00
637.057,3342.00
638.041,3128.00
639.027,3270.00
640.011,3438.00
640.995,3249.00
641.980,3284.00
642.964,3353.00
643.949,3932.00
644.932,2804.00
645.918,3315.00
646.901,3581.00
647.886,3334.00
648.868,3453.00
649.851,3172.00
650.836,2951.00
651.818,3242.00
652.803,3701.00
653.785,3526.00
654.769,3685.00
655.751,3663.00
656.733,3988.00
657.717,3058.00
658.699,3545.00
659.683,3266.00
660.664,3163.00
661.648,3396.00
662.629,3341.00
663.611,3306.00
664.594,3125.00
665.575,3123.00
666.558,3445.00
667.539,3071.00
668.521,3296.00
669.502,3390.00
670.484,3363.00
671.465,3306.00
672.445,3443.00
673.427,3217.00
674.407,3225.00
675.390,3543.00
676.369,3344.00
677.351,2967.00
678.331,3610.00
679.312,3410.00
680.292,3235.00
681.271,2997.00
682.253,3583.00
683.232,3081.00
684.213,3268.00
685.192,3715.00
686.172,3926.00
687.151,3390.00
688.132,3450.00
689.110,3564.00
690.089,3722.00
691.069,2892.00
692.047,2812.00
693.027,2977.00
694.005,3469.00
694.985,4028.00
695.963,3476.00
696.943,3233.00
697.920,3018.00
698.898,3778.00
699.877,3605.00
700.854,3265.00
701.833,3242.00
702.810,3780.00
703.789,3476.00
704.766,4498.00
705.745,3946.00
706.721,3196.00
707.698,3704.00
708.676,3061.00
709.653,3320.00
710.631,3685.00
711.607,3364.00
712.585,3405.00
713.561,3102.00
714.539,3941.00
715.514,3430.00
716.492,3089.00
717.467,3783.00
718.443,3060.00
719.420,3702.00
720.395,3796.00
721.372,3510.00
722.347,3635.00
723.324,3249.00
724.298,3352.00
725.275,3149.00
726.250,3312.00
727.226,3195.00
728.200,2982.00
729.176,3289.00
730.151,3614.00
731.125,3809.00
732.100,3006.00
733.074,3328.00
734.050,3186.00
735.023,3020.00
735.999,3303.00
736.972,3236.00
737.947,3725.00
738.921,3437.00
739.896,3585.00
740.869,3407.00
741.841,3281.00
742.816,3810.00
743.789,3050.00
744.763,3178.00
745.736,3331.00
746.710,3162.00
747.682,3132.00
748.656,3292.00
749.628,3304.00
750.602,3291.00
751.574,3408.00
752.548,4221.00
753.519,3505.00
754.491,2921.00
755.464,3171.00
756.435,3976.00
757.408,3614.00
758.379,3474.00
759.352,2903.00
760.323,3002.00
761.296,3277.00
762.267,3365.00
763.239,3104.00
764.209,3531.00
765.182,4397.00
766.152,3654.00
767.124,3066.00
768.094,3180.00
769.064,3515.00
770.036,2998.00
771.005,3629.00
771.977,3208.00
772.947,3241.00
773.918,3714.00
774.887,3260.00
775.858,3134.00
776.827,3188.00
777.798,3282.00
778.767,3776.00
779.738,3276.00
780.707,3237.00
781.677,3385.00
782.646,3077.00
783.614,3709.00
784.584,3376.00
785.552,3531.00
786.522,2983.00
787.490,3251.00
788.460,3179.00
789.428,3177.00
790.397,3658.00
791.365,2990.00
792.334,3206.00
793.302,3426.00
794.271,3455.00
795.238,3164.00
796.207,3157.00
797.174,3609.00
798.143,2989.00
799.109,3646.00
800.076,3212.00
801.044,2910.00
802.011,3075.00
802.979,3083.00
803.945,3301.00
804.913,3933.00
805.879,3205.00
806.847,2943.00
807.813,3623.00
808.780,3222.00
809.746,3251.00
810.713,3695.00
811.678,2934.00
812.646,3191.00
813.611,3245.00
814.578,3003.00
815.543,3642.00
816.510,2908.00
817.474,3158.00
818.439,3202.00
819.405,3499.00
820.370,3088.00
821.336,3004.00
822.300,3381.00
823.266,3193.00
824.230,3419.00
825.196,3276.00
826.160,3633.00
827.126,3595.00
828.089,3998.00
829.055,3307.00
830.018,3349.00
830.983,4058.00
831.946,3063.00
832.911,3068.00
833.874,3894.00
834.837,3115.00
835.802,3181.00
836.765,3742.00
837.729,3081.00
838.691,3249.00
839.656,3607.00
840.618,3382.00
841.582,3504.00
842.544,3530.00
843.508,3690.00
844.470,2967.00
845.434,2869.00
846.395,2768.00
847.359,3189.00
848.320,2881.00
849.283,3059.00
850.245,3111.00
851.208,3473.00
852.169,3246.00
853.130,2999.00
854.092,3419.00
855.053,3167.00
856.016,3203.00
856.976,3120.00
857.938,3262.00
858.899,3359.00
859.861,2942.00
860.821,3163.00
861.783,2625.00
862.743,3208.00
863.704,3499.00
864.664,2796.00
865.626,3315.00
866.585,3042.00
867.546,3313.00
868.506,3363.00
869.467,2788.00
870.426,3314.00
871.387,3453.00
872.346,3542.00
873.304,3386.00
874.265,3417.00
875.223,3276.00
876.184,3383.00
877.142,3085.00
878.102,3200.00
879.060,3211.00
880.021,3325.00
880.978,2827.00
881.938,3142.00
882.896,3581.00
883.856,3434.00
884.813,3154.00
885.772,3179.00
886.730,3457.00
887.689,3402.00
888.646,3088.00
889.603,3609.00
890.562,3619.00
891.519,3346.00
892.477,3381.00
893.434,3324.00
894.392,2839.00
895.349,3259.00
896.307,3353.00
897.263,3466.00
898.221,3281.00
899.177,3078.00
900.135,3422.00
901.091,3179.00
902.048,3661.00
903.004,3182.00
903.961,3065.00
904.917,3229.00
905.874,3271.00
906.829,2919.00
907.784,3256.00
908.741,3314.00
909.696,3139.00
910.653,2790.00
911.607,3183.00
912.564,3152.00
913.518,3128.00
914.475,3299.00
915.429,4989.00
916.385,2926.00
917.339,3628.00
918.295,3333.00
919.249,3446.00
920.205,3282.00
921.158,3344.00
922.114,3204.00
923.067,3263.00
924.020,3305.00
924.976,3164.00
925.929,3397.00
926.884,3336.00
927.837,3518.00
928.791,3459.00
929.744,2952.00
930.699,3270.00
931.651,3312.00
932.606,2853.00
933.558,3094.00
934.512,3429.00
935.464,3325.00
936.418,3589.00
937.370,3430.00
938.322,3037.00
939.276,3159.00
940.227,3239.00
941.181,3338.00
942.132,3685.00
943.085,3830.00
944.036,2811.00
944.990,3570.00
945.941,3017.00
946.893,3151.00
947.844,2920.00
948.797,3382.00
949.747,3953.00
950.700,3123.00
951.650,2703.00
952.601,3345.00
953.553,3040.00
954.503,3482.00
955.455,3206.00
956.405,3230.00
957.356,2923.00
958.306,3544.00
959.258,3208.00
960.207,3645.00
961.158,3549.00
962.108,3222.00
963.059,2941.00
964.008,2937.00
964.959,3807.00
965.908,3195.00
966.856,2996.00
967.807,2803.00
968.756,3634.00
969.706,3258.00
970.654,3155.00
971.605,3249.00
972.553,3339.00
973.503,3221.00
974.451,3489.00
975.401,3239.00
976.348,3259.00
977.296,3110.00
978.246,3478.00
979.193,3654.00
980.142,3003.00
981.090,3326.00
982.039,3233.00
982.986,3300.00
983.935,3516.00
984.882,3351.00
985.830,3437.00
986.777,3366.00
987.725,3093.00
988.672,2997.00
989.618,3286.00
990.567,3006.00
991.513,3177.00
992.461,2999.00
993.407,3411.00
994.354,3317.00
995.300,3401.00
996.248,3335.00
997.193,3323.00
998.141,3119.00
999.086,3339.00
1000.031,3291.00
1000.978,2834.00
1001.924,3218.00
1002.870,3350.00
1003.815,2614.00
1004.762,3051.00
1005.707,3240.00
1006.653,3141.00
1007.598,3180.00
1008.542,2872.00
1009.488,2831.00
1010.432,3069.00
1011.378,2982.00
1012.322,3561.00
1013.268,2936.00
1014.212,3247.00
1015.157,3323.00
1016.101,3648.00
1017.046,2923.00
1017.990,2929.00
1018.933,3158.00
1019.878,3003.00
1020.821,3033.00
1021.766,2850.00
1022.709,3095.00
1023.654,3153.00
1024.596,3495.00
1025.541,3618.00
1026.483,3648.00
1027.425,3302.00
1028.370,3390.00
1029.312,3379.00
1030.256,3052.00
1031.198,3053.00
1032.141,3068.00
1033.083,3576.00
1034.027,3303.00
1034.968,3377.00
1035.910,2746.00
1036.853,3188.00
1037.794,3325.00
1038.738,2938.00
1039.679,3567.00
1040.621,3085.00
1041.562,3084.00
1042.503,3530.00
1043.446,2937.00
1044.386,3438.00
1045.329,3243.00
1046.269,3333.00
1047.211,3160.00
1048.151,3279.00
1049.093,2924.00
1050.033,3987.00
1050.973,3326.00
1051.915,3153.00
1052.854,3107.00
1053.796,3373.00
1054.735,2999.00
1055.677,3048.00
1056.616,3270.00
1057.555,3263.00
1058.496,2850.00
1059.435,3367.00
1060.376,3060.00
1061.315,3052.00
1062.255,2882.00
1063.194,3120.00
1064.132,2922.00
1065.073,3277.00
1066.011,3245.00
1066.951,3124.00
1067.889,2956.00
1068.829,3317.00
1069.767,3274.00
1070.705,2543.00
1071.644,3109.00
1072.582,2773.00
1073.521,3107.00
1074.459,3176.00
1075.398,3323.00
1076.335,3031.00
1077.272,3798.00
1078.211,3339.00
1079.148,3704.00
1080.087,3207.00
1081.023,3587.00
1081.962,3429.00
1082.898,2715.00
1083.835,3008.00
1084.773,2782.00
1085.709,2838.00
1086.647,3179.00
1087.583,3079.00
1088.519,3312.00
1089.457,3345.00
1090.392,2784.00
1091.330,3219.00
1092.266,3119.00
1093.203,3441.00
1094.138,2835.00
1095.073,3653.00
1096.010,3419.00
1096.945,3131.00
1097.882,2810.00
1098.817,2619.00
1099.752,3883.00
1100.688,3191.00
1101.623,3275.00
1102.559,3292.00
1103.493,3455.00
1104.430,2683.00
1105.364,2866.00
1106.298,3099.00
1107.234,3780.00
1108.167,2927.00
1109.094,3086.00
1110.019,3112.00
1110.945,3303.00
1111.869,3149.00
1112.795,3046.00
1113.720,3192.00
1114.646,3189.00
1115.571,2610.00
1116.495,3250.00
1117.420,3225.00
1118.345,2976.00
1119.270,3118.00
1120.195,3281.00
1121.118,3577.00
1122.042,3402.00
1122.967,3173.00
1123.891,3233.00
1124.816,3202.00
1125.738,3190.00
1126.663,2581.00
1127.587,3026.00
1128.511,3031.00
1129.435,3157.00
1130.357,3225.00
1131.280,4019.00
1132.204,2924.00
1133.128,2994.00
1134.051,3067.00
1134.972,3762.00
1135.896,3087.00
1136.819,3468.00
1137.742,3000.00
1138.665,3302.00
1139.586,3141.00
1140.509,2718.00
1141.431,2941.00
1142.354,3632.00
1143.276,3180.00
1144.197,3539.00
1145.119,3253.00
1146.041,2898.00
1146.964,3349.00
1147.885,3236.00
1148.806,3095.00
1149.727,3147.00
1150.649,2777.00
1151.571,3183.00
1152.492,3409.00
1153.412,3271.00
1154.333,3155.00
1155.254,3042.00
1156.175,3026.00
1157.095,3631.00
1158.016,3143.00
1158.936,2974.00
1159.857,3280.00
1160.778,3072.00
1161.697,2783.00
1162.617,3254.00
1163.537,3821.00
1164.458,3645.00
1165.376,2957.00
1166.296,3346.00
1167.216,3477.00
1168.136,2983.00
1169.056,2851.00
1169.974,3063.00
1170.893,3700.00
1171.813,3315.00
1172.732,3075.00
1173.650,3186.00
1174.569,3967.00
1175.488,3349.00
1176.407,2858.00
1177.326,2947.00
1178.243,3144.00
1179.161,3027.00
1180.080,3075.00
1180.999,3332.00
1181.915,3090.00
1182.834,2708.00
1183.752,3323.00
1184.670,3738.00
1185.586,2685.00
1186.504,3009.00
1187.422,3084.00
1188.340,2843.00
1189.258,3268.00
1190.173,3142.00
1191.091,3475.00
1192.008,2992.00
1192.926,2970.00
1193.841,3272.00
1194.758,3288.00
1195.675,2930.00
1196.592,3449.00
1197.507,2896.00
1198.424,3312.00
1199.340,3592.00
1200.257,3140.00
1201.172,3291.00
1202.088,2628.00
1203.004,3164.00
1203.920,3460.00
1204.835,3741.00
1205.750,3527.00
1206.666,3528.00
1207.582,2932.00
1208.496,2969.00
1209.412,3058.00
1210.327,2991.00
1211.243,3641.00
1212.156,2989.00
1213.071,2950.00
1213.986,3161.00
1214.901,2786.00
1215.814,2823.00
1216.729,2934.00
1217.644,2933.00
1218.559,2930.00
1219.471,3908.00
1220.386,3510.00
1221.300,2929.00
1222.213,3287.00
1223.127,3117.00
1224.041,3545.00
1224.955,2928.00
1225.867,3242.00
1226.781,3398.00
1227.694,3590.00
1228.608,3082.00
1229.520,3381.00
1230.433,3345.00
1231.346,2908.00
1232.260,3304.00
1233.171,2897.00
1234.084,3214.00
1234.997,3562.00
1235.908,2996.00
1236.821,3324.00
1237.733,4291.00
1238.646,3396.00
1239.556,3269.00
1240.469,3133.00
1241.381,2897.00
1242.293,2950.00
1243.203,3660.00
1244.115,3675.00
1245.027,3222.00
1245.937,3026.00
1246.849,3005.00
1247.761,3185.00
1248.672,2895.00
1249.582,3080.00
1250.493,3752.00
1251.404,3170.00
1252.313,3354.00
1253.225,3510.00
1254.135,4097.00
1255.046,3269.00
1255.955,3368.00
1256.866,3648.00
1257.777,3028.00
1258.685,2831.00
1259.596,2611.00
1260.506,3536.00
1261.416,3100.00
1262.324,3405.00
1263.234,3122.00
1264.144,3386.00
1265.052,3244.00
1265.962,3169.00
1266.872,3474.00
1267.779,3389.00
1268.689,2684.00
1269.598,2884.00
1270.507,3075.00
1271.415,3036.00
1272.324,3231.00
1273.233,3176.00
1274.140,3037.00
1275.048,2906.00
1275.957,2641.00
1276.864,2971.00
1277.772,2976.00
1278.681,2638.00
1279.587,2964.00
1280.496,3283.00
1281.404,3926.00
1282.312,3320.00
1283.218,2892.00
1284.126,2929.00
1285.033,3674.00
1285.939,3125.00
1286.847,3232.00
1287.754,3049.00
1288.660,2919.00
1289.567,3753.00
1290.474,3191.00
1291.380,3420.00
1292.286,2810.00
1293.193,3207.00
1294.098,3135.00
1295.005,2970.00
1295.912,3500.00
1296.816,3221.00
1297.723,3119.00
1298.629,2982.00
1299.534,3505.00
1300.440,3312.00
1301.346,2947.00
1302.250,3026.00
1303.156,2676.00
1304.062,3622.00
1304.966,3673.00
1305.871,3479.00
1306.777,2972.00
1307.680,3116.00
1308.586,3253.00
1309.491,3367.00
1310.394,3142.00
1311.299,3417.00
1312.204,3661.00
1313.107,3302.00
1314.012,3206.00
1314.917,2828.00
1315.819,3294.00
1316.724,3654.00
1317.628,3249.00
1318.531,3093.00
1319.435,3520.00
1320.339,5205.00
1321.241,3144.00
1322.145,3158.00
1323.049,3202.00
1323.951,2980.00
1324.854,2919.00
1325.756,3421.00
1326.659,3241.00
1327.563,2909.00
1328.464,3281.00
1329.367,3074.00
1330.271,3478.00
1331.172,2923.00
1332.074,3174.00
1332.977,2943.00
1333.878,3301.00
1334.781,3464.00
1335.683,2938.00
1336.584,3084.00
1337.486,2759.00
1338.387,3311.00
1339.289,2869.00
1340.191,2989.00
1341.091,3117.00
1341.993,2866.00
1342.895,3003.00
1343.794,3258.00
1344.696,3371.00
1345.596,3266.00
1346.497,2905.00
1347.398,3135.00
1348.298,2688.00
1349.199,3715.00
1350.100,3037.00
1350.999,3582.00
1351.900,3350.00
1352.799,3472.00
1353.699,3206.00
1354.600,3111.00
1355.499,3200.00
1356.399,2752.00
1357.297,3076.00
1358.198,3189.00
1359.098,2931.00
1359.996,2788.00
1360.896,3621.00
1361.796,3389.00
1362.694,3262.00
1363.593,3159.00
1364.491,3356.00
1365.391,3718.00
1366.290,3098.00
1367.187,2912.00
1368.086,3367.00
1368.984,3224.00
1369.883,2748.00
1370.782,3212.00
1371.679,3332.00
1372.577,3694.00
1373.474,3157.00
1374.373,3121.00
1375.269,3169.00
1376.168,3140.00
1377.066,3417.00
1377.962,3342.00
1378.860,3487.00
1379.756,3490.00
1380.654,3776.00
1381.552,3403.00
1382.448,3317.00
1383.346,3206.00
1384.241,3345.00
1385.139,3400.00
1386.036,3078.00
1386.931,2754.00
1387.829,3241.00
1388.724,3359.00
1389.621,3041.00
1390.516,3221.00
1391.413,3028.00
1392.309,2922.00
1393.204,3446.00
1394.101,3379.00
1394.995,3327.00
1395.891,3292.00
1396.786,2933.00
1397.682,3125.00
1398.578,3247.00
1399.472,3451.00
1400.368,3188.00
1401.262,3159.00
1402.158,3282.00
1403.051,3087.00
1403.947,3027.00
1404.840,3416.00
1405.736,3394.00
1406.631,2969.00
1407.524,3603.00
1408.419,3215.00
1409.312,3052.00
1410.207,3333.00
1411.100,2975.00
1411.995,2990.00
1412.888,3375.00
1413.782,2844.00
1414.675,3511.00
1415.569,2878.00
1416.463,3112.00
1417.355,3111.00
1418.249,2949.00
1419.141,3242.00
1420.035,3257.00
1420.927,3105.00
1421.821,3518.00
1422.713,3094.00
1423.606,3313.00
1424.498,3215.00
1425.391,3722.00
1426.282,2969.00
1427.175,3072.00
1428.068,2603.00
1428.960,3239.00
1429.852,3276.00
1430.743,2899.00
1431.636,3152.00
1432.527,3466.00
1433.419,3315.00
1434.310,3357.00
1435.202,2954.00
1436.092,3132.00
1436.984,3105.00
1437.875,3583.00
1438.767,3171.00
1439.657,2985.00
1440.548,3345.00
1441.438,3270.00
1442.330,3291.00
1443.219,3119.00
1444.111,3407.00
1445.000,2974.00
1445.891,2905.00
1446.781,2975.00
1447.672,3251.00
1448.561,3535.00
1449.452,3304.00
1450.340,2923.00
1451.231,2955.00
1452.120,2903.00
1453.010,3435.00
1453.899,3036.00
1454.789,3334.00
1455.677,3567.00
1456.568,3170.00
1457.456,3207.00
1458.346,3180.00
1459.234,3284.00
1460.123,3523.00
1461.011,3192.00
1461.901,3570.00
1462.788,3573.00
1463.678,3325.00
1464.565,3158.00
1465.454,3109.00
1466.342,3265.00
1467.231,2527.00
1468.118,3439.00
1469.006,3581.00
1469.893,2887.00
1470.782,3315.00
1471.669,3530.00
1472.557,3403.00
1473.444,3147.00
1474.330,3390.00
1475.218,3491.00
1476.105,3096.00
1476.993,3171.00
1477.879,3439.00
1478.767,3101.00
1479.652,2931.00
1480.540,3248.00
1481.426,3366.00
1482.313,3291.00
1483.199,3571.00
1484.086,3415.00
1484.972,2917.00
1485.857,2897.00
1486.744,3270.00
1487.629,2783.00
1488.516,3059.00
1489.401,3390.00
1490.287,3211.00
1491.172,2833.00
1492.058,3122.00
1492.943,2979.00
1493.828,2968.00
1494.714,3330.00
1495.598,3531.00
1496.484,3965.00
1497.368,2842.00
1498.254,3148.00
1499.138,3225.00
1500.022,3170.00
1500.907,3334.00
1501.791,3917.00
1502.676,3173.00
1503.560,3027.00
1504.445,3721.00
1505.328,3345.00
1506.211,3583.00
1507.096,3155.00
1507.979,3447.00
1508.864,3114.00
1509.747,3387.00
1510.631,3251.00
1511.514,3363.00
1512.397,3463.00
1513.281,3661.00
1514.163,3478.00
1515.047,3087.00
1515.930,2866.00
1516.812,3171.00
1517.696,3347.00
1518.578,3144.00
1519.461,3234.00
1520.343,3680.00
1521.225,2998.00
1522.108,3111.00
1522.990,3529.00
1523.873,3656.00
1524.754,2841.00
1525.635,2693.00
1526.518,3314.00
1527.399,3147.00
1528.282,3193.00
1529.163,3258.00
1530.044,3207.00
1530.926,2880.00
1531.807,2974.00
1532.689,3259.00
1533.569,2972.00
1534.450,4258.00
1535.332,3373.00
1536.212,3101.00
1537.092,3426.00
1537.974,2876.00
1538.854,3113.00
1539.735,3746.00
1540.615,3347.00
1541.495,2932.00
1542.376,3621.00
1543.255,2898.00
1544.135,3148.00
1545.016,3235.00
1545.895,3001.00
1546.774,3406.00
1547.655,2753.00
1548.534,3184.00
1549.414,3138.00
1550.293,2883.00
1551.172,3257.00
1552.052,3194.00
1552.930,3068.00
1553.809,3728.00
1554.689,3046.00
1555.567,3107.00
1556.445,3057.00
1557.325,3504.00
1558.203,2793.00
1559.080,3228.00
1559.960,3147.00
1560.838,3887.00
1561.715,3105.00
1562.594,3559.00
1563.472,3388.00
1564.349,3323.00
1565.228,2782.00
1566.105,2955.00
1566.982,3255.00
1567.861,3424.00
1568.738,3114.00
1569.615,2789.00
1570.493,3051.00
1571.370,3039.00
1572.246,2653.00
1573.124,3153.00
1574.000,3102.00
1574.877,3438.00
1575.755,3062.00
1576.631,2959.00
1577.507,3546.00
1578.384,3556.00
1579.260,3300.00
1580.136,3772.00
1581.011,3191.00
1581.889,3132.00
1582.764,3136.00
1583.639,3489.00
1584.516,3380.00
1585.391,3059.00
1586.266,3221.00
1587.143,3677.00
1588.018,3351.00
1588.893,3565.00
1589.768,3934.00
1590.644,3918.00
1591.519,2935.00
1592.393,3318.00
1593.269,3462.00
1594.143,2993.00
1595.018,3148.00
1595.892,3075.00
1596.767,2684.00
1597.641,2697.00
1598.515,2887.00
1599.391,3341.00
1600.264,3066.00
1601.138,2976.00
1602.011,2590.00
1602.886,3698.00
1603.760,3495.00
1604.633,3469.00
1605.508,3412.00
1606.381,3224.00
1607.254,3209.00
1608.127,3394.00
1609.001,2978.00
1609.874,3593.00
1610.746,3444.00
1611.619,3199.00
1612.493,3404.00
1613.365,3032.00
1614.238,3218.00
1615.110,3229.00
1615.984,3194.00
1616.855,3025.00
1617.727,3413.00
1618.599,3097.00
1619.473,3479.00
1620.344,2553.00
1621.216,3199.00
1622.087,3246.00
1622.960,3250.00
1623.832,3182.00
1624.703,3319.00
1625.574,3382.00
1626.445,3176.00
1627.317,3228.00
1628.188,3425.00
1629.059,3138.00
1629.930,3561.00
1630.802,3148.00
1631.672,3376.00
1632.543,3346.00
1633.413,3200.00
1634.283,3651.00
1635.155,3285.00
1636.025,3269.00
1636.895,3257.00
1637.765,2728.00
1638.636,3143.00
1639.506,3323.00
1640.376,4006.00
1641.245,3111.00
1642.114,3233.00
1642.985,2674.00
1643.855,2926.00
1644.724,3108.00
1645.593,3411.00
1646.462,3318.00
1647.333,3205.00
1648.201,3092.00
1649.070,3249.00
1649.939,3395.00
1650.807,2981.00
1651.676,3395.00
1652.546,3420.00
1653.414,3522.00
1654.282,3194.00
1655.150,3055.00
1656.018,3150.00
1656.888,3868.00
1657.756,3233.00
1658.623,2840.00
1659.491,2755.00
1660.359,3541.00
1661.226,3088.00
1662.095,3350.00
1662.962,3093.00
1663.830,3142.00
1664.697,2987.00
1665.564,3156.00
1666.431,3381.00
1667.297,2895.00
1668.166,2941.00
1669.033,2751.00
1669.899,3064.00
1670.766,2863.00
1671.632,3087.00
1672.499,3542.00
1673.367,3251.00
1674.233,3368.00
1675.099,3207.00
1675.965,2890.00
1676.831,3136.00
1677.696,3510.00
1678.562,6037.00
1679.430,2758.00
1680.295,2889.00
1681.161,2985.00
1682.026,3004.00
1682.891,3034.00
1683.756,3136.00
1684.621,3214.00
1685.486,3227.00
1686.353,3172.00
1687.218,3385.00
1688.083,3177.00
1688.947,3488.00
1689.812,3115.00
1690.677,3029.00
1691.541,3287.00
1692.405,2531.00
1693.269,3649.00
1694.135,3406.00
1694.999,3211.00
1695.863,3742.00
1696.727,3054.00
1697.591,3066.00
1698.455,3285.00
1699.318,3067.00
1700.182,4464.00
1701.045,3224.00
1701.909,3225.00
1702.772,3658.00
1703.637,3087.00
1704.500,2804.00
1705.363,3453.00
1706.226,3234.00
1707.089,3360.00
1707.951,3346.00
1708.814,3956.00
1709.677,3922.00
1710.539,3429.00
1711.402,3480.00
1712.264,3180.00
1713.126,3113.00
1713.988,3468.00
1714.852,3478.00
1715.714,2596.00
1716.576,2824.00
1717.438,3459.00
1718.299,2777.00
1719.161,3597.00
1720.023,3165.00
1720.884,3641.00
1721.745,3154.00
1722.607,3118.00
1723.468,2767.00
1724.329,3443.00
1725.190,3186.00
1726.051,3376.00
1726.912,3073.00
1727.772,3279.00
1728.633,3151.00
1729.494,3256.00
1730.354,3468.00
1731.214,2910.00
1732.075,3022.00
1732.935,3039.00
1733.797,3029.00
1734.657,3720.00
1735.517,3848.00
1736.377,3444.00
1737.237,3123.00
1738.096,3875.00
1738.956,3132.00
1739.816,3097.00
1740.675,3129.00
1741.534,2718.00
1742.394,3195.00
1743.253,2916.00
1744.112,3207.00
1744.971,3039.00
1745.830,3332.00
1746.689,3342.00
1747.547,3444.00
1748.406,2830.00
1749.265,3034.00
1750.123,3124.00
1750.982,3389.00
1751.840,3169.00
1752.698,3257.00
1753.556,3040.00
1754.414,3237.00
1755.272,3171.00
1756.130,3199.00
1756.988,3186.00
1757.846,3372.00
1758.703,3035.00
1759.559,3474.00
1760.417,2891.00
1761.274,3849.00
1762.131,3584.00
1762.989,3706.00
1763.846,3641.00
1764.703,3375.00
1765.560,3758.00
1766.417,3269.00
1767.273,3024.00
1768.130,3171.00
1768.987,3014.00
1769.843,3473.00
1770.700,3562.00
1771.556,3101.00
1772.412,3603.00
1773.268,3104.00
1774.125,3523.00
1774.980,3280.00
1775.836,3546.00
1776.692,3111.00
1777.546,3008.00
1778.402,3407.00
1779.257,3272.00
1780.113,3036.00
1780.968,3290.00
1781.824,3484.00
1782.679,2858.00
1783.534,3049.00
1784.389,3641.00
1785.244,3336.00
1786.099,3173.00
1786.954,3496.00
1787.808,3222.00
1788.661,3242.00
1789.516,3612.00
1790.370,3279.00
1791.225,3084.00
1792.079,2853.00
1792.933,3941.00
1793.787,3280.00
1794.641,3294.00
1795.495,3185.00
1796.349,3307.00
1797.201,3031.00
1798.055,3029.00
1798.908,3204.00
1799.762,3647.00
1800.615,3438.00
1801.469,3471.00
1802.322,3590.00
1803.175,3041.00
1804.028,2778.00
1804.880,3736.00
1805.732,3431.00
1806.585,3173.00
1807.438,3246.00
1808.291,2740.00
1809.143,2980.00
1809.996,2847.00
1810.846,3991.00
1811.699,3356.00
1812.551,3156.00
1813.403,3437.00
1814.255,3250.00
1815.107,3259.00
1815.959,3872.00
1816.809,3348.00
1817.661,3367.00
1818.512,3204.00
1819.364,3314.00
1820.215,3316.00
1821.067,3008.00
1821.918,3027.00
1822.768,3464.00
1823.619,3489.00
1824.470,3161.00
1825.321,3381.00
1826.172,3162.00
1827.021,3369.00
1827.871,3507.00
1828.722,3315.00
1829.572,3278.00
1830.423,3204.00
1831.273,3063.00
1832.122,3206.00
1832.972,3155.00
1833.822,2880.00
1834.672,3356.00
1835.522,3406.00
1836.370,3024.00
1837.220,3407.00
1838.070,2773.00
1838.919,2556.00
1839.769,3020.00
1840.616,3460.00
1841.466,3379.00
1842.315,2939.00
1843.164,3796.00
1844.013,3052.00
1844.860,2885.00
1845.709,2938.00
1846.558,3562.00
1847.407,2876.00
1848.254,3324.00
1849.102,3238.00
1849.951,3012.00
1850.799,2681.00
1851.648,3117.00
1852.494,3244.00
1853.342,3296.00
1854.190,3593.00
1855.038,3579.00
1855.884,3231.00
1856.732,4100.00
1857.580,3636.00
1858.428,3091.00
1859.273,2954.00
1860.121,3019.00
1860.968,4088.00
1861.816,3593.00
1862.661,3611.00
1863.508,3836.00
1864.355,3474.00
1865.202,3576.00
1866.047,3314.00
1866.894,3547.00
1867.741,3797.00
1868.586,3365.00
1869.432,3324.00
1870.279,3196.00
1871.125,3018.00
1871.970,3858.00
1872.816,3346.00
1873.662,2773.00
1874.506,3345.00
1875.352,3552.00
1876.198,3673.00
1877.044,3813.00
1877.888,3179.00
1878.734,3298.00
1879.579,3077.00
1880.423,2894.00
1881.268,3142.00
1882.113,3466.00
1882.959,3204.00
1883.802,3006.00
1884.647,3585.00
1885.492,3273.00
1886.335,3201.00
1887.180,3052.00
1888.025,3309.00
1888.867,3007.00
1889.712,3414.00
1890.556,3006.00
1891.399,3552.00
1892.243,3583.00
1893.087,3075.00
1893.930,3373.00
1894.774,3325.00
1895.618,3637.00
1896.460,2874.00
1897.304,3167.00
1898.147,3059.00
1898.989,2950.00
1899.833,3418.00
1900.676,3145.00
1901.518,3519.00
1902.361,3587.00
1903.202,3144.00
1904.046,3028.00
1904.889,3198.00
1905.730,3142.00
1906.573,2886.00
1907.415,3308.00
1908.256,3653.00
1909.099,3392.00
1909.941,3396.00
1910.782,3432.00
1911.624,3057.00
1912.465,3415.00
1913.307,3228.00
1914.149,3017.00
1914.989,3545.00
1915.831,3166.00
1916.671,3679.00
1917.513,3148.00
1918.355,3334.00
1919.195,3483.00
1920.036,3341.00
1920.876,3251.00
1921.717,3409.00
1922.558,3257.00
1923.398,3275.00
1924.239,3250.00
1925.078,3598.00
1925.919,2938.00
1926.760,3359.00
1927.599,3107.00
1928.440,3481.00
1929.279,3285.00
1930.119,3688.00
1930.958,3182.00
1931.798,3266.00
1932.638,3162.00
1933.477,3266.00
1934.317,3013.00
1935.155,3088.00
1935.995,3380.00
1936.833,3056.00
1937.673,3044.00
1938.512,3679.00
1939.350,2877.00
1940.190,3188.00
1941.027,3141.00
1941.867,3141.00
1942.704,3266.00
1943.543,3179.00
1944.381,3425.00
1945.220,3603.00
1946.057,3318.00
1946.896,3564.00
1947.733,3291.00
1948.572,3026.00
1949.408,3626.00
1950.247,3357.00
1951.085,3421.00
1951.922,3595.00
1952.760,3040.00
1953.597,3600.00
1954.435,2626.00
1955.271,3446.00
1956.109,3175.00
1956.945,2881.00
1957.783,3429.00
1958.619,3072.00
1959.456,3237.00
1960.292,3283.00
1961.129,3603.00
1961.965,3743.00
1962.802,3025.00
1963.638,2990.00
1964.475,3319.00
1965.310,3263.00
1966.145,3314.00
1966.982,3066.00
1967.817,2976.00
1968.654,3302.00
1969.489,2995.00
1970.325,3297.00
1971.160,3032.00
1971.996,3421.00
1972.831,3481.00
1973.667,3151.00
1974.501,3670.00
1975.337,3592.00
1976.171,3150.00
1977.006,3522.00
1977.841,3110.00
1978.675,3524.00
1979.511,3853.00
1980.345,3000.00
1981.180,3476.00
1982.014,3265.00
1982.849,2968.00
1983.682,3066.00
1984.516,3100.00
1985.351,2848.00
1986.184,2742.00
1987.019,2741.00
1987.852,2529.00
1988.687,2793.00
1989.519,2988.00
1990.352,3269.00
1991.187,2695.00
1992.019,3083.00
1992.854,3411.00
1993.686,2981.00
1994.518,3047.00
1995.352,2570.00
1996.185,2314.00
1997.019,2874.00
1997.851,2699.00
1998.682,2731.00
1999.516,2769.00
2000.348,2485.00
