RamanScope Measure Spectrum Data V3.72

<< MEASURE CONDITION >>
Exposure Type,Aver
Exposure Time [sec],20
Exposure Count,2
Measure Time,2024/02/15 20:12:32
Data Name,""
Data Comment,""
Rayleigh Wave[nm],532.0

<< SAMPLE SPECTRUM >>
Wave[dcm-1],No3
96.716,29.00
97.759,9.50
98.802,24.50
99.846,11.00
100.886,37.50
101.929,18.50
102.972,33.50
104.015,-6.50
105.057,-51.50
106.100,-3.50
107.142,54.00
108.184,5.00
109.226,5.00
110.268,72.50
111.310,-35.50
112.352,-17.00
113.393,61.50
114.435,17.00
115.476,-1.50
116.517,29.00
117.558,23.50
118.599,23.00
119.640,-26.00
120.681,39.00
121.722,14.00
122.762,11.00
123.803,24.50
124.843,11.50
125.883,-48.00
126.923,-5.00
127.963,46.00
129.001,16.50
130.041,20.50
131.080,7.50
132.120,23.00
133.159,-6.50
134.199,49.50
135.238,-18.00
136.277,18.00
137.316,21.00
138.355,47.00
139.393,12.50
140.432,32.00
141.470,49.50
142.509,45.50
143.547,40.50
144.585,25.50
145.623,32.50
146.661,75.50
147.699,110.50
148.736,165.50
149.774,228.00
150.811,306.00
151.849,412.50
152.886,459.00
153.923,634.00
154.960,782.00
155.997,878.50
157.034,1095.50
158.072,1289.00
159.109,1499.00
160.145,1713.00
161.182,1897.00
162.218,2113.00
163.254,2270.00
164.290,2444.00
165.326,2638.50
166.361,2836.00
167.397,2906.50
168.432,3004.00
169.468,3036.50
170.503,3213.00
171.538,3199.50
172.573,3245.00
173.608,3333.50
174.643,3309.00
175.677,3493.00
176.712,3538.50
177.746,3504.50
178.781,3532.00
179.815,3648.50
180.849,3722.50
181.883,3816.50
182.917,3814.00
183.951,3814.50
184.984,3865.50
186.020,3917.00
187.053,3938.50
188.087,3937.50
189.120,3921.00
190.153,3949.50
191.186,3937.00
192.219,3867.00
193.251,3864.00
194.284,3803.00
195.317,3798.50
196.349,3851.00
197.381,3889.50
198.413,3907.50
199.445,3915.50
200.477,3937.50
201.509,3893.50
202.543,4013.00
203.575,3956.00
204.606,3995.50
205.637,3941.50
206.669,4073.50
207.700,4066.00
208.731,4134.50
209.762,4051.00
210.792,4130.50
211.823,4271.50
212.854,4253.50
213.884,4275.00
214.914,4269.50
215.947,4365.00
216.977,4470.00
218.007,4515.50
219.037,4471.00
220.066,4539.00
221.096,4613.00
222.126,4662.00
223.155,4667.50
224.184,4632.50
225.214,4754.50
226.245,4804.00
227.274,4830.00
228.302,4803.50
229.331,4822.00
230.360,4778.50
231.388,4847.00
232.417,4812.50
233.445,4769.50
234.473,4728.50
235.501,4641.50
236.531,4625.00
237.559,4608.00
238.587,4572.00
239.614,4472.00
240.642,4550.50
241.669,4551.00
242.696,4512.00
243.724,4503.00
244.753,4424.00
245.780,4365.00
246.806,4484.00
247.833,4462.00
248.860,4497.50
249.886,4446.50
250.913,4448.50
251.939,4483.50
252.967,4553.50
253.993,4609.00
255.019,4530.50
256.045,4502.00
257.070,4626.00
258.096,4597.00
259.121,4618.50
260.147,4525.50
261.174,4509.50
262.199,4513.50
263.224,4638.50
264.249,4517.50
265.274,4573.50
266.298,4507.00
267.323,4543.50
268.349,4559.50
269.374,4540.00
270.398,4524.50
271.422,4605.50
272.446,4628.00
273.470,4608.50
274.496,4668.00
275.519,4645.50
276.543,4640.00
277.566,4703.50
278.589,4768.00
279.613,4779.00
280.636,4794.00
281.661,4822.00
282.684,4889.00
283.706,4871.00
284.729,4869.50
285.751,4857.50
286.774,4790.50
287.798,4857.00
288.820,4845.00
289.842,4903.00
290.864,4833.50
291.886,4786.00
292.910,4768.50
293.932,4755.00
294.953,4736.00
295.974,4615.00
296.996,4631.50
298.017,4614.00
299.040,4564.50
300.061,4507.50
301.082,4356.50
302.102,4402.50
303.123,4359.00
304.143,4330.50
305.166,4335.50
306.186,4253.00
307.206,4221.50
308.226,4235.50
309.246,4216.00
310.268,4208.00
311.288,4111.00
312.307,4062.50
313.327,4011.00
314.346,4028.00
315.368,4035.50
316.387,4015.50
317.406,3930.00
318.425,3972.00
319.443,3987.50
320.464,3952.00
321.483,3873.00
322.501,3875.00
323.520,3890.00
324.538,3793.50
325.558,3853.50
326.576,3809.50
327.594,3705.00
328.612,3797.50
329.629,3788.00
330.649,3820.50
331.666,3772.50
332.684,3726.50
333.701,3722.00
334.718,3716.50
335.737,3774.50
336.754,3663.00
337.771,3726.00
338.787,3706.50
339.806,3733.00
340.823,3777.50
341.839,3674.00
342.855,3655.00
343.871,3616.50
344.889,3624.50
345.905,3683.00
346.921,3667.50
347.937,3588.50
348.954,3651.00
349.970,3634.00
350.985,3689.00
352.000,3634.50
353.017,3641.00
354.032,3606.50
355.047,3627.50
356.062,3575.50
357.077,3586.00
358.093,3599.00
359.108,3562.50
360.122,3546.50
361.136,3587.50
362.152,3633.50
363.166,3564.50
364.180,3596.00
365.194,3631.50
366.210,3597.00
367.223,3594.00
368.237,3615.50
369.250,3567.50
370.265,3524.50
371.278,3567.50
372.291,3554.00
373.304,3527.00
374.319,3536.50
375.332,3682.00
376.344,3680.00
377.357,3552.00
378.371,3627.00
379.383,3587.50
380.395,3565.50
381.407,3636.50
382.421,3591.50
383.433,3626.50
384.445,3547.00
385.456,3612.00
386.470,3711.00
387.481,3709.50
388.492,3639.50
389.505,3657.00
390.516,3636.00
391.527,3618.50
392.538,3665.00
393.551,3655.50
394.561,3701.00
395.572,3656.50
396.582,3687.00
397.594,3655.00
398.604,3680.50
399.614,3680.50
400.624,3575.00
401.636,3693.50
402.646,3596.50
403.655,3670.00
404.667,3608.00
405.676,3615.00
406.685,3646.50
407.694,3573.50
408.705,3605.50
409.714,3586.50
410.723,3566.50
411.734,3590.50
412.742,3596.00
413.751,3586.00
414.759,3574.50
415.769,3572.00
416.777,3513.50
417.785,3562.50
418.795,3502.50
419.803,3482.50
420.811,3465.00
421.818,3438.50
422.828,3505.50
423.835,3474.50
424.842,3462.00
425.852,3428.50
426.859,3493.00
427.866,3474.50
428.874,3446.50
429.881,3421.00
430.888,3363.50
431.894,3439.00
432.902,3454.50
433.909,3466.00
434.915,3390.50
435.923,3353.00
436.929,3420.50
437.935,3413.50
438.942,3345.00
439.948,3357.00
440.953,3366.50
441.959,3296.50
442.966,3446.50
443.971,3380.00
444.976,3426.00
445.983,3360.50
446.988,3348.50
447.993,3345.50
448.999,3357.00
450.004,3402.50
451.008,3335.00
452.014,3276.00
453.019,3388.00
454.023,3345.50
455.029,3311.00
456.032,3321.50
457.036,3287.50
458.042,3328.50
459.045,3407.50
460.049,3397.00
461.052,3338.50
462.057,3365.00
463.060,3330.50
464.063,3357.50
465.068,3314.00
466.071,3291.00
467.073,3274.00
468.078,3347.50
469.080,3299.00
470.082,3326.00
471.087,3309.00
472.089,3414.50
473.091,3308.50
474.095,3308.00
475.096,3335.00
476.098,3327.50
477.101,3328.00
478.103,3321.00
479.104,3307.00
480.107,3303.00
481.108,3419.50
482.109,3253.50
483.112,3272.50
484.113,3339.00
485.114,3336.50
486.116,3402.00
487.117,3358.00
488.117,3300.00
489.119,3351.50
490.119,3368.00
491.121,3287.00
492.121,3304.50
493.121,3297.50
494.123,3334.00
495.122,3399.50
496.122,3328.50
497.123,3382.50
498.122,3341.00
499.121,3341.50
500.122,3340.50
501.121,3272.50
502.120,3277.50
503.121,3318.50
504.119,3342.50
505.118,3307.50
506.118,3339.00
507.117,3343.00
508.115,3344.00
509.115,3278.00
510.113,3237.50
511.112,3210.00
512.110,3246.00
513.108,3203.50
514.107,3240.50
515.105,3224.00
516.102,3181.50
517.101,3214.00
518.098,3103.50
519.095,3149.50
520.094,3115.50
521.091,3177.00
522.089,3121.00
523.086,3190.50
524.082,3088.50
525.081,3115.50
526.077,3200.00
527.073,3137.00
528.071,3168.00
529.067,3108.50
530.064,3118.50
531.060,3213.00
532.056,3099.50
533.053,3077.50
534.048,3053.00
535.044,3104.00
536.041,3084.50
537.036,3039.00
538.030,3201.50
539.027,3132.00
540.022,3147.00
541.019,3039.00
542.013,3168.00
543.007,3092.50
544.004,3075.50
544.998,3087.50
545.994,3101.50
546.988,3140.50
547.981,3159.00
548.977,3090.00
549.971,3121.00
550.964,3023.00
551.960,3049.00
552.953,3095.00
553.948,3081.50
554.941,3058.50
555.934,3116.00
556.929,3090.00
557.922,3083.00
558.916,2983.00
559.909,3054.00
560.901,3007.50
561.895,3094.00
562.888,3053.50
563.880,3131.50
564.874,3081.00
565.865,2937.50
566.859,3011.50
567.851,3219.50
568.842,2977.00
569.836,2965.00
570.827,2986.00
571.820,3024.50
572.811,2964.00
573.802,3108.00
574.795,2959.50
575.786,2991.00
576.779,2957.00
577.769,3019.50
578.760,3023.50
579.752,2997.50
580.742,2985.50
581.735,2955.50
582.725,2976.50
583.714,2992.50
584.706,3043.50
585.696,2962.00
586.688,3036.50
587.677,3075.00
588.667,3062.50
589.658,2985.50
590.647,2959.50
591.638,2974.00
592.627,2958.00
593.616,2973.50
594.607,3031.00
595.595,2936.00
596.586,3043.00
597.574,2943.00
598.562,2978.00
599.553,3032.50
600.541,3054.00
601.531,3013.00
602.519,3036.00
603.508,3091.50
604.496,2949.50
605.484,2980.50
606.473,3008.00
607.460,3000.00
608.450,3003.00
609.437,2981.50
610.424,3006.00
611.413,3068.50
612.400,3027.50
613.388,2998.50
614.375,2990.00
615.361,2998.00
616.350,3005.50
617.336,2966.00
618.324,3031.50
619.310,2950.50
620.298,2998.00
621.284,2964.50
622.270,2910.50
623.257,2952.00
624.243,2876.00
625.230,2936.50
626.216,2909.00
627.203,2858.00
628.188,2849.00
629.173,2807.50
630.160,2813.50
631.145,2787.00
632.131,2774.50
633.116,2787.50
634.102,2738.50
635.087,2740.50
636.071,2727.00
637.057,2670.00
638.041,2705.00
639.027,2759.00
640.011,2626.00
640.995,2633.50
641.980,2637.00
642.964,2612.50
643.949,2610.00
644.932,2581.00
645.918,2597.00
646.901,2575.50
647.886,2501.00
648.868,2583.00
649.851,2540.00
650.836,2466.00
651.818,2505.00
652.803,2483.00
653.785,2401.50
654.769,2464.50
655.751,2490.00
656.733,2464.00
657.717,2474.00
658.699,2405.50
659.683,2431.50
660.664,2393.00
661.648,2408.50
662.629,2391.50
663.611,2434.00
664.594,2373.50
665.575,2337.00
666.558,2313.00
667.539,2387.00
668.521,2279.00
669.502,2328.00
670.484,2248.00
671.465,2342.50
672.445,2329.00
673.427,2343.00
674.407,2279.50
675.390,2281.00
676.369,2318.00
677.351,2325.50
678.331,2222.50
679.312,2300.50
680.292,2270.50
681.271,2263.50
682.253,2209.50
683.232,2254.00
684.213,2195.00
685.192,2223.50
686.172,2167.50
687.151,2199.50
688.132,2187.50
689.110,2102.00
690.089,2155.50
691.069,2118.50
692.047,2125.00
693.027,2166.50
694.005,2097.50
694.985,2073.00
695.963,2098.00
696.943,2072.50
697.920,2074.00
698.898,2053.50
699.877,2031.50
700.854,2084.00
701.833,2043.00
702.810,2025.00
703.789,2041.50
704.766,2012.50
705.745,2020.50
706.721,1998.00
707.698,2039.50
708.676,1994.50
709.653,1951.50
710.631,1981.00
711.607,1923.00
712.585,1948.00
713.561,1957.00
714.539,1950.50
715.514,1914.50
716.492,1932.00
717.467,1932.00
718.443,1912.00
719.420,1983.00
720.395,1942.00
721.372,1879.50
722.347,1939.00
723.324,1917.50
724.298,1901.00
725.275,1921.00
726.250,1865.50
727.226,1832.00
728.200,1816.50
729.176,1885.00
730.151,1897.50
731.125,1876.50
732.100,1888.50
733.074,1789.00
734.050,1892.00
735.023,1772.50
735.999,1810.00
736.972,1814.00
737.947,1852.50
738.921,1782.50
739.896,1825.50
740.869,1785.50
741.841,1804.50
742.816,1808.50
743.789,1800.50
744.763,1814.50
745.736,1821.00
746.710,1740.50
747.682,1770.00
748.656,1774.00
749.628,1805.50
750.602,1762.50
751.574,1748.00
752.548,1787.00
753.519,1755.50
754.491,1759.50
755.464,1725.50
756.435,1719.00
757.408,1676.50
758.379,1712.50
759.352,1735.50
760.323,1654.50
761.296,1653.50
762.267,1668.00
763.239,1657.00
764.209,1622.00
765.182,1680.50
766.152,1630.50
767.124,1720.50
768.094,1723.00
769.064,1619.00
770.036,1589.50
771.005,1584.50
771.977,1635.00
772.947,1624.50
773.918,1584.00
774.887,1561.50
775.858,1546.50
776.827,1547.00
777.798,1628.00
778.767,1501.00
779.738,1591.50
780.707,1597.00
781.677,1565.50
782.646,1577.00
783.614,1586.50
784.584,1557.00
785.552,1532.50
786.522,1557.50
787.490,1576.00
788.460,1492.50
789.428,1569.00
790.397,1509.50
791.365,1523.00
792.334,1510.00
793.302,1487.50
794.271,1523.50
795.238,1525.50
796.207,1542.50
797.174,1487.00
798.143,1532.50
799.109,1533.00
800.076,1497.50
801.044,1456.50
802.011,1493.00
802.979,1500.50
803.945,1506.00
804.913,1418.00
805.879,1465.00
806.847,1463.00
807.813,1458.50
808.780,1498.00
809.746,1522.50
810.713,1472.00
811.678,1468.00
812.646,1467.00
813.611,1499.00
814.578,1464.50
815.543,1410.00
816.510,1413.00
817.474,1397.00
818.439,1461.50
819.405,1488.50
820.370,1393.50
821.336,1400.50
822.300,1429.00
823.266,1406.50
824.230,1413.00
825.196,1406.50
826.160,1391.50
827.126,1393.50
828.089,1393.50
829.055,1425.50
830.018,1428.50
830.983,1393.50
831.946,1368.00
832.911,1382.50
833.874,1349.00
834.837,1440.00
835.802,1405.50
836.765,1386.00
837.729,1329.00
838.691,1372.00
839.656,1490.00
840.618,1386.00
841.582,1421.00
842.544,1378.50
843.508,1459.50
844.470,1363.50
845.434,1391.00
846.395,1371.50
847.359,1440.00
848.320,1370.00
849.283,1392.00
850.245,1426.50
851.208,1380.50
852.169,1402.50
853.130,1366.00
854.092,1369.00
855.053,1387.00
856.016,1388.00
856.976,1424.50
857.938,1374.00
858.899,1430.00
859.861,1349.00
860.821,1450.00
861.783,1403.00
862.743,1351.00
863.704,1360.00
864.664,1357.00
865.626,1392.00
866.585,1406.50
867.546,1440.50
868.506,1433.50
869.467,1408.50
870.426,1414.00
871.387,1414.50
872.346,1443.50
873.304,1458.00
874.265,1381.00
875.223,1403.00
876.184,1428.50
877.142,1409.00
878.102,1350.00
879.060,1465.50
880.021,1453.00
880.978,1433.50
881.938,1409.50
882.896,1425.00
883.856,1410.50
884.813,1428.50
885.772,1482.00
886.730,1438.50
887.689,1458.50
888.646,1443.00
889.603,1418.50
890.562,1489.00
891.519,1434.50
892.477,1445.00
893.434,1420.50
894.392,1455.50
895.349,1491.50
896.307,1491.00
897.263,1479.50
898.221,1487.50
899.177,1486.00
900.135,1479.00
901.091,1492.50
902.048,1496.00
903.004,1560.50
903.961,1525.50
904.917,1446.50
905.874,1459.00
906.829,1472.50
907.784,1481.00
908.741,1563.50
909.696,1501.50
910.653,1474.50
911.607,1501.00
912.564,1493.50
913.518,1507.00
914.475,1550.00
915.429,1492.00
916.385,1526.00
917.339,1523.50
918.295,1562.50
919.249,1518.50
920.205,1494.50
921.158,1534.00
922.114,1565.00
923.067,1562.50
924.020,1573.00
924.976,1531.50
925.929,1491.50
926.884,1558.50
927.837,1566.00
928.791,1551.00
929.744,1595.50
930.699,1534.50
931.651,1546.00
932.606,1544.00
933.558,1574.00
934.512,1569.50
935.464,1609.00
936.418,1560.50
937.370,1573.50
938.322,1577.00
939.276,1523.50
940.227,1576.50
941.181,1527.50
942.132,1604.00
943.085,1568.00
944.036,1584.00
944.990,1560.00
945.941,1615.00
946.893,1593.50
947.844,1565.00
948.797,1592.50
949.747,1558.00
950.700,1632.50
951.650,1586.50
952.601,1525.00
953.553,1594.00
954.503,1524.00
955.455,1543.00
956.405,1544.00
957.356,1558.00
958.306,1509.50
959.258,1553.00
960.207,1579.50
961.158,1528.00
962.108,1556.00
963.059,1540.00
964.008,1510.50
964.959,1539.50
965.908,1522.00
966.856,1534.50
967.807,1514.50
968.756,1508.00
969.706,1495.50
970.654,1520.00
971.605,1493.00
972.553,1513.00
973.503,1488.00
974.451,1523.50
975.401,1433.50
976.348,1493.00
977.296,1526.50
978.246,1467.50
979.193,1476.00
980.142,1459.50
981.090,1468.50
982.039,1399.50
982.986,1495.50
983.935,1432.00
984.882,1421.50
985.830,1479.50
986.777,1442.00
987.725,1416.00
988.672,1449.00
989.618,1464.00
990.567,1383.50
991.513,1422.50
992.461,1418.00
993.407,1471.00
994.354,1451.50
995.300,1335.00
996.248,1378.00
997.193,1414.50
998.141,1397.50
999.086,1422.50
1000.031,1374.50
1000.978,1381.00
1001.924,1384.00
1002.870,1406.50
1003.815,1408.50
1004.762,1427.50
1005.707,1359.00
1006.653,1298.00
1007.598,1322.50
1008.542,1348.50
1009.488,1360.50
1010.432,1317.50
1011.378,1329.50
1012.322,1316.50
1013.268,1357.50
1014.212,1343.00
1015.157,1375.00
1016.101,1348.50
1017.046,1326.00
1017.990,1303.50
1018.933,1320.50
1019.878,1324.00
1020.821,1313.00
1021.766,1312.00
1022.709,1319.50
1023.654,1309.50
1024.596,1329.00
1025.541,1290.50
1026.483,1311.00
1027.425,1288.50
1028.370,1274.00
1029.312,1298.00
1030.256,1359.50
1031.198,1297.50
1032.141,1290.50
1033.083,1267.00
1034.027,1308.00
1034.968,1266.00
1035.910,1349.50
1036.853,1239.50
1037.794,1335.00
1038.738,1317.50
1039.679,1290.00
1040.621,1285.00
1041.562,1282.00
1042.503,1241.50
1043.446,1237.00
1044.386,1287.00
1045.329,1298.50
1046.269,1261.50
1047.211,1264.50
1048.151,1256.50
1049.093,1309.00
1050.033,1301.50
1050.973,1314.00
1051.915,1295.00
1052.854,1293.50
1053.796,1303.50
1054.735,1229.50
1055.677,1275.00
1056.616,1284.50
1057.555,1295.50
1058.496,1291.00
1059.435,1298.00
1060.376,1169.00
1061.315,1052.00
1062.255,1224.50
1063.194,1249.00
1064.132,1267.00
1065.073,1308.50
1066.011,1222.50
1066.951,1292.00
1067.889,1317.50
1068.829,1301.00
1069.767,1303.50
1070.705,1309.00
1071.644,1312.50
1072.582,1282.50
1073.521,1302.50
1074.459,1300.50
1075.398,1222.50
1076.335,1285.00
1077.272,1225.00
1078.211,1274.00
1079.148,1242.00
1080.087,1337.50
1081.023,1294.50
1081.962,1319.00
1082.898,1306.50
1083.835,1278.50
1084.773,1303.00
1085.709,1314.00
1086.647,1257.50
1087.583,1306.00
1088.519,1298.50
1089.457,1233.00
1090.392,1250.00
1091.330,1227.00
1092.266,1290.00
1093.203,1266.50
1094.138,1288.00
1095.073,1269.50
1096.010,1287.00
1096.945,1228.50
1097.882,1312.00
1098.817,1290.50
1099.752,1343.50
1100.688,1305.00
1101.623,1269.50
1102.559,1279.50
1103.493,1247.50
1104.430,1257.00
1105.364,1315.50
1106.298,1275.00
1107.234,1199.50
1108.167,1286.50
1109.094,1245.00
1110.019,1244.00
1110.945,1239.50
1111.869,1211.50
1112.795,1231.00
1113.720,1194.50
1114.646,1240.50
1115.571,1229.00
1116.495,1224.00
1117.420,1236.50
1118.345,1243.50
1119.270,1185.00
1120.195,1178.00
1121.118,1200.50
1122.042,1174.50
1122.967,1201.50
1123.891,1148.50
1124.816,1203.00
1125.738,1156.00
1126.663,1156.00
1127.587,1174.00
1128.511,1135.50
1129.435,1135.00
1130.357,1159.50
1131.280,1183.00
1132.204,1194.00
1133.128,1159.50
1134.051,1072.50
1134.972,1152.50
1135.896,1102.50
1136.819,1105.00
1137.742,1077.00
1138.665,1138.50
1139.586,1139.00
1140.509,1122.50
1141.431,1099.00
1142.354,1112.00
1143.276,1084.50
1144.197,1055.50
1145.119,1070.50
1146.041,1100.00
1146.964,1092.00
1147.885,1111.50
1148.806,1072.00
1149.727,1144.00
1150.649,1083.50
1151.571,1054.50
1152.492,1043.00
1153.412,1069.00
1154.333,1107.50
1155.254,1099.00
1156.175,1057.50
1157.095,1057.00
1158.016,1017.50
1158.936,1034.00
1159.857,1060.00
1160.778,1069.50
1161.697,1051.50
1162.617,1031.00
1163.537,1024.00
1164.458,1068.50
1165.376,1031.00
1166.296,1033.50
1167.216,1059.00
1168.136,1031.50
1169.056,1044.50
1169.974,999.00
1170.893,1008.00
1171.813,1039.50
1172.732,1017.00
1173.650,1009.50
1174.569,1033.00
1175.488,982.00
1176.407,985.50
1177.326,1022.50
1178.243,947.00
1179.161,1049.00
1180.080,969.50
1180.999,1004.50
1181.915,1027.00
1182.834,986.50
1183.752,984.00
1184.670,984.50
1185.586,977.50
1186.504,992.00
1187.422,988.00
1188.340,984.50
1189.258,987.50
1190.173,935.00
1191.091,953.00
1192.008,954.00
1192.926,918.00
1193.841,1009.00
1194.758,962.50
1195.675,919.00
1196.592,928.50
1197.507,939.50
1198.424,989.00
1199.340,1006.00
1200.257,928.00
1201.172,948.00
1202.088,937.00
1203.004,916.50
1203.920,966.50
1204.835,944.00
1205.750,968.00
1206.666,953.50
1207.582,902.50
1208.496,991.50
1209.412,955.50
1210.327,936.50
1211.243,991.00
1212.156,984.00
1213.071,937.50
1213.986,942.00
1214.901,964.00
1215.814,928.50
1216.729,947.00
1217.644,963.50
1218.559,991.50
1219.471,969.50
1220.386,947.00
1221.300,990.50
1222.213,982.50
1223.127,973.00
1224.041,994.50
1224.955,953.50
1225.867,951.50
1226.781,968.00
1227.694,933.50
1228.608,941.50
1229.520,953.50
1230.433,969.00
1231.346,958.00
1232.260,932.00
1233.171,939.50
1234.084,999.00
1234.997,986.00
1235.908,952.00
1236.821,901.00
1237.733,928.00
1238.646,910.50
1239.556,962.00
1240.469,970.50
1241.381,925.00
1242.293,935.50
1243.203,954.50
1244.115,985.50
1245.027,964.00
1245.937,965.50
1246.849,965.00
1247.761,964.50
1248.672,927.00
1249.582,933.00
1250.493,962.00
1251.404,999.50
1252.313,962.50
1253.225,941.00
1254.135,897.50
1255.046,976.50
1255.955,981.50
1256.866,944.50
1257.777,964.50
1258.685,927.50
1259.596,1013.50
1260.506,961.50
1261.416,977.00
1262.324,901.50
1263.234,991.00
1264.144,930.00
1265.052,953.00
1265.962,971.50
1266.872,935.50
1267.779,991.00
1268.689,960.00
1269.598,964.50
1270.507,937.50
1271.415,1007.00
1272.324,929.50
1273.233,954.50
1274.140,857.50
1275.048,918.00
1275.957,962.50
1276.864,983.00
1277.772,941.50
1278.681,955.00
1279.587,948.50
1280.496,974.00
1281.404,918.50
1282.312,966.00
1283.218,990.50
1284.126,963.50
1285.033,968.50
1285.939,959.50
1286.847,975.50
1287.754,956.50
1288.660,934.00
1289.567,942.00
1290.474,991.50
1291.380,942.00
1292.286,900.50
1293.193,945.00
1294.098,943.00
1295.005,961.00
1295.912,996.50
1296.816,979.50
1297.723,923.00
1298.629,966.00
1299.534,879.50
1300.440,903.50
1301.346,983.00
1302.250,955.00
1303.156,932.50
1304.062,893.50
1304.966,945.00
1305.871,943.00
1306.777,982.00
1307.680,950.50
1308.586,945.50
1309.491,917.50
1310.394,920.00
1311.299,957.50
1312.204,923.50
1313.107,975.50
1314.012,973.50
1314.917,981.00
1315.819,969.50
1316.724,943.50
1317.628,940.00
1318.531,873.00
1319.435,832.00
1320.339,911.00
1321.241,875.00
1322.145,875.50
1323.049,919.50
1323.951,948.00
1324.854,938.50
1325.756,933.00
1326.659,877.50
1327.563,898.50
1328.464,892.00
1329.367,987.50
1330.271,932.00
1331.172,860.50
1332.074,904.00
1332.977,896.00
1333.878,882.00
1334.781,873.50
1335.683,905.50
1336.584,840.50
1337.486,894.50
1338.387,929.00
1339.289,867.00
1340.191,896.50
1341.091,902.00
1341.993,887.00
1342.895,856.50
1343.794,881.00
1344.696,848.50
1345.596,898.00
1346.497,835.00
1347.398,872.00
1348.298,823.00
1349.199,833.50
1350.100,824.50
1350.999,881.00
1351.900,857.00
1352.799,856.50
1353.699,831.50
1354.600,883.00
1355.499,846.50
1356.399,844.50
1357.297,873.50
1358.198,865.00
1359.098,843.00
1359.996,860.00
1360.896,840.00
1361.796,874.00
1362.694,849.50
1363.593,856.00
1364.491,825.00
1365.391,815.00
1366.290,819.00
1367.187,792.50
1368.086,815.00
1368.984,838.00
1369.883,828.50
1370.782,794.00
1371.679,813.50
1372.577,812.00
1373.474,843.00
1374.373,827.50
1375.269,780.50
1376.168,784.50
1377.066,849.50
1377.962,782.00
1378.860,811.00
1379.756,798.00
1380.654,775.00
1381.552,756.00
1382.448,794.00
1383.346,779.00
1384.241,816.00
1385.139,746.50
1386.036,861.00
1386.931,765.00
1387.829,757.50
1388.724,744.00
1389.621,791.50
1390.516,801.50
1391.413,802.00
1392.309,791.00
1393.204,831.50
1394.101,751.50
1394.995,779.00
1395.891,780.50
1396.786,781.00
1397.682,757.50
1398.578,814.00
1399.472,777.50
1400.368,747.50
1401.262,777.00
1402.158,789.50
1403.051,734.50
1403.947,773.00
1404.840,754.50
1405.736,760.50
1406.631,795.00
1407.524,751.00
1408.419,758.50
1409.312,726.00
1410.207,679.50
1411.100,696.50
1411.995,743.50
1412.888,736.00
1413.782,744.50
1414.675,756.50
1415.569,737.50
1416.463,755.00
1417.355,767.50
1418.249,703.00
1419.141,764.00
1420.035,742.00
1420.927,705.00
1421.821,670.50
1422.713,707.50
1423.606,730.00
1424.498,752.00
1425.391,711.00
1426.282,701.00
1427.175,733.50
1428.068,709.50
1428.960,768.00
1429.852,721.50
1430.743,742.00
1431.636,720.00
1432.527,764.00
1433.419,689.50
1434.310,721.50
1435.202,702.00
1436.092,692.00
1436.984,711.00
1437.875,737.50
1438.767,719.00
1439.657,698.50
1440.548,676.50
1441.438,683.00
1442.330,736.50
1443.219,741.50
1444.111,675.50
1445.000,707.00
1445.891,732.50
1446.781,726.50
1447.672,696.00
1448.561,733.50
1449.452,687.00
1450.340,703.50
1451.231,733.50
1452.120,706.50
1453.010,702.50
1453.899,715.50
1454.789,698.50
1455.677,704.00
1456.568,725.00
1457.456,686.50
1458.346,670.00
1459.234,696.00
1460.123,709.00
1461.011,659.00
1461.901,673.50
1462.788,693.50
1463.678,686.00
1464.565,720.00
1465.454,642.00
1466.342,710.50
1467.231,673.00
1468.118,724.50
1469.006,682.00
1469.893,693.00
1470.782,683.00
1471.669,669.00
1472.557,723.50
1473.444,662.50
1474.330,697.50
1475.218,685.00
1476.105,667.00
1476.993,667.00
1477.879,627.00
1478.767,616.00
1479.652,667.50
1480.540,663.00
1481.426,704.00
1482.313,666.50
1483.199,618.00
1484.086,661.50
1484.972,721.00
1485.857,666.00
1486.744,662.50
1487.629,703.00
1488.516,655.50
1489.401,682.50
1490.287,717.50
1491.172,611.50
1492.058,700.50
1492.943,686.50
1493.828,654.50
1494.714,679.00
1495.598,608.00
1496.484,707.00
1497.368,706.00
1498.254,621.00
1499.138,660.00
1500.022,603.00
1500.907,663.00
1501.791,649.50
1502.676,662.00
1503.560,621.00
1504.445,645.00
1505.328,656.00
1506.211,601.50
1507.096,650.00
1507.979,624.00
1508.864,687.00
1509.747,665.00
1510.631,642.50
1511.514,583.50
1512.397,586.50
1513.281,632.00
1514.163,588.00
1515.047,676.00
1515.930,655.50
1516.812,615.00
1517.696,640.00
1518.578,628.50
1519.461,645.00
1520.343,647.00
1521.225,648.50
1522.108,638.00
1522.990,640.00
1523.873,638.00
1524.754,630.00
1525.635,625.00
1526.518,605.00
1527.399,602.00
1528.282,606.50
1529.163,667.00
1530.044,622.00
1530.926,613.50
1531.807,622.00
1532.689,603.50
1533.569,601.00
1534.450,567.50
1535.332,588.50
1536.212,635.00
1537.092,585.50
1537.974,675.00
1538.854,632.00
1539.735,577.50
1540.615,589.50
1541.495,555.00
1542.376,550.50
1543.255,619.00
1544.135,627.00
1545.016,605.50
1545.895,591.00
1546.774,607.00
1547.655,558.50
1548.534,568.00
1549.414,587.00
1550.293,559.00
1551.172,549.00
1552.052,607.00
1552.930,621.50
1553.809,631.00
1554.689,565.50
1555.567,585.50
1556.445,606.50
1557.325,587.00
1558.203,590.50
1559.080,601.00
1559.960,616.00
1560.838,591.50
1561.715,556.50
1562.594,583.50
1563.472,612.50
1564.349,602.00
1565.228,576.50
1566.105,593.50
1566.982,575.50
1567.861,580.50
1568.738,608.50
1569.615,559.00
1570.493,562.50
1571.370,567.50
1572.246,592.00
1573.124,598.50
1574.000,569.50
1574.877,584.50
1575.755,593.50
1576.631,583.00
1577.507,609.00
1578.384,538.00
1579.260,618.00
1580.136,539.50
1581.011,601.00
1581.889,590.00
1582.764,571.00
1583.639,564.50
1584.516,602.50
1585.391,586.50
1586.266,528.50
1587.143,579.00
1588.018,546.00
1588.893,565.00
1589.768,614.50
1590.644,599.50
1591.519,540.00
1592.393,581.00
1593.269,599.00
1594.143,540.00
1595.018,578.50
1595.892,559.50
1596.767,591.50
1597.641,596.00
1598.515,587.50
1599.391,588.50
1600.264,628.00
1601.138,590.50
1602.011,568.00
1602.886,491.00
1603.760,547.50
1604.633,559.00
1605.508,626.50
1606.381,581.00
1607.254,567.50
1608.127,587.00
1609.001,550.00
1609.874,654.50
1610.746,492.00
1611.619,525.50
1612.493,602.00
1613.365,508.00
1614.238,571.50
1615.110,559.00
1615.984,598.00
1616.855,574.00
1617.727,556.50
1618.599,511.50
1619.473,552.00
1620.344,532.00
1621.216,531.00
1622.087,566.00
1622.960,553.50
1623.832,561.00
1624.703,575.00
1625.574,512.00
1626.445,544.00
1627.317,602.50
1628.188,571.00
1629.059,506.50
1629.930,520.50
1630.802,553.00
1631.672,564.00
1632.543,575.50
1633.413,581.50
1634.283,606.00
1635.155,568.50
1636.025,580.00
1636.895,547.00
1637.765,584.50
1638.636,564.00
1639.506,520.50
1640.376,568.00
1641.245,576.00
1642.114,543.50
1642.985,589.00
1643.855,508.00
1644.724,535.00
1645.593,512.00
1646.462,525.00
1647.333,525.00
1648.201,494.00
1649.070,581.50
1649.939,544.00
1650.807,487.50
1651.676,562.00
1652.546,513.00
1653.414,547.50
1654.282,534.50
1655.150,566.50
1656.018,564.50
1656.888,526.00
1657.756,548.50
1658.623,528.50
1659.491,520.50
1660.359,487.50
1661.226,524.00
1662.095,533.50
1662.962,550.50
1663.830,607.50
1664.697,525.50
1665.564,585.50
1666.431,543.50
1667.297,511.50
1668.166,532.50
1669.033,537.50
1669.899,540.50
1670.766,472.00
1671.632,526.50
1672.499,502.00
1673.367,558.00
1674.233,465.50
1675.099,526.50
1675.965,498.50
1676.831,554.00
1677.696,562.00
1678.562,552.50
1679.430,499.50
1680.295,500.50
1681.161,514.00
1682.026,514.00
1682.891,532.50
1683.756,519.50
1684.621,518.50
1685.486,508.00
1686.353,515.00
1687.218,514.00
1688.083,486.50
1688.947,479.50
1689.812,509.50
1690.677,535.00
1691.541,493.00
1692.405,550.50
1693.269,551.50
1694.135,533.00
1694.999,496.50
1695.863,490.00
1696.727,552.50
1697.591,518.00
1698.455,556.00
1699.318,474.50
1700.182,482.50
1701.045,464.50
1701.909,504.00
1702.772,562.50
1703.637,512.50
1704.500,530.50
1705.363,500.00
1706.226,528.00
1707.089,507.50
1707.951,491.00
1708.814,582.00
1709.677,453.00
1710.539,544.50
1711.402,502.50
1712.264,510.00
1713.126,559.50
1713.988,552.00
1714.852,507.50
1715.714,469.50
1716.576,510.50
1717.438,515.50
1718.299,539.00
1719.161,512.50
1720.023,558.50
1720.884,481.50
1721.745,516.00
1722.607,528.00
1723.468,527.50
1724.329,546.50
1725.190,498.50
1726.051,473.00
1726.912,527.50
1727.772,504.50
1728.633,524.50
1729.494,548.50
1730.354,489.50
1731.214,485.50
1732.075,500.00
1732.935,481.00
1733.797,505.50
1734.657,467.50
1735.517,523.00
1736.377,551.00
1737.237,513.00
1738.096,475.50
1738.956,531.50
1739.816,544.00
1740.675,555.00
1741.534,475.00
1742.394,482.50
1743.253,493.00
1744.112,505.00
1744.971,504.00
1745.830,565.50
1746.689,477.50
1747.547,515.00
1748.406,535.00
1749.265,533.00
1750.123,518.50
1750.982,482.50
1751.840,482.50
1752.698,460.00
1753.556,520.50
1754.414,469.50
1755.272,488.50
1756.130,504.00
1756.988,526.50
1757.846,504.50
1758.703,495.00
1759.559,425.00
1760.417,489.00
1761.274,463.00
1762.131,496.00
1762.989,478.00
1763.846,504.50
1764.703,547.00
1765.560,495.00
1766.417,583.50
1767.273,512.50
1768.130,478.50
1768.987,513.50
1769.843,504.50
1770.700,517.50
1771.556,567.00
1772.412,489.00
1773.268,476.00
1774.125,513.00
1774.980,470.50
1775.836,464.50
1776.692,484.50
1777.546,499.50
1778.402,445.00
1779.257,510.00
1780.113,496.50
1780.968,522.00
1781.824,503.00
1782.679,464.50
1783.534,528.00
1784.389,471.00
1785.244,473.00
1786.099,527.00
1786.954,536.00
1787.808,497.50
1788.661,486.50
1789.516,492.50
1790.370,490.00
1791.225,490.00
1792.079,527.00
1792.933,447.00
1793.787,471.00
1794.641,523.00
1795.495,522.00
1796.349,480.50
1797.201,490.50
1798.055,491.50
1798.908,459.00
1799.762,524.50
1800.615,461.50
1801.469,485.50
1802.322,515.50
1803.175,498.50
1804.028,456.00
1804.880,488.50
1805.732,473.50
1806.585,523.00
1807.438,512.50
1808.291,429.50
1809.143,480.50
1809.996,475.00
1810.846,476.00
1811.699,512.50
1812.551,503.00
1813.403,487.00
1814.255,457.50
1815.107,476.00
1815.959,414.00
1816.809,530.50
1817.661,516.50
1818.512,490.50
1819.364,526.00
1820.215,463.50
1821.067,513.00
1821.918,486.50
1822.768,478.00
1823.619,521.50
1824.470,517.00
1825.321,440.00
1826.172,519.00
1827.021,533.50
1827.871,443.00
1828.722,481.50
1829.572,481.00
1830.423,524.50
1831.273,451.50
1832.122,529.00
1832.972,503.00
1833.822,491.50
1834.672,478.00
1835.522,419.50
1836.370,495.50
1837.220,496.00
1838.070,469.00
1838.919,463.00
1839.769,433.50
1840.616,467.00
1841.466,502.50
1842.315,445.50
1843.164,454.50
1844.013,500.50
1844.860,425.00
1845.709,434.50
1846.558,439.50
1847.407,444.00
1848.254,435.00
1849.102,485.50
1849.951,420.50
1850.799,432.00
1851.648,504.00
1852.494,447.00
1853.342,483.00
1854.190,443.00
1855.038,408.50
1855.884,415.00
1856.732,452.50
1857.580,467.00
1858.428,467.00
1859.273,469.50
1860.121,472.00
1860.968,455.50
1861.816,455.50
1862.661,458.50
1863.508,498.00
1864.355,471.00
1865.202,396.00
1866.047,439.00
1866.894,431.50
1867.741,429.50
1868.586,425.00
1869.432,396.50
1870.279,445.00
1871.125,467.50
1871.970,421.50
1872.816,507.00
1873.662,436.50
1874.506,479.50
1875.352,462.00
1876.198,447.00
1877.044,456.50
1877.888,414.50
1878.734,488.00
1879.579,466.50
1880.423,435.00
1881.268,428.00
1882.113,453.00
1882.959,486.50
1883.802,455.50
1884.647,439.00
1885.492,481.50
1886.335,481.50
1887.180,482.00
1888.025,443.00
1888.867,440.00
1889.712,487.00
1890.556,434.50
1891.399,493.00
1892.243,447.50
1893.087,441.00
1893.930,468.00
1894.774,468.00
1895.618,424.50
1896.460,424.00
1897.304,491.00
1898.147,472.00
1898.989,427.50
1899.833,441.00
1900.676,466.50
1901.518,492.50
1902.361,461.00
1903.202,469.50
1904.046,444.00
1904.889,394.50
1905.730,484.50
1906.573,401.50
1907.415,419.00
1908.256,481.50
1909.099,469.50
1909.941,485.00
1910.782,427.50
1911.624,450.00
1912.465,474.00
1913.307,430.00
1914.149,409.00
1914.989,442.00
1915.831,476.00
1916.671,430.50
1917.513,428.00
1918.355,473.00
1919.195,458.50
1920.036,438.50
1920.876,462.00
1921.717,478.00
1922.558,453.00
1923.398,417.00
1924.239,457.50
1925.078,479.00
1925.919,407.50
1926.760,447.00
1927.599,413.50
1928.440,438.50
1929.279,446.50
1930.119,428.00
1930.958,439.50
1931.798,460.00
1932.638,446.00
1933.477,428.50
1934.317,466.00
1935.155,481.00
1935.995,448.50
1936.833,440.00
1937.673,435.50
1938.512,439.50
1939.350,415.00
1940.190,477.00
1941.027,413.00
1941.867,499.00
1942.704,427.00
1943.543,414.00
1944.381,446.00
1945.220,452.50
1946.057,491.00
1946.896,484.50
1947.733,413.50
1948.572,484.50
1949.408,427.00
1950.247,460.00
1951.085,448.50
1951.922,469.50
1952.760,454.00
1953.597,431.50
1954.435,453.00
1955.271,416.00
1956.109,496.50
1956.945,487.50
1957.783,480.00
1958.619,463.00
1959.456,431.00
1960.292,403.00
1961.129,456.00
1961.965,438.00
1962.802,496.00
1963.638,457.00
1964.475,470.00
1965.310,384.00
1966.145,427.50
1966.982,419.00
1967.817,468.50
1968.654,476.00
1969.489,443.50
1970.325,438.50
1971.160,430.00
1971.996,435.00
1972.831,428.00
1973.667,464.00
1974.501,402.50
1975.337,445.00
1976.171,448.00
1977.006,474.00
1977.841,419.50
1978.675,444.00
1979.511,443.00
1980.345,427.50
1981.180,485.00
1982.014,417.00
1982.849,454.50
1983.682,429.00
1984.516,452.00
1985.351,440.50
1986.184,455.00
1987.019,465.50
1987.852,417.50
1988.687,403.50
1989.519,437.50
1990.352,424.00
1991.187,440.00
1992.019,444.50
1992.854,467.00
1993.686,420.00
1994.518,445.50
1995.352,415.50
1996.185,413.00
1997.019,451.50
1997.851,505.50
1998.682,481.50
1999.516,454.50
2000.348,450.50

<< BACKGROUND SPECTRUM >>
Wave[dcm-1],No3
96.716,2534.00
97.759,2372.00
98.802,2288.00
99.846,2906.00
100.886,2535.00
101.929,2724.00
102.972,2724.00
104.015,2648.00
105.057,2792.00
106.100,2243.00
107.142,2573.00
108.184,3000.00
109.226,2848.00
110.268,2981.00
111.310,3351.00
112.352,2890.00
113.393,2925.00
114.435,2809.00
115.476,3095.00
116.517,3107.00
117.558,2581.00
118.599,2918.00
119.640,3290.00
120.681,3247.00
121.722,3138.00
122.762,2863.00
123.803,2732.00
124.843,3105.00
125.883,3390.00
126.923,3584.00
127.963,3258.00
129.001,3573.00
130.041,3963.00
131.080,3281.00
132.120,3133.00
133.159,3561.00
134.199,3566.00
135.238,3194.00
136.277,3507.00
137.316,3666.00
138.355,3567.00
139.393,3181.00
140.432,3304.00
141.470,3399.00
142.509,3157.00
143.547,3718.00
144.585,2990.00
145.623,3392.00
146.661,3146.00
147.699,3519.00
148.736,3588.00
149.774,3205.00
150.811,3481.00
151.849,3909.00
152.886,3430.00
153.923,3612.00
154.960,3083.00
155.997,3930.00
157.034,4890.00
158.072,3577.00
159.109,4028.00
160.145,4175.00
161.182,3232.00
162.218,3444.00
163.254,3298.00
164.290,3256.00
165.326,3978.00
166.361,3845.00
167.397,3504.00
168.432,3724.00
169.468,3424.00
170.503,3649.00
171.538,3403.00
172.573,3749.00
173.608,3173.00
174.643,3772.00
175.677,3599.00
176.712,3743.00
177.746,3810.00
178.781,3350.00
179.815,2700.00
180.849,3774.00
181.883,3283.00
182.917,2817.00
183.951,3092.00
184.984,3836.00
186.020,3297.00
187.053,3631.00
188.087,3231.00
189.120,3476.00
190.153,3664.00
191.186,3658.00
192.219,3766.00
193.251,3635.00
194.284,3733.00
195.317,3849.00
196.349,6057.00
197.381,3413.00
198.413,3455.00
199.445,3239.00
200.477,3526.00
201.509,3555.00
202.543,3463.00
203.575,3947.00
204.606,3646.00
205.637,5316.00
206.669,3118.00
207.700,3722.00
208.731,3554.00
209.762,3221.00
210.792,3237.00
211.823,3600.00
212.854,3225.00
213.884,4345.00
214.914,3715.00
215.947,3546.00
216.977,3608.00
218.007,3554.00
219.037,3842.00
220.066,3310.00
221.096,3792.00
222.126,3148.00
223.155,3404.00
224.184,3780.00
225.214,4232.00
226.245,3869.00
227.274,3292.00
228.302,3668.00
229.331,3705.00
230.360,3461.00
231.388,3367.00
232.417,3208.00
233.445,3648.00
234.473,3414.00
235.501,3770.00
236.531,3730.00
237.559,3725.00
238.587,3344.00
239.614,3312.00
240.642,3541.00
241.669,3653.00
242.696,3667.00
243.724,3664.00
244.753,4024.00
245.780,3462.00
246.806,3163.00
247.833,3623.00
248.860,3433.00
249.886,3584.00
250.913,3236.00
251.939,3511.00
252.967,3479.00
253.993,3459.00
255.019,3909.00
256.045,3593.00
257.070,4011.00
258.096,3302.00
259.121,3682.00
260.147,3546.00
261.174,3455.00
262.199,3443.00
263.224,3540.00
264.249,3908.00
265.274,4036.00
266.298,3530.00
267.323,3638.00
268.349,3872.00
269.374,3229.00
270.398,3277.00
271.422,3673.00
272.446,3277.00
273.470,3117.00
274.496,3739.00
275.519,3710.00
276.543,3814.00
277.566,3895.00
278.589,3802.00
279.613,3734.00
280.636,3721.00
281.661,3816.00
282.684,3798.00
283.706,3940.00
284.729,4137.00
285.751,2963.00
286.774,4004.00
287.798,3377.00
288.820,2996.00
289.842,3275.00
290.864,3322.00
291.886,3629.00
292.910,3486.00
293.932,4045.00
294.953,3487.00
295.974,3592.00
296.996,3707.00
298.017,3509.00
299.040,3386.00
300.061,3683.00
301.082,3344.00
302.102,3219.00
303.123,3803.00
304.143,3557.00
305.166,3470.00
306.186,3809.00
307.206,3338.00
308.226,3699.00
309.246,3102.00
310.268,3804.00
311.288,3483.00
312.307,3181.00
313.327,3498.00
314.346,3740.00
315.368,3029.00
316.387,3635.00
317.406,3586.00
318.425,3524.00
319.443,3425.00
320.464,3142.00
321.483,4035.00
322.501,3337.00
323.520,3924.00
324.538,3466.00
325.558,4021.00
326.576,3595.00
327.594,3554.00
328.612,3381.00
329.629,3145.00
330.649,3739.00
331.666,3559.00
332.684,3140.00
333.701,3715.00
334.718,3178.00
335.737,3371.00
336.754,3723.00
337.771,3768.00
338.787,3190.00
339.806,3416.00
340.823,3394.00
341.839,3546.00
342.855,3469.00
343.871,3605.00
344.889,3368.00
345.905,3812.00
346.921,3757.00
347.937,4346.00
348.954,4131.00
349.970,3680.00
350.985,3552.00
352.000,3119.00
353.017,3705.00
354.032,3122.00
355.047,3809.00
356.062,3533.00
357.077,3402.00
358.093,3946.00
359.108,3689.00
360.122,3651.00
361.136,3446.00
362.152,3893.00
363.166,3248.00
364.180,3127.00
365.194,3914.00
366.210,3389.00
367.223,3302.00
368.237,3348.00
369.250,3547.00
370.265,3361.00
371.278,3915.00
372.291,3665.00
373.304,3052.00
374.319,3759.00
375.332,3742.00
376.344,4027.00
377.357,3427.00
378.371,3824.00
379.383,3322.00
380.395,4301.00
381.407,4074.00
382.421,3423.00
383.433,3392.00
384.445,3392.00
385.456,3551.00
386.470,3061.00
387.481,3926.00
388.492,3896.00
389.505,3201.00
390.516,3919.00
391.527,3518.00
392.538,3448.00
393.551,3688.00
394.561,4318.00
395.572,3686.00
396.582,3588.00
397.594,3748.00
398.604,3377.00
399.614,3588.00
400.624,3385.00
401.636,3409.00
402.646,3556.00
403.655,3170.00
404.667,3388.00
405.676,3306.00
406.685,4299.00
407.694,3876.00
408.705,2993.00
409.714,3108.00
410.723,3284.00
411.734,3247.00
412.742,3377.00
413.751,3607.00
414.759,3601.00
415.769,3525.00
416.777,3810.00
417.785,3454.00
418.795,3374.00
419.803,3575.00
420.811,3255.00
421.818,3933.00
422.828,3456.00
423.835,3377.00
424.842,3406.00
425.852,3258.00
426.859,3623.00
427.866,3709.00
428.874,3607.00
429.881,3448.00
430.888,3800.00
431.894,3567.00
432.902,3519.00
433.909,4474.00
434.915,3636.00
435.923,4252.00
436.929,3038.00
437.935,3438.00
438.942,3396.00
439.948,3536.00
440.953,4068.00
441.959,3177.00
442.966,3929.00
443.971,3709.00
444.976,3141.00
445.983,3565.00
446.988,3419.00
447.993,3970.00
448.999,3627.00
450.004,3514.00
451.008,3375.00
452.014,4059.00
453.019,3780.00
454.023,3255.00
455.029,3224.00
456.032,3963.00
457.036,3451.00
458.042,2880.00
459.045,3386.00
460.049,3656.00
461.052,4019.00
462.057,3731.00
463.060,3949.00
464.063,3352.00
465.068,3420.00
466.071,3314.00
467.073,3918.00
468.078,3122.00
469.080,3104.00
470.082,3568.00
471.087,3436.00
472.089,3520.00
473.091,3809.00
474.095,3996.00
475.096,3433.00
476.098,3361.00
477.101,3740.00
478.103,3274.00
479.104,4197.00
480.107,3487.00
481.108,2990.00
482.109,4197.00
483.112,4188.00
484.113,4559.00
485.114,3794.00
486.116,3532.00
487.117,3847.00
488.117,3612.00
489.119,3675.00
490.119,3724.00
491.121,3229.00
492.121,2998.00
493.121,2877.00
494.123,3598.00
495.122,3609.00
496.122,3542.00
497.123,4473.00
498.122,3347.00
499.121,3601.00
500.122,3539.00
501.121,3181.00
502.120,3138.00
503.121,3250.00
504.119,3167.00
505.118,3774.00
506.118,3267.00
507.117,3225.00
508.115,3681.00
509.115,3531.00
510.113,3076.00
511.112,3814.00
512.110,3467.00
513.108,3815.00
514.107,3838.00
515.105,3780.00
516.102,3933.00
517.101,3475.00
518.098,3590.00
519.095,4060.00
520.094,3421.00
521.091,3383.00
522.089,3718.00
523.086,3345.00
524.082,3733.00
525.081,3646.00
526.077,4719.00
527.073,4564.00
528.071,3475.00
529.067,3359.00
530.064,3409.00
531.060,3139.00
532.056,3409.00
533.053,3891.00
534.048,3759.00
535.044,3506.00
536.041,3706.00
537.036,3595.00
538.030,3678.00
539.027,3775.00
540.022,3136.00
541.019,3512.00
542.013,3759.00
543.007,3673.00
544.004,3451.00
544.998,3513.00
545.994,4097.00
546.988,3890.00
547.981,3375.00
548.977,4159.00
549.971,3679.00
550.964,3807.00
551.960,3640.00
552.953,3551.00
553.948,3771.00
554.941,3362.00
555.934,3207.00
556.929,3713.00
557.922,3314.00
558.916,3827.00
559.909,4040.00
560.901,3603.00
561.895,3595.00
562.888,3229.00
563.880,3675.00
564.874,3864.00
565.865,3814.00
566.859,3203.00
567.851,3998.00
568.842,3438.00
569.836,3561.00
570.827,3224.00
571.820,3583.00
572.811,3733.00
573.802,3488.00
574.795,3275.00
575.786,3821.00
576.779,3691.00
577.769,3199.00
578.760,3649.00
579.752,3206.00
580.742,3403.00
581.735,3707.00
582.725,3315.00
583.714,3767.00
584.706,3240.00
585.696,3503.00
586.688,3743.00
587.677,3438.00
588.667,3711.00
589.658,3460.00
590.647,3615.00
591.638,3591.00
592.627,3393.00
593.616,3146.00
594.607,3657.00
595.595,3586.00
596.586,3174.00
597.574,3911.00
598.562,3917.00
599.553,3162.00
600.541,3505.00
601.531,3685.00
602.519,3434.00
603.508,3631.00
604.496,3732.00
605.484,3630.00
606.473,3483.00
607.460,3384.00
608.450,3398.00
609.437,3716.00
610.424,3884.00
611.413,3102.00
612.400,3241.00
613.388,3580.00
614.375,3405.00
615.361,3429.00
616.350,3288.00
617.336,8407.00
618.324,3836.00
619.310,3342.00
620.298,3182.00
621.284,3625.00
622.270,3242.00
623.257,3548.00
624.243,3584.00
625.230,3744.00
626.216,3490.00
627.203,3869.00
628.188,3436.00
629.173,3413.00
630.160,3264.00
631.145,2676.00
632.131,3314.00
633.116,3169.00
634.102,3615.00
635.087,3749.00
636.071,3764.00
637.057,3321.00
638.041,3090.00
639.027,3226.00
640.011,3415.00
640.995,3249.00
641.980,3222.00
642.964,3360.00
643.949,3904.00
644.932,2807.00
645.918,3318.00
646.901,3505.00
647.886,3324.00
648.868,3353.00
649.851,3150.00
650.836,2937.00
651.818,3151.00
652.803,3705.00
653.785,3523.00
654.769,3656.00
655.751,3630.00
656.733,3906.00
657.717,3038.00
658.699,3546.00
659.683,3300.00
660.664,3149.00
661.648,3344.00
662.629,3293.00
663.611,3284.00
664.594,3076.00
665.575,3083.00
666.558,3397.00
667.539,3075.00
668.521,3388.00
669.502,3377.00
670.484,3398.00
671.465,3238.00
672.445,3426.00
673.427,3192.00
674.407,3195.00
675.390,3548.00
676.369,3336.00
677.351,2945.00
678.331,3620.00
679.312,3367.00
680.292,3264.00
681.271,2953.00
682.253,3546.00
683.232,3089.00
684.213,3270.00
685.192,3652.00
686.172,3934.00
687.151,3392.00
688.132,3427.00
689.110,3621.00
690.089,3704.00
691.069,2897.00
692.047,2797.00
693.027,2927.00
694.005,3403.00
694.985,3992.00
695.963,3510.00
696.943,3234.00
697.920,2967.00
698.898,3786.00
699.877,3621.00
700.854,3232.00
701.833,3204.00
702.810,3722.00
703.789,3416.00
704.766,4475.00
705.745,3916.00
706.721,3165.00
707.698,3685.00
708.676,3069.00
709.653,3270.00
710.631,3644.00
711.607,3398.00
712.585,3366.00
713.561,3078.00
714.539,3897.00
715.514,3268.00
716.492,3068.00
717.467,3809.00
718.443,3012.00
719.420,3631.00
720.395,3716.00
721.372,3509.00
722.347,3599.00
723.324,3201.00
724.298,3347.00
725.275,3076.00
726.250,3290.00
727.226,3146.00
728.200,2955.00
729.176,3258.00
730.151,3561.00
731.125,3761.00
732.100,2888.00
733.074,3311.00
734.050,3156.00
735.023,3035.00
735.999,3258.00
736.972,3185.00
737.947,3654.00
738.921,3400.00
739.896,3550.00
740.869,3425.00
741.841,3226.00
742.816,3753.00
743.789,3085.00
744.763,3049.00
745.736,3279.00
746.710,3201.00
747.682,3059.00
748.656,3271.00
749.628,3218.00
750.602,3302.00
751.574,3378.00
752.548,4134.00
753.519,3447.00
754.491,2892.00
755.464,3132.00
756.435,3928.00
757.408,3612.00
758.379,3451.00
759.352,2844.00
760.323,3009.00
761.296,3261.00
762.267,3345.00
763.239,3062.00
764.209,3548.00
765.182,4415.00
766.152,3615.00
767.124,3054.00
768.094,3085.00
769.064,3481.00
770.036,3022.00
771.005,3651.00
771.977,3133.00
772.947,3226.00
773.918,3734.00
774.887,3300.00
775.858,3111.00
776.827,3235.00
777.798,3200.00
778.767,3852.00
779.738,3236.00
780.707,3195.00
781.677,3343.00
782.646,3116.00
783.614,3672.00
784.584,3377.00
785.552,3498.00
786.522,2954.00
787.490,3264.00
788.460,3173.00
789.428,3154.00
790.397,3704.00
791.365,2976.00
792.334,3200.00
793.302,3426.00
794.271,3381.00
795.238,3144.00
796.207,3104.00
797.174,3564.00
798.143,2997.00
799.109,3663.00
800.076,3172.00
801.044,2889.00
802.011,3080.00
802.979,3107.00
803.945,3266.00
804.913,3952.00
805.879,3207.00
806.847,2949.00
807.813,3611.00
808.780,3197.00
809.746,3196.00
810.713,3658.00
811.678,2906.00
812.646,3210.00
813.611,3187.00
814.578,2953.00
815.543,3613.00
816.510,2872.00
817.474,3160.00
818.439,3187.00
819.405,3467.00
820.370,3079.00
821.336,2988.00
822.300,3353.00
823.266,3195.00
824.230,3447.00
825.196,3263.00
826.160,3624.00
827.126,3611.00
828.089,4014.00
829.055,3283.00
830.018,3299.00
830.983,4080.00
831.946,3079.00
832.911,3073.00
833.874,3883.00
834.837,3070.00
835.802,3184.00
836.765,3730.00
837.729,3146.00
838.691,3226.00
839.656,3512.00
840.618,3377.00
841.582,3465.00
842.544,3520.00
843.508,3677.00
844.470,3001.00
845.434,2843.00
846.395,2763.00
847.359,3113.00
848.320,2899.00
849.283,3055.00
850.245,3098.00
851.208,3479.00
852.169,3198.00
853.130,3002.00
854.092,3435.00
855.053,3181.00
856.016,3206.00
856.976,4305.00
857.938,3237.00
858.899,3271.00
859.861,2942.00
860.821,3136.00
861.783,2558.00
862.743,3259.00
863.704,3507.00
864.664,2764.00
865.626,3353.00
866.585,3044.00
867.546,3254.00
868.506,3303.00
869.467,2756.00
870.426,3298.00
871.387,3461.00
872.346,3484.00
873.304,3306.00
874.265,3424.00
875.223,3260.00
876.184,3343.00
877.142,3061.00
878.102,3248.00
879.060,3181.00
880.021,3268.00
880.978,2842.00
881.938,3199.00
882.896,3556.00
883.856,3407.00
884.813,3180.00
885.772,3089.00
886.730,3399.00
887.689,3376.00
888.646,3082.00
889.603,3589.00
890.562,3595.00
891.519,3347.00
892.477,3369.00
893.434,3284.00
894.392,2842.00
895.349,3203.00
896.307,3319.00
897.263,3463.00
898.221,3288.00
899.177,3060.00
900.135,3431.00
901.091,3142.00
902.048,3671.00
903.004,3125.00
903.961,3013.00
904.917,3230.00
905.874,3253.00
906.829,2930.00
907.784,3286.00
908.741,3246.00
909.696,3080.00
910.653,2762.00
911.607,3181.00
912.564,3145.00
913.518,3148.00
914.475,3269.00
915.429,4909.00
916.385,2938.00
917.339,3590.00
918.295,3328.00
919.249,3438.00
920.205,3290.00
921.158,3360.00
922.114,3145.00
923.067,3241.00
924.020,3280.00
924.976,3120.00
925.929,3409.00
926.884,3278.00
927.837,3482.00
928.791,3436.00
929.744,2920.00
930.699,3271.00
931.651,3249.00
932.606,2869.00
933.558,3104.00
934.512,3412.00
935.464,3303.00
936.418,3614.00
937.370,3383.00
938.322,2981.00
939.276,3168.00
940.227,3226.00
941.181,3328.00
942.132,3639.00
943.085,3835.00
944.036,2793.00
944.990,3548.00
945.941,2973.00
946.893,3087.00
947.844,2903.00
948.797,3358.00
949.747,3993.00
950.700,3082.00
951.650,2647.00
952.601,3370.00
953.553,2985.00
954.503,3451.00
955.455,3176.00
956.405,3215.00
957.356,2892.00
958.306,3507.00
959.258,3167.00
960.207,3601.00
961.158,3511.00
962.108,3237.00
963.059,2926.00
964.008,2862.00
964.959,3834.00
965.908,3174.00
966.856,2978.00
967.807,2764.00
968.756,3553.00
969.706,3252.00
970.654,3092.00
971.605,3225.00
972.553,3297.00
973.503,3202.00
974.451,3452.00
975.401,3281.00
976.348,3251.00
977.296,3098.00
978.246,3493.00
979.193,3604.00
980.142,2978.00
981.090,3298.00
982.039,3252.00
982.986,3286.00
983.935,3544.00
984.882,3292.00
985.830,3384.00
986.777,3333.00
987.725,3069.00
988.672,2993.00
989.618,3224.00
990.567,2984.00
991.513,3134.00
992.461,2998.00
993.407,3379.00
994.354,3297.00
995.300,3384.00
996.248,3317.00
997.193,3328.00
998.141,3143.00
999.086,3339.00
1000.031,3328.00
1000.978,2810.00
1001.924,3173.00
1002.870,3307.00
1003.815,2603.00
1004.762,2964.00
1005.707,3236.00
1006.653,3150.00
1007.598,3171.00
1008.542,2859.00
1009.488,2829.00
1010.432,3081.00
1011.378,2969.00
1012.322,3635.00
1013.268,2886.00
1014.212,3206.00
1015.157,3262.00
1016.101,3611.00
1017.046,2910.00
1017.990,2932.00
1018.933,3156.00
1019.878,2984.00
1020.821,3039.00
1021.766,2868.00
1022.709,3056.00
1023.654,3180.00
1024.596,3489.00
1025.541,3638.00
1026.483,3604.00
1027.425,3321.00
1028.370,3405.00
1029.312,3403.00
1030.256,3060.00
1031.198,3037.00
1032.141,3091.00
1033.083,3578.00
1034.027,3319.00
1034.968,3361.00
1035.910,2682.00
1036.853,3226.00
1037.794,3240.00
1038.738,2891.00
1039.679,3506.00
1040.621,3033.00
1041.562,3124.00
1042.503,3509.00
1043.446,2938.00
1044.386,3428.00
1045.329,3174.00
1046.269,3333.00
1047.211,3139.00
1048.151,3268.00
1049.093,2876.00
1050.033,3932.00
1050.973,3290.00
1051.915,3118.00
1052.854,3096.00
1053.796,3365.00
1054.735,3084.00
1055.677,3072.00
1056.616,3268.00
1057.555,3252.00
1058.496,2838.00
1059.435,3417.00
1060.376,3141.00
1061.315,3245.00
1062.255,2921.00
1063.194,3156.00
1064.132,2875.00
1065.073,3262.00
1066.011,3242.00
1066.951,3166.00
1067.889,2893.00
1068.829,3315.00
1069.767,3216.00
1070.705,2521.00
1071.644,3028.00
1072.582,2747.00
1073.521,3054.00
1074.459,3141.00
1075.398,3286.00
1076.335,3013.00
1077.272,3831.00
1078.211,3313.00
1079.148,3686.00
1080.087,3136.00
1081.023,3586.00
1081.962,3407.00
1082.898,2678.00
1083.835,3052.00
1084.773,2741.00
1085.709,2760.00
1086.647,3167.00
1087.583,3057.00
1088.519,3281.00
1089.457,3314.00
1090.392,2780.00
1091.330,3215.00
1092.266,3086.00
1093.203,3443.00
1094.138,2801.00
1095.073,3653.00
1096.010,3419.00
1096.945,3108.00
1097.882,2763.00
1098.817,2622.00
1099.752,3274.00
1100.688,3171.00
1101.623,3228.00
1102.559,3215.00
1103.493,3464.00
1104.430,2681.00
1105.364,2783.00
1106.298,3089.00
1107.234,3746.00
1108.167,2881.00
1109.094,3074.00
1110.019,3122.00
1110.945,3283.00
1111.869,3164.00
1112.795,3039.00
1113.720,3172.00
1114.646,3140.00
1115.571,2594.00
1116.495,3196.00
1117.420,3214.00
1118.345,2960.00
1119.270,3124.00
1120.195,3245.00
1121.118,3560.00
1122.042,3429.00
1122.967,3128.00
1123.891,3236.00
1124.816,3178.00
1125.738,3176.00
1126.663,2575.00
1127.587,3044.00
1128.511,3028.00
1129.435,3165.00
1130.357,3197.00
1131.280,3994.00
1132.204,2896.00
1133.128,2956.00
1134.051,3074.00
1134.972,3743.00
1135.896,3044.00
1136.819,3421.00
1137.742,3000.00
1138.665,3269.00
1139.586,3106.00
1140.509,2669.00
1141.431,2990.00
1142.354,3589.00
1143.276,3163.00
1144.197,3545.00
1145.119,3223.00
1146.041,2864.00
1146.964,3314.00
1147.885,3222.00
1148.806,3063.00
1149.727,3122.00
1150.649,2765.00
1151.571,3180.00
1152.492,3344.00
1153.412,3247.00
1154.333,3089.00
1155.254,2967.00
1156.175,3028.00
1157.095,3552.00
1158.016,3175.00
1158.936,2979.00
1159.857,3258.00
1160.778,3016.00
1161.697,2737.00
1162.617,3211.00
1163.537,3778.00
1164.458,3556.00
1165.376,2953.00
1166.296,3326.00
1167.216,3458.00
1168.136,2961.00
1169.056,2837.00
1169.974,3103.00
1170.893,3660.00
1171.813,3289.00
1172.732,3050.00
1173.650,3170.00
1174.569,3922.00
1175.488,3337.00
1176.407,2842.00
1177.326,2908.00
1178.243,3165.00
1179.161,2937.00
1180.080,3075.00
1180.999,3273.00
1181.915,3053.00
1182.834,2714.00
1183.752,3330.00
1184.670,3683.00
1185.586,2682.00
1186.504,2959.00
1187.422,3084.00
1188.340,2816.00
1189.258,3246.00
1190.173,3141.00
1191.091,3470.00
1192.008,2960.00
1192.926,3005.00
1193.841,3205.00
1194.758,3250.00
1195.675,2916.00
1196.592,3452.00
1197.507,2907.00
1198.424,3274.00
1199.340,3545.00
1200.257,3088.00
1201.172,3280.00
1202.088,2571.00
1203.004,3224.00
1203.920,3342.00
1204.835,3733.00
1205.750,3457.00
1206.666,3531.00
1207.582,2917.00
1208.496,2928.00
1209.412,3059.00
1210.327,2986.00
1211.243,3603.00
1212.156,2922.00
1213.071,2928.00
1213.986,3170.00
1214.901,2781.00
1215.814,2810.00
1216.729,2888.00
1217.644,2920.00
1218.559,2881.00
1219.471,3887.00
1220.386,3484.00
1221.300,2912.00
1222.213,3245.00
1223.127,3059.00
1224.041,3475.00
1224.955,2901.00
1225.867,3224.00
1226.781,3390.00
1227.694,3531.00
1228.608,3110.00
1229.520,3362.00
1230.433,3341.00
1231.346,2881.00
1232.260,3342.00
1233.171,2892.00
1234.084,3149.00
1234.997,3515.00
1235.908,2967.00
1236.821,3308.00
1237.733,4301.00
1238.646,3406.00
1239.556,3211.00
1240.469,3122.00
1241.381,2952.00
1242.293,2935.00
1243.203,3613.00
1244.115,3659.00
1245.027,3181.00
1245.937,3033.00
1246.849,3027.00
1247.761,3151.00
1248.672,2922.00
1249.582,3042.00
1250.493,3727.00
1251.404,3143.00
1252.313,3287.00
1253.225,3465.00
1254.135,4109.00
1255.046,3266.00
1255.955,3326.00
1256.866,3635.00
1257.777,2970.00
1258.685,2826.00
1259.596,2556.00
1260.506,3508.00
1261.416,3083.00
1262.324,3404.00
1263.234,3097.00
1264.144,3364.00
1265.052,3228.00
1265.962,3123.00
1266.872,3448.00
1267.779,3326.00
1268.689,2669.00
1269.598,2816.00
1270.507,3090.00
1271.415,2964.00
1272.324,3241.00
1273.233,3130.00
1274.140,3064.00
1275.048,2913.00
1275.957,2624.00
1276.864,2942.00
1277.772,2976.00
1278.681,2649.00
1279.587,2894.00
1280.496,3257.00
1281.404,3920.00
1282.312,3297.00
1283.218,2858.00
1284.126,2868.00
1285.033,3650.00
1285.939,3076.00
1286.847,3187.00
1287.754,3061.00
1288.660,2904.00
1289.567,3712.00
1290.474,3160.00
1291.380,3398.00
1292.286,2851.00
1293.193,3209.00
1294.098,3161.00
1295.005,2997.00
1295.912,3432.00
1296.816,3206.00
1297.723,3111.00
1298.629,2947.00
1299.534,3547.00
1300.440,3268.00
1301.346,2933.00
1302.250,2982.00
1303.156,2702.00
1304.062,3618.00
1304.966,3684.00
1305.871,3415.00
1306.777,2953.00
1307.680,3081.00
1308.586,3224.00
1309.491,3389.00
1310.394,3151.00
1311.299,3399.00
1312.204,3674.00
1313.107,3232.00
1314.012,3138.00
1314.917,2838.00
1315.819,3226.00
1316.724,3644.00
1317.628,3196.00
1318.531,3113.00
1319.435,3561.00
1320.339,5152.00
1321.241,3141.00
1322.145,3177.00
1323.049,3215.00
1323.951,2903.00
1324.854,2880.00
1325.756,3406.00
1326.659,3226.00
1327.563,2931.00
1328.464,3254.00
1329.367,3060.00
1330.271,3473.00
1331.172,2901.00
1332.074,3122.00
1332.977,2913.00
1333.878,3293.00
1334.781,3451.00
1335.683,2922.00
1336.584,3124.00
1337.486,2714.00
1338.387,3287.00
1339.289,2843.00
1340.191,2973.00
1341.091,3057.00
1341.993,2857.00
1342.895,2986.00
1343.794,3239.00
1344.696,3387.00
1345.596,3246.00
1346.497,2871.00
1347.398,3112.00
1348.298,2703.00
1349.199,3690.00
1350.100,3016.00
1350.999,3490.00
1351.900,3321.00
1352.799,3454.00
1353.699,3216.00
1354.600,3044.00
1355.499,3192.00
1356.399,2698.00
1357.297,3080.00
1358.198,3149.00
1359.098,2913.00
1359.996,2801.00
1360.896,3561.00
1361.796,3389.00
1362.694,3255.00
1363.593,3091.00
1364.491,3311.00
1365.391,3654.00
1366.290,3071.00
1367.187,2943.00
1368.086,3351.00
1368.984,3163.00
1369.883,2716.00
1370.782,3167.00
1371.679,3302.00
1372.577,3639.00
1373.474,3146.00
1374.373,3048.00
1375.269,3146.00
1376.168,3085.00
1377.066,3379.00
1377.962,3377.00
1378.860,3468.00
1379.756,3500.00
1380.654,3739.00
1381.552,3386.00
1382.448,3294.00
1383.346,3177.00
1384.241,3292.00
1385.139,3406.00
1386.036,2989.00
1386.931,2748.00
1387.829,3235.00
1388.724,3385.00
1389.621,3000.00
1390.516,3175.00
1391.413,2993.00
1392.309,2863.00
1393.204,3387.00
1394.101,3372.00
1394.995,3295.00
1395.891,3322.00
1396.786,2899.00
1397.682,3098.00
1398.578,3192.00
1399.472,3435.00
1400.368,3152.00
1401.262,3119.00
1402.158,3288.00
1403.051,3104.00
1403.947,3002.00
1404.840,3429.00
1405.736,3362.00
1406.631,2865.00
1407.524,3568.00
1408.419,3188.00
1409.312,3042.00
1410.207,3320.00
1411.100,3054.00
1411.995,2949.00
1412.888,3344.00
1413.782,2832.00
1414.675,3461.00
1415.569,2892.00
1416.463,3071.00
1417.355,3081.00
1418.249,2949.00
1419.141,3191.00
1420.035,3248.00
1420.927,3102.00
1421.821,3499.00
1422.713,3059.00
1423.606,3274.00
1424.498,3152.00
1425.391,3716.00
1426.282,2951.00
1427.175,3078.00
1428.068,2633.00
1428.960,3173.00
1429.852,3245.00
1430.743,2902.00
1431.636,3136.00
1432.527,3398.00
1433.419,3335.00
1434.310,3346.00
1435.202,2957.00
1436.092,3112.00
1436.984,3092.00
1437.875,3502.00
1438.767,3156.00
1439.657,2974.00
1440.548,3344.00
1441.438,3220.00
1442.330,3249.00
1443.219,3061.00
1444.111,3408.00
1445.000,2985.00
1445.891,2876.00
1446.781,2915.00
1447.672,3194.00
1448.561,3460.00
1449.452,3310.00
1450.340,2932.00
1451.231,2918.00
1452.120,2884.00
1453.010,3405.00
1453.899,3009.00
1454.789,3345.00
1455.677,3521.00
1456.568,3172.00
1457.456,3163.00
1458.346,3194.00
1459.234,3215.00
1460.123,3458.00
1461.011,3169.00
1461.901,3530.00
1462.788,3517.00
1463.678,3278.00
1464.565,3140.00
1465.454,3087.00
1466.342,3217.00
1467.231,2514.00
1468.118,3416.00
1469.006,3593.00
1469.893,2851.00
1470.782,3307.00
1471.669,3484.00
1472.557,3372.00
1473.444,3170.00
1474.330,3319.00
1475.218,3474.00
1476.105,3092.00
1476.993,3185.00
1477.879,3412.00
1478.767,3131.00
1479.652,2933.00
1480.540,3237.00
1481.426,3311.00
1482.313,3300.00
1483.199,3583.00
1484.086,3398.00
1484.972,2870.00
1485.857,2870.00
1486.744,3269.00
1487.629,2726.00
1488.516,3020.00
1489.401,3324.00
1490.287,3129.00
1491.172,2810.00
1492.058,3056.00
1492.943,2929.00
1493.828,2977.00
1494.714,3295.00
1495.598,3560.00
1496.484,3949.00
1497.368,2790.00
1498.254,3123.00
1499.138,3171.00
1500.022,3205.00
1500.907,3279.00
1501.791,3925.00
1502.676,3159.00
1503.560,3031.00
1504.445,3670.00
1505.328,3299.00
1506.211,3554.00
1507.096,3103.00
1507.979,3470.00
1508.864,3056.00
1509.747,3298.00
1510.631,3209.00
1511.514,3355.00
1512.397,3448.00
1513.281,3636.00
1514.163,3432.00
1515.047,3006.00
1515.930,2878.00
1516.812,3180.00
1517.696,3325.00
1518.578,3080.00
1519.461,3225.00
1520.343,3649.00
1521.225,2972.00
1522.108,3083.00
1522.990,3473.00
1523.873,3570.00
1524.754,2795.00
1525.635,2657.00
1526.518,3311.00
1527.399,3103.00
1528.282,3188.00
1529.163,3243.00
1530.044,3166.00
1530.926,2835.00
1531.807,2906.00
1532.689,3200.00
1533.569,2967.00
1534.450,4289.00
1535.332,3375.00
1536.212,3044.00
1537.092,3468.00
1537.974,2806.00
1538.854,3083.00
1539.735,3694.00
1540.615,3345.00
1541.495,2961.00
1542.376,3600.00
1543.255,2890.00
1544.135,3105.00
1545.016,3186.00
1545.895,2967.00
1546.774,3393.00
1547.655,2744.00
1548.534,3175.00
1549.414,3097.00
1550.293,2879.00
1551.172,3275.00
1552.052,3112.00
1552.930,3051.00
1553.809,3638.00
1554.689,3075.00
1555.567,3111.00
1556.445,3036.00
1557.325,3463.00
1558.203,2768.00
1559.080,3183.00
1559.960,3082.00
1560.838,3856.00
1561.715,3110.00
1562.594,3468.00
1563.472,3298.00
1564.349,3317.00
1565.228,2769.00
1566.105,2928.00
1566.982,3236.00
1567.861,3413.00
1568.738,3074.00
1569.615,2771.00
1570.493,3049.00
1571.370,3032.00
1572.246,2599.00
1573.124,3125.00
1574.000,3099.00
1574.877,3367.00
1575.755,3036.00
1576.631,2935.00
1577.507,3543.00
1578.384,3535.00
1579.260,3263.00
1580.136,3784.00
1581.011,3107.00
1581.889,3126.00
1582.764,3155.00
1583.639,3470.00
1584.516,3313.00
1585.391,3018.00
1586.266,3232.00
1587.143,3627.00
1588.018,3341.00
1588.893,3531.00
1589.768,3873.00
1590.644,3848.00
1591.519,2907.00
1592.393,3319.00
1593.269,3395.00
1594.143,2987.00
1595.018,3137.00
1595.892,3051.00
1596.767,2675.00
1597.641,2682.00
1598.515,2815.00
1599.391,3283.00
1600.264,2958.00
1601.138,2951.00
1602.011,2528.00
1602.886,3730.00
1603.760,3478.00
1604.633,3460.00
1605.508,3311.00
1606.381,3212.00
1607.254,3157.00
1608.127,3252.00
1609.001,2892.00
1609.874,3395.00
1610.746,3452.00
1611.619,3186.00
1612.493,3364.00
1613.365,2964.00
1614.238,3190.00
1615.110,3188.00
1615.984,3148.00
1616.855,2988.00
1617.727,3404.00
1618.599,3060.00
1619.473,3469.00
1620.344,2556.00
1621.216,3192.00
1622.087,3184.00
1622.960,3184.00
1623.832,3155.00
1624.703,3285.00
1625.574,3393.00
1626.445,3204.00
1627.317,3169.00
1628.188,3414.00
1629.059,3130.00
1629.930,3558.00
1630.802,3133.00
1631.672,3314.00
1632.543,3297.00
1633.413,3144.00
1634.283,3609.00
1635.155,3238.00
1636.025,3241.00
1636.895,3202.00
1637.765,2681.00
1638.636,3110.00
1639.506,3309.00
1640.376,3890.00
1641.245,3068.00
1642.114,3194.00
1642.985,2609.00
1643.855,2947.00
1644.724,3065.00
1645.593,3333.00
1646.462,3317.00
1647.333,3187.00
1648.201,3106.00
1649.070,3215.00
1649.939,3334.00
1650.807,3007.00
1651.676,3346.00
1652.546,3384.00
1653.414,3470.00
1654.282,3180.00
1655.150,3011.00
1656.018,3132.00
1656.888,3797.00
1657.756,3181.00
1658.623,2817.00
1659.491,2751.00
1660.359,3548.00
1661.226,3039.00
1662.095,3322.00
1662.962,3027.00
1663.830,3074.00
1664.697,2972.00
1665.564,3131.00
1666.431,3316.00
1667.297,2898.00
1668.166,2905.00
1669.033,2744.00
1669.899,3027.00
1670.766,2869.00
1671.632,3017.00
1672.499,3527.00
1673.367,3168.00
1674.233,3410.00
1675.099,3194.00
1675.965,2895.00
1676.831,3094.00
1677.696,3453.00
1678.562,5717.00
1679.430,2736.00
1680.295,2851.00
1681.161,2937.00
1682.026,2955.00
1682.891,3031.00
1683.756,3080.00
1684.621,3195.00
1685.486,3198.00
1686.353,3171.00
1687.218,3291.00
1688.083,3161.00
1688.947,3466.00
1689.812,3133.00
1690.677,3038.00
1691.541,3234.00
1692.405,2491.00
1693.269,3592.00
1694.135,3330.00
1694.999,3168.00
1695.863,3689.00
1696.727,2983.00
1697.591,3040.00
1698.455,3224.00
1699.318,3049.00
1700.182,4442.00
1701.045,3219.00
1701.909,3201.00
1702.772,3616.00
1703.637,2987.00
1704.500,2745.00
1705.363,3415.00
1706.226,3227.00
1707.089,3304.00
1707.951,3359.00
1708.814,3803.00
1709.677,3962.00
1710.539,3378.00
1711.402,3417.00
1712.264,3163.00
1713.126,3051.00
1713.988,3377.00
1714.852,3416.00
1715.714,2594.00
1716.576,2742.00
1717.438,3394.00
1718.299,2682.00
1719.161,3537.00
1720.023,3117.00
1720.884,3608.00
1721.745,3112.00
1722.607,3033.00
1723.468,2682.00
1724.329,3395.00
1725.190,3153.00
1726.051,3400.00
1726.912,2991.00
1727.772,3233.00
1728.633,3119.00
1729.494,3227.00
1730.354,3417.00
1731.214,2874.00
1732.075,3022.00
1732.935,3031.00
1733.797,3010.00
1734.657,3658.00
1735.517,3825.00
1736.377,3413.00
1737.237,3135.00
1738.096,3852.00
1738.956,3084.00
1739.816,3038.00
1740.675,3094.00
1741.534,2674.00
1742.394,3233.00
1743.253,2945.00
1744.112,3196.00
1744.971,3000.00
1745.830,3245.00
1746.689,3330.00
1747.547,3395.00
1748.406,2733.00
1749.265,3028.00
1750.123,3063.00
1750.982,3381.00
1751.840,3150.00
1752.698,3226.00
1753.556,3004.00
1754.414,3186.00
1755.272,3135.00
1756.130,3181.00
1756.988,3144.00
1757.846,3341.00
1758.703,2973.00
1759.559,3487.00
1760.417,2902.00
1761.274,3860.00
1762.131,3558.00
1762.989,3679.00
1763.846,3574.00
1764.703,3256.00
1765.560,3724.00
1766.417,3165.00
1767.273,2938.00
1768.130,3177.00
1768.987,3013.00
1769.843,3396.00
1770.700,3498.00
1771.556,3013.00
1772.412,3538.00
1773.268,3095.00
1774.125,3500.00
1774.980,3221.00
1775.836,3514.00
1776.692,3100.00
1777.546,3019.00
1778.402,3409.00
1779.257,3258.00
1780.113,2981.00
1780.968,3257.00
1781.824,3403.00
1782.679,2818.00
1783.534,3032.00
1784.389,3663.00
1785.244,3323.00
1786.099,3119.00
1786.954,3384.00
1787.808,3193.00
1788.661,3214.00
1789.516,3614.00
1790.370,3239.00
1791.225,3041.00
1792.079,2783.00
1792.933,3917.00
1793.787,3296.00
1794.641,3247.00
1795.495,3122.00
1796.349,3230.00
1797.201,3062.00
1798.055,2997.00
1798.908,3178.00
1799.762,3552.00
1800.615,3408.00
1801.469,3416.00
1802.322,3574.00
1803.175,3020.00
1804.028,2781.00
1804.880,3709.00
1805.732,3376.00
1806.585,3129.00
1807.438,3173.00
1808.291,2747.00
1809.143,2935.00
1809.996,2816.00
1810.846,3958.00
1811.699,3291.00
1812.551,3070.00
1813.403,3350.00
1814.255,3233.00
1815.107,3213.00
1815.959,3838.00
1816.809,3260.00
1817.661,3296.00
1818.512,3151.00
1819.364,3206.00
1820.215,3309.00
1821.067,2912.00
1821.918,3017.00
1822.768,3430.00
1823.619,3421.00
1824.470,3062.00
1825.321,3340.00
1826.172,3071.00
1827.021,3289.00
1827.871,3470.00
1828.722,3225.00
1829.572,3241.00
1830.423,3194.00
1831.273,3046.00
1832.122,3172.00
1832.972,3118.00
1833.822,2863.00
1834.672,3341.00
1835.522,3396.00
1836.370,3005.00
1837.220,3308.00
1838.070,2743.00
1838.919,2518.00
1839.769,3016.00
1840.616,3426.00
1841.466,3324.00
1842.315,2923.00
1843.164,3836.00
1844.013,2965.00
1844.860,2905.00
1845.709,2977.00
1846.558,3486.00
1847.407,2845.00
1848.254,3331.00
1849.102,3231.00
1849.951,2979.00
1850.799,2657.00
1851.648,3034.00
1852.494,3246.00
1853.342,3230.00
1854.190,3543.00
1855.038,3554.00
1855.884,3208.00
1856.732,4044.00
1857.580,3600.00
1858.428,3039.00
1859.273,2928.00
1860.121,2945.00
1860.968,4060.00
1861.816,3549.00
1862.661,3562.00
1863.508,3772.00
1864.355,3438.00
1865.202,3548.00
1866.047,3314.00
1866.894,3568.00
1867.741,3753.00
1868.586,3360.00
1869.432,3340.00
1870.279,3145.00
1871.125,2992.00
1871.970,3862.00
1872.816,3280.00
1873.662,2741.00
1874.506,3331.00
1875.352,3488.00
1876.198,3628.00
1877.044,3804.00
1877.888,3163.00
1878.734,3207.00
1879.579,3036.00
1880.423,2868.00
1881.268,3121.00
1882.113,3463.00
1882.959,3146.00
1883.802,3000.00
1884.647,3584.00
1885.492,3215.00
1886.335,3135.00
1887.180,3001.00
1888.025,3228.00
1888.867,2981.00
1889.712,3330.00
1890.556,2979.00
1891.399,3479.00
1892.243,3557.00
1893.087,3086.00
1893.930,3308.00
1894.774,3311.00
1895.618,3562.00
1896.460,2835.00
1897.304,3100.00
1898.147,3057.00
1898.989,2931.00
1899.833,3388.00
1900.676,3002.00
1901.518,3476.00
1902.361,3526.00
1903.202,3054.00
1904.046,3029.00
1904.889,3197.00
1905.730,3101.00
1906.573,2913.00
1907.415,3273.00
1908.256,3607.00
1909.099,3306.00
1909.941,3323.00
1910.782,3366.00
1911.624,2998.00
1912.465,3379.00
1913.307,3256.00
1914.149,2951.00
1914.989,3488.00
1915.831,3140.00
1916.671,3626.00
1917.513,3148.00
1918.355,3275.00
1919.195,3412.00
1920.036,3276.00
1920.876,3208.00
1921.717,3337.00
1922.558,3219.00
1923.398,3249.00
1924.239,3216.00
1925.078,3513.00
1925.919,2935.00
1926.760,3350.00
1927.599,3091.00
1928.440,3445.00
1929.279,3226.00
1930.119,3670.00
1930.958,3125.00
1931.798,3223.00
1932.638,3099.00
1933.477,3249.00
1934.317,2996.00
1935.155,3031.00
1935.995,3326.00
1936.833,3043.00
1937.673,3022.00
1938.512,3673.00
1939.350,2835.00
1940.190,3113.00
1941.027,3126.00
1941.867,3068.00
1942.704,3219.00
1943.543,3214.00
1944.381,3390.00
1945.220,3564.00
1946.057,3232.00
1946.896,3506.00
1947.733,3277.00
1948.572,2972.00
1949.408,3580.00
1950.247,3328.00
1951.085,3377.00
1951.922,3530.00
1952.760,3008.00
1953.597,3601.00
1954.435,2600.00
1955.271,3407.00
1956.109,3045.00
1956.945,2793.00
1957.783,3343.00
1958.619,3024.00
1959.456,3195.00
1960.292,3307.00
1961.129,3554.00
1961.965,3750.00
1962.802,2984.00
1963.638,2958.00
1964.475,3267.00
1965.310,3293.00
1966.145,3281.00
1966.982,3052.00
1967.817,2912.00
1968.654,3203.00
1969.489,2995.00
1970.325,3235.00
1971.160,2992.00
1971.996,3421.00
1972.831,3450.00
1973.667,3123.00
1974.501,3647.00
1975.337,3505.00
1976.171,3127.00
1977.006,3465.00
1977.841,3107.00
1978.675,3467.00
1979.511,3846.00
1980.345,2991.00
1981.180,3387.00
1982.014,3247.00
1982.849,2910.00
1983.682,3084.00
1984.516,3054.00
1985.351,2794.00
1986.184,2698.00
1987.019,2696.00
1987.852,2525.00
1988.687,2773.00
1989.519,2968.00
1990.352,3241.00
1991.187,2701.00
1992.019,3015.00
1992.854,3347.00
1993.686,2952.00
1994.518,3031.00
1995.352,2559.00
1996.185,2302.00
1997.019,2859.00
1997.851,2617.00
1998.682,2706.00
1999.516,2715.00
2000.348,2484.00
