RamanScope Measure Spectrum Data V3.72

<< MEASURE CONDITION >>
Exposure Type,Aver
Exposure Time [sec],20
Exposure Count,2
Measure Time,2024/02/15 21:03:46
Data Name,""
Data Comment,""
Rayleigh Wave[nm],532.0

<< SAMPLE SPECTRUM >>
Wave[dcm-1],No36
96.716,10.00
97.759,-3.00
98.802,-1.00
99.846,-16.00
100.886,-2.00
101.929,19.00
102.972,23.50
104.015,-17.50
105.057,45.50
106.100,-40.50
107.142,-22.50
108.184,-29.00
109.226,13.00
110.268,33.50
111.310,63.50
112.352,-5.00
113.393,7.50
114.435,22.00
115.476,-5.50
116.517,39.50
117.558,-9.00
118.599,39.50
119.640,27.00
120.681,50.00
121.722,3.00
122.762,-1.00
123.803,-21.00
124.843,50.00
125.883,-55.00
126.923,-29.00
127.963,35.00
129.001,10.50
130.041,15.50
131.080,41.50
132.120,-1.00
133.159,14.00
134.199,-1.50
135.238,-16.00
136.277,-12.50
137.316,96.00
138.355,-3.00
139.393,5.00
140.432,-42.00
141.470,-25.50
142.509,43.50
143.547,31.00
144.585,2.00
145.623,82.50
146.661,31.00
147.699,75.00
148.736,123.50
149.774,214.00
150.811,293.00
151.849,278.50
152.886,345.00
153.923,438.00
154.960,548.00
155.997,713.50
157.034,841.50
158.072,927.00
159.109,1135.50
160.145,1253.00
161.182,1373.00
162.218,1542.00
163.254,1645.00
164.290,1834.00
165.326,1909.00
166.361,1997.00
167.397,2109.50
168.432,2069.50
169.468,2178.00
170.503,2238.50
171.538,2284.00
172.573,2319.00
173.608,2339.50
174.643,2358.50
175.677,2401.00
176.712,2493.50
177.746,2495.00
178.781,2514.00
179.815,2603.50
180.849,2617.00
181.883,2650.50
182.917,2757.00
183.951,2740.00
184.984,2762.00
186.020,2778.00
187.053,2821.00
188.087,2834.00
189.120,2749.00
190.153,2703.00
191.186,2739.00
192.219,2682.00
193.251,2596.50
194.284,2646.50
195.317,2672.00
196.349,2723.00
197.381,2711.50
198.413,2735.00
199.445,2681.50
200.477,2708.00
201.509,2774.00
202.543,2746.00
203.575,2699.00
204.606,2864.00
205.637,3645.50
206.669,2840.00
207.700,2812.50
208.731,2839.50
209.762,2886.00
210.792,2877.50
211.823,3016.50
212.854,3005.00
213.884,2966.50
214.914,3041.50
215.947,3008.00
216.977,3151.50
218.007,3158.50
219.037,3227.50
220.066,3287.00
221.096,3388.50
222.126,3437.50
223.155,3490.50
224.184,3536.50
225.214,3572.00
226.245,3727.50
227.274,3843.50
228.302,3770.00
229.331,3844.50
230.360,3889.50
231.388,3863.50
232.417,3891.50
233.445,3854.00
234.473,3853.00
235.501,3801.50
236.531,3700.50
237.559,3676.50
238.587,3519.50
239.614,3454.00
240.642,3394.00
241.669,3396.50
242.696,3309.50
243.724,3265.50
244.753,3245.00
245.780,3196.50
246.806,3156.00
247.833,3194.50
248.860,3111.00
249.886,3107.50
250.913,3132.50
251.939,3143.50
252.967,3144.00
253.993,3122.50
255.019,3206.00
256.045,3189.50
257.070,3147.00
258.096,3184.50
259.121,3156.50
260.147,3162.00
261.174,3112.00
262.199,3078.00
263.224,3123.50
264.249,3118.50
265.274,3120.00
266.298,3104.50
267.323,3178.00
268.349,3257.50
269.374,3186.00
270.398,3227.00
271.422,3197.00
272.446,3232.00
273.470,3275.50
274.496,3224.00
275.519,3277.50
276.543,3281.00
277.566,3326.50
278.589,3369.50
279.613,3437.50
280.636,3457.50
281.661,3492.00
282.684,3540.50
283.706,3652.00
284.729,3612.50
285.751,3601.50
286.774,3692.00
287.798,3638.50
288.820,3631.00
289.842,3708.50
290.864,3708.50
291.886,3650.50
292.910,3690.50
293.932,3613.00
294.953,3677.50
295.974,3579.50
296.996,3552.00
298.017,3583.50
299.040,3443.00
300.061,3356.00
301.082,3330.00
302.102,3288.00
303.123,3311.50
304.143,3263.50
305.166,3146.50
306.186,3124.00
307.206,3089.50
308.226,3155.00
309.246,3014.00
310.268,2990.00
311.288,2939.50
312.307,2842.00
313.327,2877.50
314.346,2771.50
315.368,2783.50
316.387,2776.00
317.406,2726.00
318.425,2736.00
319.443,2733.00
320.464,2666.50
321.483,2690.50
322.501,2569.00
323.520,2564.00
324.538,2580.50
325.558,2571.00
326.576,2516.00
327.594,2603.50
328.612,2516.50
329.629,2548.50
330.649,2422.00
331.666,2464.50
332.684,2440.00
333.701,2499.00
334.718,2465.50
335.737,2428.00
336.754,2424.50
337.771,2386.50
338.787,2399.50
339.806,2432.00
340.823,2390.00
341.839,2376.50
342.855,2384.00
343.871,2418.00
344.889,2370.50
345.905,2346.50
346.921,2374.50
347.937,2304.50
348.954,2337.50
349.970,2371.00
350.985,2359.50
352.000,2324.50
353.017,2335.50
354.032,2356.00
355.047,2356.00
356.062,2282.50
357.077,2321.50
358.093,2314.00
359.108,2333.50
360.122,2264.00
361.136,2346.00
362.152,2309.00
363.166,2358.50
364.180,2320.50
365.194,2321.00
366.210,2329.50
367.223,2316.00
368.237,2293.00
369.250,2315.50
370.265,2240.50
371.278,2300.50
372.291,2191.00
373.304,2383.00
374.319,2367.00
375.332,2334.00
376.344,2299.50
377.357,2367.50
378.371,2356.50
379.383,2332.50
380.395,2409.50
381.407,2366.00
382.421,2363.00
383.433,2402.50
384.445,2431.50
385.456,2381.00
386.470,2435.50
387.481,2418.50
388.492,2451.50
389.505,2489.00
390.516,2482.50
391.527,2511.00
392.538,2467.00
393.551,2474.50
394.561,2441.50
395.572,2521.50
396.582,2541.00
397.594,2522.50
398.604,2507.50
399.614,2570.00
400.624,2551.50
401.636,2497.00
402.646,2492.50
403.655,2525.00
404.667,2584.50
405.676,2596.00
406.685,2489.00
407.694,2563.50
408.705,2497.50
409.714,2486.50
410.723,2510.50
411.734,2482.00
412.742,2466.00
413.751,2493.00
414.759,2441.00
415.769,2430.50
416.777,2394.00
417.785,2404.00
418.795,2385.00
419.803,2408.50
420.811,2395.50
421.818,2344.00
422.828,2345.00
423.835,2365.00
424.842,2304.00
425.852,2311.50
426.859,2280.00
427.866,2319.50
428.874,2300.50
429.881,2214.50
430.888,2230.50
431.894,2273.50
432.902,2243.00
433.909,2234.00
434.915,2216.00
435.923,2243.50
436.929,2184.00
437.935,2254.00
438.942,2224.50
439.948,2205.00
440.953,2177.50
441.959,2209.50
442.966,2165.00
443.971,2201.50
444.976,2157.00
445.983,2235.50
446.988,2195.50
447.993,2172.00
448.999,2235.50
450.004,2154.50
451.008,2202.50
452.014,2109.50
453.019,2175.00
454.023,2173.00
455.029,2145.00
456.032,2177.50
457.036,2185.50
458.042,2170.00
459.045,2210.50
460.049,2200.50
461.052,2207.50
462.057,2213.50
463.060,2221.50
464.063,2163.00
465.068,2143.50
466.071,2216.00
467.073,2206.50
468.078,2235.50
469.080,2189.50
470.082,2221.50
471.087,2167.00
472.089,2194.00
473.091,2184.50
474.095,2185.50
475.096,2234.50
476.098,2137.00
477.101,2197.00
478.103,2213.50
479.104,2218.00
480.107,2218.00
481.108,2251.00
482.109,2233.50
483.112,2218.00
484.113,2226.50
485.114,2212.00
486.116,2224.50
487.117,2217.00
488.117,2186.50
489.119,2211.50
490.119,2184.50
491.121,2232.50
492.121,2217.00
493.121,2224.00
494.123,2197.00
495.122,2226.50
496.122,2221.00
497.123,2211.00
498.122,2227.00
499.121,2202.50
500.122,2143.50
501.121,2242.00
502.120,2164.50
503.121,2226.00
504.119,2198.00
505.118,2151.50
506.118,2171.00
507.117,2221.50
508.115,2176.50
509.115,2186.50
510.113,2144.50
511.112,2161.00
512.110,2145.50
513.108,2150.00
514.107,2131.50
515.105,2175.00
516.102,2156.50
517.101,2186.50
518.098,2097.00
519.095,2171.50
520.094,2119.00
521.091,2108.00
522.089,2104.50
523.086,2154.00
524.082,2149.50
525.081,2158.00
526.077,2068.00
527.073,2089.00
528.071,2110.00
529.067,2136.00
530.064,2200.50
531.060,2115.00
532.056,2117.50
533.053,2071.00
534.048,2067.50
535.044,2126.00
536.041,2092.00
537.036,2056.00
538.030,2036.00
539.027,2117.50
540.022,2173.00
541.019,2107.50
542.013,2103.00
543.007,2124.00
544.004,2149.00
544.998,2128.00
545.994,2080.00
546.988,2136.50
547.981,2124.00
548.977,2175.50
549.971,2153.50
550.964,2058.00
551.960,2118.50
552.953,2082.50
553.948,2122.00
554.941,2115.00
555.934,2151.50
556.929,2146.50
557.922,2162.00
558.916,2026.00
559.909,2069.50
560.901,2094.00
561.895,2124.00
562.888,2122.50
563.880,2103.50
564.874,2081.00
565.865,2086.00
566.859,2062.50
567.851,2055.00
568.842,2087.00
569.836,2077.50
570.827,2103.00
571.820,2055.50
572.811,2022.50
573.802,2081.50
574.795,2057.00
575.786,2059.50
576.779,2058.00
577.769,2076.50
578.760,2138.50
579.752,2087.00
580.742,2076.00
581.735,2098.00
582.725,2083.00
583.714,2064.00
584.706,2079.50
585.696,2085.00
586.688,2034.00
587.677,2142.00
588.667,2060.50
589.658,2055.00
590.647,2102.00
591.638,2096.00
592.627,2088.00
593.616,2059.00
594.607,2039.50
595.595,2145.00
596.586,2036.50
597.574,2062.00
598.562,2047.50
599.553,2038.50
600.541,2022.50
601.531,2110.50
602.519,2034.00
603.508,1952.00
604.496,2075.50
605.484,2044.00
606.473,2062.00
607.460,1986.50
608.450,2016.00
609.437,2025.50
610.424,2005.50
611.413,2048.00
612.400,2052.50
613.388,1966.00
614.375,1963.00
615.361,2006.50
616.350,1936.00
617.336,1915.00
618.324,1925.50
619.310,1906.50
620.298,1892.00
621.284,1926.00
622.270,1903.50
623.257,1884.50
624.243,1921.50
625.230,1868.00
626.216,1946.00
627.203,1945.50
628.188,1904.00
629.173,1917.50
630.160,1862.50
631.145,1790.00
632.131,1865.00
633.116,1826.50
634.102,1818.50
635.087,1828.50
636.071,1847.50
637.057,1792.00
638.041,1783.50
639.027,1830.50
640.011,1784.50
640.995,1744.50
641.980,1755.50
642.964,1769.00
643.949,1723.00
644.932,1750.50
645.918,1699.00
646.901,1725.50
647.886,1727.00
648.868,1655.50
649.851,1624.50
650.836,1725.00
651.818,1621.00
652.803,1627.50
653.785,1655.50
654.769,1598.50
655.751,1638.50
656.733,1624.50
657.717,1543.00
658.699,1625.00
659.683,1615.00
660.664,1641.50
661.648,1663.00
662.629,1619.50
663.611,1522.00
664.594,1568.50
665.575,1561.00
666.558,1558.50
667.539,1583.50
668.521,1522.00
669.502,1550.00
670.484,1523.50
671.465,1542.50
672.445,1505.00
673.427,1526.00
674.407,1530.00
675.390,1458.00
676.369,1521.00
677.351,1505.50
678.331,1509.50
679.312,1510.50
680.292,1496.00
681.271,1551.00
682.253,1526.50
683.232,1507.00
684.213,1452.00
685.192,1464.00
686.172,1482.00
687.151,1398.50
688.132,1424.00
689.110,1373.50
690.089,1435.50
691.069,1450.50
692.047,1417.00
693.027,1424.50
694.005,1386.50
694.985,1375.50
695.963,1448.00
696.943,1408.50
697.920,1355.50
698.898,1328.00
699.877,1380.50
700.854,1361.50
701.833,1419.50
702.810,1344.00
703.789,1347.00
704.766,1338.50
705.745,1339.00
706.721,1349.50
707.698,1277.50
708.676,1341.00
709.653,1318.50
710.631,1326.50
711.607,1313.50
712.585,1300.50
713.561,1367.00
714.539,1260.00
715.514,1294.00
716.492,1320.00
717.467,1312.50
718.443,1260.50
719.420,1322.50
720.395,1348.50
721.372,1225.00
722.347,1288.00
723.324,1284.50
724.298,1254.50
725.275,1256.50
726.250,1240.00
727.226,1235.50
728.200,1265.50
729.176,1263.50
730.151,1203.50
731.125,1218.00
732.100,1217.00
733.074,1218.50
734.050,1180.50
735.023,1180.50
735.999,1189.00
736.972,1212.00
737.947,1203.50
738.921,1221.00
739.896,1136.00
740.869,1224.50
741.841,1185.50
742.816,1222.50
743.789,1174.00
744.763,1195.00
745.736,1198.50
746.710,1158.00
747.682,1147.50
748.656,1159.00
749.628,1141.50
750.602,1176.50
751.574,1179.50
752.548,1189.00
753.519,1161.00
754.491,1152.00
755.464,1167.00
756.435,1212.00
757.408,1118.50
758.379,1144.50
759.352,1145.50
760.323,1077.50
761.296,1114.50
762.267,1133.00
763.239,1118.50
764.209,1120.50
765.182,1122.50
766.152,1088.00
767.124,1141.00
768.094,1106.50
769.064,1091.00
770.036,1100.50
771.005,1129.50
771.977,1117.50
772.947,1094.50
773.918,1064.00
774.887,1045.00
775.858,1126.00
776.827,1097.00
777.798,1094.00
778.767,1066.00
779.738,1122.00
780.707,1084.00
781.677,1071.50
782.646,1076.50
783.614,1042.50
784.584,1085.00
785.552,1056.00
786.522,1066.50
787.490,1078.50
788.460,1032.50
789.428,1035.00
790.397,1057.50
791.365,1062.50
792.334,1048.50
793.302,1051.50
794.271,1012.00
795.238,1047.00
796.207,1035.00
797.174,1044.50
798.143,1073.00
799.109,1016.00
800.076,1029.50
801.044,1024.00
802.011,1012.00
802.979,990.50
803.945,1028.00
804.913,970.00
805.879,1041.00
806.847,1025.50
807.813,1018.50
808.780,1076.00
809.746,1043.50
810.713,1013.00
811.678,975.50
812.646,1030.00
813.611,1042.00
814.578,1020.00
815.543,903.50
816.510,992.50
817.474,989.50
818.439,947.50
819.405,1015.50
820.370,977.50
821.336,969.00
822.300,932.50
823.266,1002.50
824.230,932.50
825.196,1021.50
826.160,999.50
827.126,923.00
828.089,974.50
829.055,953.50
830.018,984.00
830.983,1031.00
831.946,960.00
832.911,976.00
833.874,960.50
834.837,991.00
835.802,983.50
836.765,921.50
837.729,1001.00
838.691,1025.50
839.656,1040.00
840.618,989.50
841.582,977.00
842.544,1003.50
843.508,1002.00
844.470,1037.50
845.434,950.50
846.395,994.50
847.359,1003.00
848.320,987.00
849.283,972.00
850.245,1044.50
851.208,1020.00
852.169,1009.50
853.130,1029.00
854.092,1072.00
855.053,1032.50
856.016,1051.00
856.976,1004.00
857.938,1033.00
858.899,1078.00
859.861,1068.50
860.821,1063.50
861.783,1041.00
862.743,984.00
863.704,1055.50
864.664,1023.50
865.626,1061.00
866.585,1049.00
867.546,1115.50
868.506,1066.50
869.467,1058.50
870.426,1036.00
871.387,1113.50
872.346,1046.50
873.304,1034.00
874.265,1112.00
875.223,1062.50
876.184,1053.50
877.142,1091.00
878.102,1121.50
879.060,1093.00
880.021,1080.00
880.978,1060.50
881.938,1120.00
882.896,1072.00
883.856,1148.00
884.813,1060.50
885.772,1105.00
886.730,1130.00
887.689,1108.00
888.646,1116.50
889.603,1077.00
890.562,1109.00
891.519,1115.00
892.477,1124.50
893.434,1123.50
894.392,1105.00
895.349,1138.00
896.307,1128.00
897.263,1087.00
898.221,1148.00
899.177,1135.50
900.135,1131.50
901.091,1083.00
902.048,1124.00
903.004,1168.50
903.961,1143.00
904.917,1138.50
905.874,1081.50
906.829,1151.00
907.784,1122.50
908.741,1143.00
909.696,1146.00
910.653,1095.50
911.607,1137.00
912.564,1156.50
913.518,1123.50
914.475,1210.00
915.429,1223.50
916.385,1106.00
917.339,1076.50
918.295,1117.50
919.249,1124.00
920.205,1205.50
921.158,1153.50
922.114,1150.00
923.067,1112.00
924.020,1125.00
924.976,1131.00
925.929,1048.00
926.884,1146.50
927.837,1034.00
928.791,1102.50
929.744,1089.00
930.699,1117.00
931.651,1130.00
932.606,1098.00
933.558,1157.00
934.512,1107.50
935.464,1135.00
936.418,1091.50
937.370,1099.00
938.322,1093.00
939.276,1048.00
940.227,1071.00
941.181,1111.50
942.132,1059.50
943.085,1115.00
944.036,1103.00
944.990,1115.00
945.941,1079.00
946.893,1065.00
947.844,1050.00
948.797,1010.00
949.747,1049.00
950.700,1088.50
951.650,1100.00
952.601,1088.50
953.553,1075.50
954.503,1041.00
955.455,1072.50
956.405,1051.50
957.356,1050.00
958.306,1027.00
959.258,1055.50
960.207,1032.50
961.158,1102.00
962.108,1038.50
963.059,1084.50
964.008,1081.00
964.959,1022.00
965.908,1025.00
966.856,1036.00
967.807,1037.00
968.756,1086.00
969.706,1043.00
970.654,1064.00
971.605,1064.00
972.553,993.00
973.503,1065.00
974.451,1027.50
975.401,1001.00
976.348,1015.50
977.296,1069.00
978.246,974.00
979.193,1041.00
980.142,1037.50
981.090,1024.00
982.039,1000.00
982.986,1008.00
983.935,1039.50
984.882,1030.00
985.830,1032.50
986.777,968.00
987.725,1001.00
988.672,999.50
989.618,1007.00
990.567,1041.00
991.513,976.50
992.461,1019.00
993.407,964.00
994.354,1019.50
995.300,981.00
996.248,973.00
997.193,1018.50
998.141,981.50
999.086,1000.00
1000.031,1017.00
1000.978,1055.50
1001.924,968.00
1002.870,962.00
1003.815,998.00
1004.762,950.00
1005.707,1024.00
1006.653,1000.00
1007.598,977.50
1008.542,996.00
1009.488,964.50
1010.432,956.50
1011.378,969.00
1012.322,1028.00
1013.268,1048.50
1014.212,970.00
1015.157,971.50
1016.101,991.50
1017.046,936.00
1017.990,968.00
1018.933,999.50
1019.878,999.00
1020.821,996.50
1021.766,981.00
1022.709,949.00
1023.654,1017.50
1024.596,971.50
1025.541,1001.00
1026.483,1019.50
1027.425,989.50
1028.370,991.00
1029.312,1011.50
1030.256,1007.50
1031.198,974.50
1032.141,1014.50
1033.083,1002.00
1034.027,1025.00
1034.968,984.50
1035.910,984.00
1036.853,952.50
1037.794,974.50
1038.738,965.50
1039.679,960.00
1040.621,1012.50
1041.562,991.50
1042.503,924.50
1043.446,999.50
1044.386,981.00
1045.329,954.50
1046.269,1001.50
1047.211,938.50
1048.151,1006.00
1049.093,940.50
1050.033,987.00
1050.973,972.50
1051.915,993.50
1052.854,968.50
1053.796,1002.00
1054.735,987.00
1055.677,975.00
1056.616,1014.00
1057.555,990.00
1058.496,932.50
1059.435,976.00
1060.376,977.50
1061.315,999.00
1062.255,969.50
1063.194,954.50
1064.132,964.50
1065.073,958.00
1066.011,989.00
1066.951,1002.00
1067.889,1013.00
1068.829,992.50
1069.767,1002.50
1070.705,1005.50
1071.644,939.50
1072.582,1029.00
1073.521,1030.50
1074.459,949.00
1075.398,951.50
1076.335,988.00
1077.272,961.00
1078.211,966.50
1079.148,911.00
1080.087,1007.00
1081.023,981.50
1081.962,1002.50
1082.898,1019.00
1083.835,942.00
1084.773,984.50
1085.709,969.50
1086.647,972.50
1087.583,990.00
1088.519,941.50
1089.457,996.50
1090.392,980.00
1091.330,1004.50
1092.266,994.00
1093.203,1029.50
1094.138,978.00
1095.073,965.50
1096.010,1005.50
1096.945,1009.50
1097.882,938.50
1098.817,986.00
1099.752,983.50
1100.688,952.50
1101.623,966.50
1102.559,927.50
1103.493,962.50
1104.430,954.00
1105.364,989.00
1106.298,946.50
1107.234,932.00
1108.167,977.50
1109.094,913.00
1110.019,897.50
1110.945,943.50
1111.869,950.50
1112.795,873.00
1113.720,932.50
1114.646,958.00
1115.571,897.00
1116.495,940.00
1117.420,958.00
1118.345,872.50
1119.270,902.50
1120.195,880.50
1121.118,886.00
1122.042,850.50
1122.967,874.00
1123.891,864.50
1124.816,853.00
1125.738,858.50
1126.663,895.00
1127.587,875.00
1128.511,829.50
1129.435,820.50
1130.357,831.00
1131.280,870.00
1132.204,799.50
1133.128,823.50
1134.051,857.50
1134.972,808.00
1135.896,812.50
1136.819,844.00
1137.742,838.00
1138.665,783.50
1139.586,828.00
1140.509,814.00
1141.431,807.00
1142.354,770.50
1143.276,772.50
1144.197,745.00
1145.119,762.00
1146.041,769.50
1146.964,769.50
1147.885,847.00
1148.806,769.00
1149.727,799.50
1150.649,786.00
1151.571,736.50
1152.492,855.00
1153.412,725.00
1154.333,748.50
1155.254,764.50
1156.175,726.50
1157.095,733.00
1158.016,779.50
1158.936,762.00
1159.857,755.00
1160.778,712.50
1161.697,743.50
1162.617,779.00
1163.537,788.50
1164.458,792.50
1165.376,722.50
1166.296,752.00
1167.216,727.50
1168.136,754.50
1169.056,715.50
1169.974,727.00
1170.893,736.50
1171.813,706.50
1172.732,751.50
1173.650,785.50
1174.569,726.00
1175.488,812.50
1176.407,712.50
1177.326,716.50
1178.243,795.00
1179.161,740.00
1180.080,751.50
1180.999,725.50
1181.915,734.00
1182.834,689.50
1183.752,713.00
1184.670,715.50
1185.586,691.50
1186.504,713.50
1187.422,709.00
1188.340,700.00
1189.258,737.50
1190.173,748.50
1191.091,697.50
1192.008,701.00
1192.926,694.50
1193.841,749.00
1194.758,732.50
1195.675,661.00
1196.592,722.50
1197.507,708.50
1198.424,695.50
1199.340,670.00
1200.257,747.00
1201.172,699.50
1202.088,714.00
1203.004,683.50
1203.920,720.00
1204.835,716.00
1205.750,698.00
1206.666,777.00
1207.582,771.50
1208.496,739.50
1209.412,686.50
1210.327,682.50
1211.243,672.50
1212.156,725.00
1213.071,700.00
1213.986,716.00
1214.901,722.00
1215.814,702.50
1216.729,703.00
1217.644,721.50
1218.559,669.50
1219.471,672.50
1220.386,754.00
1221.300,718.00
1222.213,642.50
1223.127,687.00
1224.041,705.50
1224.955,782.50
1225.867,698.50
1226.781,661.50
1227.694,798.50
1228.608,732.50
1229.520,736.50
1230.433,710.00
1231.346,730.00
1232.260,684.00
1233.171,749.50
1234.084,729.50
1234.997,759.00
1235.908,731.50
1236.821,714.50
1237.733,785.00
1238.646,731.00
1239.556,752.50
1240.469,747.50
1241.381,774.50
1242.293,766.00
1243.203,736.50
1244.115,796.50
1245.027,734.50
1245.937,759.50
1246.849,782.00
1247.761,752.00
1248.672,742.00
1249.582,752.50
1250.493,740.50
1251.404,765.50
1252.313,747.00
1253.225,761.50
1254.135,768.50
1255.046,743.00
1255.955,737.00
1256.866,762.00
1257.777,794.00
1258.685,781.50
1259.596,775.50
1260.506,739.00
1261.416,776.50
1262.324,795.00
1263.234,794.50
1264.144,809.00
1265.052,807.00
1265.962,771.00
1266.872,746.50
1267.779,815.50
1268.689,779.50
1269.598,771.50
1270.507,813.50
1271.415,784.50
1272.324,747.00
1273.233,777.00
1274.140,797.00
1275.048,764.00
1275.957,764.50
1276.864,797.50
1277.772,803.00
1278.681,758.50
1279.587,850.50
1280.496,775.00
1281.404,776.00
1282.312,793.00
1283.218,802.00
1284.126,791.50
1285.033,810.00
1285.939,803.50
1286.847,829.50
1287.754,777.00
1288.660,787.50
1289.567,797.00
1290.474,794.50
1291.380,778.00
1292.286,834.50
1293.193,789.00
1294.098,794.50
1295.005,767.50
1295.912,772.00
1296.816,793.50
1297.723,806.50
1298.629,804.50
1299.534,719.00
1300.440,809.50
1301.346,791.00
1302.250,810.50
1303.156,785.50
1304.062,765.00
1304.966,791.50
1305.871,786.50
1306.777,798.50
1307.680,755.50
1308.586,794.00
1309.491,818.00
1310.394,754.50
1311.299,762.50
1312.204,725.00
1313.107,791.00
1314.012,768.50
1314.917,750.50
1315.819,710.00
1316.724,778.00
1317.628,742.00
1318.531,744.00
1319.435,777.50
1320.339,819.50
1321.241,763.50
1322.145,773.50
1323.049,759.00
1323.951,781.50
1324.854,767.00
1325.756,711.50
1326.659,800.50
1327.563,740.50
1328.464,715.00
1329.367,737.00
1330.271,743.00
1331.172,761.00
1332.074,693.00
1332.977,739.50
1333.878,720.50
1334.781,710.00
1335.683,721.50
1336.584,707.00
1337.486,687.50
1338.387,666.50
1339.289,691.00
1340.191,754.50
1341.091,705.50
1341.993,689.50
1342.895,678.00
1343.794,710.00
1344.696,634.00
1345.596,725.00
1346.497,667.50
1347.398,669.00
1348.298,652.50
1349.199,649.00
1350.100,685.50
1350.999,649.50
1351.900,640.00
1352.799,660.50
1353.699,637.50
1354.600,671.00
1355.499,693.00
1356.399,644.00
1357.297,589.00
1358.198,662.50
1359.098,651.00
1359.996,632.50
1360.896,613.00
1361.796,620.00
1362.694,573.00
1363.593,615.50
1364.491,640.50
1365.391,599.00
1366.290,645.50
1367.187,620.50
1368.086,580.00
1368.984,624.00
1369.883,635.50
1370.782,630.50
1371.679,613.00
1372.577,629.00
1373.474,615.00
1374.373,615.00
1375.269,588.50
1376.168,632.50
1377.066,606.00
1377.962,607.50
1378.860,645.50
1379.756,577.00
1380.654,587.00
1381.552,630.50
1382.448,583.50
1383.346,572.00
1384.241,565.50
1385.139,613.50
1386.036,578.50
1386.931,617.00
1387.829,598.50
1388.724,618.00
1389.621,619.50
1390.516,576.50
1391.413,600.00
1392.309,552.00
1393.204,526.00
1394.101,569.00
1394.995,573.00
1395.891,531.00
1396.786,552.00
1397.682,518.50
1398.578,579.50
1399.472,610.00
1400.368,562.00
1401.262,565.00
1402.158,577.00
1403.051,571.00
1403.947,552.50
1404.840,510.50
1405.736,527.00
1406.631,581.00
1407.524,494.00
1408.419,525.50
1409.312,564.00
1410.207,537.50
1411.100,538.50
1411.995,549.50
1412.888,514.00
1413.782,503.50
1414.675,499.50
1415.569,532.00
1416.463,579.50
1417.355,531.50
1418.249,531.00
1419.141,499.50
1420.035,559.00
1420.927,519.50
1421.821,549.50
1422.713,525.00
1423.606,519.50
1424.498,532.50
1425.391,540.00
1426.282,557.00
1427.175,511.00
1428.068,533.00
1428.960,524.00
1429.852,481.00
1430.743,522.50
1431.636,554.00
1432.527,546.50
1433.419,511.00
1434.310,567.50
1435.202,503.50
1436.092,463.50
1436.984,526.00
1437.875,538.50
1438.767,528.00
1439.657,493.50
1440.548,476.50
1441.438,531.50
1442.330,438.50
1443.219,495.00
1444.111,498.00
1445.000,490.50
1445.891,504.50
1446.781,474.50
1447.672,510.50
1448.561,517.50
1449.452,516.50
1450.340,507.50
1451.231,475.50
1452.120,475.50
1453.010,483.00
1453.899,497.50
1454.789,533.00
1455.677,440.00
1456.568,520.00
1457.456,432.50
1458.346,512.50
1459.234,520.00
1460.123,471.00
1461.011,414.50
1461.901,487.50
1462.788,472.50
1463.678,476.00
1464.565,507.00
1465.454,517.50
1466.342,464.00
1467.231,459.50
1468.118,493.00
1469.006,457.50
1469.893,467.00
1470.782,456.50
1471.669,465.00
1472.557,448.50
1473.444,453.00
1474.330,506.50
1475.218,451.50
1476.105,460.50
1476.993,503.50
1477.879,470.50
1478.767,490.50
1479.652,480.00
1480.540,507.00
1481.426,518.50
1482.313,479.00
1483.199,470.50
1484.086,486.00
1484.972,451.50
1485.857,485.50
1486.744,463.00
1487.629,482.00
1488.516,440.50
1489.401,431.50
1490.287,465.00
1491.172,438.00
1492.058,484.50
1492.943,499.50
1493.828,461.00
1494.714,437.00
1495.598,476.50
1496.484,388.50
1497.368,407.50
1498.254,460.00
1499.138,428.00
1500.022,413.00
1500.907,432.50
1501.791,438.00
1502.676,452.00
1503.560,388.00
1504.445,463.00
1505.328,439.50
1506.211,476.00
1507.096,496.50
1507.979,440.00
1508.864,471.00
1509.747,430.50
1510.631,422.50
1511.514,490.50
1512.397,445.50
1513.281,445.50
1514.163,420.00
1515.047,434.00
1515.930,385.50
1516.812,453.00
1517.696,458.50
1518.578,463.00
1519.461,445.50
1520.343,416.50
1521.225,443.00
1522.108,478.50
1522.990,422.00
1523.873,481.00
1524.754,411.50
1525.635,430.00
1526.518,402.00
1527.399,479.00
1528.282,406.00
1529.163,429.50
1530.044,455.00
1530.926,397.00
1531.807,430.00
1532.689,424.50
1533.569,406.50
1534.450,436.50
1535.332,433.00
1536.212,412.50
1537.092,420.50
1537.974,406.50
1538.854,426.50
1539.735,433.00
1540.615,427.50
1541.495,412.00
1542.376,392.50
1543.255,379.50
1544.135,451.50
1545.016,464.50
1545.895,485.50
1546.774,470.00
1547.655,416.50
1548.534,376.50
1549.414,397.00
1550.293,385.50
1551.172,452.00
1552.052,424.00
1552.930,437.50
1553.809,408.00
1554.689,422.50
1555.567,364.00
1556.445,454.50
1557.325,467.50
1558.203,415.50
1559.080,416.00
1559.960,492.00
1560.838,367.00
1561.715,429.00
1562.594,396.50
1563.472,419.00
1564.349,424.50
1565.228,375.00
1566.105,449.50
1566.982,457.00
1567.861,398.50
1568.738,387.50
1569.615,374.50
1570.493,387.00
1571.370,415.50
1572.246,411.00
1573.124,391.00
1574.000,419.50
1574.877,430.50
1575.755,429.00
1576.631,426.00
1577.507,343.50
1578.384,403.50
1579.260,450.50
1580.136,425.00
1581.011,425.50
1581.889,409.50
1582.764,368.00
1583.639,413.50
1584.516,429.00
1585.391,409.00
1586.266,397.00
1587.143,400.00
1588.018,456.50
1588.893,428.00
1589.768,412.50
1590.644,415.00
1591.519,433.50
1592.393,424.50
1593.269,408.50
1594.143,356.50
1595.018,429.50
1595.892,411.00
1596.767,378.00
1597.641,398.50
1598.515,401.00
1599.391,423.50
1600.264,394.00
1601.138,364.50
1602.011,391.50
1602.886,420.50
1603.760,439.00
1604.633,434.50
1605.508,369.00
1606.381,418.00
1607.254,371.50
1608.127,404.00
1609.001,424.00
1609.874,295.00
1610.746,412.00
1611.619,404.50
1612.493,364.00
1613.365,384.50
1614.238,439.00
1615.110,402.50
1615.984,409.00
1616.855,403.50
1617.727,377.50
1618.599,403.00
1619.473,354.00
1620.344,337.50
1621.216,403.50
1622.087,402.00
1622.960,389.00
1623.832,424.00
1624.703,376.50
1625.574,418.00
1626.445,390.50
1627.317,411.50
1628.188,428.00
1629.059,427.00
1629.930,355.50
1630.802,428.00
1631.672,374.00
1632.543,396.50
1633.413,330.50
1634.283,406.00
1635.155,375.00
1636.025,358.50
1636.895,398.50
1637.765,338.00
1638.636,410.00
1639.506,395.00
1640.376,369.00
1641.245,412.00
1642.114,350.50
1642.985,383.50
1643.855,362.00
1644.724,421.50
1645.593,333.50
1646.462,418.50
1647.333,347.50
1648.201,419.00
1649.070,385.00
1649.939,299.50
1650.807,370.00
1651.676,326.50
1652.546,377.50
1653.414,390.00
1654.282,349.00
1655.150,374.00
1656.018,394.00
1656.888,360.00
1657.756,381.50
1658.623,400.50
1659.491,332.00
1660.359,420.50
1661.226,337.50
1662.095,335.00
1662.962,376.50
1663.830,358.00
1664.697,347.50
1665.564,394.50
1666.431,386.50
1667.297,389.00
1668.166,408.00
1669.033,404.00
1669.899,374.00
1670.766,395.00
1671.632,376.50
1672.499,408.00
1673.367,393.50
1674.233,360.00
1675.099,356.00
1675.965,369.50
1676.831,356.00
1677.696,358.00
1678.562,305.50
1679.430,379.50
1680.295,359.50
1681.161,379.50
1682.026,400.00
1682.891,359.00
1683.756,439.50
1684.621,361.50
1685.486,327.00
1686.353,379.00
1687.218,382.00
1688.083,387.50
1688.947,334.00
1689.812,386.00
1690.677,410.50
1691.541,358.00
1692.405,395.00
1693.269,367.00
1694.135,428.00
1694.999,355.50
1695.863,271.00
1696.727,374.00
1697.591,340.00
1698.455,371.00
1699.318,358.00
1700.182,365.50
1701.045,398.50
1701.909,333.50
1702.772,432.00
1703.637,413.50
1704.500,367.50
1705.363,363.50
1706.226,327.00
1707.089,346.50
1707.951,395.50
1708.814,375.00
1709.677,357.00
1710.539,385.50
1711.402,357.00
1712.264,357.50
1713.126,386.50
1713.988,386.00
1714.852,341.50
1715.714,378.50
1716.576,399.50
1717.438,414.50
1718.299,371.50
1719.161,401.50
1720.023,363.50
1720.884,305.50
1721.745,356.00
1722.607,375.00
1723.468,367.00
1724.329,362.00
1725.190,334.50
1726.051,363.50
1726.912,315.50
1727.772,358.50
1728.633,352.00
1729.494,401.00
1730.354,349.50
1731.214,361.00
1732.075,337.50
1732.935,337.50
1733.797,331.50
1734.657,385.00
1735.517,405.50
1736.377,336.00
1737.237,347.50
1738.096,349.00
1738.956,336.50
1739.816,303.00
1740.675,301.50
1741.534,367.00
1742.394,351.50
1743.253,349.50
1744.112,508.00
1744.971,897.50
1745.830,429.50
1746.689,362.50
1747.547,325.00
1748.406,350.00
1749.265,365.00
1750.123,405.00
1750.982,363.00
1751.840,323.50
1752.698,378.00
1753.556,387.50
1754.414,350.00
1755.272,336.50
1756.130,304.50
1756.988,343.50
1757.846,328.50
1758.703,352.00
1759.559,345.50
1760.417,315.00
1761.274,317.00
1762.131,383.00
1762.989,348.00
1763.846,338.50
1764.703,355.50
1765.560,304.00
1766.417,320.00
1767.273,355.00
1768.130,315.50
1768.987,367.00
1769.843,369.00
1770.700,299.50
1771.556,296.00
1772.412,332.00
1773.268,362.00
1774.125,344.00
1774.980,343.50
1775.836,354.00
1776.692,351.50
1777.546,371.00
1778.402,377.50
1779.257,318.00
1780.113,375.00
1780.968,379.00
1781.824,387.00
1782.679,338.00
1783.534,388.00
1784.389,297.00
1785.244,301.50
1786.099,359.50
1786.954,349.00
1787.808,264.50
1788.661,329.50
1789.516,386.50
1790.370,369.50
1791.225,365.50
1792.079,336.00
1792.933,305.50
1793.787,337.50
1794.641,370.00
1795.495,372.50
1796.349,352.00
1797.201,316.00
1798.055,319.00
1798.908,311.00
1799.762,318.50
1800.615,397.00
1801.469,356.00
1802.322,340.50
1803.175,368.00
1804.028,376.00
1804.880,326.50
1805.732,319.00
1806.585,371.50
1807.438,304.00
1808.291,332.00
1809.143,356.00
1809.996,320.50
1810.846,298.50
1811.699,328.50
1812.551,337.00
1813.403,289.50
1814.255,310.00
1815.107,386.50
1815.959,360.50
1816.809,367.50
1817.661,352.50
1818.512,329.50
1819.364,336.50
1820.215,291.50
1821.067,344.00
1821.918,310.50
1822.768,338.50
1823.619,337.50
1824.470,339.50
1825.321,288.50
1826.172,370.00
1827.021,302.50
1827.871,314.00
1828.722,344.00
1829.572,372.50
1830.423,370.00
1831.273,348.50
1832.122,315.00
1832.972,356.50
1833.822,323.50
1834.672,279.50
1835.522,347.50
1836.370,299.00
1837.220,353.00
1838.070,298.00
1838.919,341.50
1839.769,332.50
1840.616,314.50
1841.466,340.00
1842.315,289.50
1843.164,305.00
1844.013,304.50
1844.860,312.00
1845.709,347.50
1846.558,322.00
1847.407,342.00
1848.254,320.00
1849.102,294.00
1849.951,266.00
1850.799,313.50
1851.648,328.00
1852.494,299.50
1853.342,311.50
1854.190,317.50
1855.038,317.00
1855.884,325.00
1856.732,324.00
1857.580,376.00
1858.428,358.00
1859.273,342.00
1860.121,326.50
1860.968,313.50
1861.816,342.50
1862.661,338.50
1863.508,340.00
1864.355,316.50
1865.202,280.00
1866.047,376.00
1866.894,309.00
1867.741,376.00
1868.586,312.00
1869.432,307.00
1870.279,336.00
1871.125,324.00
1871.970,359.50
1872.816,262.00
1873.662,319.50
1874.506,330.00
1875.352,349.50
1876.198,299.50
1877.044,291.00
1877.888,301.50
1878.734,334.50
1879.579,363.00
1880.423,319.50
1881.268,326.00
1882.113,300.50
1882.959,285.00
1883.802,292.50
1884.647,324.50
1885.492,319.50
1886.335,326.50
1887.180,266.50
1888.025,324.50
1888.867,296.50
1889.712,309.50
1890.556,358.50
1891.399,349.50
1892.243,351.50
1893.087,307.00
1893.930,361.50
1894.774,296.00
1895.618,351.00
1896.460,275.00
1897.304,297.50
1898.147,346.00
1898.989,353.50
1899.833,330.00
1900.676,289.00
1901.518,375.00
1902.361,314.00
1903.202,300.50
1904.046,308.00
1904.889,285.50
1905.730,361.00
1906.573,312.50
1907.415,362.00
1908.256,292.50
1909.099,345.00
1909.941,263.50
1910.782,327.00
1911.624,278.50
1912.465,260.00
1913.307,332.50
1914.149,313.50
1914.989,293.50
1915.831,316.50
1916.671,328.50
1917.513,335.50
1918.355,338.00
1919.195,321.50
1920.036,311.00
1920.876,318.00
1921.717,339.50
1922.558,330.00
1923.398,326.00
1924.239,290.00
1925.078,312.00
1925.919,356.50
1926.760,377.00
1927.599,289.50
1928.440,325.50
1929.279,301.50
1930.119,349.50
1930.958,358.00
1931.798,312.50
1932.638,312.00
1933.477,306.00
1934.317,358.00
1935.155,312.50
1935.995,337.50
1936.833,290.50
1937.673,275.00
1938.512,259.00
1939.350,347.50
1940.190,289.50
1941.027,318.00
1941.867,301.50
1942.704,288.00
1943.543,340.00
1944.381,330.50
1945.220,276.00
1946.057,364.00
1946.896,306.00
1947.733,273.00
1948.572,342.50
1949.408,323.50
1950.247,319.50
1951.085,335.00
1951.922,333.50
1952.760,292.00
1953.597,331.00
1954.435,363.50
1955.271,312.00
1956.109,294.50
1956.945,332.00
1957.783,293.50
1958.619,314.50
1959.456,333.00
1960.292,314.00
1961.129,368.00
1961.965,287.00
1962.802,319.50
1963.638,274.00
1964.475,327.00
1965.310,332.00
1966.145,316.00
1966.982,299.00
1967.817,306.00
1968.654,325.00
1969.489,327.50
1970.325,358.50
1971.160,281.50
1971.996,326.50
1972.831,316.00
1973.667,306.50
1974.501,296.50
1975.337,284.50
1976.171,273.50
1977.006,350.00
1977.841,288.50
1978.675,351.00
1979.511,300.50
1980.345,288.50
1981.180,347.00
1982.014,341.50
1982.849,298.50
1983.682,295.50
1984.516,304.50
1985.351,332.50
1986.184,326.50
1987.019,312.50
1987.852,349.50
1988.687,285.50
1989.519,302.50
1990.352,327.00
1991.187,311.00
1992.019,356.00
1992.854,336.50
1993.686,301.00
1994.518,319.50
1995.352,334.00
1996.185,352.50
1997.019,306.00
1997.851,300.00
1998.682,265.00
1999.516,337.00
2000.348,332.50

<< BACKGROUND SPECTRUM >>
Wave[dcm-1],No36
96.716,2555.00
97.759,2377.00
98.802,2323.00
99.846,2951.00
100.886,2575.00
101.929,2750.00
102.972,2755.00
104.015,2658.00
105.057,2723.00
106.100,2243.00
107.142,2645.00
108.184,3031.00
109.226,2865.00
110.268,3026.00
111.310,3294.00
112.352,2878.00
113.393,2983.00
114.435,2790.00
115.476,3089.00
116.517,3092.00
117.558,2604.00
118.599,2922.00
119.640,3272.00
120.681,3238.00
121.722,3192.00
122.762,2904.00
123.803,2756.00
124.843,3100.00
125.883,3428.00
126.923,3604.00
127.963,3281.00
129.001,3564.00
130.041,4001.00
131.080,3237.00
132.120,3176.00
133.159,3551.00
134.199,3625.00
135.238,3190.00
136.277,3534.00
137.316,3648.00
138.355,3627.00
139.393,3218.00
140.432,3357.00
141.470,3473.00
142.509,3173.00
143.547,3770.00
144.585,2988.00
145.623,3378.00
146.661,3167.00
147.699,3499.00
148.736,3601.00
149.774,3212.00
150.811,3460.00
151.849,3962.00
152.886,3455.00
153.923,3678.00
154.960,3141.00
155.997,3909.00
157.034,4900.00
158.072,3610.00
159.109,4057.00
160.145,4210.00
161.182,3251.00
162.218,3492.00
163.254,3361.00
164.290,3267.00
165.326,4005.00
166.361,3907.00
167.397,3485.00
168.432,3763.00
169.468,3426.00
170.503,3686.00
171.538,3382.00
172.573,3718.00
173.608,3250.00
174.643,3760.00
175.677,3653.00
176.712,3805.00
177.746,3825.00
178.781,3349.00
179.815,2708.00
180.849,3811.00
181.883,3315.00
182.917,2779.00
183.951,3118.00
184.984,3833.00
186.020,3338.00
187.053,3658.00
188.087,3254.00
189.120,3524.00
190.153,3678.00
191.186,3664.00
192.219,3808.00
193.251,3716.00
194.284,3848.00
195.317,3853.00
196.349,10649.00
197.381,3433.00
198.413,3448.00
199.445,3312.00
200.477,3570.00
201.509,3582.00
202.543,3502.00
203.575,3968.00
204.606,3628.00
205.637,4425.00
206.669,3140.00
207.700,3716.00
208.731,3609.00
209.762,3241.00
210.792,3290.00
211.823,3632.00
212.854,3252.00
213.884,4403.00
214.914,3699.00
215.947,3589.00
216.977,3648.00
218.007,3572.00
219.037,3846.00
220.066,3347.00
221.096,3806.00
222.126,3180.00
223.155,3417.00
224.184,3749.00
225.214,4275.00
226.245,3900.00
227.274,3284.00
228.302,3722.00
229.331,3719.00
230.360,3463.00
231.388,3420.00
232.417,3240.00
233.445,3640.00
234.473,3398.00
235.501,3750.00
236.531,3761.00
237.559,3673.00
238.587,3325.00
239.614,3317.00
240.642,3657.00
241.669,3687.00
242.696,3706.00
243.724,3694.00
244.753,4050.00
245.780,3446.00
246.806,3251.00
247.833,3605.00
248.860,3488.00
249.886,3593.00
250.913,3209.00
251.939,3527.00
252.967,3482.00
253.993,3508.00
255.019,3903.00
256.045,3578.00
257.070,4071.00
258.096,3284.00
259.121,3717.00
260.147,3534.00
261.174,3481.00
262.199,3439.00
263.224,3604.00
264.249,3907.00
265.274,4105.00
266.298,3586.00
267.323,3631.00
268.349,3860.00
269.374,3235.00
270.398,3226.00
271.422,3737.00
272.446,3335.00
273.470,3156.00
274.496,3778.00
275.519,3749.00
276.543,3898.00
277.566,3950.00
278.589,3880.00
279.613,3741.00
280.636,3718.00
281.661,3817.00
282.684,3853.00
283.706,3909.00
284.729,4163.00
285.751,3024.00
286.774,3983.00
287.798,3415.00
288.820,3083.00
289.842,3303.00
290.864,3325.00
291.886,3678.00
292.910,3463.00
293.932,4102.00
294.953,3550.00
295.974,3602.00
296.996,3736.00
298.017,3526.00
299.040,3377.00
300.061,3741.00
301.082,3412.00
302.102,3296.00
303.123,3784.00
304.143,3551.00
305.166,3542.00
306.186,3785.00
307.206,3373.00
308.226,3688.00
309.246,3111.00
310.268,3861.00
311.288,3491.00
312.307,3251.00
313.327,3509.00
314.346,3787.00
315.368,3007.00
316.387,3611.00
317.406,3638.00
318.425,3559.00
319.443,3466.00
320.464,3143.00
321.483,4010.00
322.501,3389.00
323.520,4010.00
324.538,3456.00
325.558,4023.00
326.576,3625.00
327.594,3495.00
328.612,3408.00
329.629,3125.00
330.649,3846.00
331.666,3570.00
332.684,3135.00
333.701,3725.00
334.718,3158.00
335.737,3433.00
336.754,3733.00
337.771,3834.00
338.787,3195.00
339.806,3445.00
340.823,3426.00
341.839,3587.00
342.855,3440.00
343.871,3598.00
344.889,3354.00
345.905,3852.00
346.921,3723.00
347.937,4344.00
348.954,4137.00
349.970,3668.00
350.985,3560.00
352.000,3131.00
353.017,3752.00
354.032,3119.00
355.047,3821.00
356.062,3477.00
357.077,3406.00
358.093,3953.00
359.108,3707.00
360.122,3691.00
361.136,3479.00
362.152,3965.00
363.166,3230.00
364.180,3127.00
365.194,3983.00
366.210,3415.00
367.223,3299.00
368.237,3396.00
369.250,3590.00
370.265,3426.00
371.278,3927.00
372.291,3758.00
373.304,3017.00
374.319,3745.00
375.332,3849.00
376.344,4102.00
377.357,3437.00
378.371,3850.00
379.383,3394.00
380.395,4339.00
381.407,4076.00
382.421,3447.00
383.433,3429.00
384.445,3372.00
385.456,3539.00
386.470,3077.00
387.481,3974.00
388.492,3894.00
389.505,3213.00
390.516,3946.00
391.527,3466.00
392.538,3513.00
393.551,3673.00
394.561,4379.00
395.572,3692.00
396.582,3585.00
397.594,3766.00
398.604,3398.00
399.614,3615.00
400.624,3388.00
401.636,3431.00
402.646,3541.00
403.655,3193.00
404.667,3382.00
405.676,3385.00
406.685,4334.00
407.694,3878.00
408.705,3027.00
409.714,3129.00
410.723,3278.00
411.734,3289.00
412.742,3400.00
413.751,3611.00
414.759,3635.00
415.769,3601.00
416.777,3830.00
417.785,3545.00
418.795,3399.00
419.803,3570.00
420.811,3274.00
421.818,3981.00
422.828,3431.00
423.835,3399.00
424.842,3441.00
425.852,3300.00
426.859,3675.00
427.866,3679.00
428.874,3622.00
429.881,3530.00
430.888,3813.00
431.894,3591.00
432.902,3567.00
433.909,4549.00
434.915,3661.00
435.923,4254.00
436.929,3083.00
437.935,3470.00
438.942,3394.00
439.948,3535.00
440.953,4100.00
441.959,3175.00
442.966,3989.00
443.971,3760.00
444.976,3210.00
445.983,3588.00
446.988,3482.00
447.993,4022.00
448.999,3628.00
450.004,3556.00
451.008,3365.00
452.014,4108.00
453.019,3860.00
454.023,3260.00
455.029,3257.00
456.032,3998.00
457.036,3472.00
458.042,2913.00
459.045,3396.00
460.049,3738.00
461.052,4060.00
462.057,3748.00
463.060,3959.00
464.063,3405.00
465.068,3476.00
466.071,3276.00
467.073,3905.00
468.078,3150.00
469.080,3087.00
470.082,3544.00
471.087,3461.00
472.089,3602.00
473.091,3801.00
474.095,4030.00
475.096,3445.00
476.098,3435.00
477.101,3765.00
478.103,3294.00
479.104,4192.00
480.107,3467.00
481.108,3047.00
482.109,4167.00
483.112,4181.00
484.113,4612.00
485.114,3770.00
486.116,3566.00
487.117,3875.00
488.117,3662.00
489.119,3708.00
490.119,3780.00
491.121,3225.00
492.121,3058.00
493.121,2901.00
494.123,3601.00
495.122,3657.00
496.122,3535.00
497.123,4536.00
498.122,3375.00
499.121,3646.00
500.122,3602.00
501.121,3167.00
502.120,3160.00
503.121,3259.00
504.119,3272.00
505.118,3816.00
506.118,3315.00
507.117,3292.00
508.115,3718.00
509.115,3556.00
510.113,3101.00
511.112,3827.00
512.110,3512.00
513.108,3848.00
514.107,3916.00
515.105,3743.00
516.102,3946.00
517.101,3513.00
518.098,3601.00
519.095,4040.00
520.094,3415.00
521.091,3425.00
522.089,3771.00
523.086,3355.00
524.082,3696.00
525.081,3602.00
526.077,4787.00
527.073,4567.00
528.071,3522.00
529.067,3356.00
530.064,3364.00
531.060,3174.00
532.056,3415.00
533.053,3909.00
534.048,3777.00
535.044,3549.00
536.041,3697.00
537.036,3618.00
538.030,3746.00
539.027,3798.00
540.022,3142.00
541.019,3539.00
542.013,3804.00
543.007,3656.00
544.004,3504.00
544.998,3512.00
545.994,4110.00
546.988,3924.00
547.981,3440.00
548.977,4157.00
549.971,3653.00
550.964,3848.00
551.960,3605.00
552.953,3600.00
553.948,3823.00
554.941,3390.00
555.934,3217.00
556.929,3735.00
557.922,3288.00
558.916,3875.00
559.909,4065.00
560.901,3614.00
561.895,3606.00
562.888,3268.00
563.880,3731.00
564.874,3919.00
565.865,3796.00
566.859,3208.00
567.851,4084.00
568.842,3479.00
569.836,3555.00
570.827,3261.00
571.820,3636.00
572.811,3772.00
573.802,3531.00
574.795,3310.00
575.786,3851.00
576.779,3717.00
577.769,3221.00
578.760,3587.00
579.752,3208.00
580.742,3399.00
581.735,3703.00
582.725,3327.00
583.714,3803.00
584.706,3253.00
585.696,3542.00
586.688,3794.00
587.677,3482.00
588.667,3706.00
589.658,3510.00
590.647,3669.00
591.638,3617.00
592.627,3393.00
593.616,3145.00
594.607,3681.00
595.595,3495.00
596.586,3194.00
597.574,3890.00
598.562,3927.00
599.553,3191.00
600.541,3606.00
601.531,3681.00
602.519,3481.00
603.508,3758.00
604.496,3690.00
605.484,3633.00
606.473,3502.00
607.460,3442.00
608.450,3469.00
609.437,3756.00
610.424,3899.00
611.413,3108.00
612.400,3253.00
613.388,3570.00
614.375,3437.00
615.361,3439.00
616.350,3328.00
617.336,8439.00
618.324,3889.00
619.310,3398.00
620.298,3235.00
621.284,3668.00
622.270,3271.00
623.257,3603.00
624.243,3576.00
625.230,3810.00
626.216,3501.00
627.203,3858.00
628.188,3451.00
629.173,3392.00
630.160,3292.00
631.145,2722.00
632.131,3345.00
633.116,3190.00
634.102,3637.00
635.087,3805.00
636.071,3765.00
637.057,3307.00
638.041,3108.00
639.027,3231.00
640.011,3399.00
640.995,3271.00
641.980,3279.00
642.964,3369.00
643.949,3914.00
644.932,2783.00
645.918,3342.00
646.901,3562.00
647.886,3307.00
648.868,3401.00
649.851,3187.00
650.836,2893.00
651.818,3172.00
652.803,3751.00
653.785,3482.00
654.769,3703.00
655.751,3662.00
656.733,3924.00
657.717,3086.00
658.699,3560.00
659.683,3290.00
660.664,3120.00
661.648,3328.00
662.629,3301.00
663.611,3308.00
664.594,3088.00
665.575,3109.00
666.558,3440.00
667.539,3078.00
668.521,3356.00
669.502,3372.00
670.484,3355.00
671.465,3249.00
672.445,3460.00
673.427,3229.00
674.407,3209.00
675.390,3586.00
676.369,3322.00
677.351,2949.00
678.331,3611.00
679.312,3386.00
680.292,3248.00
681.271,2944.00
682.253,3515.00
683.232,3067.00
684.213,3253.00
685.192,3692.00
686.172,3952.00
687.151,3391.00
688.132,3455.00
689.110,3607.00
690.089,3689.00
691.069,2860.00
692.047,2826.00
693.027,2942.00
694.005,3455.00
694.985,4030.00
695.963,3460.00
696.943,3256.00
697.920,3016.00
698.898,3798.00
699.877,3617.00
700.854,3257.00
701.833,3180.00
702.810,3729.00
703.789,3464.00
704.766,4463.00
705.745,3918.00
706.721,3160.00
707.698,3755.00
708.676,3024.00
709.653,3259.00
710.631,3644.00
711.607,3364.00
712.585,3399.00
713.561,3060.00
714.539,3902.00
715.514,3280.00
716.492,3061.00
717.467,3759.00
718.443,3040.00
719.420,3660.00
720.395,3692.00
721.372,3523.00
722.347,3659.00
723.324,3213.00
724.298,3373.00
725.275,3117.00
726.250,3306.00
727.226,3171.00
728.200,2930.00
729.176,3258.00
730.151,3614.00
731.125,3813.00
732.100,2970.00
733.074,3313.00
734.050,3197.00
735.023,3041.00
735.999,3286.00
736.972,3213.00
737.947,3718.00
738.921,3379.00
739.896,3638.00
740.869,3428.00
741.841,3263.00
742.816,3781.00
743.789,3079.00
744.763,3064.00
745.736,3297.00
746.710,3179.00
747.682,3122.00
748.656,3311.00
749.628,3273.00
750.602,3287.00
751.574,3395.00
752.548,4172.00
753.519,3482.00
754.491,2918.00
755.464,3146.00
756.435,3931.00
757.408,3612.00
758.379,3472.00
759.352,2881.00
760.323,3025.00
761.296,3238.00
762.267,3364.00
763.239,3065.00
764.209,3547.00
765.182,4459.00
766.152,3641.00
767.124,3089.00
768.094,3151.00
769.064,3498.00
770.036,3003.00
771.005,3631.00
771.977,3159.00
772.947,3267.00
773.918,3753.00
774.887,3291.00
775.858,3095.00
776.827,3218.00
777.798,3254.00
778.767,3850.00
779.738,3263.00
780.707,3214.00
781.677,3349.00
782.646,3128.00
783.614,3724.00
784.584,3351.00
785.552,3497.00
786.522,2951.00
787.490,3265.00
788.460,3177.00
789.428,3195.00
790.397,3687.00
791.365,2975.00
792.334,3203.00
793.302,3386.00
794.271,3427.00
795.238,3151.00
796.207,3150.00
797.174,3575.00
798.143,2997.00
799.109,3698.00
800.076,3203.00
801.044,2880.00
802.011,3055.00
802.979,3138.00
803.945,3292.00
804.913,3950.00
805.879,3192.00
806.847,2911.00
807.813,3609.00
808.780,3164.00
809.746,3221.00
810.713,3673.00
811.678,2946.00
812.646,3151.00
813.611,3193.00
814.578,2958.00
815.543,3691.00
816.510,2861.00
817.474,3167.00
818.439,3243.00
819.405,3465.00
820.370,3118.00
821.336,2999.00
822.300,3451.00
823.266,3175.00
824.230,3467.00
825.196,3252.00
826.160,3607.00
827.126,3658.00
828.089,4027.00
829.055,3330.00
830.018,3337.00
830.983,4035.00
831.946,3104.00
832.911,3102.00
833.874,3909.00
834.837,3106.00
835.802,3167.00
836.765,3773.00
837.729,3100.00
838.691,3206.00
839.656,3541.00
840.618,3418.00
841.582,3514.00
842.544,3553.00
843.508,3712.00
844.470,2983.00
845.434,2913.00
846.395,2740.00
847.359,3151.00
848.320,2921.00
849.283,3103.00
850.245,3127.00
851.208,3520.00
852.169,3203.00
853.130,2978.00
854.092,3394.00
855.053,3187.00
856.016,3217.00
856.976,4351.00
857.938,3213.00
858.899,3264.00
859.861,2915.00
860.821,3139.00
861.783,2595.00
862.743,3298.00
863.704,3489.00
864.664,2770.00
865.626,3367.00
866.585,3095.00
867.546,3285.00
868.506,3335.00
869.467,2745.00
870.426,3342.00
871.387,3471.00
872.346,3555.00
873.304,3350.00
874.265,3431.00
875.223,3296.00
876.184,3362.00
877.142,3094.00
878.102,3209.00
879.060,3206.00
880.021,3324.00
880.978,2849.00
881.938,3176.00
882.896,3583.00
883.856,3381.00
884.813,3204.00
885.772,3151.00
886.730,3392.00
887.689,3422.00
888.646,3058.00
889.603,3604.00
890.562,3634.00
891.519,3384.00
892.477,3380.00
893.434,3308.00
894.392,2833.00
895.349,3252.00
896.307,3348.00
897.263,3492.00
898.221,3304.00
899.177,3087.00
900.135,3425.00
901.091,3209.00
902.048,3709.00
903.004,3176.00
903.961,3030.00
904.917,3191.00
905.874,3267.00
906.829,2934.00
907.784,3273.00
908.741,3260.00
909.696,3098.00
910.653,2798.00
911.607,3145.00
912.564,3147.00
913.518,3137.00
914.475,3244.00
915.429,4916.00
916.385,2974.00
917.339,3647.00
918.295,3366.00
919.249,3457.00
920.205,3244.00
921.158,3353.00
922.114,3118.00
923.067,3272.00
924.020,3299.00
924.976,3100.00
925.929,3426.00
926.884,3300.00
927.837,3569.00
928.791,3462.00
929.744,2972.00
930.699,3276.00
931.651,3244.00
932.606,2867.00
933.558,3113.00
934.512,3437.00
935.464,3325.00
936.418,3597.00
937.370,3403.00
938.322,3006.00
939.276,3186.00
940.227,3246.00
941.181,3330.00
942.132,3679.00
943.085,3820.00
944.036,2785.00
944.990,3521.00
945.941,3025.00
946.893,3130.00
947.844,2945.00
948.797,3418.00
949.747,3995.00
950.700,3126.00
951.650,2668.00
952.601,3346.00
953.553,3001.00
954.503,3487.00
955.455,3177.00
956.405,3257.00
957.356,2953.00
958.306,3507.00
959.258,3207.00
960.207,3679.00
961.158,3527.00
962.108,3242.00
963.059,2918.00
964.008,2882.00
964.959,3827.00
965.908,3190.00
966.856,3005.00
967.807,2805.00
968.756,3556.00
969.706,3267.00
970.654,3136.00
971.605,3226.00
972.553,3362.00
973.503,3232.00
974.451,3507.00
975.401,3273.00
976.348,3277.00
977.296,3081.00
978.246,3477.00
979.193,3611.00
980.142,2995.00
981.090,3315.00
982.039,3215.00
982.986,3311.00
983.935,3551.00
984.882,3291.00
985.830,3422.00
986.777,3394.00
987.725,3094.00
988.672,3054.00
989.618,3247.00
990.567,2984.00
991.513,3168.00
992.461,2992.00
993.407,3444.00
994.354,3307.00
995.300,3369.00
996.248,3345.00
997.193,3340.00
998.141,3165.00
999.086,3351.00
1000.031,3302.00
1000.978,2795.00
1001.924,3213.00
1002.870,3366.00
1003.815,2667.00
1004.762,3053.00
1005.707,3230.00
1006.653,3119.00
1007.598,3181.00
1008.542,2874.00
1009.488,2850.00
1010.432,3120.00
1011.378,2967.00
1012.322,3575.00
1013.268,2916.00
1014.212,3224.00
1015.157,3308.00
1016.101,3631.00
1017.046,2923.00
1017.990,2952.00
1018.933,3149.00
1019.878,2961.00
1020.821,3007.00
1021.766,2875.00
1022.709,3113.00
1023.654,3130.00
1024.596,3479.00
1025.541,3627.00
1026.483,3587.00
1027.425,3287.00
1028.370,3389.00
1029.312,3386.00
1030.256,3083.00
1031.198,3015.00
1032.141,3071.00
1033.083,3602.00
1034.027,3252.00
1034.968,3371.00
1035.910,2742.00
1036.853,3215.00
1037.794,3256.00
1038.738,2929.00
1039.679,3519.00
1040.621,3040.00
1041.562,3122.00
1042.503,3525.00
1043.446,2914.00
1044.386,3470.00
1045.329,3225.00
1046.269,3312.00
1047.211,3159.00
1048.151,3257.00
1049.093,2940.00
1050.033,3931.00
1050.973,3333.00
1051.915,3114.00
1052.854,3126.00
1053.796,3381.00
1054.735,3042.00
1055.677,3054.00
1056.616,3260.00
1057.555,3249.00
1058.496,2906.00
1059.435,3393.00
1060.376,3013.00
1061.315,3001.00
1062.255,2887.00
1063.194,3149.00
1064.132,2882.00
1065.073,3274.00
1066.011,3207.00
1066.951,3163.00
1067.889,2919.00
1068.829,3289.00
1069.767,3232.00
1070.705,2575.00
1071.644,3123.00
1072.582,2755.00
1073.521,3059.00
1074.459,3153.00
1075.398,3338.00
1076.335,3030.00
1077.272,3819.00
1078.211,3323.00
1079.148,3735.00
1080.087,3188.00
1081.023,3581.00
1081.962,3442.00
1082.898,2690.00
1083.835,3071.00
1084.773,2772.00
1085.709,2818.00
1086.647,3157.00
1087.583,3061.00
1088.519,3351.00
1089.457,3341.00
1090.392,2725.00
1091.330,3183.00
1092.266,3151.00
1093.203,3438.00
1094.138,2815.00
1095.073,3659.00
1096.010,3398.00
1096.945,3079.00
1097.882,2797.00
1098.817,2627.00
1099.752,3338.00
1100.688,3185.00
1101.623,3275.00
1102.559,3258.00
1103.493,3474.00
1104.430,2693.00
1105.364,2807.00
1106.298,3091.00
1107.234,3737.00
1108.167,2884.00
1109.094,3086.00
1110.019,3139.00
1110.945,3286.00
1111.869,3142.00
1112.795,3077.00
1113.720,3164.00
1114.646,3142.00
1115.571,2625.00
1116.495,3185.00
1117.420,3214.00
1118.345,2985.00
1119.270,3120.00
1120.195,3278.00
1121.118,3539.00
1122.042,3444.00
1122.967,3139.00
1123.891,3233.00
1124.816,3204.00
1125.738,3182.00
1126.663,2564.00
1127.587,3066.00
1128.511,3014.00
1129.435,3200.00
1130.357,3248.00
1131.280,3985.00
1132.204,2965.00
1133.128,2980.00
1134.051,3028.00
1134.972,3768.00
1135.896,3054.00
1136.819,3415.00
1137.742,2961.00
1138.665,3296.00
1139.586,3129.00
1140.509,2696.00
1141.431,2942.00
1142.354,3606.00
1143.276,3169.00
1144.197,3558.00
1145.119,3273.00
1146.041,2921.00
1146.964,3344.00
1147.885,3238.00
1148.806,3092.00
1149.727,3163.00
1150.649,2767.00
1151.571,3157.00
1152.492,3324.00
1153.412,3308.00
1154.333,3151.00
1155.254,3014.00
1156.175,3043.00
1157.095,3608.00
1158.016,3197.00
1158.936,2978.00
1159.857,3288.00
1160.778,3087.00
1161.697,2777.00
1162.617,3222.00
1163.537,3784.00
1164.458,3604.00
1165.376,3015.00
1166.296,3346.00
1167.216,3497.00
1168.136,3013.00
1169.056,2884.00
1169.974,3086.00
1170.893,3684.00
1171.813,3343.00
1172.732,3038.00
1173.650,3196.00
1174.569,3969.00
1175.488,3261.00
1176.407,2867.00
1177.326,2941.00
1178.243,3096.00
1179.161,2995.00
1180.080,3086.00
1180.999,3286.00
1181.915,3098.00
1182.834,2717.00
1183.752,3338.00
1184.670,3720.00
1185.586,2688.00
1186.504,2989.00
1187.422,3099.00
1188.340,2840.00
1189.258,3264.00
1190.173,3125.00
1191.091,3470.00
1192.008,2987.00
1192.926,3016.00
1193.841,3233.00
1194.758,3271.00
1195.675,2953.00
1196.592,3442.00
1197.507,2941.00
1198.424,3323.00
1199.340,3646.00
1200.257,3059.00
1201.172,3272.00
1202.088,2574.00
1203.004,3242.00
1203.920,3389.00
1204.835,3727.00
1205.750,3500.00
1206.666,3480.00
1207.582,2856.00
1208.496,2971.00
1209.412,3074.00
1210.327,3020.00
1211.243,3680.00
1212.156,2937.00
1213.071,2938.00
1213.986,3157.00
1214.901,2805.00
1215.814,2781.00
1216.729,2911.00
1217.644,2929.00
1218.559,2927.00
1219.471,3926.00
1220.386,3475.00
1221.300,2943.00
1222.213,3335.00
1223.127,3111.00
1224.041,3504.00
1224.955,2870.00
1225.867,3242.00
1226.781,3422.00
1227.694,3466.00
1228.608,3065.00
1229.520,3337.00
1230.433,3373.00
1231.346,2901.00
1232.260,3336.00
1233.171,2902.00
1234.084,3238.00
1234.997,3510.00
1235.908,2983.00
1236.821,3292.00
1237.733,4284.00
1238.646,3445.00
1239.556,3204.00
1240.469,3150.00
1241.381,2933.00
1242.293,2921.00
1243.203,3622.00
1244.115,3669.00
1245.027,3249.00
1245.937,3014.00
1246.849,3030.00
1247.761,3148.00
1248.672,2927.00
1249.582,3055.00
1250.493,3725.00
1251.404,3165.00
1252.313,3361.00
1253.225,3523.00
1254.135,4079.00
1255.046,3286.00
1255.955,3382.00
1256.866,3666.00
1257.777,3003.00
1258.685,2818.00
1259.596,2621.00
1260.506,3520.00
1261.416,3112.00
1262.324,3390.00
1263.234,3121.00
1264.144,3326.00
1265.052,3220.00
1265.962,3160.00
1266.872,3480.00
1267.779,3370.00
1268.689,2729.00
1269.598,2861.00
1270.507,3069.00
1271.415,3025.00
1272.324,3213.00
1273.233,3127.00
1274.140,3023.00
1275.048,2907.00
1275.957,2659.00
1276.864,2959.00
1277.772,2970.00
1278.681,2662.00
1279.587,2866.00
1280.496,3286.00
1281.404,3887.00
1282.312,3320.00
1283.218,2881.00
1284.126,2912.00
1285.033,3641.00
1285.939,3091.00
1286.847,3201.00
1287.754,3062.00
1288.660,2936.00
1289.567,3746.00
1290.474,3231.00
1291.380,3402.00
1292.286,2800.00
1293.193,3213.00
1294.098,3184.00
1295.005,2986.00
1295.912,3497.00
1296.816,3240.00
1297.723,3122.00
1298.629,2973.00
1299.534,3560.00
1300.440,3279.00
1301.346,2960.00
1302.250,2993.00
1303.156,2702.00
1304.062,3612.00
1304.966,3690.00
1305.871,3460.00
1306.777,2975.00
1307.680,3136.00
1308.586,3244.00
1309.491,3345.00
1310.394,3189.00
1311.299,3427.00
1312.204,3676.00
1313.107,3281.00
1314.012,3210.00
1314.917,2859.00
1315.819,3323.00
1316.724,3657.00
1317.628,3278.00
1318.531,3141.00
1319.435,3506.00
1320.339,5107.00
1321.241,3115.00
1322.145,3161.00
1323.049,3215.00
1323.951,2896.00
1324.854,2939.00
1325.756,3446.00
1326.659,3199.00
1327.563,2942.00
1328.464,3293.00
1329.367,3107.00
1330.271,3497.00
1331.172,2870.00
1332.074,3173.00
1332.977,2931.00
1333.878,3290.00
1334.781,3478.00
1335.683,2901.00
1336.584,3115.00
1337.486,2758.00
1338.387,3325.00
1339.289,2853.00
1340.191,2943.00
1341.091,3067.00
1341.993,2884.00
1342.895,3007.00
1343.794,3251.00
1344.696,3382.00
1345.596,3243.00
1346.497,2884.00
1347.398,3110.00
1348.298,2698.00
1349.199,3728.00
1350.100,3023.00
1350.999,3528.00
1351.900,3360.00
1352.799,3489.00
1353.699,3201.00
1354.600,3086.00
1355.499,3197.00
1356.399,2748.00
1357.297,3147.00
1358.198,3179.00
1359.098,2924.00
1359.996,2822.00
1360.896,3601.00
1361.796,3430.00
1362.694,3274.00
1363.593,3121.00
1364.491,3333.00
1365.391,3690.00
1366.290,3061.00
1367.187,2968.00
1368.086,3402.00
1368.984,3222.00
1369.883,2729.00
1370.782,3171.00
1371.679,3313.00
1372.577,3629.00
1373.474,3192.00
1374.373,3070.00
1375.269,3203.00
1376.168,3086.00
1377.066,3439.00
1377.962,3373.00
1378.860,3489.00
1379.756,3515.00
1380.654,3733.00
1381.552,3342.00
1382.448,3298.00
1383.346,3199.00
1384.241,3339.00
1385.139,3387.00
1386.036,3053.00
1386.931,2713.00
1387.829,3210.00
1388.724,3351.00
1389.621,2990.00
1390.516,3191.00
1391.413,3010.00
1392.309,2916.00
1393.204,3491.00
1394.101,3320.00
1394.995,3334.00
1395.891,3324.00
1396.786,2949.00
1397.682,3134.00
1398.578,3225.00
1399.472,3453.00
1400.368,3152.00
1401.262,3131.00
1402.158,3297.00
1403.051,3062.00
1403.947,3034.00
1404.840,3440.00
1405.736,3398.00
1406.631,2906.00
1407.524,3596.00
1408.419,3204.00
1409.312,3056.00
1410.207,3297.00
1411.100,3028.00
1411.995,2989.00
1412.888,3369.00
1413.782,2845.00
1414.675,3538.00
1415.569,2905.00
1416.463,3082.00
1417.355,3115.00
1418.249,2954.00
1419.141,3260.00
1420.035,3242.00
1420.927,3120.00
1421.821,3470.00
1422.713,3061.00
1423.606,3288.00
1424.498,3188.00
1425.391,3740.00
1426.282,2949.00
1427.175,3123.00
1428.068,2633.00
1428.960,3240.00
1429.852,3276.00
1430.743,2914.00
1431.636,3139.00
1432.527,3434.00
1433.419,3341.00
1434.310,3305.00
1435.202,2960.00
1436.092,3143.00
1436.984,3104.00
1437.875,3486.00
1438.767,3158.00
1439.657,2984.00
1440.548,3343.00
1441.438,3237.00
1442.330,3333.00
1443.219,3124.00
1444.111,3400.00
1445.000,3023.00
1445.891,2867.00
1446.781,2939.00
1447.672,3200.00
1448.561,3485.00
1449.452,3299.00
1450.340,2934.00
1451.231,2978.00
1452.120,2908.00
1453.010,3451.00
1453.899,3034.00
1454.789,3325.00
1455.677,3589.00
1456.568,3164.00
1457.456,3246.00
1458.346,3177.00
1459.234,3227.00
1460.123,3543.00
1461.011,3236.00
1461.901,3544.00
1462.788,3595.00
1463.678,3334.00
1464.565,3182.00
1465.454,3076.00
1466.342,3289.00
1467.231,2562.00
1468.118,3432.00
1469.006,3585.00
1469.893,2885.00
1470.782,3322.00
1471.669,3517.00
1472.557,3436.00
1473.444,3203.00
1474.330,3350.00
1475.218,3528.00
1476.105,3098.00
1476.993,3160.00
1477.879,3386.00
1478.767,3085.00
1479.652,2929.00
1480.540,3200.00
1481.426,3321.00
1482.313,3281.00
1483.199,3551.00
1484.086,3402.00
1484.972,2917.00
1485.857,2874.00
1486.744,3263.00
1487.629,2730.00
1488.516,3076.00
1489.401,3398.00
1490.287,3181.00
1491.172,2822.00
1492.058,3096.00
1492.943,2944.00
1493.828,2992.00
1494.714,3371.00
1495.598,3524.00
1496.484,4029.00
1497.368,2852.00
1498.254,3109.00
1499.138,3214.00
1500.022,3213.00
1500.907,3335.00
1501.791,3940.00
1502.676,3170.00
1503.560,3045.00
1504.445,3670.00
1505.328,3334.00
1506.211,3560.00
1507.096,3092.00
1507.979,3439.00
1508.864,3104.00
1509.747,3341.00
1510.631,3260.00
1511.514,3317.00
1512.397,3435.00
1513.281,3685.00
1514.163,3430.00
1515.047,3056.00
1515.930,2930.00
1516.812,3166.00
1517.696,3327.00
1518.578,3120.00
1519.461,3225.00
1520.343,3685.00
1521.225,3021.00
1522.108,3071.00
1522.990,3509.00
1523.873,3586.00
1524.754,2826.00
1525.635,2683.00
1526.518,3355.00
1527.399,3111.00
1528.282,3224.00
1529.163,3328.00
1530.044,3175.00
1530.926,2895.00
1531.807,2950.00
1532.689,3252.00
1533.569,3001.00
1534.450,4226.00
1535.332,3370.00
1536.212,3092.00
1537.092,3473.00
1537.974,2895.00
1538.854,3113.00
1539.735,3725.00
1540.615,3364.00
1541.495,2959.00
1542.376,3599.00
1543.255,2938.00
1544.135,3099.00
1545.016,3229.00
1545.895,2939.00
1546.774,3354.00
1547.655,2717.00
1548.534,3219.00
1549.414,3106.00
1550.293,2862.00
1551.172,3240.00
1552.052,3174.00
1552.930,3034.00
1553.809,3693.00
1554.689,3069.00
1555.567,3132.00
1556.445,3044.00
1557.325,3488.00
1558.203,2771.00
1559.080,3182.00
1559.960,3084.00
1560.838,3885.00
1561.715,3100.00
1562.594,3503.00
1563.472,3357.00
1564.349,3356.00
1565.228,2770.00
1566.105,2945.00
1566.982,3198.00
1567.861,3454.00
1568.738,3148.00
1569.615,2812.00
1570.493,3066.00
1571.370,3057.00
1572.246,2633.00
1573.124,3145.00
1574.000,3100.00
1574.877,3376.00
1575.755,3059.00
1576.631,2918.00
1577.507,3607.00
1578.384,3560.00
1579.260,3257.00
1580.136,3783.00
1581.011,3165.00
1581.889,3150.00
1582.764,3189.00
1583.639,3462.00
1584.516,3326.00
1585.391,3031.00
1586.266,3229.00
1587.143,3647.00
1588.018,3309.00
1588.893,3576.00
1589.768,3954.00
1590.644,3890.00
1591.519,2915.00
1592.393,3307.00
1593.269,3448.00
1594.143,3021.00
1595.018,3137.00
1595.892,3055.00
1596.767,2718.00
1597.641,2681.00
1598.515,2842.00
1599.391,3322.00
1600.264,3034.00
1601.138,2988.00
1602.011,2550.00
1602.886,3696.00
1603.760,3469.00
1604.633,3420.00
1605.508,3385.00
1606.381,3240.00
1607.254,3248.00
1608.127,3331.00
1609.001,2880.00
1609.874,3514.00
1610.746,3412.00
1611.619,3169.00
1612.493,3423.00
1613.365,3004.00
1614.238,3177.00
1615.110,3216.00
1615.984,3170.00
1616.855,3007.00
1617.727,3436.00
1618.599,3051.00
1619.473,3501.00
1620.344,2589.00
1621.216,3166.00
1622.087,3212.00
1622.960,3206.00
1623.832,3163.00
1624.703,3307.00
1625.574,3340.00
1626.445,3204.00
1627.317,3209.00
1628.188,3423.00
1629.059,3067.00
1629.930,3585.00
1630.802,3116.00
1631.672,3370.00
1632.543,3302.00
1633.413,3234.00
1634.283,3646.00
1635.155,3269.00
1636.025,3272.00
1636.895,3245.00
1637.765,2752.00
1638.636,3172.00
1639.506,3318.00
1640.376,3968.00
1641.245,3090.00
1642.114,3208.00
1642.985,2645.00
1643.855,2961.00
1644.724,3073.00
1645.593,3385.00
1646.462,3297.00
1647.333,3250.00
1648.201,3094.00
1649.070,3247.00
1649.939,3442.00
1650.807,2990.00
1651.676,3409.00
1652.546,3413.00
1653.414,3503.00
1654.282,3208.00
1655.150,3052.00
1656.018,3154.00
1656.888,3842.00
1657.756,3183.00
1658.623,2844.00
1659.491,2793.00
1660.359,3488.00
1661.226,3085.00
1662.095,3378.00
1662.962,3073.00
1663.830,3158.00
1664.697,3024.00
1665.564,3171.00
1666.431,3352.00
1667.297,2926.00
1668.166,2905.00
1669.033,2737.00
1669.899,3039.00
1670.766,2805.00
1671.632,3056.00
1672.499,3502.00
1673.367,3183.00
1674.233,3426.00
1675.099,3202.00
1675.965,2860.00
1676.831,3137.00
1677.696,3523.00
1678.562,4961.00
1679.430,2757.00
1680.295,2860.00
1681.161,2959.00
1682.026,2938.00
1682.891,3050.00
1683.756,3078.00
1684.621,3236.00
1685.486,3203.00
1686.353,3173.00
1687.218,3312.00
1688.083,3168.00
1688.947,3496.00
1689.812,3114.00
1690.677,3006.00
1691.541,3300.00
1692.405,2504.00
1693.269,3657.00
1694.135,3333.00
1694.999,3164.00
1695.863,3772.00
1696.727,3032.00
1697.591,3051.00
1698.455,3282.00
1699.318,3028.00
1700.182,4453.00
1701.045,3188.00
1701.909,3231.00
1702.772,3637.00
1703.637,3005.00
1704.500,2778.00
1705.363,3428.00
1706.226,3282.00
1707.089,3342.00
1707.951,3358.00
1708.814,3869.00
1709.677,3945.00
1710.539,3405.00
1711.402,3444.00
1712.264,3168.00
1713.126,3078.00
1713.988,3419.00
1714.852,3434.00
1715.714,2592.00
1716.576,2744.00
1717.438,3397.00
1718.299,2707.00
1719.161,3568.00
1720.023,3172.00
1720.884,3684.00
1721.745,3162.00
1722.607,3075.00
1723.468,2712.00
1724.329,3440.00
1725.190,3197.00
1726.051,3361.00
1726.912,3067.00
1727.772,3244.00
1728.633,3148.00
1729.494,3258.00
1730.354,3470.00
1731.214,2894.00
1732.075,3040.00
1732.935,3057.00
1733.797,3073.00
1734.657,3661.00
1735.517,3833.00
1736.377,3496.00
1737.237,3142.00
1738.096,3854.00
1738.956,3118.00
1739.816,3094.00
1740.675,3205.00
1741.534,2653.00
1742.394,3241.00
1743.253,2976.00
1744.112,3209.00
1744.971,3018.00
1745.830,3347.00
1746.689,3355.00
1747.547,3456.00
1748.406,2791.00
1749.265,3056.00
1750.123,3083.00
1750.982,3382.00
1751.840,3189.00
1752.698,3238.00
1753.556,3009.00
1754.414,3203.00
1755.272,3140.00
1756.130,3243.00
1756.988,3165.00
1757.846,3391.00
1758.703,3042.00
1759.559,3468.00
1760.417,2914.00
1761.274,3887.00
1762.131,3562.00
1762.989,3672.00
1763.846,3633.00
1764.703,3277.00
1765.560,3798.00
1766.417,3244.00
1767.273,2945.00
1768.130,3206.00
1768.987,3039.00
1769.843,3417.00
1770.700,3597.00
1771.556,3095.00
1772.412,3576.00
1773.268,3107.00
1774.125,3514.00
1774.980,3254.00
1775.836,3499.00
1776.692,3113.00
1777.546,3002.00
1778.402,3341.00
1779.257,3281.00
1780.113,2999.00
1780.968,3282.00
1781.824,3436.00
1782.679,2819.00
1783.534,3031.00
1784.389,3739.00
1785.244,3357.00
1786.099,3169.00
1786.954,3430.00
1787.808,3290.00
1788.661,3239.00
1789.516,3603.00
1790.370,3202.00
1791.225,3065.00
1792.079,2853.00
1792.933,3986.00
1793.787,3346.00
1794.641,3265.00
1795.495,3167.00
1796.349,3255.00
1797.201,3057.00
1798.055,3009.00
1798.908,3202.00
1799.762,3599.00
1800.615,3419.00
1801.469,3450.00
1802.322,3618.00
1803.175,3012.00
1804.028,2774.00
1804.880,3734.00
1805.732,3396.00
1806.585,3136.00
1807.438,3236.00
1808.291,2721.00
1809.143,2949.00
1809.996,2856.00
1810.846,4013.00
1811.699,3320.00
1812.551,3126.00
1813.403,3415.00
1814.255,3265.00
1815.107,3195.00
1815.959,3801.00
1816.809,3265.00
1817.661,3319.00
1818.512,3187.00
1819.364,3275.00
1820.215,3346.00
1821.067,2943.00
1821.918,3071.00
1822.768,3459.00
1823.619,3474.00
1824.470,3088.00
1825.321,3386.00
1826.172,3111.00
1827.021,3371.00
1827.871,3493.00
1828.722,3276.00
1829.572,3217.00
1830.423,3219.00
1831.273,3035.00
1832.122,3223.00
1832.972,3164.00
1833.822,2934.00
1834.672,3419.00
1835.522,3390.00
1836.370,3042.00
1837.220,3321.00
1838.070,2772.00
1838.919,2554.00
1839.769,3021.00
1840.616,3424.00
1841.466,3367.00
1842.315,2957.00
1843.164,3872.00
1844.013,3035.00
1844.860,2904.00
1845.709,2971.00
1846.558,3522.00
1847.407,2856.00
1848.254,3319.00
1849.102,3288.00
1849.951,2987.00
1850.799,2665.00
1851.648,3072.00
1852.494,3259.00
1853.342,3309.00
1854.190,3547.00
1855.038,3582.00
1855.884,3205.00
1856.732,4094.00
1857.580,3591.00
1858.428,3051.00
1859.273,2929.00
1860.121,2994.00
1860.968,4085.00
1861.816,3578.00
1862.661,3558.00
1863.508,3799.00
1864.355,3473.00
1865.202,3558.00
1866.047,3232.00
1866.894,3593.00
1867.741,3739.00
1868.586,3343.00
1869.432,3345.00
1870.279,3120.00
1871.125,3019.00
1871.970,3863.00
1872.816,3371.00
1873.662,2743.00
1874.506,3381.00
1875.352,3515.00
1876.198,3662.00
1877.044,3843.00
1877.888,3178.00
1878.734,3266.00
1879.579,3035.00
1880.423,2888.00
1881.268,3095.00
1882.113,3501.00
1882.959,3217.00
1883.802,3054.00
1884.647,3557.00
1885.492,3291.00
1886.335,3175.00
1887.180,3094.00
1888.025,3233.00
1888.867,3027.00
1889.712,3402.00
1890.556,2983.00
1891.399,3524.00
1892.243,3506.00
1893.087,3091.00
1893.930,3340.00
1894.774,3394.00
1895.618,3569.00
1896.460,2872.00
1897.304,3171.00
1898.147,3077.00
1898.989,2925.00
1899.833,3418.00
1900.676,3077.00
1901.518,3466.00
1902.361,3558.00
1903.202,3123.00
1904.046,3056.00
1904.889,3199.00
1905.730,3097.00
1906.573,2892.00
1907.415,3247.00
1908.256,3664.00
1909.099,3342.00
1909.941,3403.00
1910.782,3349.00
1911.624,3078.00
1912.465,3452.00
1913.307,3264.00
1914.149,2978.00
1914.989,3519.00
1915.831,3161.00
1916.671,3640.00
1917.513,3136.00
1918.355,3329.00
1919.195,3470.00
1920.036,3306.00
1920.876,3224.00
1921.717,3380.00
1922.558,3263.00
1923.398,3265.00
1924.239,3256.00
1925.078,3600.00
1925.919,2893.00
1926.760,3322.00
1927.599,3127.00
1928.440,3469.00
1929.279,3241.00
1930.119,3662.00
1930.958,3113.00
1931.798,3259.00
1932.638,3127.00
1933.477,3258.00
1934.317,2988.00
1935.155,3082.00
1935.995,3318.00
1936.833,3078.00
1937.673,3057.00
1938.512,3713.00
1939.350,2816.00
1940.190,3184.00
1941.027,3136.00
1941.867,3123.00
1942.704,3267.00
1943.543,3216.00
1944.381,3373.00
1945.220,3604.00
1946.057,3283.00
1946.896,3527.00
1947.733,3333.00
1948.572,2983.00
1949.408,3605.00
1950.247,3339.00
1951.085,3378.00
1951.922,3571.00
1952.760,3059.00
1953.597,3610.00
1954.435,2574.00
1955.271,3384.00
1956.109,3099.00
1956.945,2831.00
1957.783,3441.00
1958.619,3065.00
1959.456,3197.00
1960.292,3302.00
1961.129,3562.00
1961.965,3782.00
1962.802,3006.00
1963.638,3018.00
1964.475,3281.00
1965.310,3248.00
1966.145,3289.00
1966.982,3085.00
1967.817,2952.00
1968.654,3263.00
1969.489,3057.00
1970.325,3226.00
1971.160,3015.00
1971.996,3408.00
1972.831,3462.00
1973.667,3147.00
1974.501,3653.00
1975.337,3527.00
1976.171,3176.00
1977.006,3501.00
1977.841,3163.00
1978.675,3478.00
1979.511,3891.00
1980.345,3001.00
1981.180,3407.00
1982.014,3234.00
1982.849,2956.00
1983.682,3098.00
1984.516,3103.00
1985.351,2830.00
1986.184,2749.00
1987.019,2741.00
1987.852,2516.00
1988.687,2786.00
1989.519,3013.00
1990.352,3266.00
1991.187,2723.00
1992.019,3017.00
1992.854,3361.00
1993.686,2962.00
1994.518,3037.00
1995.352,2543.00
1996.185,2290.00
1997.019,2886.00
1997.851,2685.00
1998.682,2762.00
1999.516,2747.00
2000.348,2473.00
