RamanScope Measure Spectrum Data V3.72

<< MEASURE CONDITION >>
Exposure Type,Aver
Exposure Time [sec],20
Exposure Count,2
Measure Time,2024/02/15 20:35:21
Data Name,""
Data Comment,""
Rayleigh Wave[nm],532.0

<< SAMPLE SPECTRUM >>
Wave[dcm-1],No17
96.716,13.00
97.759,20.50
98.802,36.00
99.846,63.00
100.886,10.00
101.929,45.00
102.972,56.50
104.015,-6.50
105.057,-24.00
106.100,-37.50
107.142,26.00
108.184,14.50
109.226,0.00
110.268,27.50
111.310,-33.50
112.352,56.50
113.393,19.00
114.435,33.50
115.476,5.00
116.517,-22.00
117.558,-6.50
118.599,21.00
119.640,-2.00
120.681,2.50
121.722,-12.50
122.762,-25.00
123.803,33.00
124.843,18.50
125.883,14.00
126.923,-1.00
127.963,43.50
129.001,-4.50
130.041,-40.50
131.080,6.50
132.120,-16.00
133.159,51.50
134.199,45.00
135.238,58.00
136.277,33.00
137.316,-45.50
138.355,21.50
139.393,-2.00
140.432,81.00
141.470,37.50
142.509,98.00
143.547,62.50
144.585,41.50
145.623,22.00
146.661,52.00
147.699,120.00
148.736,165.00
149.774,193.00
150.811,232.50
151.849,345.00
152.886,440.00
153.923,581.00
154.960,700.50
155.997,857.50
157.034,945.50
158.072,1175.50
159.109,1328.00
160.145,1543.50
161.182,1738.50
162.218,1895.00
163.254,2095.00
164.290,2204.00
165.326,2313.00
166.361,2484.00
167.397,2536.50
168.432,2563.00
169.468,2672.50
170.503,2837.00
171.538,2837.00
172.573,2888.50
173.608,2905.00
174.643,2940.00
175.677,2972.50
176.712,3041.50
177.746,3081.00
178.781,3176.50
179.815,3210.50
180.849,3394.50
181.883,3351.00
182.917,3420.00
183.951,3421.00
184.984,3503.00
186.020,3572.50
187.053,3573.50
188.087,3518.00
189.120,3485.50
190.153,3486.50
191.186,3463.00
192.219,3407.50
193.251,3496.00
194.284,3386.00
195.317,3412.00
196.349,3499.00
197.381,3425.00
198.413,3435.50
199.445,3488.00
200.477,3555.00
201.509,3545.00
202.543,3485.50
203.575,3534.00
204.606,3585.50
205.637,3647.00
206.669,3604.50
207.700,3734.50
208.731,3747.00
209.762,3815.50
210.792,3879.50
211.823,3872.50
212.854,3945.00
213.884,3922.50
214.914,3972.00
215.947,4182.50
216.977,4149.50
218.007,4170.50
219.037,4312.50
220.066,4417.50
221.096,4411.50
222.126,4451.50
223.155,4524.50
224.184,4598.00
225.214,4577.50
226.245,4588.50
227.274,4649.00
228.302,4692.00
229.331,4700.50
230.360,4644.50
231.388,4641.00
232.417,4632.00
233.445,4672.00
234.473,4512.00
235.501,4435.50
236.531,4407.50
237.559,4337.50
238.587,4315.50
239.614,4166.00
240.642,4208.50
241.669,4159.00
242.696,4130.50
243.724,4076.00
244.753,4165.50
245.780,4090.00
246.806,4081.50
247.833,4110.00
248.860,4087.50
249.886,4073.50
250.913,4071.50
251.939,4115.00
252.967,4148.50
253.993,4087.50
255.019,4025.50
256.045,4138.00
257.070,4170.50
258.096,4137.50
259.121,4180.00
260.147,4067.50
261.174,4198.00
262.199,4193.50
263.224,4154.00
264.249,4157.50
265.274,4204.50
266.298,4224.50
267.323,4246.50
268.349,4325.00
269.374,4336.50
270.398,4231.00
271.422,4343.00
272.446,4388.00
273.470,4443.00
274.496,4392.50
275.519,4374.50
276.543,4390.50
277.566,4501.50
278.589,4537.00
279.613,4563.00
280.636,4568.00
281.661,4629.00
282.684,4653.50
283.706,4647.50
284.729,4675.00
285.751,4649.00
286.774,4595.50
287.798,4621.50
288.820,4581.00
289.842,4587.00
290.864,4617.00
291.886,4484.50
292.910,4492.50
293.932,4472.00
294.953,4415.00
295.974,4353.50
296.996,4343.00
298.017,4361.00
299.040,4280.50
300.061,4146.50
301.082,4173.50
302.102,4089.00
303.123,4060.00
304.143,4093.50
305.166,4012.00
306.186,4000.00
307.206,3949.50
308.226,3896.50
309.246,3862.50
310.268,3767.50
311.288,3838.50
312.307,3732.00
313.327,3689.00
314.346,3670.50
315.368,3667.00
316.387,3648.00
317.406,3686.00
318.425,3571.50
319.443,3584.00
320.464,3535.00
321.483,3526.00
322.501,3603.00
323.520,3534.00
324.538,3512.50
325.558,3460.50
326.576,3510.50
327.594,3458.50
328.612,3483.50
329.629,3451.00
330.649,3433.50
331.666,3432.50
332.684,3382.50
333.701,3395.00
334.718,3385.00
335.737,3432.00
336.754,3353.50
337.771,3413.00
338.787,3371.00
339.806,3396.00
340.823,3420.00
341.839,3407.00
342.855,3404.00
343.871,3395.50
344.889,3389.00
345.905,3361.00
346.921,3277.50
347.937,3286.00
348.954,3321.00
349.970,3345.00
350.985,3344.50
352.000,3284.50
353.017,3281.50
354.032,3356.00
355.047,3345.50
356.062,3323.00
357.077,3339.50
358.093,3319.00
359.108,3310.00
360.122,3335.50
361.136,3251.00
362.152,3302.50
363.166,3278.50
364.180,3334.00
365.194,3335.50
366.210,3338.50
367.223,3341.00
368.237,3320.50
369.250,3311.00
370.265,3350.00
371.278,3341.50
372.291,3360.50
373.304,3340.00
374.319,3389.50
375.332,3407.50
376.344,3467.50
377.357,3357.00
378.371,3437.00
379.383,3342.50
380.395,3410.50
381.407,3438.00
382.421,3358.00
383.433,3395.50
384.445,3392.00
385.456,3396.50
386.470,3453.50
387.481,3439.50
388.492,3409.00
389.505,3384.50
390.516,3446.00
391.527,3406.50
392.538,3403.50
393.551,3380.50
394.561,3389.50
395.572,3436.50
396.582,3381.00
397.594,3440.00
398.604,3383.50
399.614,3366.50
400.624,3366.50
401.636,3370.00
402.646,3309.50
403.655,3356.50
404.667,3318.50
405.676,3309.00
406.685,3338.50
407.694,3289.50
408.705,3314.50
409.714,3329.50
410.723,3275.00
411.734,3246.00
412.742,3224.00
413.751,3296.00
414.759,3239.50
415.769,3190.00
416.777,3231.50
417.785,3205.00
418.795,3144.50
419.803,3165.00
420.811,3164.50
421.818,3141.50
422.828,3065.00
423.835,3145.00
424.842,3102.00
425.852,3099.50
426.859,3077.00
427.866,3000.50
428.874,3100.00
429.881,3085.50
430.888,3091.50
431.894,3003.50
432.902,3023.00
433.909,3062.00
434.915,3034.00
435.923,3022.00
436.929,3030.00
437.935,3026.00
438.942,2960.00
439.948,2993.50
440.953,2946.00
441.959,2979.50
442.966,3011.50
443.971,3054.50
444.976,3015.50
445.983,2967.00
446.988,2995.00
447.993,2946.50
448.999,3008.00
450.004,2993.00
451.008,2965.00
452.014,2993.00
453.019,2974.50
454.023,2977.00
455.029,2972.50
456.032,2910.00
457.036,2931.50
458.042,2940.50
459.045,2900.00
460.049,2951.50
461.052,2967.50
462.057,2940.00
463.060,2977.50
464.063,3037.50
465.068,2951.50
466.071,2903.50
467.073,2906.00
468.078,2911.00
469.080,2959.00
470.082,2971.50
471.087,2916.00
472.089,2922.00
473.091,2931.00
474.095,2876.00
475.096,2961.00
476.098,2946.00
477.101,2905.00
478.103,2888.50
479.104,2945.00
480.107,2936.50
481.108,2875.50
482.109,3017.50
483.112,2942.00
484.113,2949.50
485.114,2965.00
486.116,2929.50
487.117,2943.50
488.117,2903.50
489.119,2902.00
490.119,2883.00
491.121,2879.00
492.121,2910.00
493.121,2970.00
494.123,2888.00
495.122,2949.50
496.122,2900.00
497.123,2944.00
498.122,2930.50
499.121,2862.00
500.122,2907.00
501.121,2852.50
502.120,2845.00
503.121,2889.50
504.119,2830.50
505.118,2866.50
506.118,2901.00
507.117,2876.00
508.115,2840.50
509.115,2853.50
510.113,2833.00
511.112,2761.00
512.110,2815.00
513.108,2812.50
514.107,2767.00
515.105,2832.00
516.102,2816.50
517.101,2779.00
518.098,2720.00
519.095,2693.50
520.094,2788.50
521.091,2734.00
522.089,2754.50
523.086,2710.00
524.082,2744.00
525.081,2775.50
526.077,2764.50
527.073,2699.00
528.071,2712.00
529.067,2705.00
530.064,2667.50
531.060,2703.00
532.056,2705.00
533.053,2693.00
534.048,2709.50
535.044,2688.00
536.041,2704.00
537.036,2689.50
538.030,2746.50
539.027,2739.00
540.022,2611.50
541.019,2713.00
542.013,2722.00
543.007,2733.50
544.004,2687.50
544.998,2688.50
545.994,2706.50
546.988,2713.00
547.981,2660.50
548.977,2733.50
549.971,2708.50
550.964,2620.00
551.960,2734.50
552.953,2698.50
553.948,2637.00
554.941,2649.00
555.934,2720.50
556.929,2670.00
557.922,2676.00
558.916,2651.00
559.909,2646.00
560.901,2666.00
561.895,2654.50
562.888,2649.50
563.880,2659.00
564.874,2705.00
565.865,2619.50
566.859,2651.00
567.851,2646.50
568.842,2623.00
569.836,2645.50
570.827,2631.00
571.820,2660.00
572.811,2627.00
573.802,2635.50
574.795,2629.50
575.786,2667.00
576.779,2642.00
577.769,2614.00
578.760,2636.00
579.752,2653.00
580.742,2649.50
581.735,2632.00
582.725,2653.00
583.714,2650.50
584.706,2678.00
585.696,2659.00
586.688,2612.00
587.677,2640.50
588.667,2614.00
589.658,2661.00
590.647,2645.00
591.638,2585.00
592.627,2609.50
593.616,2636.00
594.607,2611.50
595.595,2601.50
596.586,2582.00
597.574,2594.50
598.562,2520.00
599.553,2565.50
600.541,2641.50
601.531,2564.00
602.519,2600.50
603.508,2542.50
604.496,2599.00
605.484,2573.00
606.473,2610.50
607.460,2534.00
608.450,2595.50
609.437,2525.50
610.424,2571.00
611.413,2585.50
612.400,2560.00
613.388,2515.00
614.375,2532.50
615.361,2463.00
616.350,2520.00
617.336,2487.00
618.324,2511.00
619.310,2447.50
620.298,2520.50
621.284,2489.00
622.270,2417.00
623.257,2466.50
624.243,2380.50
625.230,2384.50
626.216,2405.50
627.203,2357.00
628.188,2373.00
629.173,2410.50
630.160,2370.00
631.145,2336.50
632.131,2339.50
633.116,2316.50
634.102,2273.00
635.087,2318.50
636.071,2262.00
637.057,2321.00
638.041,2272.50
639.027,2289.50
640.011,2256.00
640.995,2336.50
641.980,2214.50
642.964,2249.00
643.949,2179.00
644.932,2250.00
645.918,2222.00
646.901,2252.00
647.886,2214.50
648.868,2206.50
649.851,2184.50
650.836,2178.00
651.818,2162.50
652.803,2062.50
653.785,2151.50
654.769,2153.50
655.751,2137.00
656.733,2108.00
657.717,2159.00
658.699,2084.00
659.683,2152.50
660.664,2087.00
661.648,2099.00
662.629,2017.00
663.611,2101.50
664.594,2147.00
665.575,2084.50
666.558,2044.00
667.539,2078.00
668.521,2001.50
669.502,2054.00
670.484,2020.00
671.465,1989.50
672.445,2043.50
673.427,2054.50
674.407,2002.00
675.390,1970.50
676.369,1991.00
677.351,1991.50
678.331,2035.00
679.312,1971.50
680.292,2045.50
681.271,1941.00
682.253,1930.50
683.232,2000.50
684.213,2055.50
685.192,1944.50
686.172,1921.50
687.151,1859.50
688.132,1950.00
689.110,1912.50
690.089,1884.00
691.069,1888.00
692.047,1922.50
693.027,1922.50
694.005,1850.00
694.985,1870.50
695.963,1854.00
696.943,1848.50
697.920,1853.00
698.898,1842.00
699.877,1886.00
700.854,1888.00
701.833,1785.50
702.810,1831.00
703.789,1883.50
704.766,1799.00
705.745,1764.00
706.721,1801.00
707.698,1792.50
708.676,1757.50
709.653,1745.50
710.631,1694.00
711.607,1761.00
712.585,1704.50
713.561,1761.50
714.539,1705.00
715.514,1744.50
716.492,1774.00
717.467,1699.50
718.443,1689.50
719.420,1719.50
720.395,1676.50
721.372,1703.00
722.347,1687.50
723.324,1682.50
724.298,1661.00
725.275,1713.50
726.250,1678.00
727.226,1668.00
728.200,1610.00
729.176,1653.00
730.151,1696.00
731.125,1619.00
732.100,1637.50
733.074,1607.50
734.050,1646.50
735.023,1646.50
735.999,1631.50
736.972,1617.00
737.947,1658.00
738.921,1650.50
739.896,1628.50
740.869,1570.00
741.841,1601.00
742.816,1601.00
743.789,1593.50
744.763,1621.50
745.736,1586.00
746.710,1597.00
747.682,1535.00
748.656,1571.00
749.628,1571.50
750.602,1531.00
751.574,1563.00
752.548,1501.50
753.519,1540.00
754.491,1545.00
755.464,1502.50
756.435,1546.50
757.408,1524.50
758.379,1518.00
759.352,1480.00
760.323,1538.00
761.296,1481.00
762.267,1420.00
763.239,1537.50
764.209,1452.50
765.182,1446.00
766.152,1536.50
767.124,1435.50
768.094,1496.50
769.064,1451.00
770.036,1419.50
771.005,1466.50
771.977,1476.00
772.947,1482.50
773.918,1415.00
774.887,1461.00
775.858,1401.50
776.827,1376.50
777.798,1417.00
778.767,1408.50
779.738,1432.00
780.707,1413.50
781.677,1417.00
782.646,1428.00
783.614,1431.50
784.584,1393.00
785.552,1425.00
786.522,1396.50
787.490,1414.50
788.460,1354.50
789.428,1411.50
790.397,1410.00
791.365,1364.00
792.334,1395.00
793.302,1361.00
794.271,1438.50
795.238,1323.50
796.207,1333.00
797.174,1371.00
798.143,1342.50
799.109,1358.00
800.076,1329.50
801.044,1354.00
802.011,1361.00
802.979,1354.00
803.945,1324.00
804.913,1347.50
805.879,1303.00
806.847,1334.00
807.813,1321.00
808.780,1304.00
809.746,1331.00
810.713,1316.50
811.678,1328.50
812.646,1322.50
813.611,1327.00
814.578,1290.50
815.543,1329.50
816.510,1298.00
817.474,1321.50
818.439,1295.00
819.405,1251.50
820.370,1268.50
821.336,1290.00
822.300,1291.00
823.266,1253.50
824.230,1262.50
825.196,1289.00
826.160,1273.50
827.126,1329.50
828.089,1273.00
829.055,1256.00
830.018,1282.50
830.983,1333.00
831.946,1235.00
832.911,1268.50
833.874,1238.00
834.837,1248.50
835.802,1188.00
836.765,1291.50
837.729,1263.50
838.691,1254.50
839.656,1250.00
840.618,1255.50
841.582,1195.00
842.544,1255.00
843.508,1296.00
844.470,1261.50
845.434,1275.00
846.395,1259.00
847.359,1241.00
848.320,1276.50
849.283,1260.00
850.245,1305.50
851.208,1289.00
852.169,1283.00
853.130,1271.50
854.092,1235.50
855.053,1240.00
856.016,1263.50
856.976,1231.00
857.938,1224.00
858.899,1211.00
859.861,1237.00
860.821,1206.50
861.783,1258.50
862.743,1229.50
863.704,1208.50
864.664,1253.00
865.626,1284.50
866.585,1247.50
867.546,1309.00
868.506,1253.00
869.467,1215.50
870.426,1226.00
871.387,1238.00
872.346,1217.00
873.304,1228.00
874.265,1266.50
875.223,1242.00
876.184,1295.00
877.142,1226.00
878.102,1265.50
879.060,1259.00
880.021,1218.50
880.978,1274.50
881.938,1289.00
882.896,1239.50
883.856,1255.50
884.813,1264.50
885.772,1296.00
886.730,1296.00
887.689,1311.00
888.646,1285.00
889.603,1272.50
890.562,1233.50
891.519,1268.00
892.477,1275.50
893.434,1360.00
894.392,1270.00
895.349,1270.50
896.307,1305.00
897.263,1314.00
898.221,1249.00
899.177,1311.00
900.135,1219.00
901.091,1297.00
902.048,1270.50
903.004,1316.00
903.961,1299.50
904.917,1268.00
905.874,1333.00
906.829,1316.00
907.784,1309.50
908.741,1311.50
909.696,1316.00
910.653,1351.50
911.607,1307.50
912.564,1355.00
913.518,1277.00
914.475,1311.00
915.429,1337.00
916.385,1258.50
917.339,1281.00
918.295,1289.00
919.249,1259.00
920.205,1314.00
921.158,1321.00
922.114,1324.00
923.067,1361.00
924.020,1390.00
924.976,1337.00
925.929,1320.50
926.884,1332.00
927.837,1350.50
928.791,1354.50
929.744,1343.00
930.699,1384.50
931.651,1366.00
932.606,1319.50
933.558,1345.50
934.512,1284.50
935.464,1396.00
936.418,1334.50
937.370,1287.50
938.322,1297.00
939.276,1352.50
940.227,1372.00
941.181,1330.00
942.132,1315.50
943.085,1377.00
944.036,1298.00
944.990,1313.50
945.941,1367.00
946.893,1349.00
947.844,1367.50
948.797,1344.00
949.747,1323.50
950.700,1404.50
951.650,1342.50
952.601,1345.00
953.553,1304.50
954.503,1306.00
955.455,1323.00
956.405,1390.00
957.356,1287.50
958.306,1348.50
959.258,1312.00
960.207,1325.00
961.158,1300.00
962.108,1299.00
963.059,1347.50
964.008,1324.00
964.959,1371.00
965.908,1294.00
966.856,1289.00
967.807,1339.00
968.756,1317.50
969.706,1270.00
970.654,1264.00
971.605,1284.00
972.553,1314.00
973.503,1268.50
974.451,1314.50
975.401,1264.50
976.348,1287.50
977.296,1303.00
978.246,1250.50
979.193,1273.50
980.142,1277.00
981.090,1264.00
982.039,1278.00
982.986,1271.00
983.935,1259.00
984.882,1286.00
985.830,1190.00
986.777,1267.50
987.725,1232.00
988.672,1281.00
989.618,1229.50
990.567,1233.00
991.513,1258.00
992.461,1222.00
993.407,1281.00
994.354,1228.00
995.300,1244.00
996.248,1273.00
997.193,1195.50
998.141,1260.50
999.086,1151.50
1000.031,1211.00
1000.978,1210.50
1001.924,1235.00
1002.870,1191.50
1003.815,1207.50
1004.762,1201.00
1005.707,1236.50
1006.653,1177.50
1007.598,1192.00
1008.542,1154.50
1009.488,1124.50
1010.432,1115.50
1011.378,1198.50
1012.322,1120.50
1013.268,1182.00
1014.212,1151.50
1015.157,1170.50
1016.101,1146.00
1017.046,1202.50
1017.990,1125.50
1018.933,1134.00
1019.878,1185.50
1020.821,1139.00
1021.766,1154.50
1022.709,1154.00
1023.654,1062.00
1024.596,1137.00
1025.541,1175.00
1026.483,1143.50
1027.425,1109.50
1028.370,1108.00
1029.312,1122.00
1030.256,1144.00
1031.198,1160.00
1032.141,1139.50
1033.083,1110.50
1034.027,1096.50
1034.968,1152.00
1035.910,1121.00
1036.853,1150.50
1037.794,1086.50
1038.738,1104.50
1039.679,1150.50
1040.621,1155.00
1041.562,1141.00
1042.503,1150.50
1043.446,1109.50
1044.386,1126.00
1045.329,1108.00
1046.269,1129.50
1047.211,1156.00
1048.151,1101.00
1049.093,1104.50
1050.033,1098.50
1050.973,1093.50
1051.915,1075.50
1052.854,1159.50
1053.796,1107.50
1054.735,1158.50
1055.677,1130.00
1056.616,1109.00
1057.555,1079.00
1058.496,1080.00
1059.435,1074.00
1060.376,1138.50
1061.315,1129.50
1062.255,1107.50
1063.194,1087.00
1064.132,1103.50
1065.073,1096.50
1066.011,1048.50
1066.951,1110.00
1067.889,1081.50
1068.829,1120.50
1069.767,1143.50
1070.705,1076.50
1071.644,1094.50
1072.582,1095.00
1073.521,1094.00
1074.459,1152.00
1075.398,1122.50
1076.335,1117.50
1077.272,1078.50
1078.211,1077.00
1079.148,1067.50
1080.087,1043.50
1081.023,1132.00
1081.962,1114.50
1082.898,1120.50
1083.835,1118.50
1084.773,1091.00
1085.709,1132.00
1086.647,1100.50
1087.583,1138.50
1088.519,1169.50
1089.457,1083.00
1090.392,1092.50
1091.330,1076.00
1092.266,1084.50
1093.203,1093.00
1094.138,1120.50
1095.073,1036.00
1096.010,1088.00
1096.945,1076.50
1097.882,1092.00
1098.817,1074.50
1099.752,1094.00
1100.688,1075.50
1101.623,1118.50
1102.559,1092.50
1103.493,1053.00
1104.430,1122.50
1105.364,1104.00
1106.298,1038.50
1107.234,1074.00
1108.167,1099.00
1109.094,1069.50
1110.019,1052.50
1110.945,1089.50
1111.869,1008.00
1112.795,1064.50
1113.720,1073.00
1114.646,1118.00
1115.571,1001.00
1116.495,1028.00
1117.420,1096.50
1118.345,1013.00
1119.270,1086.00
1120.195,1044.00
1121.118,1071.00
1122.042,1056.50
1122.967,1014.00
1123.891,982.50
1124.816,1035.00
1125.738,1019.50
1126.663,1062.50
1127.587,1052.50
1128.511,1039.50
1129.435,1018.00
1130.357,970.50
1131.280,1042.50
1132.204,1003.50
1133.128,1030.00
1134.051,1047.00
1134.972,995.50
1135.896,1000.50
1136.819,1014.00
1137.742,1009.50
1138.665,1052.50
1139.586,1004.00
1140.509,1008.00
1141.431,998.50
1142.354,1016.00
1143.276,984.00
1144.197,953.50
1145.119,1044.50
1146.041,1000.00
1146.964,1031.00
1147.885,1002.50
1148.806,923.50
1149.727,941.50
1150.649,981.00
1151.571,1016.00
1152.492,979.50
1153.412,918.50
1154.333,990.50
1155.254,951.00
1156.175,1002.50
1157.095,947.50
1158.016,965.50
1158.936,940.00
1159.857,909.50
1160.778,945.00
1161.697,954.50
1162.617,967.50
1163.537,951.00
1164.458,911.00
1165.376,965.50
1166.296,951.00
1167.216,947.50
1168.136,960.00
1169.056,967.00
1169.974,970.50
1170.893,939.50
1171.813,947.50
1172.732,953.00
1173.650,859.50
1174.569,911.50
1175.488,932.50
1176.407,951.00
1177.326,922.00
1178.243,918.50
1179.161,877.50
1180.080,962.50
1180.999,948.00
1181.915,873.50
1182.834,930.00
1183.752,979.00
1184.670,930.00
1185.586,942.50
1186.504,922.00
1187.422,933.00
1188.340,886.00
1189.258,895.00
1190.173,882.50
1191.091,880.00
1192.008,956.00
1192.926,962.00
1193.841,903.50
1194.758,961.50
1195.675,949.00
1196.592,943.00
1197.507,916.00
1198.424,939.50
1199.340,982.00
1200.257,888.00
1201.172,902.00
1202.088,930.50
1203.004,885.50
1203.920,916.00
1204.835,902.00
1205.750,844.50
1206.666,903.00
1207.582,886.00
1208.496,892.00
1209.412,899.00
1210.327,897.00
1211.243,922.00
1212.156,884.00
1213.071,927.50
1213.986,896.00
1214.901,854.00
1215.814,951.50
1216.729,900.50
1217.644,924.50
1218.559,880.50
1219.471,902.50
1220.386,976.50
1221.300,937.00
1222.213,861.50
1223.127,911.50
1224.041,915.00
1224.955,920.00
1225.867,947.00
1226.781,913.00
1227.694,904.00
1228.608,912.50
1229.520,940.00
1230.433,906.00
1231.346,880.50
1232.260,921.00
1233.171,927.00
1234.084,933.50
1234.997,967.00
1235.908,908.50
1236.821,892.50
1237.733,991.00
1238.646,893.00
1239.556,902.00
1240.469,954.50
1241.381,955.50
1242.293,920.50
1243.203,915.00
1244.115,934.50
1245.027,916.00
1245.937,959.50
1246.849,934.50
1247.761,908.00
1248.672,881.50
1249.582,938.50
1250.493,956.00
1251.404,888.00
1252.313,917.50
1253.225,882.00
1254.135,943.50
1255.046,889.50
1255.955,911.00
1256.866,902.00
1257.777,900.50
1258.685,903.50
1259.596,946.50
1260.506,968.50
1261.416,986.50
1262.324,932.50
1263.234,947.00
1264.144,895.00
1265.052,915.00
1265.962,958.00
1266.872,919.50
1267.779,955.00
1268.689,965.50
1269.598,926.00
1270.507,921.00
1271.415,909.00
1272.324,1027.50
1273.233,961.00
1274.140,925.00
1275.048,902.00
1275.957,943.00
1276.864,940.50
1277.772,949.50
1278.681,908.00
1279.587,908.50
1280.496,897.00
1281.404,957.50
1282.312,901.00
1283.218,931.50
1284.126,895.00
1285.033,932.50
1285.939,925.50
1286.847,930.00
1287.754,932.50
1288.660,937.50
1289.567,871.50
1290.474,909.50
1291.380,1003.00
1292.286,922.50
1293.193,888.50
1294.098,890.00
1295.005,915.00
1295.912,927.50
1296.816,915.00
1297.723,965.00
1298.629,888.50
1299.534,883.50
1300.440,896.50
1301.346,912.50
1302.250,889.00
1303.156,935.50
1304.062,952.00
1304.966,924.00
1305.871,877.00
1306.777,897.00
1307.680,913.50
1308.586,893.50
1309.491,885.00
1310.394,927.00
1311.299,923.00
1312.204,909.50
1313.107,874.50
1314.012,840.00
1314.917,895.00
1315.819,886.00
1316.724,890.00
1317.628,946.00
1318.531,889.50
1319.435,921.00
1320.339,881.00
1321.241,887.00
1322.145,868.50
1323.049,939.50
1323.951,887.50
1324.854,889.50
1325.756,814.00
1326.659,834.50
1327.563,856.50
1328.464,803.00
1329.367,918.50
1330.271,885.00
1331.172,839.50
1332.074,858.50
1332.977,878.00
1333.878,901.50
1334.781,848.00
1335.683,882.50
1336.584,881.50
1337.486,827.00
1338.387,812.50
1339.289,839.50
1340.191,861.00
1341.091,845.00
1341.993,826.50
1342.895,850.00
1343.794,838.00
1344.696,829.00
1345.596,808.50
1346.497,823.50
1347.398,807.50
1348.298,826.50
1349.199,824.00
1350.100,783.00
1350.999,854.50
1351.900,811.50
1352.799,822.00
1353.699,807.00
1354.600,815.00
1355.499,824.00
1356.399,790.50
1357.297,811.00
1358.198,802.50
1359.098,845.00
1359.996,778.00
1360.896,802.00
1361.796,778.50
1362.694,817.00
1363.593,805.00
1364.491,792.00
1365.391,749.00
1366.290,811.00
1367.187,799.00
1368.086,717.50
1368.984,780.50
1369.883,769.50
1370.782,751.00
1371.679,779.50
1372.577,838.50
1373.474,723.50
1374.373,782.00
1375.269,776.50
1376.168,774.50
1377.066,789.00
1377.962,712.50
1378.860,787.00
1379.756,776.00
1380.654,707.00
1381.552,740.00
1382.448,766.00
1383.346,757.00
1384.241,775.50
1385.139,749.00
1386.036,758.00
1386.931,719.50
1387.829,734.00
1388.724,765.00
1389.621,753.50
1390.516,753.50
1391.413,752.50
1392.309,719.00
1393.204,742.50
1394.101,703.00
1394.995,716.50
1395.891,736.00
1396.786,701.00
1397.682,729.00
1398.578,743.50
1399.472,706.00
1400.368,694.50
1401.262,729.50
1402.158,702.00
1403.051,768.50
1403.947,720.50
1404.840,732.00
1405.736,680.50
1406.631,708.00
1407.524,717.00
1408.419,679.50
1409.312,702.50
1410.207,723.00
1411.100,685.50
1411.995,741.00
1412.888,676.50
1413.782,678.00
1414.675,692.00
1415.569,680.00
1416.463,705.00
1417.355,735.50
1418.249,694.00
1419.141,696.00
1420.035,649.50
1420.927,682.50
1421.821,698.00
1422.713,651.00
1423.606,689.00
1424.498,700.00
1425.391,699.50
1426.282,637.50
1427.175,760.00
1428.068,698.00
1428.960,678.50
1429.852,645.00
1430.743,646.50
1431.636,673.00
1432.527,662.00
1433.419,651.00
1434.310,722.00
1435.202,680.50
1436.092,651.00
1436.984,654.00
1437.875,642.50
1438.767,630.00
1439.657,685.50
1440.548,697.50
1441.438,686.00
1442.330,727.00
1443.219,645.00
1444.111,624.00
1445.000,676.00
1445.891,710.00
1446.781,678.00
1447.672,664.50
1448.561,599.50
1449.452,620.00
1450.340,581.50
1451.231,636.00
1452.120,663.00
1453.010,642.00
1453.899,657.00
1454.789,613.00
1455.677,627.00
1456.568,659.00
1457.456,609.50
1458.346,622.00
1459.234,703.00
1460.123,597.00
1461.011,600.00
1461.901,673.50
1462.788,658.50
1463.678,636.00
1464.565,667.50
1465.454,657.50
1466.342,614.00
1467.231,622.50
1468.118,605.50
1469.006,582.00
1469.893,606.00
1470.782,665.00
1471.669,646.00
1472.557,575.50
1473.444,597.00
1474.330,649.00
1475.218,618.50
1476.105,634.00
1476.993,600.00
1477.879,626.50
1478.767,649.00
1479.652,664.50
1480.540,558.50
1481.426,584.00
1482.313,621.50
1483.199,626.50
1484.086,609.50
1484.972,629.00
1485.857,597.50
1486.744,609.00
1487.629,652.50
1488.516,636.50
1489.401,604.50
1490.287,573.00
1491.172,607.50
1492.058,546.50
1492.943,616.00
1493.828,590.50
1494.714,645.00
1495.598,643.00
1496.484,622.50
1497.368,605.50
1498.254,531.00
1499.138,603.50
1500.022,578.00
1500.907,542.00
1501.791,593.00
1502.676,597.50
1503.560,618.00
1504.445,532.50
1505.328,634.00
1506.211,573.50
1507.096,623.50
1507.979,578.50
1508.864,593.50
1509.747,563.00
1510.631,600.00
1511.514,573.00
1512.397,630.00
1513.281,607.50
1514.163,539.50
1515.047,602.00
1515.930,566.00
1516.812,552.50
1517.696,573.00
1518.578,579.50
1519.461,574.00
1520.343,602.00
1521.225,574.00
1522.108,554.00
1522.990,524.00
1523.873,545.00
1524.754,581.50
1525.635,522.00
1526.518,591.50
1527.399,606.50
1528.282,564.50
1529.163,590.00
1530.044,554.00
1530.926,491.00
1531.807,603.00
1532.689,516.00
1533.569,552.00
1534.450,591.00
1535.332,579.50
1536.212,551.50
1537.092,609.00
1537.974,544.50
1538.854,525.00
1539.735,518.00
1540.615,551.00
1541.495,605.00
1542.376,564.00
1543.255,553.00
1544.135,521.00
1545.016,584.00
1545.895,574.00
1546.774,577.50
1547.655,542.00
1548.534,541.50
1549.414,559.00
1550.293,512.50
1551.172,551.50
1552.052,549.00
1552.930,541.50
1553.809,536.50
1554.689,553.00
1555.567,535.50
1556.445,579.50
1557.325,552.50
1558.203,536.00
1559.080,545.50
1559.960,537.00
1560.838,573.00
1561.715,526.50
1562.594,594.00
1563.472,538.00
1564.349,518.50
1565.228,511.00
1566.105,565.00
1566.982,577.50
1567.861,529.00
1568.738,520.50
1569.615,511.50
1570.493,525.50
1571.370,547.50
1572.246,544.00
1573.124,543.00
1574.000,532.50
1574.877,564.50
1575.755,560.50
1576.631,559.50
1577.507,568.00
1578.384,524.00
1579.260,478.00
1580.136,556.00
1581.011,544.50
1581.889,491.00
1582.764,517.00
1583.639,558.00
1584.516,467.00
1585.391,525.00
1586.266,500.50
1587.143,552.00
1588.018,574.00
1588.893,538.00
1589.768,451.00
1590.644,488.50
1591.519,522.50
1592.393,529.50
1593.269,569.00
1594.143,513.50
1595.018,487.50
1595.892,495.50
1596.767,537.00
1597.641,459.00
1598.515,522.00
1599.391,509.00
1600.264,493.00
1601.138,544.00
1602.011,513.00
1602.886,456.50
1603.760,511.00
1604.633,512.00
1605.508,494.50
1606.381,554.00
1607.254,535.00
1608.127,481.00
1609.001,560.00
1609.874,469.00
1610.746,545.00
1611.619,539.00
1612.493,542.50
1613.365,533.50
1614.238,501.50
1615.110,519.50
1615.984,497.00
1616.855,462.00
1617.727,523.00
1618.599,552.00
1619.473,519.00
1620.344,503.00
1621.216,539.00
1622.087,516.00
1622.960,543.00
1623.832,514.00
1624.703,501.50
1625.574,556.00
1626.445,524.00
1627.317,514.00
1628.188,480.00
1629.059,525.00
1629.930,483.00
1630.802,510.00
1631.672,502.00
1632.543,508.00
1633.413,451.00
1634.283,513.50
1635.155,495.50
1636.025,466.50
1636.895,525.00
1637.765,487.50
1638.636,460.50
1639.506,562.00
1640.376,534.50
1641.245,543.50
1642.114,501.00
1642.985,505.50
1643.855,468.50
1644.724,490.00
1645.593,557.50
1646.462,519.00
1647.333,488.00
1648.201,484.50
1649.070,513.00
1649.939,514.00
1650.807,537.50
1651.676,494.00
1652.546,438.00
1653.414,452.50
1654.282,502.00
1655.150,501.00
1656.018,549.00
1656.888,504.50
1657.756,511.50
1658.623,482.00
1659.491,513.00
1660.359,471.00
1661.226,514.00
1662.095,501.50
1662.962,518.50
1663.830,473.00
1664.697,498.00
1665.564,487.00
1666.431,481.00
1667.297,495.50
1668.166,514.00
1669.033,493.00
1669.899,496.00
1670.766,437.00
1671.632,499.00
1672.499,500.50
1673.367,491.00
1674.233,499.00
1675.099,482.00
1675.965,541.00
1676.831,548.00
1677.696,487.00
1678.562,525.50
1679.430,439.50
1680.295,467.00
1681.161,456.50
1682.026,488.50
1682.891,511.00
1683.756,470.00
1684.621,522.00
1685.486,494.00
1686.353,512.00
1687.218,433.00
1688.083,505.00
1688.947,504.50
1689.812,485.00
1690.677,458.00
1691.541,505.50
1692.405,480.00
1693.269,505.00
1694.135,455.00
1694.999,477.00
1695.863,482.00
1696.727,509.00
1697.591,504.00
1698.455,480.00
1699.318,520.00
1700.182,448.50
1701.045,503.50
1701.909,487.00
1702.772,485.00
1703.637,461.00
1704.500,434.00
1705.363,467.00
1706.226,531.00
1707.089,422.00
1707.951,477.00
1708.814,492.00
1709.677,445.00
1710.539,424.50
1711.402,463.00
1712.264,545.00
1713.126,483.00
1713.988,439.00
1714.852,506.00
1715.714,480.00
1716.576,492.00
1717.438,456.00
1718.299,449.00
1719.161,474.00
1720.023,468.00
1720.884,445.00
1721.745,469.50
1722.607,515.50
1723.468,522.00
1724.329,439.50
1725.190,454.50
1726.051,446.00
1726.912,498.50
1727.772,509.50
1728.633,444.00
1729.494,484.50
1730.354,472.50
1731.214,425.00
1732.075,493.00
1732.935,488.50
1733.797,486.00
1734.657,502.00
1735.517,444.50
1736.377,488.00
1737.237,508.00
1738.096,564.50
1738.956,476.00
1739.816,457.00
1740.675,473.50
1741.534,480.00
1742.394,478.00
1743.253,510.00
1744.112,480.50
1744.971,434.00
1745.830,495.50
1746.689,503.00
1747.547,438.00
1748.406,507.00
1749.265,499.50
1750.123,458.00
1750.982,459.50
1751.840,491.00
1752.698,457.00
1753.556,485.50
1754.414,523.50
1755.272,365.00
1756.130,450.50
1756.988,448.00
1757.846,441.00
1758.703,461.50
1759.559,469.50
1760.417,449.00
1761.274,453.50
1762.131,498.00
1762.989,485.00
1763.846,446.50
1764.703,462.00
1765.560,563.50
1766.417,476.50
1767.273,451.50
1768.130,457.50
1768.987,434.50
1769.843,460.50
1770.700,489.00
1771.556,507.50
1772.412,426.00
1773.268,438.00
1774.125,466.50
1774.980,488.50
1775.836,416.50
1776.692,478.50
1777.546,484.00
1778.402,457.50
1779.257,455.50
1780.113,417.50
1780.968,436.00
1781.824,443.50
1782.679,411.00
1783.534,470.00
1784.389,382.50
1785.244,456.50
1786.099,450.00
1786.954,458.00
1787.808,467.00
1788.661,409.50
1789.516,520.50
1790.370,474.50
1791.225,437.00
1792.079,482.50
1792.933,417.00
1793.787,457.00
1794.641,465.50
1795.495,465.50
1796.349,414.50
1797.201,423.00
1798.055,382.00
1798.908,446.50
1799.762,454.50
1800.615,472.50
1801.469,377.00
1802.322,434.50
1803.175,403.00
1804.028,450.00
1804.880,450.50
1805.732,431.50
1806.585,455.50
1807.438,506.50
1808.291,422.50
1809.143,465.50
1809.996,448.00
1810.846,424.00
1811.699,473.00
1812.551,469.00
1813.403,420.50
1814.255,420.00
1815.107,504.00
1815.959,434.00
1816.809,349.50
1817.661,420.50
1818.512,477.00
1819.364,424.50
1820.215,432.00
1821.067,436.50
1821.918,419.00
1822.768,413.00
1823.619,437.00
1824.470,482.00
1825.321,441.00
1826.172,432.50
1827.021,410.50
1827.871,421.50
1828.722,429.00
1829.572,462.00
1830.423,480.00
1831.273,457.00
1832.122,446.00
1832.972,461.00
1833.822,424.00
1834.672,452.50
1835.522,471.00
1836.370,468.00
1837.220,427.50
1838.070,422.50
1838.919,397.50
1839.769,473.50
1840.616,485.00
1841.466,463.50
1842.315,416.00
1843.164,416.00
1844.013,450.50
1844.860,467.00
1845.709,420.00
1846.558,458.50
1847.407,405.50
1848.254,415.50
1849.102,472.00
1849.951,405.50
1850.799,445.50
1851.648,442.00
1852.494,426.50
1853.342,487.50
1854.190,417.00
1855.038,411.50
1855.884,453.00
1856.732,450.00
1857.580,444.50
1858.428,418.50
1859.273,461.50
1860.121,429.00
1860.968,460.00
1861.816,429.50
1862.661,414.50
1863.508,434.00
1864.355,409.50
1865.202,432.00
1866.047,441.00
1866.894,428.50
1867.741,466.50
1868.586,424.50
1869.432,444.00
1870.279,455.50
1871.125,468.00
1871.970,502.50
1872.816,398.50
1873.662,457.50
1874.506,454.00
1875.352,424.50
1876.198,402.00
1877.044,431.00
1877.888,427.50
1878.734,424.50
1879.579,428.50
1880.423,418.00
1881.268,383.50
1882.113,435.50
1882.959,503.50
1883.802,455.00
1884.647,471.50
1885.492,462.00
1886.335,441.00
1887.180,432.50
1888.025,382.50
1888.867,419.50
1889.712,458.00
1890.556,451.50
1891.399,437.00
1892.243,458.00
1893.087,470.00
1893.930,478.50
1894.774,398.50
1895.618,376.00
1896.460,414.00
1897.304,432.50
1898.147,393.00
1898.989,435.50
1899.833,424.00
1900.676,430.50
1901.518,431.50
1902.361,425.50
1903.202,443.00
1904.046,423.00
1904.889,430.50
1905.730,430.50
1906.573,451.00
1907.415,401.50
1908.256,396.00
1909.099,424.50
1909.941,493.00
1910.782,430.00
1911.624,423.00
1912.465,458.00
1913.307,462.00
1914.149,397.00
1914.989,390.50
1915.831,437.50
1916.671,425.00
1917.513,420.50
1918.355,434.00
1919.195,392.00
1920.036,446.00
1920.876,372.00
1921.717,426.50
1922.558,436.50
1923.398,416.50
1924.239,427.50
1925.078,462.50
1925.919,411.00
1926.760,431.00
1927.599,394.50
1928.440,407.50
1929.279,449.00
1930.119,406.00
1930.958,413.50
1931.798,451.00
1932.638,403.00
1933.477,445.50
1934.317,425.00
1935.155,410.00
1935.995,401.00
1936.833,423.50
1937.673,473.00
1938.512,453.50
1939.350,422.50
1940.190,405.00
1941.027,468.50
1941.867,401.50
1942.704,401.50
1943.543,425.00
1944.381,436.00
1945.220,410.00
1946.057,434.50
1946.896,385.00
1947.733,447.00
1948.572,466.00
1949.408,426.50
1950.247,428.00
1951.085,450.00
1951.922,442.00
1952.760,447.00
1953.597,387.00
1954.435,434.50
1955.271,476.00
1956.109,437.00
1956.945,461.50
1957.783,428.50
1958.619,432.00
1959.456,383.00
1960.292,432.00
1961.129,433.00
1961.965,432.50
1962.802,429.50
1963.638,405.50
1964.475,402.50
1965.310,446.50
1966.145,423.50
1966.982,377.00
1967.817,399.50
1968.654,414.50
1969.489,401.00
1970.325,405.00
1971.160,454.50
1971.996,355.00
1972.831,427.00
1973.667,423.50
1974.501,412.00
1975.337,424.50
1976.171,418.50
1977.006,407.00
1977.841,434.00
1978.675,434.00
1979.511,389.00
1980.345,417.00
1981.180,454.00
1982.014,406.00
1982.849,397.50
1983.682,445.50
1984.516,449.50
1985.351,444.00
1986.184,402.00
1987.019,366.00
1987.852,399.00
1988.687,432.50
1989.519,418.50
1990.352,436.00
1991.187,417.50
1992.019,452.00
1992.854,443.00
1993.686,435.50
1994.518,463.50
1995.352,441.00
1996.185,418.00
1997.019,410.00
1997.851,338.00
1998.682,428.00
1999.516,426.00
2000.348,459.00

<< BACKGROUND SPECTRUM >>
Wave[dcm-1],No17
96.716,2568.00
97.759,2356.00
98.802,2278.00
99.846,2874.00
100.886,2562.00
101.929,2724.00
102.972,2733.00
104.015,2653.00
105.057,2788.00
106.100,2248.00
107.142,2581.00
108.184,2999.00
109.226,2862.00
110.268,3033.00
111.310,3337.00
112.352,2858.00
113.393,2970.00
114.435,2797.00
115.476,3090.00
116.517,3127.00
117.558,2616.00
118.599,2921.00
119.640,3263.00
120.681,3236.00
121.722,3187.00
122.762,2908.00
123.803,2751.00
124.843,3114.00
125.883,3369.00
126.923,3610.00
127.963,3253.00
129.001,3603.00
130.041,3992.00
131.080,3274.00
132.120,3172.00
133.159,3522.00
134.199,3602.00
135.238,3145.00
136.277,3492.00
137.316,3760.00
138.355,3596.00
139.393,3221.00
140.432,3282.00
141.470,3421.00
142.509,3141.00
143.547,3737.00
144.585,2955.00
145.623,3409.00
146.661,3130.00
147.699,3491.00
148.736,3578.00
149.774,3242.00
150.811,3518.00
151.849,3932.00
152.886,3435.00
153.923,3660.00
154.960,3120.00
155.997,3936.00
157.034,4961.00
158.072,3563.00
159.109,4085.00
160.145,4184.00
161.182,3225.00
162.218,3482.00
163.254,3267.00
164.290,3266.00
165.326,4008.00
166.361,3862.00
167.397,3504.00
168.432,3770.00
169.468,3432.00
170.503,3656.00
171.538,3360.00
172.573,3733.00
173.608,3200.00
174.643,3781.00
175.677,3668.00
176.712,3797.00
177.746,3818.00
178.781,3308.00
179.815,2698.00
180.849,3737.00
181.883,3315.00
182.917,2816.00
183.951,3149.00
184.984,3889.00
186.020,3303.00
187.053,3611.00
188.087,3244.00
189.120,3495.00
190.153,3670.00
191.186,3675.00
192.219,3790.00
193.251,3645.00
194.284,3782.00
195.317,3829.00
196.349,6026.00
197.381,3437.00
198.413,3447.00
199.445,3205.00
200.477,3551.00
201.509,3536.00
202.543,3539.00
203.575,3934.00
204.606,3659.00
205.637,4410.00
206.669,3184.00
207.700,3695.00
208.731,3533.00
209.762,3198.00
210.792,3217.00
211.823,3661.00
212.854,3258.00
213.884,4390.00
214.914,3725.00
215.947,3515.00
216.977,3658.00
218.007,3600.00
219.037,3797.00
220.066,3327.00
221.096,3818.00
222.126,3168.00
223.155,3401.00
224.184,3730.00
225.214,4278.00
226.245,3929.00
227.274,3309.00
228.302,3662.00
229.331,3732.00
230.360,3449.00
231.388,3423.00
232.417,3207.00
233.445,3601.00
234.473,3397.00
235.501,3786.00
236.531,3739.00
237.559,3703.00
238.587,3307.00
239.614,3366.00
240.642,3621.00
241.669,3691.00
242.696,3731.00
243.724,3730.00
244.753,4005.00
245.780,3431.00
246.806,3251.00
247.833,3598.00
248.860,3489.00
249.886,3602.00
250.913,3255.00
251.939,3543.00
252.967,3468.00
253.993,3526.00
255.019,3960.00
256.045,3590.00
257.070,4054.00
258.096,3312.00
259.121,3676.00
260.147,3596.00
261.174,3441.00
262.199,3428.00
263.224,3584.00
264.249,3901.00
265.274,4065.00
266.298,3550.00
267.323,3609.00
268.349,3881.00
269.374,3191.00
270.398,3263.00
271.422,3689.00
272.446,3299.00
273.470,3106.00
274.496,3743.00
275.519,3758.00
276.543,3874.00
277.566,3891.00
278.589,3845.00
279.613,3751.00
280.636,3712.00
281.661,3828.00
282.684,3834.00
283.706,3947.00
284.729,4131.00
285.751,3013.00
286.774,4013.00
287.798,3416.00
288.820,3006.00
289.842,3331.00
290.864,3318.00
291.886,3667.00
292.910,3465.00
293.932,4076.00
294.953,3531.00
295.974,3601.00
296.996,3702.00
298.017,3531.00
299.040,3372.00
300.061,3718.00
301.082,3370.00
302.102,3269.00
303.123,3766.00
304.143,3524.00
305.166,3513.00
306.186,3729.00
307.206,3335.00
308.226,3708.00
309.246,3097.00
310.268,3931.00
311.288,3458.00
312.307,3235.00
313.327,3504.00
314.346,3783.00
315.368,3023.00
316.387,3681.00
317.406,3607.00
318.425,3597.00
319.443,3486.00
320.464,3183.00
321.483,4067.00
322.501,3335.00
323.520,3935.00
324.538,3480.00
325.558,4030.00
326.576,3602.00
327.594,3546.00
328.612,3363.00
329.629,3149.00
330.649,3792.00
331.666,3569.00
332.684,3173.00
333.701,3755.00
334.718,3211.00
335.737,3413.00
336.754,3758.00
337.771,3787.00
338.787,3210.00
339.806,3494.00
340.823,3415.00
341.839,3536.00
342.855,3458.00
343.871,3589.00
344.889,3353.00
345.905,3858.00
346.921,3797.00
347.937,4333.00
348.954,4186.00
349.970,3690.00
350.985,3588.00
352.000,3139.00
353.017,3751.00
354.032,3108.00
355.047,3837.00
356.062,3496.00
357.077,3402.00
358.093,3999.00
359.108,3728.00
360.122,3614.00
361.136,3505.00
362.152,3949.00
363.166,3286.00
364.180,3144.00
365.194,3980.00
366.210,3434.00
367.223,3315.00
368.237,3429.00
369.250,3580.00
370.265,3325.00
371.278,3884.00
372.291,3682.00
373.304,3043.00
374.319,3721.00
375.332,3815.00
376.344,4020.00
377.357,3433.00
378.371,3819.00
379.383,3399.00
380.395,4339.00
381.407,4064.00
382.421,3434.00
383.433,3459.00
384.445,3375.00
385.456,3555.00
386.470,3057.00
387.481,3925.00
388.492,3906.00
389.505,3270.00
390.516,3926.00
391.527,3491.00
392.538,3474.00
393.551,3724.00
394.561,4352.00
395.572,3684.00
396.582,3659.00
397.594,3733.00
398.604,3424.00
399.614,3649.00
400.624,3405.00
401.636,3463.00
402.646,3547.00
403.655,3213.00
404.667,3407.00
405.676,3403.00
406.685,4302.00
407.694,3954.00
408.705,2987.00
409.714,3110.00
410.723,3262.00
411.734,3333.00
412.742,3424.00
413.751,3575.00
414.759,3624.00
415.769,3625.00
416.777,3795.00
417.785,3557.00
418.795,3378.00
419.803,3592.00
420.811,3274.00
421.818,3962.00
422.828,3502.00
423.835,3385.00
424.842,3408.00
425.852,3296.00
426.859,3701.00
427.866,3804.00
428.874,3594.00
429.881,3465.00
430.888,3756.00
431.894,3615.00
432.902,3540.00
433.909,4508.00
434.915,3642.00
435.923,4269.00
436.929,3082.00
437.935,3485.00
438.942,3445.00
439.948,3557.00
440.953,4103.00
441.959,3193.00
442.966,3927.00
443.971,3690.00
444.976,3178.00
445.983,3606.00
446.988,3459.00
447.993,4043.00
448.999,3636.00
450.004,3536.00
451.008,3376.00
452.014,4026.00
453.019,3811.00
454.023,3265.00
455.029,3216.00
456.032,4020.00
457.036,3489.00
458.042,2911.00
459.045,3447.00
460.049,3748.00
461.052,4053.00
462.057,3758.00
463.060,4006.00
464.063,3375.00
465.068,3460.00
466.071,3302.00
467.073,3921.00
468.078,3176.00
469.080,3091.00
470.082,3532.00
471.087,3433.00
472.089,3587.00
473.091,3828.00
474.095,4030.00
475.096,3428.00
476.098,3387.00
477.101,3763.00
478.103,3304.00
479.104,4169.00
480.107,3492.00
481.108,3091.00
482.109,4159.00
483.112,4180.00
484.113,4595.00
485.114,3712.00
486.116,3590.00
487.117,3850.00
488.117,3613.00
489.119,3698.00
490.119,3789.00
491.121,3268.00
492.121,3040.00
493.121,2866.00
494.123,3604.00
495.122,3635.00
496.122,3576.00
497.123,4492.00
498.122,3360.00
499.121,3641.00
500.122,3563.00
501.121,3168.00
502.120,3181.00
503.121,3228.00
504.119,3262.00
505.118,3778.00
506.118,3260.00
507.117,3278.00
508.115,3717.00
509.115,3536.00
510.113,3069.00
511.112,3848.00
512.110,3477.00
513.108,3783.00
514.107,3921.00
515.105,3759.00
516.102,3932.00
517.101,3498.00
518.098,3578.00
519.095,4111.00
520.094,3366.00
521.091,3441.00
522.089,3728.00
523.086,3385.00
524.082,3699.00
525.081,3604.00
526.077,4742.00
527.073,4541.00
528.071,3531.00
529.067,3395.00
530.064,3456.00
531.060,3160.00
532.056,3430.00
533.053,3878.00
534.048,3759.00
535.044,3524.00
536.041,3673.00
537.036,3569.00
538.030,3696.00
539.027,3807.00
540.022,3197.00
541.019,3483.00
542.013,3794.00
543.007,3600.00
544.004,3483.00
544.998,3539.00
545.994,4126.00
546.988,3900.00
547.981,3425.00
548.977,4134.00
549.971,3683.00
550.964,3824.00
551.960,3608.00
552.953,3567.00
553.948,3816.00
554.941,3379.00
555.934,3184.00
556.929,3729.00
557.922,3290.00
558.916,3812.00
559.909,4054.00
560.901,3600.00
561.895,3638.00
562.888,3281.00
563.880,3752.00
564.874,3896.00
565.865,3797.00
566.859,3209.00
567.851,4059.00
568.842,3433.00
569.836,3561.00
570.827,3262.00
571.820,3618.00
572.811,3715.00
573.802,3563.00
574.795,3334.00
575.786,3812.00
576.779,3668.00
577.769,3218.00
578.760,3643.00
579.752,3220.00
580.742,3373.00
581.735,3709.00
582.725,3325.00
583.714,3774.00
584.706,3224.00
585.696,3482.00
586.688,3791.00
587.677,3446.00
588.667,3685.00
589.658,3496.00
590.647,3668.00
591.638,3607.00
592.627,3408.00
593.616,3122.00
594.607,3665.00
595.595,3573.00
596.586,3187.00
597.574,3925.00
598.562,3941.00
599.553,3174.00
600.541,3530.00
601.531,3742.00
602.519,3451.00
603.508,3706.00
604.496,3681.00
605.484,3613.00
606.473,3492.00
607.460,3435.00
608.450,3424.00
609.437,3759.00
610.424,3870.00
611.413,3104.00
612.400,3254.00
613.388,3600.00
614.375,3411.00
615.361,3473.00
616.350,3268.00
617.336,8360.00
618.324,3900.00
619.310,3378.00
620.298,3190.00
621.284,3640.00
622.270,3276.00
623.257,3552.00
624.243,3601.00
625.230,3793.00
626.216,3509.00
627.203,3933.00
628.188,3460.00
629.173,3399.00
630.160,3299.00
631.145,2695.00
632.131,3371.00
633.116,3176.00
634.102,3659.00
635.087,3818.00
636.071,3799.00
637.057,3330.00
638.041,3109.00
639.027,3251.00
640.011,3420.00
640.995,3262.00
641.980,3300.00
642.964,3383.00
643.949,3935.00
644.932,2785.00
645.918,3348.00
646.901,3500.00
647.886,3330.00
648.868,3414.00
649.851,3178.00
650.836,2940.00
651.818,3196.00
652.803,3745.00
653.785,3500.00
654.769,3656.00
655.751,3669.00
656.733,3928.00
657.717,3039.00
658.699,3581.00
659.683,3277.00
660.664,3175.00
661.648,3360.00
662.629,3371.00
663.611,3287.00
664.594,3047.00
665.575,3074.00
666.558,3424.00
667.539,3083.00
668.521,3374.00
669.502,3366.00
670.484,3368.00
671.465,3285.00
672.445,3407.00
673.427,3217.00
674.407,3204.00
675.390,3568.00
676.369,3334.00
677.351,2958.00
678.331,3599.00
679.312,3405.00
680.292,3204.00
681.271,2972.00
682.253,3577.00
683.232,3062.00
684.213,3206.00
685.192,3701.00
686.172,3937.00
687.151,3426.00
688.132,3433.00
689.110,3585.00
690.089,3751.00
691.069,2906.00
692.047,2809.00
693.027,2962.00
694.005,3443.00
694.985,3986.00
695.963,3516.00
696.943,3219.00
697.920,2988.00
698.898,3755.00
699.877,3592.00
700.854,3209.00
701.833,3238.00
702.810,3784.00
703.789,3427.00
704.766,4461.00
705.745,3931.00
706.721,3165.00
707.698,3716.00
708.676,3066.00
709.653,3319.00
710.631,3722.00
711.607,3347.00
712.585,3417.00
713.561,3112.00
714.539,3931.00
715.514,3288.00
716.492,3078.00
717.467,3834.00
718.443,3048.00
719.420,3647.00
720.395,3809.00
721.372,3512.00
722.347,3652.00
723.324,3233.00
724.298,3355.00
725.275,3102.00
726.250,3284.00
727.226,3148.00
728.200,2998.00
729.176,3278.00
730.151,3560.00
731.125,3816.00
732.100,2953.00
733.074,3349.00
734.050,3180.00
735.023,3020.00
735.999,3249.00
736.972,3226.00
737.947,3699.00
738.921,3413.00
739.896,3537.00
740.869,3446.00
741.841,3248.00
742.816,3754.00
743.789,3094.00
744.763,3054.00
745.736,3325.00
746.710,3169.00
747.682,3084.00
748.656,3297.00
749.628,3268.00
750.602,3287.00
751.574,3362.00
752.548,4229.00
753.519,3458.00
754.491,2925.00
755.464,3158.00
756.435,3976.00
757.408,3603.00
758.379,3521.00
759.352,2935.00
760.323,2993.00
761.296,3268.00
762.267,3403.00
763.239,3059.00
764.209,3562.00
765.182,4510.00
766.152,3604.00
767.124,3103.00
768.094,3103.00
769.064,3517.00
770.036,2985.00
771.005,3661.00
771.977,3130.00
772.947,3243.00
773.918,3758.00
774.887,3270.00
775.858,3114.00
776.827,3264.00
777.798,3271.00
778.767,3832.00
779.738,3265.00
780.707,3192.00
781.677,3364.00
782.646,3107.00
783.614,3640.00
784.584,3382.00
785.552,3504.00
786.522,2976.00
787.490,3262.00
788.460,3177.00
789.428,3169.00
790.397,3713.00
791.365,2969.00
792.334,3217.00
793.302,3399.00
794.271,3395.00
795.238,3219.00
796.207,3154.00
797.174,3571.00
798.143,3026.00
799.109,3643.00
800.076,3222.00
801.044,2869.00
802.011,3043.00
802.979,3109.00
803.945,3291.00
804.913,3896.00
805.879,3254.00
806.847,2935.00
807.813,3619.00
808.780,3235.00
809.746,3252.00
810.713,3656.00
811.678,2958.00
812.646,3186.00
813.611,3222.00
814.578,2964.00
815.543,3604.00
816.510,2848.00
817.474,3140.00
818.439,3204.00
819.405,3528.00
820.370,3105.00
821.336,2984.00
822.300,3417.00
823.266,3193.00
824.230,3429.00
825.196,3255.00
826.160,3629.00
827.126,3595.00
828.089,4023.00
829.055,3302.00
830.018,3374.00
830.983,4071.00
831.946,3094.00
832.911,3090.00
833.874,3872.00
834.837,3097.00
835.802,3211.00
836.765,3697.00
837.729,3108.00
838.691,3204.00
839.656,3590.00
840.618,3411.00
841.582,3527.00
842.544,3549.00
843.508,3684.00
844.470,3021.00
845.434,2822.00
846.395,2746.00
847.359,3139.00
848.320,2888.00
849.283,3062.00
850.245,3105.00
851.208,3484.00
852.169,3202.00
853.130,2976.00
854.092,3433.00
855.053,3182.00
856.016,3209.00
856.976,4328.00
857.938,3293.00
858.899,3311.00
859.861,2924.00
860.821,3203.00
861.783,2564.00
862.743,3247.00
863.704,3550.00
864.664,2724.00
865.626,3335.00
866.585,3060.00
867.546,3255.00
868.506,3325.00
869.467,2793.00
870.426,3306.00
871.387,3513.00
872.346,3598.00
873.304,3327.00
874.265,3431.00
875.223,3261.00
876.184,3310.00
877.142,3108.00
878.102,3211.00
879.060,3215.00
880.021,3334.00
880.978,2840.00
881.938,3161.00
882.896,3562.00
883.856,3411.00
884.813,3157.00
885.772,3141.00
886.730,3383.00
887.689,3360.00
888.646,3018.00
889.603,3627.00
890.562,3611.00
891.519,3330.00
892.477,3369.00
893.434,3273.00
894.392,2851.00
895.349,3279.00
896.307,3320.00
897.263,3427.00
898.221,3327.00
899.177,3082.00
900.135,3458.00
901.091,3180.00
902.048,3694.00
903.004,3178.00
903.961,3053.00
904.917,3229.00
905.874,3224.00
906.829,2940.00
907.784,3289.00
908.741,3286.00
909.696,3118.00
910.653,2733.00
911.607,3165.00
912.564,3107.00
913.518,3181.00
914.475,3305.00
915.429,4954.00
916.385,3003.00
917.339,3611.00
918.295,3366.00
919.249,3471.00
920.205,3296.00
921.158,3374.00
922.114,3151.00
923.067,3245.00
924.020,3275.00
924.976,3140.00
925.929,3396.00
926.884,3282.00
927.837,3506.00
928.791,3450.00
929.744,2933.00
930.699,3241.00
931.651,3232.00
932.606,2892.00
933.558,3116.00
934.512,3486.00
935.464,3302.00
936.418,3588.00
937.370,3416.00
938.322,3048.00
939.276,3153.00
940.227,3212.00
941.181,3332.00
942.132,3672.00
943.085,3820.00
944.036,2839.00
944.990,3557.00
945.941,3000.00
946.893,3125.00
947.844,2905.00
948.797,3379.00
949.747,3982.00
950.700,3100.00
951.650,2682.00
952.601,3343.00
953.553,3050.00
954.503,3444.00
955.455,3208.00
956.405,3209.00
957.356,2947.00
958.306,3445.00
959.258,3212.00
960.207,3632.00
961.158,3562.00
962.108,3271.00
963.059,2942.00
964.008,2869.00
964.959,3820.00
965.908,3201.00
966.856,3026.00
967.807,2808.00
968.756,3559.00
969.706,3293.00
970.654,3170.00
971.605,3257.00
972.553,3321.00
973.503,3219.00
974.451,3506.00
975.401,3292.00
976.348,3259.00
977.296,3107.00
978.246,3507.00
979.193,3620.00
980.142,2993.00
981.090,3327.00
982.039,3222.00
982.986,3310.00
983.935,3568.00
984.882,3255.00
985.830,3454.00
986.777,3365.00
987.725,3105.00
988.672,3001.00
989.618,3247.00
990.567,2988.00
991.513,3118.00
992.461,3047.00
993.407,3430.00
994.354,3339.00
995.300,3373.00
996.248,3264.00
997.193,3407.00
998.141,3132.00
999.086,3387.00
1000.031,3307.00
1000.978,2796.00
1001.924,3179.00
1002.870,3368.00
1003.815,2654.00
1004.762,3051.00
1005.707,3213.00
1006.653,3139.00
1007.598,3152.00
1008.542,2901.00
1009.488,2886.00
1010.432,3138.00
1011.378,2959.00
1012.322,3640.00
1013.268,2886.00
1014.212,3204.00
1015.157,3301.00
1016.101,3650.00
1017.046,2901.00
1017.990,2973.00
1018.933,3176.00
1019.878,2966.00
1020.821,3041.00
1021.766,2871.00
1022.709,3114.00
1023.654,3217.00
1024.596,3472.00
1025.541,3626.00
1026.483,3574.00
1027.425,3305.00
1028.370,3394.00
1029.312,3456.00
1030.256,3065.00
1031.198,3049.00
1032.141,3106.00
1033.083,3624.00
1034.027,3348.00
1034.968,3358.00
1035.910,2731.00
1036.853,3217.00
1037.794,3329.00
1038.738,2929.00
1039.679,3508.00
1040.621,3035.00
1041.562,3111.00
1042.503,3463.00
1043.446,2922.00
1044.386,3421.00
1045.329,3251.00
1046.269,3311.00
1047.211,3107.00
1048.151,3276.00
1049.093,2914.00
1050.033,3942.00
1050.973,3358.00
1051.915,3147.00
1052.854,3065.00
1053.796,3424.00
1054.735,3049.00
1055.677,3052.00
1056.616,3287.00
1057.555,3302.00
1058.496,2917.00
1059.435,3423.00
1060.376,3012.00
1061.315,3031.00
1062.255,2921.00
1063.194,3139.00
1064.132,2915.00
1065.073,3261.00
1066.011,3251.00
1066.951,3190.00
1067.889,2943.00
1068.829,3291.00
1069.767,3238.00
1070.705,2587.00
1071.644,3072.00
1072.582,2799.00
1073.521,3094.00
1074.459,3145.00
1075.398,3319.00
1076.335,3048.00
1077.272,3846.00
1078.211,3325.00
1079.148,3735.00
1080.087,3214.00
1081.023,3608.00
1081.962,3445.00
1082.898,2722.00
1083.835,3019.00
1084.773,2777.00
1085.709,2788.00
1086.647,3163.00
1087.583,3041.00
1088.519,3262.00
1089.457,3327.00
1090.392,2752.00
1091.330,3218.00
1092.266,3111.00
1093.203,3457.00
1094.138,2814.00
1095.073,3680.00
1096.010,3441.00
1096.945,3159.00
1097.882,2802.00
1098.817,2665.00
1099.752,3848.00
1100.688,3211.00
1101.623,3231.00
1102.559,3240.00
1103.493,3514.00
1104.430,2700.00
1105.364,2814.00
1106.298,3127.00
1107.234,3724.00
1108.167,2904.00
1109.094,3092.00
1110.019,3136.00
1110.945,3266.00
1111.869,3213.00
1112.795,3060.00
1113.720,3149.00
1114.646,3132.00
1115.571,2624.00
1116.495,3227.00
1117.420,3197.00
1118.345,3003.00
1119.270,3085.00
1120.195,3273.00
1121.118,3514.00
1122.042,3403.00
1122.967,3134.00
1123.891,3230.00
1124.816,3215.00
1125.738,3209.00
1126.663,2551.00
1127.587,3016.00
1128.511,3016.00
1129.435,3175.00
1130.357,3275.00
1131.280,3995.00
1132.204,2948.00
1133.128,2968.00
1134.051,3050.00
1134.972,3782.00
1135.896,3079.00
1136.819,3428.00
1137.742,2989.00
1138.665,3244.00
1139.586,3124.00
1140.509,2687.00
1141.431,2952.00
1142.354,3574.00
1143.276,3157.00
1144.197,3577.00
1145.119,3206.00
1146.041,2872.00
1146.964,3296.00
1147.885,3230.00
1148.806,3102.00
1149.727,3192.00
1150.649,2777.00
1151.571,3129.00
1152.492,3348.00
1153.412,3305.00
1154.333,3117.00
1155.254,3031.00
1156.175,3018.00
1157.095,3608.00
1158.016,3186.00
1158.936,2990.00
1159.857,3299.00
1160.778,3072.00
1161.697,2761.00
1162.617,3212.00
1163.537,3856.00
1164.458,3646.00
1165.376,2969.00
1166.296,3350.00
1167.216,3484.00
1168.136,2984.00
1169.056,2853.00
1169.974,3039.00
1170.893,3685.00
1171.813,3304.00
1172.732,3064.00
1173.650,3247.00
1174.569,3982.00
1175.488,3311.00
1176.407,2861.00
1177.326,2920.00
1178.243,3163.00
1179.161,3060.00
1180.080,3047.00
1180.999,3274.00
1181.915,3137.00
1182.834,2691.00
1183.752,3313.00
1184.670,3723.00
1185.586,2692.00
1186.504,3018.00
1187.422,3098.00
1188.340,2858.00
1189.258,3327.00
1190.173,3149.00
1191.091,3485.00
1192.008,2941.00
1192.926,2965.00
1193.841,3251.00
1194.758,3250.00
1195.675,2878.00
1196.592,3411.00
1197.507,2935.00
1198.424,3290.00
1199.340,3573.00
1200.257,3100.00
1201.172,3302.00
1202.088,2582.00
1203.004,3236.00
1203.920,3391.00
1204.835,3768.00
1205.750,3516.00
1206.666,3537.00
1207.582,2924.00
1208.496,2951.00
1209.412,3092.00
1210.327,3005.00
1211.243,3658.00
1212.156,2964.00
1213.071,2907.00
1213.986,3156.00
1214.901,2850.00
1215.814,2797.00
1216.729,2928.00
1217.644,2935.00
1218.559,2920.00
1219.471,3908.00
1220.386,3451.00
1221.300,2917.00
1222.213,3322.00
1223.127,3108.00
1224.041,3520.00
1224.955,2903.00
1225.867,3227.00
1226.781,3388.00
1227.694,3548.00
1228.608,3080.00
1229.520,3366.00
1230.433,3347.00
1231.346,2936.00
1232.260,3289.00
1233.171,2889.00
1234.084,3209.00
1234.997,3546.00
1235.908,3009.00
1236.821,3306.00
1237.733,4259.00
1238.646,3439.00
1239.556,3229.00
1240.469,3107.00
1241.381,2972.00
1242.293,2926.00
1243.203,3639.00
1244.115,3678.00
1245.027,3259.00
1245.937,3024.00
1246.849,3069.00
1247.761,3167.00
1248.672,2944.00
1249.582,3022.00
1250.493,3708.00
1251.404,3199.00
1252.313,3343.00
1253.225,3512.00
1254.135,4072.00
1255.046,3333.00
1255.955,3366.00
1256.866,3650.00
1257.777,3036.00
1258.685,2856.00
1259.596,2595.00
1260.506,3468.00
1261.416,3072.00
1262.324,3361.00
1263.234,3104.00
1264.144,3379.00
1265.052,3264.00
1265.962,3132.00
1266.872,3442.00
1267.779,3380.00
1268.689,2723.00
1269.598,2864.00
1270.507,3112.00
1271.415,3040.00
1272.324,3197.00
1273.233,3147.00
1274.140,3024.00
1275.048,2905.00
1275.957,2660.00
1276.864,2939.00
1277.772,2979.00
1278.681,2653.00
1279.587,2922.00
1280.496,3304.00
1281.404,3902.00
1282.312,3366.00
1283.218,2887.00
1284.126,2933.00
1285.033,3676.00
1285.939,3104.00
1286.847,3201.00
1287.754,3075.00
1288.660,2903.00
1289.567,3760.00
1290.474,3240.00
1291.380,3355.00
1292.286,2823.00
1293.193,3211.00
1294.098,3176.00
1295.005,2977.00
1295.912,3499.00
1296.816,3231.00
1297.723,3079.00
1298.629,3016.00
1299.534,3527.00
1300.440,3267.00
1301.346,2958.00
1302.250,2994.00
1303.156,2692.00
1304.062,3563.00
1304.966,3667.00
1305.871,3460.00
1306.777,2969.00
1307.680,3100.00
1308.586,3263.00
1309.491,3403.00
1310.394,3140.00
1311.299,3399.00
1312.204,3668.00
1313.107,3335.00
1314.012,3235.00
1314.917,2868.00
1315.819,3295.00
1316.724,3664.00
1317.628,3226.00
1318.531,3103.00
1319.435,3500.00
1320.339,4014.00
1321.241,3132.00
1322.145,3156.00
1323.049,3214.00
1323.951,2945.00
1324.854,2905.00
1325.756,3425.00
1326.659,3233.00
1327.563,2953.00
1328.464,3302.00
1329.367,3107.00
1330.271,3498.00
1331.172,2910.00
1332.074,3171.00
1332.977,2917.00
1333.878,3278.00
1334.781,3432.00
1335.683,2921.00
1336.584,3062.00
1337.486,2735.00
1338.387,3301.00
1339.289,2845.00
1340.191,2990.00
1341.091,3089.00
1341.993,2878.00
1342.895,2979.00
1343.794,3250.00
1344.696,3353.00
1345.596,3294.00
1346.497,2896.00
1347.398,3107.00
1348.298,2672.00
1349.199,3686.00
1350.100,3065.00
1350.999,3477.00
1351.900,3338.00
1352.799,3468.00
1353.699,3240.00
1354.600,3086.00
1355.499,3198.00
1356.399,2737.00
1357.297,3101.00
1358.198,3172.00
1359.098,2876.00
1359.996,2853.00
1360.896,3586.00
1361.796,3434.00
1362.694,3268.00
1363.593,3120.00
1364.491,3307.00
1365.391,3728.00
1366.290,3093.00
1367.187,2925.00
1368.086,3417.00
1368.984,3222.00
1369.883,2745.00
1370.782,3174.00
1371.679,3315.00
1372.577,3619.00
1373.474,3216.00
1374.373,3106.00
1375.269,3188.00
1376.168,3079.00
1377.066,3403.00
1377.962,3389.00
1378.860,3505.00
1379.756,3493.00
1380.654,3750.00
1381.552,3374.00
1382.448,3307.00
1383.346,3171.00
1384.241,3283.00
1385.139,3388.00
1386.036,3036.00
1386.931,2787.00
1387.829,3243.00
1388.724,3378.00
1389.621,3037.00
1390.516,3201.00
1391.413,3039.00
1392.309,2923.00
1393.204,3432.00
1394.101,3359.00
1394.995,3319.00
1395.891,3315.00
1396.786,2938.00
1397.682,3128.00
1398.578,3255.00
1399.472,3478.00
1400.368,3174.00
1401.262,3133.00
1402.158,3320.00
1403.051,3075.00
1403.947,3036.00
1404.840,3376.00
1405.736,3387.00
1406.631,2916.00
1407.524,3595.00
1408.419,3200.00
1409.312,3024.00
1410.207,3271.00
1411.100,3017.00
1411.995,2982.00
1412.888,3369.00
1413.782,2813.00
1414.675,3486.00
1415.569,2890.00
1416.463,3073.00
1417.355,3090.00
1418.249,2950.00
1419.141,3244.00
1420.035,3321.00
1420.927,3114.00
1421.821,3485.00
1422.713,3072.00
1423.606,3296.00
1424.498,3166.00
1425.391,3756.00
1426.282,2967.00
1427.175,3053.00
1428.068,2632.00
1428.960,3224.00
1429.852,3297.00
1430.743,2927.00
1431.636,3179.00
1432.527,3481.00
1433.419,3345.00
1434.310,3322.00
1435.202,2943.00
1436.092,3099.00
1436.984,3115.00
1437.875,3530.00
1438.767,3185.00
1439.657,2970.00
1440.548,3303.00
1441.438,3226.00
1442.330,3236.00
1443.219,3122.00
1444.111,3408.00
1445.000,3003.00
1445.891,2845.00
1446.781,2953.00
1447.672,3236.00
1448.561,3541.00
1449.452,3327.00
1450.340,2983.00
1451.231,2962.00
1452.120,2869.00
1453.010,3423.00
1453.899,3022.00
1454.789,3387.00
1455.677,3537.00
1456.568,3183.00
1457.456,3211.00
1458.346,3165.00
1459.234,3195.00
1460.123,3526.00
1461.011,3187.00
1461.901,3510.00
1462.788,3562.00
1463.678,3302.00
1464.565,3153.00
1465.454,3075.00
1466.342,3281.00
1467.231,2541.00
1468.118,3449.00
1469.006,3599.00
1469.893,2906.00
1470.782,3307.00
1471.669,3487.00
1472.557,3498.00
1473.444,3198.00
1474.330,3365.00
1475.218,3526.00
1476.105,3099.00
1476.993,3209.00
1477.879,3432.00
1478.767,3063.00
1479.652,2933.00
1480.540,3274.00
1481.426,3379.00
1482.313,3304.00
1483.199,3554.00
1484.086,3406.00
1484.972,2873.00
1485.857,2923.00
1486.744,3264.00
1487.629,2745.00
1488.516,3053.00
1489.401,3374.00
1490.287,3203.00
1491.172,2781.00
1492.058,3127.00
1492.943,2955.00
1493.828,2985.00
1494.714,3322.00
1495.598,3522.00
1496.484,3955.00
1497.368,2847.00
1498.254,3178.00
1499.138,3205.00
1500.022,3184.00
1500.907,3330.00
1501.791,3915.00
1502.676,3181.00
1503.560,3002.00
1504.445,3764.00
1505.328,3288.00
1506.211,3567.00
1507.096,3130.00
1507.979,3476.00
1508.864,3124.00
1509.747,3340.00
1510.631,3214.00
1511.514,3345.00
1512.397,3404.00
1513.281,3664.00
1514.163,3453.00
1515.047,3060.00
1515.930,2910.00
1516.812,3204.00
1517.696,3357.00
1518.578,3130.00
1519.461,3256.00
1520.343,3652.00
1521.225,3000.00
1522.108,3143.00
1522.990,3517.00
1523.873,3612.00
1524.754,2797.00
1525.635,2680.00
1526.518,3299.00
1527.399,3098.00
1528.282,3196.00
1529.163,3294.00
1530.044,3169.00
1530.926,2923.00
1531.807,2913.00
1532.689,3260.00
1533.569,2997.00
1534.450,4254.00
1535.332,3387.00
1536.212,3095.00
1537.092,3441.00
1537.974,2882.00
1538.854,3140.00
1539.735,3743.00
1540.615,3379.00
1541.495,2927.00
1542.376,3608.00
1543.255,2888.00
1544.135,3135.00
1545.016,3202.00
1545.895,2951.00
1546.774,3389.00
1547.655,2745.00
1548.534,3175.00
1549.414,3076.00
1550.293,2898.00
1551.172,3258.00
1552.052,3170.00
1552.930,3046.00
1553.809,3688.00
1554.689,3101.00
1555.567,3112.00
1556.445,3069.00
1557.325,3493.00
1558.203,2808.00
1559.080,3191.00
1559.960,3120.00
1560.838,3839.00
1561.715,3115.00
1562.594,3476.00
1563.472,3379.00
1564.349,3356.00
1565.228,2775.00
1566.105,2935.00
1566.982,3217.00
1567.861,3475.00
1568.738,3137.00
1569.615,2791.00
1570.493,3079.00
1571.370,3062.00
1572.246,2614.00
1573.124,3166.00
1574.000,3127.00
1574.877,3379.00
1575.755,3049.00
1576.631,2925.00
1577.507,3552.00
1578.384,3535.00
1579.260,3323.00
1580.136,3743.00
1581.011,3179.00
1581.889,3168.00
1582.764,3203.00
1583.639,3455.00
1584.516,3367.00
1585.391,3075.00
1586.266,3260.00
1587.143,3663.00
1588.018,3311.00
1588.893,3550.00
1589.768,3995.00
1590.644,3929.00
1591.519,2946.00
1592.393,3335.00
1593.269,3416.00
1594.143,2983.00
1595.018,3142.00
1595.892,3076.00
1596.767,2695.00
1597.641,2736.00
1598.515,2842.00
1599.391,3320.00
1600.264,3020.00
1601.138,2974.00
1602.011,2560.00
1602.886,3748.00
1603.760,3493.00
1604.633,3456.00
1605.508,3388.00
1606.381,3253.00
1607.254,3164.00
1608.127,3327.00
1609.001,2885.00
1609.874,3536.00
1610.746,3414.00
1611.619,3181.00
1612.493,3398.00
1613.365,2975.00
1614.238,3237.00
1615.110,3217.00
1615.984,3199.00
1616.855,3040.00
1617.727,3394.00
1618.599,3011.00
1619.473,3499.00
1620.344,2543.00
1621.216,3192.00
1622.087,3236.00
1622.960,3178.00
1623.832,3171.00
1624.703,3323.00
1625.574,3380.00
1626.445,3212.00
1627.317,3232.00
1628.188,3434.00
1629.059,3107.00
1629.930,3544.00
1630.802,3164.00
1631.672,3372.00
1632.543,3333.00
1633.413,3226.00
1634.283,3661.00
1635.155,3273.00
1636.025,3296.00
1636.895,3239.00
1637.765,2693.00
1638.636,3163.00
1639.506,3270.00
1640.376,3917.00
1641.245,3111.00
1642.114,3210.00
1642.985,2650.00
1643.855,2952.00
1644.724,3099.00
1645.593,3318.00
1646.462,3312.00
1647.333,3224.00
1648.201,3073.00
1649.070,3247.00
1649.939,3353.00
1650.807,2929.00
1651.676,3404.00
1652.546,3434.00
1653.414,3534.00
1654.282,3194.00
1655.150,3063.00
1656.018,3140.00
1656.888,3840.00
1657.756,3168.00
1658.623,2852.00
1659.491,2770.00
1660.359,3568.00
1661.226,3029.00
1662.095,3356.00
1662.962,3052.00
1663.830,3148.00
1664.697,3013.00
1665.564,3187.00
1666.431,3340.00
1667.297,2924.00
1668.166,2900.00
1669.033,2767.00
1669.899,3026.00
1670.766,2856.00
1671.632,3073.00
1672.499,3488.00
1673.367,3199.00
1674.233,3408.00
1675.099,3193.00
1675.965,2842.00
1676.831,3080.00
1677.696,3506.00
1678.562,5717.00
1679.430,2771.00
1680.295,2869.00
1681.161,2972.00
1682.026,2980.00
1682.891,3055.00
1683.756,3119.00
1684.621,3199.00
1685.486,3220.00
1686.353,3141.00
1687.218,3387.00
1688.083,3163.00
1688.947,3466.00
1689.812,3132.00
1690.677,3067.00
1691.541,3263.00
1692.405,2519.00
1693.269,3653.00
1694.135,3384.00
1694.999,3179.00
1695.863,3706.00
1696.727,3054.00
1697.591,3034.00
1698.455,3261.00
1699.318,2999.00
1700.182,4448.00
1701.045,3197.00
1701.909,3201.00
1702.772,3667.00
1703.637,3046.00
1704.500,2797.00
1705.363,3443.00
1706.226,3202.00
1707.089,3342.00
1707.951,3357.00
1708.814,3886.00
1709.677,3966.00
1710.539,3484.00
1711.402,3449.00
1712.264,3122.00
1713.126,3080.00
1713.988,3469.00
1714.852,3440.00
1715.714,2575.00
1716.576,2741.00
1717.438,3429.00
1718.299,2758.00
1719.161,3576.00
1720.023,3135.00
1720.884,3650.00
1721.745,3143.00
1722.607,3069.00
1723.468,2672.00
1724.329,3479.00
1725.190,3208.00
1726.051,3402.00
1726.912,3023.00
1727.772,3229.00
1728.633,3143.00
1729.494,3241.00
1730.354,3428.00
1731.214,2922.00
1732.075,3022.00
1732.935,3018.00
1733.797,3039.00
1734.657,3665.00
1735.517,3892.00
1736.377,3428.00
1737.237,3121.00
1738.096,3794.00
1738.956,3098.00
1739.816,3104.00
1740.675,3149.00
1741.534,2658.00
1742.394,3217.00
1743.253,2925.00
1744.112,3184.00
1744.971,3042.00
1745.830,3293.00
1746.689,3299.00
1747.547,3447.00
1748.406,2761.00
1749.265,3041.00
1750.123,3127.00
1750.982,3403.00
1751.840,3138.00
1752.698,3258.00
1753.556,3006.00
1754.414,3179.00
1755.272,3210.00
1756.130,3204.00
1756.988,3184.00
1757.846,3397.00
1758.703,3038.00
1759.559,3445.00
1760.417,2912.00
1761.274,3829.00
1762.131,3587.00
1762.989,3661.00
1763.846,3619.00
1764.703,3281.00
1765.560,3690.00
1766.417,3222.00
1767.273,2971.00
1768.130,3182.00
1768.987,3082.00
1769.843,3413.00
1770.700,3544.00
1771.556,3034.00
1772.412,3589.00
1773.268,3113.00
1774.125,3531.00
1774.980,3232.00
1775.836,3529.00
1776.692,3090.00
1777.546,3011.00
1778.402,3398.00
1779.257,3248.00
1780.113,3042.00
1780.968,3296.00
1781.824,3459.00
1782.679,2872.00
1783.534,3028.00
1784.389,3753.00
1785.244,3340.00
1786.099,3158.00
1786.954,3456.00
1787.808,3209.00
1788.661,3262.00
1789.516,3585.00
1790.370,3200.00
1791.225,3084.00
1792.079,2826.00
1792.933,3965.00
1793.787,3322.00
1794.641,3260.00
1795.495,3153.00
1796.349,3273.00
1797.201,3094.00
1798.055,3036.00
1798.908,3197.00
1799.762,3587.00
1800.615,3399.00
1801.469,3492.00
1802.322,3612.00
1803.175,3075.00
1804.028,2803.00
1804.880,3743.00
1805.732,3397.00
1806.585,3180.00
1807.438,3202.00
1808.291,2750.00
1809.143,2946.00
1809.996,2827.00
1810.846,4008.00
1811.699,3345.00
1812.551,3116.00
1813.403,3417.00
1814.255,3279.00
1815.107,3221.00
1815.959,3834.00
1816.809,3381.00
1817.661,3343.00
1818.512,3155.00
1819.364,3274.00
1820.215,3345.00
1821.067,2963.00
1821.918,3070.00
1822.768,3490.00
1823.619,3496.00
1824.470,3070.00
1825.321,3374.00
1826.172,3148.00
1827.021,3356.00
1827.871,3497.00
1828.722,3273.00
1829.572,3253.00
1830.423,3212.00
1831.273,3053.00
1832.122,3230.00
1832.972,3158.00
1833.822,2910.00
1834.672,3368.00
1835.522,3410.00
1836.370,2988.00
1837.220,3357.00
1838.070,2784.00
1838.919,2600.00
1839.769,2985.00
1840.616,3425.00
1841.466,3354.00
1842.315,2965.00
1843.164,3856.00
1844.013,3015.00
1844.860,2910.00
1845.709,2985.00
1846.558,3506.00
1847.407,2901.00
1848.254,3342.00
1849.102,3236.00
1849.951,3023.00
1850.799,2656.00
1851.648,3063.00
1852.494,3261.00
1853.342,3245.00
1854.190,3566.00
1855.038,3592.00
1855.884,3178.00
1856.732,4051.00
1857.580,3623.00
1858.428,3072.00
1859.273,2912.00
1860.121,3020.00
1860.968,4070.00
1861.816,3558.00
1862.661,3601.00
1863.508,3788.00
1864.355,3457.00
1865.202,3509.00
1866.047,3305.00
1866.894,3623.00
1867.741,3756.00
1868.586,3335.00
1869.432,3322.00
1870.279,3127.00
1871.125,3019.00
1871.970,3837.00
1872.816,3351.00
1873.662,2745.00
1874.506,3335.00
1875.352,3538.00
1876.198,3690.00
1877.044,3814.00
1877.888,3158.00
1878.734,3266.00
1879.579,3085.00
1880.423,2881.00
1881.268,3149.00
1882.113,3488.00
1882.959,3156.00
1883.802,3011.00
1884.647,3575.00
1885.492,3266.00
1886.335,3177.00
1887.180,3061.00
1888.025,3306.00
1888.867,3010.00
1889.712,3353.00
1890.556,2975.00
1891.399,3526.00
1892.243,3537.00
1893.087,3065.00
1893.930,3318.00
1894.774,3395.00
1895.618,3617.00
1896.460,2867.00
1897.304,3154.00
1898.147,3112.00
1898.989,2934.00
1899.833,3419.00
1900.676,3042.00
1901.518,3520.00
1902.361,3577.00
1903.202,3109.00
1904.046,3075.00
1904.889,3193.00
1905.730,3141.00
1906.573,2866.00
1907.415,3335.00
1908.256,3651.00
1909.099,3355.00
1909.941,3326.00
1910.782,3369.00
1911.624,3019.00
1912.465,3415.00
1913.307,3275.00
1914.149,2997.00
1914.989,3534.00
1915.831,3171.00
1916.671,3671.00
1917.513,3170.00
1918.355,3306.00
1919.195,3504.00
1920.036,3295.00
1920.876,3262.00
1921.717,3393.00
1922.558,3256.00
1923.398,3268.00
1924.239,3235.00
1925.078,3532.00
1925.919,2954.00
1926.760,3373.00
1927.599,3105.00
1928.440,3506.00
1929.279,3241.00
1930.119,3709.00
1930.958,3159.00
1931.798,3247.00
1932.638,3149.00
1933.477,3239.00
1934.317,3035.00
1935.155,3071.00
1935.995,3330.00
1936.833,3059.00
1937.673,3003.00
1938.512,3683.00
1939.350,2826.00
1940.190,3168.00
1941.027,3091.00
1941.867,3127.00
1942.704,3242.00
1943.543,3200.00
1944.381,3392.00
1945.220,3610.00
1946.057,3311.00
1946.896,3569.00
1947.733,3260.00
1948.572,2973.00
1949.408,3596.00
1950.247,3318.00
1951.085,3379.00
1951.922,3548.00
1952.760,3006.00
1953.597,3657.00
1954.435,2612.00
1955.271,3382.00
1956.109,3117.00
1956.945,2837.00
1957.783,3394.00
1958.619,3057.00
1959.456,3241.00
1960.292,3295.00
1961.129,3566.00
1961.965,3777.00
1962.802,3031.00
1963.638,3027.00
1964.475,3282.00
1965.310,3240.00
1966.145,3278.00
1966.982,3066.00
1967.817,2974.00
1968.654,3253.00
1969.489,3056.00
1970.325,3301.00
1971.160,2964.00
1971.996,3448.00
1972.831,3462.00
1973.667,3145.00
1974.501,3674.00
1975.337,3505.00
1976.171,3128.00
1977.006,3512.00
1977.841,3143.00
1978.675,3525.00
1979.511,3894.00
1980.345,3005.00
1981.180,3413.00
1982.014,3267.00
1982.849,2971.00
1983.682,3089.00
1984.516,3067.00
1985.351,2838.00
1986.184,2754.00
1987.019,2786.00
1987.852,2555.00
1988.687,2747.00
1989.519,2988.00
1990.352,3232.00
1991.187,2733.00
1992.019,2999.00
1992.854,3383.00
1993.686,2940.00
1994.518,3041.00
1995.352,2542.00
1996.185,2326.00
1997.019,2934.00
1997.851,2757.00
1998.682,2742.00
1999.516,2752.00
2000.348,2476.00
