RamanScope Measure Spectrum Data V3.72

<< MEASURE CONDITION >>
Exposure Type,Aver
Exposure Time [sec],20
Exposure Count,2
Measure Time,2024/02/15 21:31:02
Data Name,""
Data Comment,""
Rayleigh Wave[nm],532.0

<< SAMPLE SPECTRUM >>
Wave[dcm-1],No53
96.716,16.50
97.759,37.50
98.802,-17.50
99.846,-3.00
100.886,-7.50
101.929,-1.00
102.972,-5.00
104.015,9.50
105.057,81.50
106.100,-22.00
107.142,15.50
108.184,19.00
109.226,-24.50
110.268,37.00
111.310,-7.00
112.352,-13.50
113.393,14.50
114.435,26.50
115.476,37.50
116.517,9.50
117.558,-20.00
118.599,43.00
119.640,30.50
120.681,5.50
121.722,-18.50
122.762,6.00
123.803,37.00
124.843,7.00
125.883,-7.00
126.923,6.50
127.963,-38.00
129.001,2.00
130.041,34.00
131.080,15.50
132.120,16.00
133.159,12.50
134.199,13.50
135.238,-7.50
136.277,18.50
137.316,44.50
138.355,79.00
139.393,-13.00
140.432,-5.00
141.470,41.50
142.509,29.50
143.547,19.00
144.585,51.50
145.623,48.00
146.661,64.50
147.699,123.00
148.736,116.00
149.774,170.50
150.811,270.00
151.849,281.00
152.886,366.00
153.923,524.00
154.960,601.00
155.997,808.00
157.034,822.50
158.072,1073.00
159.109,1251.50
160.145,1393.00
161.182,1538.50
162.218,1651.00
163.254,1823.50
164.290,2024.50
165.326,2098.00
166.361,2191.50
167.397,2350.00
168.432,2400.50
169.468,2464.50
170.503,2522.50
171.538,2575.50
172.573,2600.00
173.608,2648.50
174.643,2678.50
175.677,2686.50
176.712,2761.50
177.746,2812.50
178.781,2866.50
179.815,2946.50
180.849,2997.50
181.883,2987.50
182.917,3022.00
183.951,3121.50
184.984,3172.00
186.020,3195.00
187.053,3157.00
188.087,3149.00
189.120,3156.50
190.153,3137.50
191.186,3113.00
192.219,3068.00
193.251,3088.50
194.284,3092.50
195.317,3113.50
196.349,2932.00
197.381,3107.00
198.413,3091.50
199.445,3130.50
200.477,3079.50
201.509,3157.00
202.543,3156.00
203.575,3140.00
204.606,3241.50
205.637,3271.50
206.669,3210.50
207.700,3283.00
208.731,3299.50
209.762,3353.00
210.792,3387.00
211.823,3466.50
212.854,3444.00
213.884,3468.00
214.914,3535.00
215.947,3463.50
216.977,3551.00
218.007,3649.00
219.037,3696.00
220.066,3715.50
221.096,3694.50
222.126,3778.00
223.155,3732.50
224.184,3735.00
225.214,3809.50
226.245,3798.00
227.274,3806.00
228.302,3826.50
229.331,3746.00
230.360,3809.50
231.388,3842.00
232.417,3772.50
233.445,3783.50
234.473,3714.50
235.501,3713.50
236.531,3727.50
237.559,3677.00
238.587,3567.50
239.614,3602.50
240.642,3574.00
241.669,3587.00
242.696,3489.50
243.724,3483.00
244.753,3489.00
245.780,3493.00
246.806,3533.50
247.833,3483.00
248.860,3488.50
249.886,3424.50
250.913,3495.50
251.939,3485.50
252.967,3450.50
253.993,3511.00
255.019,3503.50
256.045,3545.00
257.070,3649.00
258.096,3554.00
259.121,3592.50
260.147,3546.50
261.174,3580.50
262.199,3562.00
263.224,3604.50
264.249,3616.00
265.274,3669.50
266.298,3616.50
267.323,3677.00
268.349,3655.00
269.374,3635.50
270.398,3700.00
271.422,3740.00
272.446,3776.00
273.470,3769.00
274.496,3808.50
275.519,3708.50
276.543,3819.50
277.566,3822.00
278.589,3828.00
279.613,3858.50
280.636,3870.50
281.661,3881.00
282.684,3878.50
283.706,3877.50
284.729,3879.50
285.751,3865.00
286.774,3845.00
287.798,3848.50
288.820,3800.50
289.842,3863.00
290.864,3789.00
291.886,3705.00
292.910,3766.00
293.932,3716.00
294.953,3713.50
295.974,3654.00
296.996,3634.00
298.017,3635.50
299.040,3573.00
300.061,3515.50
301.082,3508.00
302.102,3490.50
303.123,3418.50
304.143,3442.00
305.166,3422.00
306.186,3348.00
307.206,3323.00
308.226,3378.50
309.246,3335.50
310.268,3345.50
311.288,3276.50
312.307,3216.50
313.327,3201.00
314.346,3210.00
315.368,3160.50
316.387,3190.00
317.406,3161.00
318.425,3169.50
319.443,3158.00
320.464,3151.50
321.483,3154.50
322.501,3132.00
323.520,3167.00
324.538,3069.50
325.558,3125.50
326.576,3109.00
327.594,3143.00
328.612,3072.00
329.629,3103.00
330.649,3175.00
331.666,3052.00
332.684,3090.00
333.701,3091.50
334.718,3044.50
335.737,3067.50
336.754,3038.00
337.771,3085.00
338.787,3128.50
339.806,3056.00
340.823,3120.50
341.839,3060.50
342.855,3079.00
343.871,3087.00
344.889,3129.50
345.905,3016.50
346.921,3027.50
347.937,3059.50
348.954,3010.50
349.970,3048.00
350.985,3011.00
352.000,2995.50
353.017,3009.00
354.032,3059.00
355.047,3035.50
356.062,2944.00
357.077,3043.00
358.093,3049.50
359.108,2995.50
360.122,3002.50
361.136,3060.00
362.152,3046.50
363.166,3000.50
364.180,3046.50
365.194,3043.50
366.210,3055.00
367.223,2960.00
368.237,3008.50
369.250,2996.00
370.265,3029.50
371.278,3040.00
372.291,2996.50
373.304,3004.00
374.319,2958.50
375.332,3048.50
376.344,3081.00
377.357,3027.00
378.371,2971.50
379.383,3030.00
380.395,2998.50
381.407,3021.50
382.421,3033.00
383.433,3061.00
384.445,3064.00
385.456,3049.50
386.470,3053.00
387.481,3026.50
388.492,3046.00
389.505,3071.50
390.516,3122.00
391.527,3057.00
392.538,3035.50
393.551,2993.50
394.561,3047.00
395.572,3029.00
396.582,3083.50
397.594,3060.50
398.604,3039.00
399.614,2973.00
400.624,2995.00
401.636,3006.00
402.646,2972.00
403.655,2963.50
404.667,3032.00
405.676,3038.50
406.685,3045.00
407.694,2971.00
408.705,2887.50
409.714,2951.00
410.723,2943.50
411.734,2960.50
412.742,2908.50
413.751,2904.50
414.759,2861.00
415.769,2941.50
416.777,2905.50
417.785,2902.50
418.795,2926.00
419.803,2841.50
420.811,2862.50
421.818,2859.50
422.828,2777.00
423.835,2828.50
424.842,2768.50
425.852,2828.00
426.859,2804.50
427.866,2786.50
428.874,2746.50
429.881,2765.50
430.888,2741.00
431.894,2796.50
432.902,2813.50
433.909,2839.50
434.915,2766.50
435.923,2661.00
436.929,2762.00
437.935,2768.00
438.942,2730.50
439.948,2685.00
440.953,2773.50
441.959,2738.00
442.966,2778.50
443.971,2727.50
444.976,2684.50
445.983,2738.00
446.988,2654.00
447.993,2701.50
448.999,2694.50
450.004,2656.50
451.008,2762.50
452.014,2698.00
453.019,2730.00
454.023,2763.00
455.029,2691.50
456.032,2643.00
457.036,2640.50
458.042,2693.00
459.045,2703.50
460.049,2698.00
461.052,2646.00
462.057,2696.50
463.060,2660.00
464.063,2666.50
465.068,2640.50
466.071,2645.50
467.073,2629.50
468.078,2629.00
469.080,2646.00
470.082,2651.00
471.087,2663.00
472.089,2612.00
473.091,2616.50
474.095,2608.50
475.096,2574.50
476.098,2619.00
477.101,2670.50
478.103,2598.50
479.104,2660.00
480.107,2621.00
481.108,2692.50
482.109,2690.50
483.112,2600.00
484.113,2617.00
485.114,2588.50
486.116,2586.00
487.117,2603.50
488.117,2572.50
489.119,2651.50
490.119,2620.00
491.121,2520.00
492.121,2594.00
493.121,2637.00
494.123,2628.00
495.122,2577.00
496.122,2570.00
497.123,2564.00
498.122,2641.50
499.121,2625.50
500.122,2557.50
501.121,2549.50
502.120,2576.00
503.121,2542.00
504.119,2551.50
505.118,2553.00
506.118,2641.50
507.117,2592.00
508.115,2509.00
509.115,2520.50
510.113,2517.50
511.112,2501.00
512.110,2565.00
513.108,2522.00
514.107,2571.50
515.105,2531.00
516.102,2442.00
517.101,2493.50
518.098,2468.00
519.095,2404.00
520.094,2444.50
521.091,2494.00
522.089,2520.00
523.086,2502.00
524.082,2511.50
525.081,2479.50
526.077,2504.50
527.073,2484.50
528.071,2470.50
529.067,2434.00
530.064,2426.50
531.060,2521.00
532.056,2442.00
533.053,2397.50
534.048,2453.50
535.044,2427.50
536.041,2449.50
537.036,2436.50
538.030,2466.50
539.027,2492.00
540.022,2456.50
541.019,2410.50
542.013,2395.50
543.007,2427.50
544.004,2449.50
544.998,2439.00
545.994,2413.50
546.988,2415.50
547.981,2437.00
548.977,2373.00
549.971,2415.00
550.964,2388.50
551.960,2436.50
552.953,2436.50
553.948,2371.50
554.941,2468.00
555.934,2487.50
556.929,2431.50
557.922,2445.50
558.916,2435.00
559.909,2349.00
560.901,2357.00
561.895,2368.50
562.888,2376.50
563.880,2429.00
564.874,2404.00
565.865,2361.00
566.859,2337.50
567.851,2323.50
568.842,2359.50
569.836,2326.50
570.827,2318.00
571.820,2367.00
572.811,2342.50
573.802,2313.00
574.795,2268.00
575.786,2368.00
576.779,2264.50
577.769,2376.50
578.760,2303.50
579.752,2318.50
580.742,2317.00
581.735,2296.00
582.725,2284.00
583.714,2282.00
584.706,2289.00
585.696,2275.00
586.688,2265.50
587.677,2338.50
588.667,2352.00
589.658,2219.50
590.647,2278.50
591.638,2286.50
592.627,2224.00
593.616,2242.00
594.607,2295.00
595.595,2264.00
596.586,2271.00
597.574,2254.50
598.562,2265.00
599.553,2253.00
600.541,2276.50
601.531,2236.50
602.519,2237.50
603.508,2293.00
604.496,2201.00
605.484,2190.50
606.473,2177.00
607.460,2207.00
608.450,2197.50
609.437,2190.00
610.424,2118.00
611.413,2222.00
612.400,2173.50
613.388,2170.00
614.375,2167.50
615.361,2129.00
616.350,2151.50
617.336,2167.50
618.324,2155.00
619.310,2153.50
620.298,2159.50
621.284,2056.00
622.270,2150.00
623.257,2111.50
624.243,2031.00
625.230,2103.50
626.216,2085.00
627.203,2045.50
628.188,2068.50
629.173,2058.00
630.160,2044.00
631.145,1999.50
632.131,2047.00
633.116,1974.50
634.102,2014.50
635.087,2029.00
636.071,2010.50
637.057,2010.00
638.041,2003.00
639.027,1988.00
640.011,1945.00
640.995,1902.50
641.980,1964.50
642.964,1976.00
643.949,1900.00
644.932,1966.00
645.918,1920.00
646.901,1934.00
647.886,1860.50
648.868,1857.00
649.851,1887.50
650.836,1933.50
651.818,1868.50
652.803,1903.00
653.785,1846.50
654.769,1833.50
655.751,1842.50
656.733,1820.50
657.717,1901.00
658.699,1809.00
659.683,1876.50
660.664,1829.50
661.648,1823.00
662.629,1821.50
663.611,1766.50
664.594,1776.00
665.575,1789.00
666.558,1793.00
667.539,1826.00
668.521,1801.00
669.502,1819.00
670.484,1720.00
671.465,1723.00
672.445,1741.50
673.427,1769.00
674.407,1737.50
675.390,1764.00
676.369,1705.50
677.351,1744.50
678.331,1692.50
679.312,1711.00
680.292,1739.00
681.271,1689.00
682.253,1674.00
683.232,1694.00
684.213,1734.50
685.192,1724.50
686.172,1661.00
687.151,1690.00
688.132,1664.00
689.110,1675.00
690.089,1573.00
691.069,1647.00
692.047,1603.00
693.027,1630.00
694.005,1608.00
694.985,1625.00
695.963,1651.00
696.943,1598.50
697.920,1586.00
698.898,1553.50
699.877,1482.50
700.854,1637.50
701.833,1574.00
702.810,1564.00
703.789,1555.50
704.766,1601.00
705.745,1543.00
706.721,1532.50
707.698,1551.00
708.676,1532.50
709.653,1542.00
710.631,1498.00
711.607,1579.50
712.585,1558.00
713.561,1487.00
714.539,1537.50
715.514,1515.00
716.492,1508.00
717.467,1541.50
718.443,1555.00
719.420,1551.00
720.395,1445.50
721.372,1483.50
722.347,1433.00
723.324,1454.00
724.298,1447.00
725.275,1481.50
726.250,1440.00
727.226,1495.00
728.200,1450.00
729.176,1465.00
730.151,1438.00
731.125,1438.50
732.100,1476.00
733.074,1415.50
734.050,1432.50
735.023,1420.00
735.999,1464.00
736.972,1410.50
737.947,1425.00
738.921,1433.50
739.896,1396.50
740.869,1407.00
741.841,1452.00
742.816,1453.50
743.789,1440.00
744.763,1359.50
745.736,1426.00
746.710,1399.00
747.682,1429.50
748.656,1459.00
749.628,1409.50
750.602,1386.50
751.574,1404.00
752.548,1371.50
753.519,1356.50
754.491,1388.00
755.464,1367.00
756.435,1385.50
757.408,1380.50
758.379,1347.50
759.352,1374.50
760.323,1370.50
761.296,1317.00
762.267,1271.50
763.239,1301.00
764.209,1327.50
765.182,1327.50
766.152,1325.00
767.124,1304.00
768.094,1309.50
769.064,1316.50
770.036,1318.00
771.005,1283.50
771.977,1289.00
772.947,1283.00
773.918,1316.00
774.887,1285.50
775.858,1297.00
776.827,1311.50
777.798,1308.00
778.767,1283.00
779.738,1240.50
780.707,1274.50
781.677,1250.50
782.646,1305.00
783.614,1290.00
784.584,1273.00
785.552,1254.00
786.522,1245.50
787.490,1280.00
788.460,1267.50
789.428,1239.00
790.397,1277.00
791.365,1215.50
792.334,1207.50
793.302,1238.50
794.271,1265.50
795.238,1228.00
796.207,1203.50
797.174,1254.50
798.143,1242.00
799.109,1188.00
800.076,1261.50
801.044,1229.50
802.011,1146.00
802.979,1193.50
803.945,1191.00
804.913,1213.50
805.879,1187.00
806.847,1186.00
807.813,1251.50
808.780,1200.00
809.746,1190.00
810.713,1153.00
811.678,1160.00
812.646,1135.50
813.611,1244.00
814.578,1203.00
815.543,1160.00
816.510,1155.50
817.474,1176.50
818.439,1125.50
819.405,1147.50
820.370,1174.00
821.336,1197.00
822.300,1127.50
823.266,1146.00
824.230,1202.50
825.196,1172.00
826.160,1168.00
827.126,1118.00
828.089,1135.00
829.055,1141.50
830.018,1135.00
830.983,1153.00
831.946,1112.00
832.911,1121.00
833.874,1085.00
834.837,1161.00
835.802,1147.00
836.765,1148.50
837.729,1115.00
838.691,1154.00
839.656,1124.50
840.618,1141.50
841.582,1127.50
842.544,1121.00
843.508,1137.00
844.470,1172.50
845.434,1156.00
846.395,1151.50
847.359,1153.50
848.320,1196.50
849.283,1123.50
850.245,1181.50
851.208,1107.50
852.169,1140.50
853.130,1116.00
854.092,1107.50
855.053,1179.50
856.016,1140.00
856.976,1146.50
857.938,1098.50
858.899,1085.00
859.861,1087.50
860.821,1114.00
861.783,1162.00
862.743,1146.50
863.704,1102.50
864.664,1121.50
865.626,1096.00
866.585,1131.50
867.546,1217.50
868.506,1147.50
869.467,1139.50
870.426,1163.00
871.387,1068.00
872.346,1167.00
873.304,1139.50
874.265,1211.50
875.223,1096.50
876.184,1180.00
877.142,1107.50
878.102,1138.00
879.060,1168.50
880.021,1181.50
880.978,1171.50
881.938,1119.00
882.896,1133.50
883.856,1129.00
884.813,1169.00
885.772,1181.50
886.730,1194.50
887.689,1182.50
888.646,1157.00
889.603,1175.50
890.562,1220.00
891.519,1155.50
892.477,1179.00
893.434,1172.50
894.392,1171.50
895.349,1147.00
896.307,1207.50
897.263,1210.00
898.221,1185.50
899.177,1169.00
900.135,1100.00
901.091,1245.00
902.048,1217.00
903.004,1161.50
903.961,1255.50
904.917,1161.50
905.874,1225.50
906.829,1210.00
907.784,1241.50
908.741,1239.50
909.696,1227.50
910.653,1250.00
911.607,1226.00
912.564,1187.50
913.518,1206.50
914.475,1254.00
915.429,1258.00
916.385,1192.50
917.339,1226.50
918.295,1199.50
919.249,1246.50
920.205,1197.00
921.158,1241.50
922.114,1234.00
923.067,1226.00
924.020,1218.50
924.976,1253.00
925.929,1171.00
926.884,1243.00
927.837,1298.50
928.791,1299.50
929.744,1268.50
930.699,1280.50
931.651,1218.00
932.606,1258.00
933.558,1289.00
934.512,1312.00
935.464,1272.00
936.418,1234.50
937.370,1229.50
938.322,1296.00
939.276,1270.50
940.227,1275.00
941.181,1240.50
942.132,1222.00
943.085,1313.50
944.036,1263.50
944.990,1280.50
945.941,1274.50
946.893,1229.50
947.844,1280.00
948.797,1271.50
949.747,1341.50
950.700,1271.00
951.650,1327.00
952.601,1313.00
953.553,1281.50
954.503,1257.50
955.455,1329.00
956.405,1260.50
957.356,1248.50
958.306,1291.00
959.258,1256.50
960.207,1221.00
961.158,1252.50
962.108,1266.50
963.059,1242.50
964.008,1295.50
964.959,1291.00
965.908,1211.50
966.856,1267.00
967.807,1237.50
968.756,1277.00
969.706,1218.50
970.654,1231.00
971.605,1235.00
972.553,1208.00
973.503,1277.50
974.451,1224.00
975.401,1147.00
976.348,1231.50
977.296,1133.50
978.246,1207.50
979.193,1207.50
980.142,1248.00
981.090,1148.00
982.039,1238.50
982.986,1191.50
983.935,1189.00
984.882,1184.00
985.830,1178.00
986.777,1201.50
987.725,1227.50
988.672,1227.00
989.618,1199.00
990.567,1207.50
991.513,1184.50
992.461,1174.00
993.407,1113.00
994.354,1182.50
995.300,1143.00
996.248,1127.00
997.193,1125.00
998.141,1177.00
999.086,1154.00
1000.031,1202.50
1000.978,1203.50
1001.924,1187.50
1002.870,1192.00
1003.815,1152.50
1004.762,1114.50
1005.707,1119.50
1006.653,1147.00
1007.598,1155.50
1008.542,1137.50
1009.488,1089.00
1010.432,1144.00
1011.378,1101.00
1012.322,1082.00
1013.268,1093.00
1014.212,1105.50
1015.157,1093.50
1016.101,1119.00
1017.046,1114.50
1017.990,1093.00
1018.933,1056.00
1019.878,1076.50
1020.821,1120.00
1021.766,1099.00
1022.709,1078.50
1023.654,1042.50
1024.596,1064.50
1025.541,1051.00
1026.483,1101.50
1027.425,1121.00
1028.370,1057.50
1029.312,1073.00
1030.256,1088.00
1031.198,1102.00
1032.141,1085.50
1033.083,1123.00
1034.027,1060.00
1034.968,1043.50
1035.910,1095.00
1036.853,1073.00
1037.794,1119.00
1038.738,1033.50
1039.679,1100.00
1040.621,1094.50
1041.562,1082.50
1042.503,1098.00
1043.446,1062.00
1044.386,1008.50
1045.329,1047.00
1046.269,1130.50
1047.211,1088.00
1048.151,1053.50
1049.093,1075.50
1050.033,1071.50
1050.973,1029.50
1051.915,1051.00
1052.854,1029.50
1053.796,1042.50
1054.735,1083.00
1055.677,995.00
1056.616,1099.50
1057.555,1059.00
1058.496,1017.50
1059.435,1053.50
1060.376,1032.00
1061.315,1069.50
1062.255,1025.00
1063.194,1006.00
1064.132,1035.00
1065.073,1024.50
1066.011,1028.00
1066.951,1043.00
1067.889,1029.00
1068.829,999.00
1069.767,1019.50
1070.705,1037.00
1071.644,1045.50
1072.582,1080.00
1073.521,1001.50
1074.459,1012.00
1075.398,1041.00
1076.335,1048.00
1077.272,984.50
1078.211,1016.00
1079.148,991.00
1080.087,1039.00
1081.023,1035.00
1081.962,1031.50
1082.898,1086.50
1083.835,1067.00
1084.773,1012.00
1085.709,1074.50
1086.647,1049.00
1087.583,1055.00
1088.519,1059.00
1089.457,1047.00
1090.392,1060.00
1091.330,998.00
1092.266,1028.00
1093.203,1001.50
1094.138,1083.00
1095.073,1029.50
1096.010,1049.50
1096.945,1009.50
1097.882,995.50
1098.817,1025.50
1099.752,997.50
1100.688,1060.00
1101.623,1053.50
1102.559,1045.50
1103.493,1051.00
1104.430,1001.50
1105.364,984.00
1106.298,1034.50
1107.234,975.50
1108.167,1024.00
1109.094,1044.00
1110.019,1000.50
1110.945,987.00
1111.869,999.00
1112.795,1014.50
1113.720,983.00
1114.646,955.00
1115.571,992.50
1116.495,1028.50
1117.420,982.00
1118.345,966.00
1119.270,977.00
1120.195,937.50
1121.118,1020.50
1122.042,910.50
1122.967,976.00
1123.891,991.50
1124.816,939.00
1125.738,953.50
1126.663,991.50
1127.587,964.50
1128.511,965.50
1129.435,925.00
1130.357,984.00
1131.280,901.50
1132.204,941.00
1133.128,947.50
1134.051,972.50
1134.972,904.00
1135.896,947.00
1136.819,923.50
1137.742,963.00
1138.665,943.50
1139.586,913.00
1140.509,937.00
1141.431,840.50
1142.354,898.00
1143.276,950.50
1144.197,891.00
1145.119,890.50
1146.041,906.50
1146.964,889.50
1147.885,849.50
1148.806,888.00
1149.727,896.00
1150.649,920.00
1151.571,948.50
1152.492,893.00
1153.412,860.00
1154.333,852.00
1155.254,880.00
1156.175,893.50
1157.095,925.50
1158.016,876.00
1158.936,886.50
1159.857,863.00
1160.778,937.00
1161.697,849.00
1162.617,874.00
1163.537,894.00
1164.458,899.50
1165.376,872.00
1166.296,819.50
1167.216,899.50
1168.136,845.50
1169.056,886.00
1169.974,852.00
1170.893,823.00
1171.813,842.00
1172.732,850.00
1173.650,835.00
1174.569,836.50
1175.488,849.00
1176.407,849.00
1177.326,873.50
1178.243,819.00
1179.161,848.50
1180.080,829.00
1180.999,851.00
1181.915,838.00
1182.834,788.00
1183.752,842.00
1184.670,893.00
1185.586,828.00
1186.504,824.00
1187.422,794.50
1188.340,846.00
1189.258,814.50
1190.173,790.00
1191.091,815.50
1192.008,789.50
1192.926,794.00
1193.841,831.50
1194.758,817.50
1195.675,818.00
1196.592,828.50
1197.507,818.00
1198.424,825.00
1199.340,741.50
1200.257,804.50
1201.172,806.00
1202.088,834.00
1203.004,850.50
1203.920,841.00
1204.835,796.00
1205.750,792.50
1206.666,811.00
1207.582,795.00
1208.496,849.50
1209.412,833.00
1210.327,824.50
1211.243,793.50
1212.156,776.50
1213.071,849.50
1213.986,867.00
1214.901,789.00
1215.814,838.50
1216.729,777.50
1217.644,802.50
1218.559,831.50
1219.471,782.00
1220.386,783.50
1221.300,841.50
1222.213,816.50
1223.127,789.00
1224.041,858.50
1224.955,867.50
1225.867,801.50
1226.781,785.50
1227.694,780.50
1228.608,723.00
1229.520,800.50
1230.433,750.50
1231.346,812.50
1232.260,794.50
1233.171,807.00
1234.084,815.00
1234.997,752.00
1235.908,827.50
1236.821,814.00
1237.733,817.00
1238.646,821.00
1239.556,864.50
1240.469,783.50
1241.381,822.50
1242.293,777.50
1243.203,801.00
1244.115,764.00
1245.027,831.00
1245.937,818.00
1246.849,801.50
1247.761,844.50
1248.672,774.50
1249.582,797.00
1250.493,789.00
1251.404,787.50
1252.313,734.50
1253.225,800.50
1254.135,729.00
1255.046,758.00
1255.955,828.50
1256.866,810.00
1257.777,784.00
1258.685,806.00
1259.596,768.00
1260.506,785.00
1261.416,837.00
1262.324,831.50
1263.234,802.50
1264.144,772.50
1265.052,804.00
1265.962,814.50
1266.872,835.50
1267.779,795.00
1268.689,777.50
1269.598,775.00
1270.507,823.50
1271.415,738.00
1272.324,794.00
1273.233,829.50
1274.140,774.50
1275.048,818.50
1275.957,861.00
1276.864,857.50
1277.772,818.50
1278.681,771.50
1279.587,821.50
1280.496,824.50
1281.404,870.50
1282.312,758.50
1283.218,809.50
1284.126,818.50
1285.033,816.00
1285.939,813.00
1286.847,813.00
1287.754,788.00
1288.660,759.50
1289.567,823.50
1290.474,783.00
1291.380,769.00
1292.286,781.50
1293.193,817.50
1294.098,819.00
1295.005,781.50
1295.912,824.00
1296.816,811.50
1297.723,794.00
1298.629,779.00
1299.534,798.00
1300.440,803.50
1301.346,792.50
1302.250,775.50
1303.156,764.00
1304.062,853.00
1304.966,776.00
1305.871,754.50
1306.777,742.50
1307.680,798.00
1308.586,759.50
1309.491,802.50
1310.394,734.00
1311.299,788.00
1312.204,820.00
1313.107,811.00
1314.012,789.00
1314.917,816.50
1315.819,816.50
1316.724,792.00
1317.628,780.00
1318.531,816.50
1319.435,784.50
1320.339,798.00
1321.241,737.50
1322.145,806.50
1323.049,779.50
1323.951,784.00
1324.854,738.00
1325.756,746.50
1326.659,783.00
1327.563,746.00
1328.464,739.00
1329.367,755.50
1330.271,760.00
1331.172,705.50
1332.074,718.00
1332.977,706.00
1333.878,735.50
1334.781,738.00
1335.683,757.00
1336.584,765.50
1337.486,772.50
1338.387,754.50
1339.289,708.50
1340.191,703.50
1341.091,753.00
1341.993,713.00
1342.895,747.50
1343.794,745.50
1344.696,680.50
1345.596,738.00
1346.497,704.50
1347.398,737.50
1348.298,722.50
1349.199,663.50
1350.100,717.50
1350.999,750.50
1351.900,672.00
1352.799,705.50
1353.699,676.00
1354.600,722.00
1355.499,712.50
1356.399,714.50
1357.297,726.00
1358.198,704.50
1359.098,673.00
1359.996,701.50
1360.896,696.00
1361.796,697.50
1362.694,676.00
1363.593,721.00
1364.491,679.50
1365.391,723.50
1366.290,729.50
1367.187,710.00
1368.086,691.50
1368.984,665.00
1369.883,700.50
1370.782,680.00
1371.679,740.50
1372.577,698.00
1373.474,655.50
1374.373,688.50
1375.269,668.50
1376.168,706.50
1377.066,659.50
1377.962,676.00
1378.860,714.00
1379.756,648.50
1380.654,724.50
1381.552,641.00
1382.448,676.00
1383.346,666.50
1384.241,688.50
1385.139,664.00
1386.036,624.50
1386.931,694.00
1387.829,696.50
1388.724,715.00
1389.621,638.00
1390.516,616.00
1391.413,676.00
1392.309,628.50
1393.204,640.00
1394.101,620.50
1394.995,639.50
1395.891,711.50
1396.786,700.00
1397.682,684.00
1398.578,664.00
1399.472,673.50
1400.368,634.00
1401.262,622.00
1402.158,622.00
1403.051,627.50
1403.947,617.00
1404.840,658.00
1405.736,650.00
1406.631,650.50
1407.524,680.00
1408.419,645.50
1409.312,649.50
1410.207,635.50
1411.100,676.50
1411.995,579.50
1412.888,616.50
1413.782,604.50
1414.675,659.00
1415.569,622.50
1416.463,619.00
1417.355,652.50
1418.249,627.00
1419.141,663.00
1420.035,601.50
1420.927,621.00
1421.821,617.50
1422.713,672.50
1423.606,615.00
1424.498,638.50
1425.391,646.00
1426.282,612.00
1427.175,632.50
1428.068,662.00
1428.960,639.50
1429.852,625.50
1430.743,623.50
1431.636,632.00
1432.527,613.00
1433.419,595.00
1434.310,657.50
1435.202,610.50
1436.092,681.50
1436.984,616.50
1437.875,609.00
1438.767,625.50
1439.657,611.00
1440.548,604.00
1441.438,661.50
1442.330,631.50
1443.219,605.00
1444.111,627.00
1445.000,609.00
1445.891,612.00
1446.781,624.50
1447.672,625.00
1448.561,612.00
1449.452,645.00
1450.340,631.00
1451.231,638.50
1452.120,635.50
1453.010,615.50
1453.899,632.50
1454.789,591.50
1455.677,588.50
1456.568,636.00
1457.456,568.00
1458.346,584.00
1459.234,599.50
1460.123,527.00
1461.011,644.50
1461.901,607.50
1462.788,591.00
1463.678,595.00
1464.565,583.00
1465.454,558.00
1466.342,610.00
1467.231,606.00
1468.118,612.00
1469.006,597.50
1469.893,609.00
1470.782,584.00
1471.669,535.50
1472.557,568.00
1473.444,586.50
1474.330,615.00
1475.218,558.50
1476.105,614.00
1476.993,579.50
1477.879,603.00
1478.767,588.00
1479.652,616.50
1480.540,627.00
1481.426,598.50
1482.313,625.50
1483.199,621.50
1484.086,607.00
1484.972,577.50
1485.857,582.50
1486.744,570.00
1487.629,550.50
1488.516,549.50
1489.401,580.00
1490.287,609.50
1491.172,585.00
1492.058,613.00
1492.943,595.50
1493.828,611.50
1494.714,597.00
1495.598,589.00
1496.484,577.50
1497.368,576.50
1498.254,593.00
1499.138,553.00
1500.022,624.50
1500.907,587.00
1501.791,518.50
1502.676,595.50
1503.560,572.50
1504.445,590.00
1505.328,592.00
1506.211,551.50
1507.096,560.50
1507.979,558.50
1508.864,582.50
1509.747,592.00
1510.631,590.00
1511.514,578.50
1512.397,537.50
1513.281,563.00
1514.163,541.50
1515.047,566.00
1515.930,572.50
1516.812,519.50
1517.696,593.00
1518.578,586.00
1519.461,512.00
1520.343,600.00
1521.225,583.00
1522.108,581.50
1522.990,569.00
1523.873,581.50
1524.754,579.00
1525.635,554.50
1526.518,526.50
1527.399,565.00
1528.282,562.00
1529.163,574.00
1530.044,492.50
1530.926,583.50
1531.807,524.00
1532.689,559.50
1533.569,560.00
1534.450,583.50
1535.332,516.50
1536.212,582.50
1537.092,531.50
1537.974,562.00
1538.854,587.00
1539.735,536.50
1540.615,510.00
1541.495,519.00
1542.376,490.50
1543.255,541.00
1544.135,587.50
1545.016,556.50
1545.895,579.50
1546.774,553.50
1547.655,538.00
1548.534,571.00
1549.414,531.50
1550.293,486.00
1551.172,545.00
1552.052,510.00
1552.930,572.50
1553.809,533.00
1554.689,578.50
1555.567,547.50
1556.445,502.50
1557.325,531.00
1558.203,515.00
1559.080,571.00
1559.960,503.00
1560.838,482.00
1561.715,521.50
1562.594,479.00
1563.472,559.00
1564.349,589.00
1565.228,608.00
1566.105,573.50
1566.982,523.50
1567.861,528.50
1568.738,516.00
1569.615,491.50
1570.493,517.50
1571.370,531.50
1572.246,534.50
1573.124,514.50
1574.000,560.50
1574.877,535.00
1575.755,551.50
1576.631,480.00
1577.507,517.50
1578.384,551.00
1579.260,561.00
1580.136,564.50
1581.011,570.00
1581.889,522.00
1582.764,552.50
1583.639,579.50
1584.516,555.00
1585.391,524.50
1586.266,510.50
1587.143,543.00
1588.018,558.00
1588.893,562.00
1589.768,488.50
1590.644,576.00
1591.519,540.50
1592.393,538.00
1593.269,558.50
1594.143,544.00
1595.018,549.50
1595.892,498.00
1596.767,533.00
1597.641,513.00
1598.515,562.00
1599.391,523.50
1600.264,520.00
1601.138,497.00
1602.011,522.00
1602.886,542.00
1603.760,513.00
1604.633,527.50
1605.508,474.50
1606.381,534.00
1607.254,527.00
1608.127,515.00
1609.001,493.00
1609.874,607.00
1610.746,457.00
1611.619,529.50
1612.493,489.00
1613.365,479.50
1614.238,486.50
1615.110,507.50
1615.984,531.50
1616.855,552.00
1617.727,523.50
1618.599,531.50
1619.473,525.00
1620.344,529.50
1621.216,505.00
1622.087,575.00
1622.960,475.50
1623.832,535.00
1624.703,505.00
1625.574,473.50
1626.445,514.50
1627.317,491.50
1628.188,568.50
1629.059,515.50
1629.930,507.50
1630.802,501.50
1631.672,487.50
1632.543,554.50
1633.413,517.00
1634.283,564.50
1635.155,493.00
1636.025,560.50
1636.895,515.00
1637.765,520.50
1638.636,485.50
1639.506,546.50
1640.376,484.00
1641.245,528.50
1642.114,501.00
1642.985,531.00
1643.855,560.50
1644.724,486.50
1645.593,508.00
1646.462,553.50
1647.333,508.00
1648.201,498.50
1649.070,514.00
1649.939,535.50
1650.807,531.00
1651.676,477.50
1652.546,533.00
1653.414,524.50
1654.282,475.00
1655.150,526.00
1656.018,494.00
1656.888,512.00
1657.756,542.50
1658.623,465.00
1659.491,508.50
1660.359,492.00
1661.226,555.50
1662.095,525.50
1662.962,539.50
1663.830,458.50
1664.697,516.50
1665.564,503.00
1666.431,545.00
1667.297,518.50
1668.166,530.50
1669.033,483.00
1669.899,483.00
1670.766,494.50
1671.632,494.50
1672.499,558.00
1673.367,562.00
1674.233,534.50
1675.099,495.50
1675.965,547.00
1676.831,494.50
1677.696,517.50
1678.562,555.00
1679.430,547.00
1680.295,528.50
1681.161,514.50
1682.026,517.00
1682.891,498.00
1683.756,517.00
1684.621,532.50
1685.486,507.50
1686.353,493.50
1687.218,445.50
1688.083,515.50
1688.947,533.00
1689.812,521.00
1690.677,518.50
1691.541,458.00
1692.405,501.50
1693.269,522.00
1694.135,486.00
1694.999,514.50
1695.863,450.50
1696.727,491.50
1697.591,520.50
1698.455,480.00
1699.318,520.00
1700.182,566.50
1701.045,503.00
1701.909,454.50
1702.772,511.00
1703.637,470.00
1704.500,517.50
1705.363,520.00
1706.226,497.50
1707.089,489.00
1707.951,506.50
1708.814,495.00
1709.677,495.50
1710.539,495.50
1711.402,532.00
1712.264,492.00
1713.126,528.50
1713.988,482.50
1714.852,494.00
1715.714,464.50
1716.576,522.00
1717.438,485.50
1718.299,536.00
1719.161,520.50
1720.023,499.50
1720.884,494.00
1721.745,537.00
1722.607,529.50
1723.468,521.50
1724.329,506.00
1725.190,456.50
1726.051,524.00
1726.912,488.00
1727.772,530.00
1728.633,501.00
1729.494,507.50
1730.354,521.00
1731.214,499.50
1732.075,503.00
1732.935,465.00
1733.797,504.50
1734.657,488.50
1735.517,490.50
1736.377,437.50
1737.237,523.00
1738.096,470.50
1738.956,496.00
1739.816,519.00
1740.675,468.00
1741.534,527.50
1742.394,443.00
1743.253,477.00
1744.112,521.00
1744.971,475.50
1745.830,503.00
1746.689,454.50
1747.547,511.50
1748.406,547.00
1749.265,561.50
1750.123,507.50
1750.982,496.50
1751.840,504.50
1752.698,484.00
1753.556,500.50
1754.414,500.50
1755.272,492.50
1756.130,510.00
1756.988,485.00
1757.846,504.00
1758.703,509.00
1759.559,472.50
1760.417,520.00
1761.274,470.00
1762.131,510.50
1762.989,532.50
1763.846,509.00
1764.703,480.50
1765.560,450.50
1766.417,476.50
1767.273,478.50
1768.130,519.00
1768.987,447.00
1769.843,425.50
1770.700,523.50
1771.556,476.50
1772.412,498.00
1773.268,436.00
1774.125,502.50
1774.980,505.50
1775.836,451.50
1776.692,493.00
1777.546,485.50
1778.402,489.50
1779.257,463.00
1780.113,465.50
1780.968,471.00
1781.824,483.00
1782.679,524.50
1783.534,435.50
1784.389,466.50
1785.244,465.50
1786.099,426.00
1786.954,508.00
1787.808,508.00
1788.661,447.50
1789.516,489.00
1790.370,513.00
1791.225,469.00
1792.079,503.50
1792.933,522.50
1793.787,461.00
1794.641,508.50
1795.495,491.00
1796.349,464.50
1797.201,518.00
1798.055,474.00
1798.908,443.00
1799.762,464.50
1800.615,433.00
1801.469,562.50
1802.322,497.50
1803.175,468.00
1804.028,523.00
1804.880,439.00
1805.732,457.50
1806.585,433.50
1807.438,497.00
1808.291,487.50
1809.143,492.50
1809.996,516.50
1810.846,525.50
1811.699,472.50
1812.551,508.50
1813.403,480.00
1814.255,530.00
1815.107,465.50
1815.959,402.50
1816.809,503.00
1817.661,500.00
1818.512,515.50
1819.364,435.00
1820.215,503.00
1821.067,491.00
1821.918,470.00
1822.768,466.50
1823.619,462.50
1824.470,468.00
1825.321,498.50
1826.172,452.50
1827.021,443.50
1827.871,491.00
1828.722,475.50
1829.572,464.00
1830.423,461.50
1831.273,488.00
1832.122,493.50
1832.972,454.00
1833.822,421.50
1834.672,505.50
1835.522,504.00
1836.370,503.00
1837.220,488.00
1838.070,481.00
1838.919,467.00
1839.769,544.50
1840.616,426.00
1841.466,482.00
1842.315,475.50
1843.164,498.00
1844.013,479.50
1844.860,432.00
1845.709,482.00
1846.558,465.00
1847.407,465.50
1848.254,483.50
1849.102,462.00
1849.951,477.00
1850.799,469.50
1851.648,479.50
1852.494,465.00
1853.342,505.00
1854.190,518.50
1855.038,452.50
1855.884,477.50
1856.732,481.50
1857.580,468.50
1858.428,482.50
1859.273,452.50
1860.121,503.50
1860.968,465.00
1861.816,467.50
1862.661,496.50
1863.508,449.50
1864.355,453.50
1865.202,472.00
1866.047,442.50
1866.894,451.50
1867.741,431.00
1868.586,438.00
1869.432,424.00
1870.279,435.00
1871.125,467.00
1871.970,453.50
1872.816,443.50
1873.662,478.00
1874.506,457.50
1875.352,495.00
1876.198,490.50
1877.044,451.00
1877.888,420.50
1878.734,465.00
1879.579,462.50
1880.423,408.00
1881.268,425.50
1882.113,440.50
1882.959,545.50
1883.802,477.00
1884.647,501.00
1885.492,434.00
1886.335,489.00
1887.180,473.50
1888.025,515.50
1888.867,498.00
1889.712,452.50
1890.556,489.50
1891.399,499.00
1892.243,495.50
1893.087,498.00
1893.930,489.50
1894.774,457.50
1895.618,439.50
1896.460,522.50
1897.304,503.00
1898.147,533.50
1898.989,464.00
1899.833,500.00
1900.676,473.00
1901.518,410.00
1902.361,458.50
1903.202,501.50
1904.046,447.50
1904.889,463.50
1905.730,472.50
1906.573,441.50
1907.415,509.50
1908.256,504.00
1909.099,456.00
1909.941,489.50
1910.782,459.50
1911.624,445.50
1912.465,451.50
1913.307,449.00
1914.149,469.50
1914.989,431.00
1915.831,463.50
1916.671,497.00
1917.513,464.50
1918.355,410.50
1919.195,437.50
1920.036,454.50
1920.876,467.50
1921.717,486.50
1922.558,436.50
1923.398,472.00
1924.239,433.00
1925.078,467.00
1925.919,482.50
1926.760,477.50
1927.599,502.50
1928.440,449.00
1929.279,454.50
1930.119,428.50
1930.958,438.50
1931.798,475.00
1932.638,497.00
1933.477,462.00
1934.317,492.00
1935.155,500.50
1935.995,495.00
1936.833,436.50
1937.673,458.50
1938.512,465.50
1939.350,437.00
1940.190,423.00
1941.027,483.00
1941.867,431.50
1942.704,437.50
1943.543,439.50
1944.381,452.50
1945.220,460.50
1946.057,448.50
1946.896,450.00
1947.733,443.00
1948.572,452.00
1949.408,441.00
1950.247,477.50
1951.085,440.50
1951.922,443.50
1952.760,450.50
1953.597,449.50
1954.435,432.50
1955.271,453.50
1956.109,419.00
1956.945,491.50
1957.783,471.00
1958.619,463.50
1959.456,428.00
1960.292,442.00
1961.129,468.50
1961.965,509.00
1962.802,472.50
1963.638,459.00
1964.475,434.50
1965.310,422.00
1966.145,499.50
1966.982,496.00
1967.817,434.00
1968.654,456.50
1969.489,494.00
1970.325,465.00
1971.160,444.00
1971.996,460.50
1972.831,452.50
1973.667,467.50
1974.501,479.00
1975.337,467.00
1976.171,500.00
1977.006,488.00
1977.841,469.50
1978.675,463.00
1979.511,461.50
1980.345,521.50
1981.180,479.00
1982.014,459.00
1982.849,496.50
1983.682,436.50
1984.516,458.00
1985.351,433.00
1986.184,466.50
1987.019,481.50
1987.852,435.00
1988.687,486.50
1989.519,483.00
1990.352,515.00
1991.187,487.50
1992.019,499.00
1992.854,494.50
1993.686,442.00
1994.518,485.50
1995.352,483.50
1996.185,491.00
1997.019,501.50
1997.851,481.50
1998.682,484.50
1999.516,492.50
2000.348,474.00

<< BACKGROUND SPECTRUM >>
Wave[dcm-1],No53
96.716,2563.00
97.759,2368.00
98.802,2326.00
99.846,2937.00
100.886,2583.00
101.929,2763.00
102.972,2756.00
104.015,2632.00
105.057,2711.00
106.100,2258.00
107.142,2639.00
108.184,3009.00
109.226,2900.00
110.268,3038.00
111.310,3344.00
112.352,2903.00
113.393,2974.00
114.435,2805.00
115.476,3061.00
116.517,3093.00
117.558,2603.00
118.599,2932.00
119.640,3275.00
120.681,3258.00
121.722,3210.00
122.762,2891.00
123.803,2725.00
124.843,3131.00
125.883,3381.00
126.923,3593.00
127.963,3331.00
129.001,3606.00
130.041,3974.00
131.080,3283.00
132.120,3167.00
133.159,3542.00
134.199,3601.00
135.238,3176.00
136.277,3519.00
137.316,3694.00
138.355,3572.00
139.393,3214.00
140.432,3356.00
141.470,3422.00
142.509,3192.00
143.547,3800.00
144.585,2969.00
145.623,3400.00
146.661,3157.00
147.699,3492.00
148.736,3648.00
149.774,3239.00
150.811,3488.00
151.849,3994.00
152.886,3473.00
153.923,3668.00
154.960,3163.00
155.997,3916.00
157.034,4984.00
158.072,3627.00
159.109,4081.00
160.145,4226.00
161.182,3260.00
162.218,3569.00
163.254,3363.00
164.290,3271.00
165.326,4012.00
166.361,3896.00
167.397,3486.00
168.432,3731.00
169.468,3443.00
170.503,3712.00
171.538,3384.00
172.573,3765.00
173.608,3231.00
174.643,3755.00
175.677,3713.00
176.712,3800.00
177.746,3810.00
178.781,3355.00
179.815,2715.00
180.849,3774.00
181.883,3340.00
182.917,2836.00
183.951,3122.00
184.984,3826.00
186.020,3309.00
187.053,3673.00
188.087,3284.00
189.120,3517.00
190.153,3693.00
191.186,3707.00
192.219,3810.00
193.251,3664.00
194.284,3771.00
195.317,3850.00
196.349,10783.00
197.381,3416.00
198.413,3484.00
199.445,3247.00
200.477,3624.00
201.509,3574.00
202.543,3580.00
203.575,3969.00
204.606,3666.00
205.637,5284.00
206.669,3192.00
207.700,3733.00
208.731,3599.00
209.762,3237.00
210.792,3268.00
211.823,3665.00
212.854,3283.00
213.884,4399.00
214.914,3691.00
215.947,3625.00
216.977,3679.00
218.007,3606.00
219.037,3830.00
220.066,3395.00
221.096,3839.00
222.126,3166.00
223.155,3432.00
224.184,3784.00
225.214,3358.00
226.245,3943.00
227.274,3349.00
228.302,3713.00
229.331,3765.00
230.360,3424.00
231.388,3406.00
232.417,3206.00
233.445,3602.00
234.473,3450.00
235.501,3736.00
236.531,3713.00
237.559,3704.00
238.587,3356.00
239.614,3325.00
240.642,3608.00
241.669,3682.00
242.696,3705.00
243.724,3713.00
244.753,4051.00
245.780,3433.00
246.806,3237.00
247.833,3670.00
248.860,3486.00
249.886,3658.00
250.913,3231.00
251.939,3550.00
252.967,3552.00
253.993,3509.00
255.019,3960.00
256.045,3579.00
257.070,4048.00
258.096,3313.00
259.121,3706.00
260.147,3581.00
261.174,3454.00
262.199,3448.00
263.224,3562.00
264.249,3885.00
265.274,4086.00
266.298,3581.00
267.323,3684.00
268.349,3932.00
269.374,3291.00
270.398,3268.00
271.422,3738.00
272.446,3313.00
273.470,3141.00
274.496,3771.00
275.519,3808.00
276.543,3849.00
277.566,3962.00
278.589,3879.00
279.613,3779.00
280.636,3737.00
281.661,3851.00
282.684,3844.00
283.706,3959.00
284.729,4182.00
285.751,3018.00
286.774,4018.00
287.798,3393.00
288.820,3039.00
289.842,3340.00
290.864,3388.00
291.886,3721.00
292.910,3483.00
293.932,4147.00
294.953,3549.00
295.974,3592.00
296.996,3742.00
298.017,3547.00
299.040,3390.00
300.061,3694.00
301.082,3420.00
302.102,3224.00
303.123,3847.00
304.143,3572.00
305.166,3504.00
306.186,3781.00
307.206,3392.00
308.226,3731.00
309.246,3089.00
310.268,3849.00
311.288,3514.00
312.307,3240.00
313.327,3531.00
314.346,3806.00
315.368,3047.00
316.387,3676.00
317.406,3660.00
318.425,3571.00
319.443,3480.00
320.464,3134.00
321.483,4068.00
322.501,3357.00
323.520,3970.00
324.538,3513.00
325.558,4036.00
326.576,3645.00
327.594,3522.00
328.612,3424.00
329.629,3150.00
330.649,3777.00
331.666,3614.00
332.684,3129.00
333.701,3745.00
334.718,3224.00
335.737,3483.00
336.754,3748.00
337.771,3831.00
338.787,3195.00
339.806,3489.00
340.823,3415.00
341.839,3588.00
342.855,3490.00
343.871,3587.00
344.889,3307.00
345.905,3867.00
346.921,3756.00
347.937,4357.00
348.954,4190.00
349.970,3682.00
350.985,3618.00
352.000,3172.00
353.017,3779.00
354.032,3145.00
355.047,3849.00
356.062,3537.00
357.077,3388.00
358.093,3983.00
359.108,3743.00
360.122,3643.00
361.136,3527.00
362.152,3920.00
363.166,3263.00
364.180,3155.00
365.194,3998.00
366.210,3399.00
367.223,3328.00
368.237,3427.00
369.250,3619.00
370.265,3380.00
371.278,3915.00
372.291,3736.00
373.304,3038.00
374.319,3822.00
375.332,3861.00
376.344,4067.00
377.357,3485.00
378.371,3889.00
379.383,3393.00
380.395,4351.00
381.407,4147.00
382.421,3450.00
383.433,3443.00
384.445,3399.00
385.456,3546.00
386.470,3107.00
387.481,3984.00
388.492,3906.00
389.505,3223.00
390.516,3941.00
391.527,3522.00
392.538,3480.00
393.551,3761.00
394.561,4314.00
395.572,3707.00
396.582,3601.00
397.594,3785.00
398.604,3382.00
399.614,3676.00
400.624,3415.00
401.636,3466.00
402.646,3574.00
403.655,3209.00
404.667,3364.00
405.676,3366.00
406.685,4313.00
407.694,3925.00
408.705,3062.00
409.714,3157.00
410.723,3268.00
411.734,3302.00
412.742,3422.00
413.751,3633.00
414.759,3698.00
415.769,3536.00
416.777,3828.00
417.785,3533.00
418.795,3322.00
419.803,3601.00
420.811,3273.00
421.818,3944.00
422.828,3515.00
423.835,3392.00
424.842,3443.00
425.852,3287.00
426.859,3701.00
427.866,3726.00
428.874,3641.00
429.881,3482.00
430.888,3831.00
431.894,3595.00
432.902,3536.00
433.909,4474.00
434.915,3669.00
435.923,4359.00
436.929,3083.00
437.935,3472.00
438.942,3393.00
439.948,3586.00
440.953,4059.00
441.959,3218.00
442.966,3912.00
443.971,3726.00
444.976,3196.00
445.983,3578.00
446.988,3481.00
447.993,4036.00
448.999,3645.00
450.004,3585.00
451.008,3336.00
452.014,4095.00
453.019,3880.00
454.023,3242.00
455.029,3262.00
456.032,4008.00
457.036,3502.00
458.042,2905.00
459.045,3425.00
460.049,3720.00
461.052,4097.00
462.057,3785.00
463.060,4011.00
464.063,3427.00
465.068,3444.00
466.071,3315.00
467.073,3894.00
468.078,3191.00
469.080,3090.00
470.082,3605.00
471.087,3434.00
472.089,3608.00
473.091,3854.00
474.095,4040.00
475.096,3494.00
476.098,3405.00
477.101,3764.00
478.103,3333.00
479.104,4188.00
480.107,3497.00
481.108,3010.00
482.109,4193.00
483.112,4199.00
484.113,3732.00
485.114,3798.00
486.116,3589.00
487.117,3878.00
488.117,3646.00
489.119,3689.00
490.119,3781.00
491.121,3286.00
492.121,3080.00
493.121,2881.00
494.123,3563.00
495.122,3686.00
496.122,3608.00
497.123,4564.00
498.122,3367.00
499.121,3623.00
500.122,3581.00
501.121,3193.00
502.120,3136.00
503.121,3251.00
504.119,3262.00
505.118,3798.00
506.118,3282.00
507.117,3276.00
508.115,3754.00
509.115,3589.00
510.113,3121.00
511.112,3804.00
512.110,3456.00
513.108,3800.00
514.107,3854.00
515.105,3798.00
516.102,3981.00
517.101,3525.00
518.098,3612.00
519.095,4113.00
520.094,3436.00
521.091,3407.00
522.089,3698.00
523.086,3336.00
524.082,3691.00
525.081,3636.00
526.077,4762.00
527.073,4540.00
528.071,3540.00
529.067,3383.00
530.064,3437.00
531.060,3165.00
532.056,3452.00
533.053,3936.00
534.048,3767.00
535.044,3542.00
536.041,3671.00
537.036,3568.00
538.030,3705.00
539.027,3798.00
540.022,3133.00
541.019,3519.00
542.013,3852.00
543.007,3654.00
544.004,3513.00
544.998,3539.00
545.994,4122.00
546.988,3984.00
547.981,3452.00
548.977,4214.00
549.971,3719.00
550.964,3833.00
551.960,3645.00
552.953,3552.00
553.948,3837.00
554.941,3351.00
555.934,3194.00
556.929,3734.00
557.922,3280.00
558.916,3834.00
559.909,4043.00
560.901,3620.00
561.895,3645.00
562.888,3293.00
563.880,3737.00
564.874,3903.00
565.865,3837.00
566.859,3210.00
567.851,4086.00
568.842,3455.00
569.836,3586.00
570.827,3287.00
571.820,3644.00
572.811,3745.00
573.802,3606.00
574.795,3316.00
575.786,3827.00
576.779,3756.00
577.769,3199.00
578.760,3669.00
579.752,3240.00
580.742,3370.00
581.735,3724.00
582.725,3327.00
583.714,3787.00
584.706,3256.00
585.696,3548.00
586.688,3777.00
587.677,3458.00
588.667,3670.00
589.658,3573.00
590.647,3676.00
591.638,3607.00
592.627,3428.00
593.616,3104.00
594.607,3686.00
595.595,3580.00
596.586,3183.00
597.574,3892.00
598.562,3929.00
599.553,3180.00
600.541,3548.00
601.531,3714.00
602.519,3432.00
603.508,3634.00
604.496,3745.00
605.484,3621.00
606.473,3537.00
607.460,3409.00
608.450,3425.00
609.437,3730.00
610.424,3938.00
611.413,3131.00
612.400,3291.00
613.388,3591.00
614.375,3445.00
615.361,3484.00
616.350,3311.00
617.336,8374.00
618.324,3899.00
619.310,3366.00
620.298,3205.00
621.284,3687.00
622.270,3213.00
623.257,3607.00
624.243,3636.00
625.230,3790.00
626.216,3530.00
627.203,3959.00
628.188,3491.00
629.173,3432.00
630.160,3281.00
631.145,2721.00
632.131,3330.00
633.116,3215.00
634.102,3632.00
635.087,3799.00
636.071,3827.00
637.057,3332.00
638.041,3111.00
639.027,3257.00
640.011,3435.00
640.995,3303.00
641.980,3260.00
642.964,3415.00
643.949,3970.00
644.932,2774.00
645.918,3367.00
646.901,3512.00
647.886,3354.00
648.868,3428.00
649.851,3213.00
650.836,2943.00
651.818,3224.00
652.803,3733.00
653.785,3496.00
654.769,3714.00
655.751,3703.00
656.733,3949.00
657.717,3022.00
658.699,3592.00
659.683,3273.00
660.664,3182.00
661.648,3367.00
662.629,3325.00
663.611,3316.00
664.594,3119.00
665.575,3097.00
666.558,3415.00
667.539,3083.00
668.521,3332.00
669.502,3354.00
670.484,3379.00
671.465,3251.00
672.445,3431.00
673.427,3228.00
674.407,3209.00
675.390,3551.00
676.369,3323.00
677.351,2963.00
678.331,3632.00
679.312,3414.00
680.292,3259.00
681.271,2954.00
682.253,3543.00
683.232,3088.00
684.213,3208.00
685.192,3666.00
686.172,3944.00
687.151,3386.00
688.132,3441.00
689.110,3576.00
690.089,3756.00
691.069,2853.00
692.047,2840.00
693.027,2975.00
694.005,3452.00
694.985,4012.00
695.963,3471.00
696.943,3220.00
697.920,3019.00
698.898,3793.00
699.877,3676.00
700.854,3247.00
701.833,3261.00
702.810,3759.00
703.789,3470.00
704.766,4469.00
705.745,3938.00
706.721,3198.00
707.698,3690.00
708.676,3077.00
709.653,3287.00
710.631,3677.00
711.607,3336.00
712.585,3357.00
713.561,3118.00
714.539,3891.00
715.514,3291.00
716.492,3093.00
717.467,3779.00
718.443,3004.00
719.420,3654.00
720.395,3815.00
721.372,3515.00
722.347,3702.00
723.324,3253.00
724.298,3392.00
725.275,3110.00
726.250,3303.00
727.226,3140.00
728.200,2979.00
729.176,3273.00
730.151,3597.00
731.125,3826.00
732.100,2924.00
733.074,3327.00
734.050,3190.00
735.023,3054.00
735.999,3284.00
736.972,3212.00
737.947,3727.00
738.921,3424.00
739.896,3572.00
740.869,3433.00
741.841,3216.00
742.816,3779.00
743.789,3072.00
744.763,3128.00
745.736,3327.00
746.710,3185.00
747.682,3062.00
748.656,3256.00
749.628,3284.00
750.602,3322.00
751.574,3387.00
752.548,4180.00
753.519,3516.00
754.491,2917.00
755.464,3149.00
756.435,3951.00
757.408,3609.00
758.379,3496.00
759.352,2882.00
760.323,2986.00
761.296,3307.00
762.267,3418.00
763.239,3101.00
764.209,3580.00
765.182,4484.00
766.152,3626.00
767.124,3128.00
768.094,3131.00
769.064,3509.00
770.036,2988.00
771.005,3649.00
771.977,3184.00
772.947,3299.00
773.918,3726.00
774.887,3317.00
775.858,3103.00
776.827,3221.00
777.798,3266.00
778.767,3825.00
779.738,3255.00
780.707,3210.00
781.677,3399.00
782.646,3092.00
783.614,3651.00
784.584,3350.00
785.552,3516.00
786.522,2994.00
787.490,3268.00
788.460,3183.00
789.428,3193.00
790.397,3665.00
791.365,3008.00
792.334,3221.00
793.302,3403.00
794.271,3383.00
795.238,3163.00
796.207,3156.00
797.174,3551.00
798.143,3002.00
799.109,3686.00
800.076,3171.00
801.044,2872.00
802.011,3111.00
802.979,3113.00
803.945,3296.00
804.913,3922.00
805.879,3245.00
806.847,2975.00
807.813,3574.00
808.780,3216.00
809.746,3264.00
810.713,3695.00
811.678,2975.00
812.646,3188.00
813.611,3213.00
814.578,2981.00
815.543,3651.00
816.510,2839.00
817.474,3141.00
818.439,3255.00
819.405,3487.00
820.370,3094.00
821.336,2959.00
822.300,3390.00
823.266,3207.00
824.230,3383.00
825.196,3261.00
826.160,3635.00
827.126,3657.00
828.089,4014.00
829.055,3306.00
830.018,3371.00
830.983,4066.00
831.946,3079.00
832.911,3056.00
833.874,3893.00
834.837,3107.00
835.802,3168.00
836.765,3718.00
837.729,3145.00
838.691,3222.00
839.656,3594.00
840.618,3389.00
841.582,3508.00
842.544,3538.00
843.508,3717.00
844.470,2969.00
845.434,2842.00
846.395,2772.00
847.359,3169.00
848.320,2854.00
849.283,3062.00
850.245,3081.00
851.208,3544.00
852.169,3203.00
853.130,3020.00
854.092,3448.00
855.053,3166.00
856.016,3204.00
856.976,3135.00
857.938,3284.00
858.899,3300.00
859.861,2932.00
860.821,3193.00
861.783,2570.00
862.743,3229.00
863.704,3552.00
864.664,2724.00
865.626,3378.00
866.585,3069.00
867.546,3270.00
868.506,3324.00
869.467,2784.00
870.426,3317.00
871.387,3582.00
872.346,3561.00
873.304,3328.00
874.265,3392.00
875.223,3354.00
876.184,3320.00
877.142,3111.00
878.102,3201.00
879.060,3229.00
880.021,3296.00
880.978,2825.00
881.938,3202.00
882.896,3591.00
883.856,3466.00
884.813,3152.00
885.772,3142.00
886.730,3408.00
887.689,3383.00
888.646,3065.00
889.603,3597.00
890.562,3593.00
891.519,3360.00
892.477,3386.00
893.434,3330.00
894.392,2842.00
895.349,3287.00
896.307,3348.00
897.263,3485.00
898.221,3324.00
899.177,3129.00
900.135,3478.00
901.091,3172.00
902.048,3663.00
903.004,3200.00
903.961,3011.00
904.917,3229.00
905.874,3225.00
906.829,2931.00
907.784,3260.00
908.741,3270.00
909.696,3118.00
910.653,2759.00
911.607,3154.00
912.564,3180.00
913.518,3169.00
914.475,3276.00
915.429,4935.00
916.385,2968.00
917.339,3601.00
918.295,3382.00
919.249,3420.00
920.205,3302.00
921.158,3352.00
922.114,3131.00
923.067,3300.00
924.020,3289.00
924.976,3128.00
925.929,3428.00
926.884,3342.00
927.837,3504.00
928.791,3442.00
929.744,2944.00
930.699,3244.00
931.651,3293.00
932.606,2889.00
933.558,3129.00
934.512,3409.00
935.464,3352.00
936.418,3602.00
937.370,3391.00
938.322,3011.00
939.276,3166.00
940.227,3228.00
941.181,3325.00
942.132,3671.00
943.085,3815.00
944.036,2836.00
944.990,3572.00
945.941,3035.00
946.893,3143.00
947.844,2934.00
948.797,3360.00
949.747,3964.00
950.700,3131.00
951.650,2647.00
952.601,3349.00
953.553,2988.00
954.503,3436.00
955.455,3147.00
956.405,3262.00
957.356,2946.00
958.306,3485.00
959.258,3189.00
960.207,3643.00
961.158,3537.00
962.108,3253.00
963.059,2962.00
964.008,2866.00
964.959,3819.00
965.908,3190.00
966.856,2950.00
967.807,2796.00
968.756,3529.00
969.706,3262.00
970.654,3136.00
971.605,3208.00
972.553,3321.00
973.503,3207.00
974.451,3516.00
975.401,3301.00
976.348,3249.00
977.296,3171.00
978.246,3462.00
979.193,3649.00
980.142,2954.00
981.090,3335.00
982.039,3183.00
982.986,3288.00
983.935,3547.00
984.882,3321.00
985.830,3418.00
986.777,3354.00
987.725,3048.00
988.672,3014.00
989.618,3259.00
990.567,2957.00
991.513,3133.00
992.461,3025.00
993.407,3496.00
994.354,3326.00
995.300,3402.00
996.248,3346.00
997.193,3382.00
998.141,3125.00
999.086,3372.00
1000.031,3284.00
1000.978,2785.00
1001.924,3205.00
1002.870,3302.00
1003.815,2668.00
1004.762,3029.00
1005.707,3242.00
1006.653,3151.00
1007.598,3145.00
1008.542,2876.00
1009.488,2858.00
1010.432,3104.00
1011.378,2987.00
1012.322,3603.00
1013.268,2928.00
1014.212,3209.00
1015.157,3317.00
1016.101,3638.00
1017.046,2894.00
1017.990,2940.00
1018.933,3163.00
1019.878,2983.00
1020.821,3013.00
1021.766,2853.00
1022.709,3100.00
1023.654,3182.00
1024.596,3455.00
1025.541,3674.00
1026.483,3579.00
1027.425,3276.00
1028.370,3396.00
1029.312,3398.00
1030.256,3096.00
1031.198,3026.00
1032.141,3089.00
1033.083,3593.00
1034.027,3329.00
1034.968,3393.00
1035.910,2745.00
1036.853,3206.00
1037.794,3251.00
1038.738,2939.00
1039.679,3491.00
1040.621,3062.00
1041.562,3108.00
1042.503,3491.00
1043.446,2926.00
1044.386,3474.00
1045.329,3189.00
1046.269,3265.00
1047.211,3099.00
1048.151,3265.00
1049.093,2924.00
1050.033,3959.00
1050.973,3334.00
1051.915,3135.00
1052.854,3126.00
1053.796,3421.00
1054.735,3018.00
1055.677,3096.00
1056.616,3231.00
1057.555,3280.00
1058.496,2890.00
1059.435,3405.00
1060.376,3053.00
1061.315,3006.00
1062.255,2881.00
1063.194,3153.00
1064.132,2891.00
1065.073,3290.00
1066.011,3221.00
1066.951,3222.00
1067.889,2959.00
1068.829,3335.00
1069.767,3300.00
1070.705,2583.00
1071.644,3085.00
1072.582,2735.00
1073.521,3099.00
1074.459,3144.00
1075.398,3327.00
1076.335,3034.00
1077.272,3846.00
1078.211,3330.00
1079.148,3725.00
1080.087,3194.00
1081.023,3629.00
1081.962,3436.00
1082.898,2688.00
1083.835,3047.00
1084.773,2813.00
1085.709,2790.00
1086.647,3173.00
1087.583,3061.00
1088.519,3315.00
1089.457,3323.00
1090.392,2752.00
1091.330,3239.00
1092.266,3119.00
1093.203,3483.00
1094.138,2779.00
1095.073,3657.00
1096.010,3407.00
1096.945,3107.00
1097.882,2814.00
1098.817,2639.00
1099.752,4062.00
1100.688,3179.00
1101.623,3238.00
1102.559,3236.00
1103.493,3462.00
1104.430,2740.00
1105.364,2839.00
1106.298,3089.00
1107.234,3752.00
1108.167,2913.00
1109.094,3084.00
1110.019,3134.00
1110.945,3299.00
1111.869,3164.00
1112.795,3022.00
1113.720,3196.00
1114.646,3188.00
1115.571,2594.00
1116.495,3196.00
1117.420,3244.00
1118.345,2976.00
1119.270,3128.00
1120.195,3300.00
1121.118,3501.00
1122.042,3444.00
1122.967,3145.00
1123.891,3217.00
1124.816,3229.00
1125.738,3202.00
1126.663,2568.00
1127.587,3042.00
1128.511,3002.00
1129.435,3178.00
1130.357,3189.00
1131.280,4016.00
1132.204,2941.00
1133.128,2976.00
1134.051,3052.00
1134.972,3798.00
1135.896,3037.00
1136.819,3467.00
1137.742,2961.00
1138.665,3252.00
1139.586,3144.00
1140.509,2682.00
1141.431,2987.00
1142.354,3595.00
1143.276,3149.00
1144.197,3537.00
1145.119,3252.00
1146.041,2887.00
1146.964,3319.00
1147.885,3310.00
1148.806,3094.00
1149.727,3172.00
1150.649,2747.00
1151.571,3115.00
1152.492,3345.00
1153.412,3289.00
1154.333,3176.00
1155.254,3039.00
1156.175,3022.00
1157.095,3567.00
1158.016,3178.00
1158.936,2964.00
1159.857,3287.00
1160.778,2996.00
1161.697,2767.00
1162.617,3268.00
1163.537,3789.00
1164.458,3595.00
1165.376,2968.00
1166.296,3359.00
1167.216,3457.00
1168.136,2999.00
1169.056,2867.00
1169.974,3113.00
1170.893,3706.00
1171.813,3290.00
1172.732,3074.00
1173.650,3218.00
1174.569,3978.00
1175.488,3324.00
1176.407,2864.00
1177.326,2921.00
1178.243,3152.00
1179.161,2993.00
1180.080,3081.00
1180.999,3249.00
1181.915,3102.00
1182.834,2713.00
1183.752,3306.00
1184.670,3682.00
1185.586,2674.00
1186.504,2988.00
1187.422,3126.00
1188.340,2829.00
1189.258,3260.00
1190.173,3156.00
1191.091,3493.00
1192.008,2988.00
1192.926,3018.00
1193.841,3236.00
1194.758,3245.00
1195.675,2923.00
1196.592,3421.00
1197.507,2916.00
1198.424,3308.00
1199.340,3670.00
1200.257,3054.00
1201.172,3283.00
1202.088,2592.00
1203.004,3200.00
1203.920,3353.00
1204.835,3757.00
1205.750,3474.00
1206.666,3512.00
1207.582,2932.00
1208.496,2931.00
1209.412,3071.00
1210.327,2957.00
1211.243,3665.00
1212.156,2960.00
1213.071,2914.00
1213.986,3131.00
1214.901,2823.00
1215.814,2767.00
1216.729,2908.00
1217.644,2941.00
1218.559,2891.00
1219.471,3918.00
1220.386,3510.00
1221.300,2936.00
1222.213,3299.00
1223.127,3123.00
1224.041,3488.00
1224.955,2880.00
1225.867,3264.00
1226.781,3410.00
1227.694,3526.00
1228.608,3145.00
1229.520,3369.00
1230.433,3381.00
1231.346,2933.00
1232.260,3345.00
1233.171,2915.00
1234.084,3211.00
1234.997,3606.00
1235.908,2974.00
1236.821,3299.00
1237.733,4302.00
1238.646,3406.00
1239.556,3204.00
1240.469,3152.00
1241.381,2938.00
1242.293,2957.00
1243.203,3633.00
1244.115,3705.00
1245.027,3201.00
1245.937,3021.00
1246.849,3066.00
1247.761,3154.00
1248.672,2938.00
1249.582,3035.00
1250.493,3759.00
1251.404,3180.00
1252.313,3365.00
1253.225,3477.00
1254.135,4110.00
1255.046,3303.00
1255.955,3349.00
1256.866,3638.00
1257.777,3034.00
1258.685,2816.00
1259.596,2634.00
1260.506,3519.00
1261.416,3097.00
1262.324,3369.00
1263.234,3140.00
1264.144,3376.00
1265.052,3267.00
1265.962,3162.00
1266.872,3438.00
1267.779,3393.00
1268.689,2748.00
1269.598,2895.00
1270.507,3084.00
1271.415,3049.00
1272.324,3199.00
1273.233,3108.00
1274.140,3022.00
1275.048,2877.00
1275.957,2642.00
1276.864,2943.00
1277.772,2981.00
1278.681,2636.00
1279.587,2914.00
1280.496,3248.00
1281.404,3851.00
1282.312,3355.00
1283.218,2876.00
1284.126,2885.00
1285.033,3673.00
1285.939,3091.00
1286.847,3222.00
1287.754,3081.00
1288.660,2930.00
1289.567,3775.00
1290.474,3243.00
1291.380,3433.00
1292.286,2851.00
1293.193,3180.00
1294.098,3151.00
1295.005,2999.00
1295.912,3471.00
1296.816,3218.00
1297.723,3101.00
1298.629,2954.00
1299.534,3458.00
1300.440,3255.00
1301.346,2949.00
1302.250,3003.00
1303.156,2716.00
1304.062,3557.00
1304.966,3703.00
1305.871,3463.00
1306.777,3011.00
1307.680,3097.00
1308.586,3243.00
1309.491,3390.00
1310.394,3171.00
1311.299,3374.00
1312.204,3610.00
1313.107,3267.00
1314.012,3224.00
1314.917,2822.00
1315.819,3248.00
1316.724,3652.00
1317.628,3246.00
1318.531,3088.00
1319.435,3501.00
1320.339,5140.00
1321.241,3153.00
1322.145,3144.00
1323.049,3224.00
1323.951,2915.00
1324.854,2932.00
1325.756,3423.00
1326.659,3181.00
1327.563,2948.00
1328.464,3303.00
1329.367,3141.00
1330.271,3510.00
1331.172,2911.00
1332.074,3184.00
1332.977,2958.00
1333.878,3314.00
1334.781,3453.00
1335.683,2922.00
1336.584,3109.00
1337.486,2712.00
1338.387,3293.00
1339.289,2870.00
1340.191,3009.00
1341.091,3058.00
1341.993,2892.00
1342.895,2974.00
1343.794,3240.00
1344.696,3387.00
1345.596,3289.00
1346.497,2916.00
1347.398,3100.00
1348.298,2685.00
1349.199,3738.00
1350.100,3043.00
1350.999,3493.00
1351.900,3360.00
1352.799,3458.00
1353.699,3241.00
1354.600,3131.00
1355.499,3239.00
1356.399,2740.00
1357.297,3097.00
1358.198,3210.00
1359.098,2934.00
1359.996,2814.00
1360.896,3612.00
1361.796,3419.00
1362.694,3272.00
1363.593,3129.00
1364.491,3356.00
1365.391,3665.00
1366.290,3066.00
1367.187,2920.00
1368.086,3371.00
1368.984,3225.00
1369.883,2715.00
1370.782,3185.00
1371.679,3280.00
1372.577,3643.00
1373.474,3195.00
1374.373,3063.00
1375.269,3190.00
1376.168,3089.00
1377.066,3439.00
1377.962,3382.00
1378.860,3514.00
1379.756,3525.00
1380.654,3691.00
1381.552,3399.00
1382.448,3292.00
1383.346,3200.00
1384.241,3315.00
1385.139,3403.00
1386.036,3082.00
1386.931,2740.00
1387.829,3221.00
1388.724,3335.00
1389.621,3051.00
1390.516,3197.00
1391.413,3053.00
1392.309,2939.00
1393.204,3439.00
1394.101,3374.00
1394.995,3347.00
1395.891,3255.00
1396.786,2910.00
1397.682,3086.00
1398.578,3233.00
1399.472,3442.00
1400.368,3191.00
1401.262,3172.00
1402.158,3332.00
1403.051,3071.00
1403.947,3072.00
1404.840,3399.00
1405.736,3376.00
1406.631,2928.00
1407.524,3603.00
1408.419,3197.00
1409.312,3035.00
1410.207,3285.00
1411.100,3009.00
1411.995,3039.00
1412.888,3383.00
1413.782,2835.00
1414.675,3495.00
1415.569,2903.00
1416.463,3102.00
1417.355,3095.00
1418.249,2979.00
1419.141,3215.00
1420.035,3306.00
1420.927,3109.00
1421.821,3478.00
1422.713,3018.00
1423.606,3330.00
1424.498,3181.00
1425.391,3742.00
1426.282,2977.00
1427.175,3121.00
1428.068,2633.00
1428.960,3198.00
1429.852,3285.00
1430.743,2911.00
1431.636,3154.00
1432.527,3487.00
1433.419,3345.00
1434.310,3354.00
1435.202,2955.00
1436.092,3085.00
1436.984,3110.00
1437.875,3563.00
1438.767,3156.00
1439.657,2990.00
1440.548,3363.00
1441.438,3208.00
1442.330,3295.00
1443.219,3101.00
1444.111,3417.00
1445.000,3002.00
1445.891,2904.00
1446.781,2943.00
1447.672,3199.00
1448.561,3518.00
1449.452,3305.00
1450.340,2945.00
1451.231,2951.00
1452.120,2883.00
1453.010,3425.00
1453.899,3038.00
1454.789,3367.00
1455.677,3583.00
1456.568,3171.00
1457.456,3223.00
1458.346,3229.00
1459.234,3254.00
1460.123,3583.00
1461.011,3162.00
1461.901,3535.00
1462.788,3591.00
1463.678,3309.00
1464.565,3195.00
1465.454,3097.00
1466.342,3259.00
1467.231,2522.00
1468.118,3398.00
1469.006,3619.00
1469.893,2874.00
1470.782,3355.00
1471.669,3517.00
1472.557,3408.00
1473.444,3203.00
1474.330,3341.00
1475.218,3558.00
1476.105,3090.00
1476.993,3217.00
1477.879,3422.00
1478.767,3078.00
1479.652,2937.00
1480.540,3204.00
1481.426,3371.00
1482.313,3285.00
1483.199,3525.00
1484.086,3395.00
1484.972,2909.00
1485.857,2899.00
1486.744,3299.00
1487.629,2767.00
1488.516,3055.00
1489.401,3406.00
1490.287,3186.00
1491.172,2803.00
1492.058,3119.00
1492.943,2974.00
1493.828,2957.00
1494.714,3332.00
1495.598,3530.00
1496.484,3991.00
1497.368,2845.00
1498.254,3127.00
1499.138,3209.00
1500.022,3144.00
1500.907,3306.00
1501.791,3955.00
1502.676,3159.00
1503.560,3022.00
1504.445,3701.00
1505.328,3305.00
1506.211,3594.00
1507.096,3127.00
1507.979,3469.00
1508.864,3126.00
1509.747,3339.00
1510.631,3257.00
1511.514,3327.00
1512.397,3478.00
1513.281,3693.00
1514.163,3427.00
1515.047,3063.00
1515.930,2907.00
1516.812,3228.00
1517.696,3350.00
1518.578,3143.00
1519.461,3282.00
1520.343,3646.00
1521.225,3017.00
1522.108,3113.00
1522.990,3487.00
1523.873,3601.00
1524.754,2833.00
1525.635,2686.00
1526.518,3351.00
1527.399,3135.00
1528.282,3219.00
1529.163,3303.00
1530.044,3209.00
1530.926,2862.00
1531.807,2967.00
1532.689,3247.00
1533.569,2978.00
1534.450,4242.00
1535.332,3425.00
1536.212,3054.00
1537.092,3498.00
1537.974,2873.00
1538.854,3073.00
1539.735,3735.00
1540.615,3393.00
1541.495,2980.00
1542.376,3646.00
1543.255,2911.00
1544.135,3114.00
1545.016,3238.00
1545.895,2961.00
1546.774,3404.00
1547.655,2767.00
1548.534,3149.00
1549.414,3108.00
1550.293,2907.00
1551.172,3281.00
1552.052,3174.00
1552.930,3046.00
1553.809,3709.00
1554.689,3074.00
1555.567,3107.00
1556.445,3120.00
1557.325,3500.00
1558.203,2814.00
1559.080,3177.00
1559.960,3122.00
1560.838,3916.00
1561.715,3097.00
1562.594,3544.00
1563.472,3355.00
1564.349,3332.00
1565.228,2712.00
1566.105,2926.00
1566.982,3269.00
1567.861,3478.00
1568.738,3117.00
1569.615,2801.00
1570.493,3052.00
1571.370,3074.00
1572.246,2649.00
1573.124,3170.00
1574.000,3119.00
1574.877,3384.00
1575.755,3052.00
1576.631,2994.00
1577.507,3568.00
1578.384,3559.00
1579.260,3297.00
1580.136,3757.00
1581.011,3153.00
1581.889,3152.00
1582.764,3158.00
1583.639,3439.00
1584.516,3327.00
1585.391,3086.00
1586.266,3240.00
1587.143,3644.00
1588.018,3335.00
1588.893,3546.00
1589.768,3973.00
1590.644,3889.00
1591.519,2916.00
1592.393,3330.00
1593.269,3432.00
1594.143,2974.00
1595.018,3143.00
1595.892,3068.00
1596.767,2725.00
1597.641,2700.00
1598.515,2853.00
1599.391,3338.00
1600.264,3024.00
1601.138,2991.00
1602.011,2572.00
1602.886,3698.00
1603.760,3524.00
1604.633,3453.00
1605.508,3406.00
1606.381,3236.00
1607.254,3220.00
1608.127,3329.00
1609.001,2955.00
1609.874,3456.00
1610.746,3480.00
1611.619,3185.00
1612.493,3446.00
1613.365,3047.00
1614.238,3256.00
1615.110,3237.00
1615.984,3198.00
1616.855,3004.00
1617.727,3414.00
1618.599,3028.00
1619.473,3499.00
1620.344,2544.00
1621.216,3197.00
1622.087,3204.00
1622.960,3252.00
1623.832,3174.00
1624.703,3305.00
1625.574,3419.00
1626.445,3196.00
1627.317,3248.00
1628.188,3444.00
1629.059,3111.00
1629.930,3566.00
1630.802,3172.00
1631.672,3360.00
1632.543,3321.00
1633.413,3198.00
1634.283,3649.00
1635.155,3325.00
1636.025,3285.00
1636.895,3263.00
1637.765,2728.00
1638.636,3186.00
1639.506,3330.00
1640.376,4003.00
1641.245,3098.00
1642.114,3249.00
1642.985,2661.00
1643.855,2961.00
1644.724,3110.00
1645.593,3340.00
1646.462,3311.00
1647.333,3258.00
1648.201,3075.00
1649.070,3272.00
1649.939,3349.00
1650.807,2955.00
1651.676,3429.00
1652.546,3394.00
1653.414,3508.00
1654.282,3211.00
1655.150,3079.00
1656.018,3166.00
1656.888,3857.00
1657.756,3189.00
1658.623,2890.00
1659.491,2766.00
1660.359,3552.00
1661.226,3043.00
1662.095,3370.00
1662.962,3053.00
1663.830,3193.00
1664.697,3028.00
1665.564,3183.00
1666.431,3312.00
1667.297,2875.00
1668.166,2943.00
1669.033,2785.00
1669.899,3075.00
1670.766,2844.00
1671.632,3067.00
1672.499,3511.00
1673.367,3210.00
1674.233,3398.00
1675.099,3188.00
1675.965,2866.00
1676.831,3134.00
1677.696,3505.00
1678.562,5760.00
1679.430,2720.00
1680.295,2852.00
1681.161,2961.00
1682.026,2967.00
1682.891,3056.00
1683.756,3104.00
1684.621,3225.00
1685.486,3230.00
1686.353,3223.00
1687.218,3341.00
1688.083,3173.00
1688.947,3447.00
1689.812,3141.00
1690.677,3031.00
1691.541,3323.00
1692.405,2530.00
1693.269,3655.00
1694.135,3391.00
1694.999,3195.00
1695.863,3742.00
1696.727,3088.00
1697.591,3058.00
1698.455,3339.00
1699.318,3034.00
1700.182,4429.00
1701.045,3224.00
1701.909,3241.00
1702.772,3663.00
1703.637,3068.00
1704.500,2782.00
1705.363,3444.00
1706.226,3262.00
1707.089,3299.00
1707.951,3364.00
1708.814,3884.00
1709.677,3953.00
1710.539,3416.00
1711.402,3434.00
1712.264,3169.00
1713.126,3084.00
1713.988,3443.00
1714.852,3461.00
1715.714,2624.00
1716.576,2751.00
1717.438,3456.00
1718.299,2703.00
1719.161,3558.00
1720.023,3164.00
1720.884,3634.00
1721.745,3144.00
1722.607,3039.00
1723.468,2704.00
1724.329,3444.00
1725.190,3228.00
1726.051,3381.00
1726.912,3039.00
1727.772,3241.00
1728.633,3145.00
1729.494,3256.00
1730.354,3454.00
1731.214,2903.00
1732.075,3051.00
1732.935,3079.00
1733.797,3045.00
1734.657,3680.00
1735.517,3895.00
1736.377,3527.00
1737.237,3139.00
1738.096,3867.00
1738.956,3100.00
1739.816,3087.00
1740.675,3146.00
1741.534,2643.00
1742.394,3254.00
1743.253,2965.00
1744.112,3227.00
1744.971,3049.00
1745.830,3310.00
1746.689,3368.00
1747.547,3415.00
1748.406,2766.00
1749.265,3010.00
1750.123,3121.00
1750.982,3409.00
1751.840,3155.00
1752.698,3257.00
1753.556,2993.00
1754.414,3207.00
1755.272,3123.00
1756.130,3202.00
1756.988,3179.00
1757.846,3367.00
1758.703,3006.00
1759.559,3511.00
1760.417,2900.00
1761.274,3854.00
1762.131,3574.00
1762.989,3672.00
1763.846,3611.00
1764.703,3300.00
1765.560,3780.00
1766.417,3245.00
1767.273,2981.00
1768.130,3195.00
1768.987,3097.00
1769.843,3472.00
1770.700,3534.00
1771.556,3087.00
1772.412,3574.00
1773.268,3134.00
1774.125,3489.00
1774.980,3248.00
1775.836,3566.00
1776.692,3125.00
1777.546,3025.00
1778.402,3406.00
1779.257,3301.00
1780.113,3036.00
1780.968,3318.00
1781.824,3482.00
1782.679,2825.00
1783.534,3095.00
1784.389,3697.00
1785.244,3333.00
1786.099,3188.00
1786.954,3446.00
1787.808,3187.00
1788.661,3278.00
1789.516,3622.00
1790.370,3233.00
1791.225,3077.00
1792.079,2839.00
1792.933,3941.00
1793.787,3356.00
1794.641,3266.00
1795.495,3167.00
1796.349,3291.00
1797.201,3035.00
1798.055,3029.00
1798.908,3217.00
1799.762,3618.00
1800.615,3483.00
1801.469,3426.00
1802.322,3607.00
1803.175,3054.00
1804.028,2748.00
1804.880,3767.00
1805.732,3392.00
1806.585,3210.00
1807.438,3240.00
1808.291,2737.00
1809.143,2994.00
1809.996,2829.00
1810.846,3988.00
1811.699,3352.00
1812.551,3095.00
1813.403,3416.00
1814.255,3218.00
1815.107,3272.00
1815.959,3921.00
1816.809,3294.00
1817.661,3328.00
1818.512,3173.00
1819.364,3296.00
1820.215,3342.00
1821.067,2992.00
1821.918,3064.00
1822.768,3479.00
1823.619,3520.00
1824.470,3133.00
1825.321,3364.00
1826.172,3176.00
1827.021,3386.00
1827.871,3489.00
1828.722,3299.00
1829.572,3272.00
1830.423,3228.00
1831.273,3049.00
1832.122,3211.00
1832.972,3199.00
1833.822,2953.00
1834.672,3356.00
1835.522,3402.00
1836.370,2990.00
1837.220,3362.00
1838.070,2751.00
1838.919,2577.00
1839.769,3000.00
1840.616,3452.00
1841.466,3368.00
1842.315,2947.00
1843.164,3835.00
1844.013,3036.00
1844.860,2908.00
1845.709,2973.00
1846.558,3511.00
1847.407,2863.00
1848.254,3312.00
1849.102,3293.00
1849.951,2995.00
1850.799,2643.00
1851.648,3102.00
1852.494,3273.00
1853.342,3279.00
1854.190,3526.00
1855.038,3579.00
1855.884,3224.00
1856.732,4083.00
1857.580,3634.00
1858.428,3065.00
1859.273,2935.00
1860.121,2960.00
1860.968,4082.00
1861.816,3580.00
1862.661,3571.00
1863.508,3834.00
1864.355,3468.00
1865.202,3532.00
1866.047,3321.00
1866.894,3638.00
1867.741,3800.00
1868.586,3365.00
1869.432,3357.00
1870.279,3194.00
1871.125,3065.00
1871.970,3881.00
1872.816,3355.00
1873.662,2759.00
1874.506,3365.00
1875.352,3526.00
1876.198,3655.00
1877.044,3838.00
1877.888,3198.00
1878.734,3254.00
1879.579,3052.00
1880.423,2930.00
1881.268,3169.00
1882.113,3501.00
1882.959,3169.00
1883.802,3013.00
1884.647,3564.00
1885.492,3290.00
1886.335,3198.00
1887.180,3070.00
1888.025,3235.00
1888.867,3013.00
1889.712,3396.00
1890.556,3005.00
1891.399,3520.00
1892.243,3534.00
1893.087,3071.00
1893.930,3384.00
1894.774,3406.00
1895.618,3589.00
1896.460,2805.00
1897.304,3138.00
1898.147,3044.00
1898.989,2944.00
1899.833,3439.00
1900.676,3063.00
1901.518,3577.00
1902.361,3605.00
1903.202,3121.00
1904.046,3075.00
1904.889,3211.00
1905.730,3162.00
1906.573,2950.00
1907.415,3246.00
1908.256,3663.00
1909.099,3382.00
1909.941,3368.00
1910.782,3376.00
1911.624,3060.00
1912.465,3435.00
1913.307,3305.00
1914.149,2976.00
1914.989,3540.00
1915.831,3160.00
1916.671,3630.00
1917.513,3166.00
1918.355,3373.00
1919.195,3529.00
1920.036,3341.00
1920.876,3265.00
1921.717,3385.00
1922.558,3295.00
1923.398,3263.00
1924.239,3267.00
1925.078,3567.00
1925.919,2943.00
1926.760,3390.00
1927.599,3086.00
1928.440,3482.00
1929.279,3266.00
1930.119,3735.00
1930.958,3177.00
1931.798,3253.00
1932.638,3120.00
1933.477,3273.00
1934.317,3007.00
1935.155,3083.00
1935.995,3322.00
1936.833,3100.00
1937.673,3042.00
1938.512,3679.00
1939.350,2874.00
1940.190,3204.00
1941.027,3157.00
1941.867,3140.00
1942.704,3258.00
1943.543,3249.00
1944.381,3420.00
1945.220,3606.00
1946.057,3333.00
1946.896,3552.00
1947.733,3275.00
1948.572,3044.00
1949.408,3609.00
1950.247,3330.00
1951.085,3468.00
1951.922,3619.00
1952.760,3040.00
1953.597,3627.00
1954.435,2637.00
1955.271,3416.00
1956.109,3147.00
1956.945,2836.00
1957.783,3403.00
1958.619,3070.00
1959.456,3240.00
1960.292,3314.00
1961.129,3577.00
1961.965,3738.00
1962.802,3057.00
1963.638,3008.00
1964.475,3324.00
1965.310,3314.00
1966.145,3241.00
1966.982,3054.00
1967.817,3001.00
1968.654,3257.00
1969.489,3009.00
1970.325,3259.00
1971.160,3024.00
1971.996,3422.00
1972.831,3511.00
1973.667,3155.00
1974.501,3662.00
1975.337,3545.00
1976.171,3124.00
1977.006,3518.00
1977.841,3150.00
1978.675,3496.00
1979.511,3919.00
1980.345,2961.00
1981.180,3453.00
1982.014,3257.00
1982.849,2940.00
1983.682,3139.00
1984.516,3118.00
1985.351,2887.00
1986.184,2750.00
1987.019,2748.00
1987.852,2558.00
1988.687,2776.00
1989.519,3006.00
1990.352,3244.00
1991.187,2724.00
1992.019,3037.00
1992.854,3413.00
1993.686,2996.00
1994.518,3037.00
1995.352,2564.00
1996.185,2314.00
1997.019,2882.00
1997.851,2685.00
1998.682,2723.00
1999.516,2773.00
2000.348,2509.00
