RamanScope Measure Spectrum Data V3.72

<< MEASURE CONDITION >>
Exposure Type,Aver
Exposure Time [sec],20
Exposure Count,2
Measure Time,2024/02/15 20:59:08
Data Name,""
Data Comment,""
Rayleigh Wave[nm],532.0

<< SAMPLE SPECTRUM >>
Wave[dcm-1],No32
96.716,15.00
97.759,-14.00
98.802,4.50
99.846,-11.50
100.886,-5.00
101.929,50.00
102.972,26.50
104.015,11.00
105.057,1.00
106.100,7.50
107.142,11.00
108.184,18.00
109.226,32.00
110.268,-9.00
111.310,-16.50
112.352,-2.00
113.393,17.00
114.435,-9.50
115.476,13.00
116.517,50.00
117.558,60.00
118.599,26.50
119.640,13.50
120.681,-8.50
121.722,33.00
122.762,10.50
123.803,-10.50
124.843,4.50
125.883,20.00
126.923,38.50
127.963,32.50
129.001,4.50
130.041,78.50
131.080,28.50
132.120,93.00
133.159,4.50
134.199,21.50
135.238,21.00
136.277,-10.50
137.316,-43.00
138.355,17.00
139.393,-7.50
140.432,64.50
141.470,22.00
142.509,38.50
143.547,5.50
144.585,46.50
145.623,82.00
146.661,78.00
147.699,152.50
148.736,187.50
149.774,265.50
150.811,258.00
151.849,357.50
152.886,507.00
153.923,612.50
154.960,736.00
155.997,909.50
157.034,1069.00
158.072,1209.00
159.109,1404.00
160.145,1619.50
161.182,1830.00
162.218,1996.50
163.254,2193.50
164.290,2453.00
165.326,2517.00
166.361,2683.00
167.397,2773.00
168.432,2924.50
169.468,2972.50
170.503,3035.50
171.538,3167.50
172.573,3146.50
173.608,3252.00
174.643,3262.00
175.677,3409.00
176.712,3374.00
177.746,3393.50
178.781,3498.00
179.815,3569.50
180.849,3634.50
181.883,3665.50
182.917,3679.50
183.951,3730.50
184.984,3798.50
186.020,3929.00
187.053,3985.50
188.087,3909.00
189.120,3905.50
190.153,3940.50
191.186,3942.00
192.219,3866.50
193.251,3919.50
194.284,3812.50
195.317,3820.00
196.349,3867.00
197.381,3936.00
198.413,3884.50
199.445,3903.00
200.477,3954.00
201.509,3905.50
202.543,4065.00
203.575,4024.50
204.606,4095.50
205.637,4153.50
206.669,4168.00
207.700,4339.00
208.731,4280.00
209.762,4398.50
210.792,4438.50
211.823,4495.00
212.854,4550.00
213.884,4590.50
214.914,4699.50
215.947,4785.50
216.977,4948.50
218.007,5012.00
219.037,5071.00
220.066,5221.00
221.096,5306.00
222.126,5404.00
223.155,5431.00
224.184,5559.50
225.214,5483.00
226.245,5609.00
227.274,5635.00
228.302,5604.00
229.331,5606.50
230.360,5555.50
231.388,5576.50
232.417,5450.50
233.445,5443.50
234.473,5344.50
235.501,5200.00
236.531,5158.00
237.559,5040.50
238.587,5022.00
239.614,4873.50
240.642,4811.00
241.669,4860.50
242.696,4770.00
243.724,4855.00
244.753,4660.50
245.780,4725.00
246.806,4731.00
247.833,4662.50
248.860,4688.00
249.886,4664.50
250.913,4613.50
251.939,4683.00
252.967,4710.50
253.993,4654.50
255.019,4658.50
256.045,4750.00
257.070,4761.00
258.096,4773.00
259.121,4678.50
260.147,4678.50
261.174,4731.00
262.199,4717.50
263.224,4776.00
264.249,4795.00
265.274,4833.00
266.298,4827.00
267.323,4829.50
268.349,4905.00
269.374,4894.00
270.398,4998.00
271.422,4966.00
272.446,4951.00
273.470,5109.50
274.496,5008.00
275.519,5014.50
276.543,5037.00
277.566,5127.00
278.589,5212.00
279.613,5182.50
280.636,5256.50
281.661,5182.00
282.684,5232.50
283.706,5316.50
284.729,5223.50
285.751,5274.00
286.774,5168.50
287.798,5158.00
288.820,5200.00
289.842,5185.50
290.864,5083.00
291.886,5025.00
292.910,5059.00
293.932,5046.00
294.953,4977.00
295.974,4897.00
296.996,4858.00
298.017,4844.00
299.040,4744.50
300.061,4718.00
301.082,4592.50
302.102,4518.50
303.123,4523.00
304.143,4534.50
305.166,4472.00
306.186,4421.50
307.206,4353.50
308.226,4284.50
309.246,4368.00
310.268,4285.00
311.288,4164.50
312.307,4159.50
313.327,4155.00
314.346,4204.50
315.368,4085.00
316.387,4112.00
317.406,4029.50
318.425,4054.00
319.443,4022.00
320.464,4063.50
321.483,4023.00
322.501,3908.00
323.520,3869.50
324.538,3857.50
325.558,3914.00
326.576,3853.00
327.594,3856.00
328.612,3933.00
329.629,3871.50
330.649,3868.00
331.666,3831.50
332.684,3877.00
333.701,3829.50
334.718,3838.50
335.737,3756.00
336.754,3832.00
337.771,3776.00
338.787,3757.00
339.806,3887.50
340.823,3815.00
341.839,3807.00
342.855,3813.00
343.871,3799.00
344.889,3779.00
345.905,3851.50
346.921,3722.00
347.937,3769.00
348.954,3759.00
349.970,3721.50
350.985,3779.00
352.000,3760.00
353.017,3724.50
354.032,3716.00
355.047,3718.50
356.062,3789.50
357.077,3669.50
358.093,3718.50
359.108,3677.00
360.122,3772.00
361.136,3728.50
362.152,3735.00
363.166,3794.00
364.180,3782.50
365.194,3740.50
366.210,3807.00
367.223,3790.50
368.237,3726.50
369.250,3662.00
370.265,3753.50
371.278,3729.00
372.291,3774.00
373.304,3782.50
374.319,3744.00
375.332,3815.50
376.344,3866.50
377.357,3788.00
378.371,3764.00
379.383,3794.50
380.395,3810.50
381.407,3806.50
382.421,3787.00
383.433,3863.00
384.445,3822.50
385.456,3887.00
386.470,3900.50
387.481,3859.50
388.492,3871.00
389.505,3840.00
390.516,3866.00
391.527,3810.00
392.538,3828.50
393.551,3845.50
394.561,3774.00
395.572,3851.00
396.582,3868.50
397.594,3882.00
398.604,3817.50
399.614,3847.50
400.624,3806.50
401.636,3826.00
402.646,3773.50
403.655,3771.50
404.667,3847.50
405.676,3809.00
406.685,3794.00
407.694,3722.50
408.705,3702.00
409.714,3695.50
410.723,3670.50
411.734,3709.50
412.742,3655.00
413.751,3658.50
414.759,3595.50
415.769,3637.00
416.777,3633.50
417.785,3669.00
418.795,3526.50
419.803,3570.50
420.811,3530.00
421.818,3552.00
422.828,3513.50
423.835,3519.50
424.842,3475.50
425.852,3502.00
426.859,3470.50
427.866,3500.00
428.874,3458.50
429.881,3424.00
430.888,3443.00
431.894,3415.50
432.902,3461.50
433.909,3379.00
434.915,3451.00
435.923,3359.00
436.929,3377.50
437.935,3346.00
438.942,3393.50
439.948,3405.00
440.953,3315.00
441.959,3365.00
442.966,3440.00
443.971,3403.50
444.976,3370.50
445.983,3256.00
446.988,3343.50
447.993,3281.00
448.999,3304.50
450.004,3291.00
451.008,3367.00
452.014,3364.00
453.019,3405.00
454.023,3378.50
455.029,3296.00
456.032,3260.00
457.036,3285.00
458.042,3272.50
459.045,3331.00
460.049,3308.00
461.052,3265.50
462.057,3354.50
463.060,3340.00
464.063,3264.00
465.068,3316.50
466.071,3317.00
467.073,3311.00
468.078,3283.50
469.080,3255.50
470.082,3342.50
471.087,3366.50
472.089,3335.00
473.091,3311.50
474.095,3295.00
475.096,3262.00
476.098,3265.50
477.101,3311.00
478.103,3335.00
479.104,3337.00
480.107,3337.00
481.108,3311.00
482.109,3236.00
483.112,3261.50
484.113,3266.00
485.114,3260.00
486.116,3254.00
487.117,3294.50
488.117,3336.00
489.119,3230.00
490.119,3307.00
491.121,3273.00
492.121,3275.00
493.121,3275.50
494.123,3293.50
495.122,3212.50
496.122,3229.00
497.123,3289.50
498.122,3274.00
499.121,3324.00
500.122,3209.50
501.121,3222.50
502.120,3203.00
503.121,3201.50
504.119,3251.50
505.118,3226.00
506.118,3198.50
507.117,3249.50
508.115,3275.50
509.115,3190.50
510.113,3146.50
511.112,3191.50
512.110,3137.00
513.108,3174.50
514.107,3093.50
515.105,3118.00
516.102,3136.50
517.101,3115.50
518.098,3085.50
519.095,3023.00
520.094,3027.00
521.091,3082.50
522.089,3084.50
523.086,3007.00
524.082,3047.50
525.081,3077.00
526.077,3066.50
527.073,2956.50
528.071,3014.50
529.067,3074.00
530.064,3066.50
531.060,3070.00
532.056,3028.50
533.053,2900.00
534.048,3016.50
535.044,2990.00
536.041,2988.50
537.036,3034.50
538.030,3024.50
539.027,3024.00
540.022,3058.50
541.019,2997.00
542.013,2962.50
543.007,2982.00
544.004,3004.00
544.998,2971.50
545.994,3019.50
546.988,2977.50
547.981,3025.50
548.977,3064.00
549.971,3052.50
550.964,2991.00
551.960,2928.50
552.953,2976.00
553.948,2953.00
554.941,2972.00
555.934,2980.00
556.929,2974.50
557.922,2986.00
558.916,2958.50
559.909,2954.50
560.901,2955.50
561.895,2897.00
562.888,2931.00
563.880,2918.50
564.874,2944.50
565.865,2860.00
566.859,2871.00
567.851,2873.50
568.842,2920.00
569.836,2873.50
570.827,2922.00
571.820,2978.50
572.811,2958.00
573.802,2890.00
574.795,2851.00
575.786,2871.00
576.779,2858.50
577.769,2945.00
578.760,2914.00
579.752,2974.50
580.742,2891.00
581.735,2925.50
582.725,2931.50
583.714,2880.50
584.706,2896.00
585.696,2938.00
586.688,2936.50
587.677,2949.00
588.667,2940.50
589.658,2940.00
590.647,2877.00
591.638,2876.50
592.627,2901.50
593.616,2881.00
594.607,2894.00
595.595,2873.50
596.586,2846.50
597.574,2936.00
598.562,2821.50
599.553,2882.50
600.541,2883.00
601.531,2873.00
602.519,2870.50
603.508,2921.00
604.496,2819.50
605.484,2784.50
606.473,2860.50
607.460,2789.00
608.450,2818.00
609.437,2887.50
610.424,2793.00
611.413,2796.50
612.400,2750.50
613.388,2734.50
614.375,2762.50
615.361,2757.50
616.350,2726.00
617.336,2700.00
618.324,2689.50
619.310,2716.00
620.298,2668.50
621.284,2768.00
622.270,2716.00
623.257,2746.00
624.243,2721.50
625.230,2699.00
626.216,2663.00
627.203,2593.00
628.188,2664.00
629.173,2601.50
630.160,2619.50
631.145,2609.50
632.131,2579.50
633.116,2553.50
634.102,2542.00
635.087,2547.50
636.071,2518.00
637.057,2486.50
638.041,2553.00
639.027,2515.50
640.011,2479.00
640.995,2465.00
641.980,2494.50
642.964,2416.50
643.949,2379.00
644.932,2478.00
645.918,2437.50
646.901,2397.00
647.886,2340.00
648.868,2372.00
649.851,2456.00
650.836,2369.00
651.818,2355.00
652.803,2312.00
653.785,2336.50
654.769,2348.50
655.751,2410.50
656.733,2318.00
657.717,2319.00
658.699,2332.50
659.683,2330.50
660.664,2283.00
661.648,2323.00
662.629,2231.50
663.611,2285.50
664.594,2270.00
665.575,2258.50
666.558,2247.00
667.539,2239.50
668.521,2286.50
669.502,2277.00
670.484,2238.00
671.465,2184.50
672.445,2165.00
673.427,2208.00
674.407,2230.50
675.390,2172.00
676.369,2195.00
677.351,2189.50
678.331,2189.50
679.312,2141.50
680.292,2194.00
681.271,2114.50
682.253,2192.50
683.232,2175.50
684.213,2193.00
685.192,2144.50
686.172,2073.50
687.151,2101.50
688.132,2125.00
689.110,2098.50
690.089,2144.00
691.069,2070.00
692.047,2031.00
693.027,2045.50
694.005,2029.00
694.985,2047.00
695.963,1993.00
696.943,2006.00
697.920,2061.00
698.898,2023.50
699.877,2020.00
700.854,2022.00
701.833,1967.00
702.810,1961.50
703.789,1913.50
704.766,1905.00
705.745,1960.00
706.721,1985.00
707.698,1956.50
708.676,1889.00
709.653,1949.50
710.631,1906.00
711.607,1972.50
712.585,1906.50
713.561,1941.50
714.539,1953.50
715.514,1912.50
716.492,1924.50
717.467,1848.00
718.443,1891.50
719.420,1947.50
720.395,1897.00
721.372,1868.50
722.347,1884.50
723.324,1920.50
724.298,1906.50
725.275,1882.50
726.250,1880.50
727.226,1803.00
728.200,1865.00
729.176,1865.50
730.151,1843.00
731.125,1872.00
732.100,1875.00
733.074,1802.00
734.050,1787.50
735.023,1821.00
735.999,1827.50
736.972,1815.00
737.947,1859.50
738.921,1824.00
739.896,1805.50
740.869,1800.00
741.841,1784.00
742.816,1780.00
743.789,1872.50
744.763,1815.00
745.736,1758.50
746.710,1779.00
747.682,1767.50
748.656,1782.00
749.628,1836.50
750.602,1800.00
751.574,1771.00
752.548,1735.50
753.519,1784.50
754.491,1734.00
755.464,1749.50
756.435,1757.50
757.408,1740.00
758.379,1738.00
759.352,1763.50
760.323,1695.50
761.296,1721.00
762.267,1746.00
763.239,1705.50
764.209,1742.50
765.182,1676.00
766.152,1713.50
767.124,1666.50
768.094,1737.50
769.064,1720.50
770.036,1691.00
771.005,1661.50
771.977,1681.00
772.947,1655.00
773.918,1665.00
774.887,1643.00
775.858,1666.00
776.827,1656.50
777.798,1652.50
778.767,1682.00
779.738,1699.00
780.707,1702.00
781.677,1694.00
782.646,1671.00
783.614,1606.50
784.584,1647.50
785.552,1610.00
786.522,1634.50
787.490,1624.00
788.460,1558.50
789.428,1637.50
790.397,1595.50
791.365,1574.00
792.334,1513.00
793.302,1623.00
794.271,1597.00
795.238,1589.50
796.207,1592.00
797.174,1560.00
798.143,1534.50
799.109,1605.00
800.076,1558.00
801.044,1583.00
802.011,1504.50
802.979,1520.00
803.945,1522.00
804.913,1599.50
805.879,1578.00
806.847,1551.00
807.813,1536.00
808.780,1594.50
809.746,1475.00
810.713,1519.50
811.678,1506.50
812.646,1422.50
813.611,1536.00
814.578,1528.00
815.543,1548.50
816.510,1493.00
817.474,1481.00
818.439,1520.50
819.405,1433.50
820.370,1501.00
821.336,1466.50
822.300,1478.00
823.266,1498.00
824.230,1503.50
825.196,1465.00
826.160,1532.50
827.126,1440.50
828.089,1477.00
829.055,1482.00
830.018,1487.50
830.983,1488.00
831.946,1444.00
832.911,1474.00
833.874,1463.00
834.837,1487.50
835.802,1465.50
836.765,1448.50
837.729,1455.50
838.691,1512.50
839.656,1467.00
840.618,1449.50
841.582,1482.50
842.544,1482.50
843.508,1467.00
844.470,1446.50
845.434,1467.00
846.395,1475.00
847.359,1498.50
848.320,1467.50
849.283,1512.00
850.245,1461.00
851.208,1451.00
852.169,1481.00
853.130,1437.00
854.092,1408.50
855.053,1463.00
856.016,1439.00
856.976,1479.50
857.938,1444.00
858.899,1476.50
859.861,1447.00
860.821,1516.50
861.783,1453.00
862.743,1462.50
863.704,1448.50
864.664,1464.50
865.626,1456.00
866.585,1452.00
867.546,1470.50
868.506,1468.50
869.467,1423.00
870.426,1461.50
871.387,1454.00
872.346,1487.50
873.304,1493.50
874.265,1493.00
875.223,1484.50
876.184,1461.50
877.142,1498.00
878.102,1420.00
879.060,1473.50
880.021,1483.00
880.978,1451.50
881.938,1491.50
882.896,1450.50
883.856,1441.50
884.813,1421.00
885.772,1467.50
886.730,1525.00
887.689,1469.50
888.646,1513.00
889.603,1495.00
890.562,1503.50
891.519,1465.50
892.477,1459.50
893.434,1505.50
894.392,1494.00
895.349,1507.50
896.307,1493.00
897.263,1483.50
898.221,1441.50
899.177,1496.50
900.135,1513.00
901.091,1518.50
902.048,1438.50
903.004,1509.50
903.961,1588.50
904.917,1577.00
905.874,1555.00
906.829,1522.00
907.784,1552.50
908.741,1528.00
909.696,1529.50
910.653,1561.50
911.607,1528.50
912.564,1574.50
913.518,1500.50
914.475,1514.00
915.429,1590.00
916.385,1566.00
917.339,1508.50
918.295,1530.00
919.249,1572.50
920.205,1592.50
921.158,1560.50
922.114,1577.00
923.067,1536.00
924.020,1532.50
924.976,1549.50
925.929,1576.50
926.884,1576.00
927.837,1542.00
928.791,1585.50
929.744,1611.00
930.699,1590.00
931.651,1588.00
932.606,1569.00
933.558,1680.50
934.512,1640.50
935.464,1618.50
936.418,1605.00
937.370,1555.00
938.322,1611.50
939.276,1651.00
940.227,1629.00
941.181,1594.00
942.132,1587.00
943.085,1605.50
944.036,1641.50
944.990,1650.50
945.941,1654.50
946.893,1637.50
947.844,1584.00
948.797,1628.00
949.747,1554.00
950.700,1616.00
951.650,1650.00
952.601,1566.50
953.553,1615.00
954.503,1596.00
955.455,1611.50
956.405,1620.00
957.356,1657.50
958.306,1629.00
959.258,1626.50
960.207,1593.50
961.158,1558.00
962.108,1556.00
963.059,1646.50
964.008,1597.00
964.959,1620.00
965.908,1572.50
966.856,1591.50
967.807,1567.50
968.756,1569.00
969.706,1528.00
970.654,1612.00
971.605,1561.00
972.553,1590.00
973.503,1530.00
974.451,1529.00
975.401,1554.00
976.348,1551.50
977.296,1602.00
978.246,1588.00
979.193,1546.00
980.142,1582.00
981.090,1522.50
982.039,1511.00
982.986,1469.50
983.935,1507.00
984.882,1517.00
985.830,1518.50
986.777,1477.50
987.725,1512.00
988.672,1498.50
989.618,1518.00
990.567,1493.50
991.513,1501.00
992.461,1511.00
993.407,1490.50
994.354,1497.00
995.300,1452.00
996.248,1490.50
997.193,1437.00
998.141,1507.00
999.086,1532.50
1000.031,1475.50
1000.978,1391.00
1001.924,1469.50
1002.870,1455.50
1003.815,1449.00
1004.762,1425.00
1005.707,1416.50
1006.653,1471.50
1007.598,1448.00
1008.542,1376.50
1009.488,1451.00
1010.432,1445.50
1011.378,1364.50
1012.322,1381.50
1013.268,1382.50
1014.212,1411.00
1015.157,1386.50
1016.101,1391.50
1017.046,1409.50
1017.990,1347.50
1018.933,1394.50
1019.878,1423.00
1020.821,1359.50
1021.766,1338.50
1022.709,1361.50
1023.654,1353.00
1024.596,1389.50
1025.541,1373.00
1026.483,1351.50
1027.425,1321.50
1028.370,1412.00
1029.312,1348.00
1030.256,1387.00
1031.198,1332.00
1032.141,1397.50
1033.083,1326.00
1034.027,1378.50
1034.968,1342.00
1035.910,1352.50
1036.853,1332.00
1037.794,1301.00
1038.738,1305.00
1039.679,1289.50
1040.621,1305.50
1041.562,1359.50
1042.503,1294.00
1043.446,1276.50
1044.386,1308.00
1045.329,1309.50
1046.269,1334.00
1047.211,1303.00
1048.151,1337.00
1049.093,1321.00
1050.033,1291.50
1050.973,1311.50
1051.915,1275.00
1052.854,1362.50
1053.796,1279.50
1054.735,1253.00
1055.677,1356.00
1056.616,1300.50
1057.555,1293.50
1058.496,1290.00
1059.435,1257.00
1060.376,1283.50
1061.315,1293.00
1062.255,1280.00
1063.194,1290.00
1064.132,1251.50
1065.073,1269.50
1066.011,1264.00
1066.951,1278.00
1067.889,1261.50
1068.829,1292.50
1069.767,1314.00
1070.705,1265.50
1071.644,1304.50
1072.582,1243.00
1073.521,1306.00
1074.459,1294.00
1075.398,1292.00
1076.335,1296.50
1077.272,1184.50
1078.211,1265.00
1079.148,1283.50
1080.087,1220.00
1081.023,1323.50
1081.962,1269.50
1082.898,1363.00
1083.835,1289.00
1084.773,1249.50
1085.709,1307.00
1086.647,1295.00
1087.583,1293.00
1088.519,1285.50
1089.457,1261.00
1090.392,1301.00
1091.330,1257.00
1092.266,1315.50
1093.203,1275.00
1094.138,1263.50
1095.073,1250.00
1096.010,1286.00
1096.945,1281.50
1097.882,1290.00
1098.817,1262.00
1099.752,1277.00
1100.688,1280.50
1101.623,1273.00
1102.559,1240.50
1103.493,1270.50
1104.430,1250.50
1105.364,1293.00
1106.298,1240.50
1107.234,1272.50
1108.167,1248.50
1109.094,1230.50
1110.019,1242.50
1110.945,1288.50
1111.869,1259.00
1112.795,1187.50
1113.720,1249.50
1114.646,1248.00
1115.571,1209.00
1116.495,1296.50
1117.420,1250.50
1118.345,1233.00
1119.270,1246.50
1120.195,1238.00
1121.118,1185.00
1122.042,1257.50
1122.967,1213.00
1123.891,1255.50
1124.816,1154.50
1125.738,1230.50
1126.663,1223.00
1127.587,1158.00
1128.511,1215.50
1129.435,1201.50
1130.357,1214.50
1131.280,1209.00
1132.204,1224.00
1133.128,1205.00
1134.051,1213.50
1134.972,1219.00
1135.896,1185.50
1136.819,1206.00
1137.742,1131.00
1138.665,1157.50
1139.586,1166.50
1140.509,1145.50
1141.431,1136.50
1142.354,1106.00
1143.276,1094.50
1144.197,1141.50
1145.119,1165.50
1146.041,1152.50
1146.964,1139.00
1147.885,1107.00
1148.806,1151.00
1149.727,1164.00
1150.649,1155.00
1151.571,1145.50
1152.492,1130.50
1153.412,1145.50
1154.333,1134.50
1155.254,1111.50
1156.175,1089.50
1157.095,1109.00
1158.016,1135.50
1158.936,1083.00
1159.857,1185.00
1160.778,1130.50
1161.697,1091.50
1162.617,1127.50
1163.537,1115.00
1164.458,1060.00
1165.376,1107.50
1166.296,1135.50
1167.216,1178.50
1168.136,1103.00
1169.056,1118.00
1169.974,1100.50
1170.893,1050.00
1171.813,1153.00
1172.732,1099.50
1173.650,1155.00
1174.569,1092.50
1175.488,1073.00
1176.407,1131.50
1177.326,1098.00
1178.243,1086.50
1179.161,1092.00
1180.080,1105.00
1180.999,1136.00
1181.915,1105.00
1182.834,1126.00
1183.752,1101.50
1184.670,1095.50
1185.586,1033.50
1186.504,1108.50
1187.422,1108.50
1188.340,1082.00
1189.258,1061.00
1190.173,1098.00
1191.091,1079.00
1192.008,1115.00
1192.926,1070.50
1193.841,1055.00
1194.758,1112.00
1195.675,1154.00
1196.592,1032.00
1197.507,1039.50
1198.424,1083.00
1199.340,1020.50
1200.257,1083.50
1201.172,1074.50
1202.088,1092.50
1203.004,1046.50
1203.920,1123.50
1204.835,1024.50
1205.750,1046.50
1206.666,1060.00
1207.582,1085.00
1208.496,1072.00
1209.412,1080.50
1210.327,1065.50
1211.243,1126.00
1212.156,1083.50
1213.071,1097.50
1213.986,1095.00
1214.901,1081.50
1215.814,1122.00
1216.729,1096.00
1217.644,1078.50
1218.559,1080.00
1219.471,1100.00
1220.386,1085.00
1221.300,1091.00
1222.213,1103.50
1223.127,1088.50
1224.041,1066.50
1224.955,1084.00
1225.867,1076.00
1226.781,1133.00
1227.694,1013.50
1228.608,1064.50
1229.520,1063.00
1230.433,1014.50
1231.346,1017.50
1232.260,1067.50
1233.171,1087.00
1234.084,1078.50
1234.997,1112.00
1235.908,1126.50
1236.821,1093.50
1237.733,1081.50
1238.646,1057.50
1239.556,1119.50
1240.469,1112.00
1241.381,1111.50
1242.293,1012.50
1243.203,1099.00
1244.115,1089.50
1245.027,1076.00
1245.937,1032.50
1246.849,1048.00
1247.761,1116.00
1248.672,1102.50
1249.582,1105.00
1250.493,1059.50
1251.404,1069.00
1252.313,1134.00
1253.225,1165.00
1254.135,1073.50
1255.046,1116.50
1255.955,1100.00
1256.866,1059.00
1257.777,1098.50
1258.685,1092.50
1259.596,1092.50
1260.506,1087.00
1261.416,1112.00
1262.324,1103.00
1263.234,1107.00
1264.144,1120.50
1265.052,1091.50
1265.962,1058.00
1266.872,1041.00
1267.779,1122.50
1268.689,1092.50
1269.598,1029.00
1270.507,1092.50
1271.415,1154.00
1272.324,1090.00
1273.233,1052.00
1274.140,1157.00
1275.048,1108.00
1275.957,1089.00
1276.864,1075.50
1277.772,1145.50
1278.681,1095.00
1279.587,1064.50
1280.496,1046.00
1281.404,1076.50
1282.312,1095.00
1283.218,1089.00
1284.126,1103.50
1285.033,1084.00
1285.939,1142.00
1286.847,1101.00
1287.754,1008.50
1288.660,1062.00
1289.567,1106.00
1290.474,1004.00
1291.380,1046.50
1292.286,1089.00
1293.193,1092.50
1294.098,1088.50
1295.005,1071.00
1295.912,1067.50
1296.816,1018.50
1297.723,1073.00
1298.629,1091.50
1299.534,1048.00
1300.440,1044.50
1301.346,1059.50
1302.250,1067.50
1303.156,1067.50
1304.062,1088.00
1304.966,1001.50
1305.871,1049.50
1306.777,1028.50
1307.680,1064.50
1308.586,1045.50
1309.491,1043.50
1310.394,1100.00
1311.299,1053.50
1312.204,1071.50
1313.107,1028.00
1314.012,1072.00
1314.917,1019.50
1315.819,1050.50
1316.724,1009.50
1317.628,965.50
1318.531,1054.00
1319.435,1053.00
1320.339,980.50
1321.241,1034.50
1322.145,1009.00
1323.049,990.00
1323.951,1031.00
1324.854,1059.50
1325.756,1019.50
1326.659,987.00
1327.563,1026.00
1328.464,991.00
1329.367,976.50
1330.271,1044.50
1331.172,1011.50
1332.074,1036.00
1332.977,988.50
1333.878,999.00
1334.781,996.50
1335.683,940.50
1336.584,977.00
1337.486,1005.00
1338.387,1012.00
1339.289,1000.50
1340.191,990.50
1341.091,1006.00
1341.993,1019.50
1342.895,1032.00
1343.794,979.50
1344.696,1003.50
1345.596,932.00
1346.497,970.50
1347.398,996.00
1348.298,967.50
1349.199,974.50
1350.100,930.00
1350.999,909.50
1351.900,898.00
1352.799,880.50
1353.699,965.00
1354.600,994.00
1355.499,966.00
1356.399,916.00
1357.297,891.50
1358.198,954.50
1359.098,931.00
1359.996,952.50
1360.896,932.50
1361.796,935.50
1362.694,962.00
1363.593,937.50
1364.491,894.00
1365.391,924.00
1366.290,867.00
1367.187,941.50
1368.086,914.00
1368.984,904.50
1369.883,949.50
1370.782,887.50
1371.679,924.00
1372.577,951.50
1373.474,937.00
1374.373,934.00
1375.269,882.00
1376.168,898.00
1377.066,938.00
1377.962,850.00
1378.860,882.00
1379.756,874.50
1380.654,915.50
1381.552,917.00
1382.448,875.00
1383.346,868.00
1384.241,922.50
1385.139,927.00
1386.036,902.50
1386.931,882.50
1387.829,925.00
1388.724,868.50
1389.621,938.00
1390.516,921.00
1391.413,882.00
1392.309,848.50
1393.204,903.50
1394.101,854.00
1394.995,876.00
1395.891,859.50
1396.786,882.00
1397.682,866.00
1398.578,869.50
1399.472,858.00
1400.368,844.00
1401.262,871.50
1402.158,857.50
1403.051,862.50
1403.947,812.50
1404.840,851.50
1405.736,835.50
1406.631,841.00
1407.524,837.50
1408.419,932.00
1409.312,850.50
1410.207,853.50
1411.100,837.50
1411.995,827.50
1412.888,879.50
1413.782,819.50
1414.675,817.00
1415.569,824.00
1416.463,865.50
1417.355,871.00
1418.249,835.50
1419.141,883.50
1420.035,823.00
1420.927,828.00
1421.821,842.50
1422.713,839.00
1423.606,837.50
1424.498,876.00
1425.391,873.50
1426.282,797.00
1427.175,864.50
1428.068,775.00
1428.960,814.00
1429.852,773.00
1430.743,825.00
1431.636,815.50
1432.527,846.50
1433.419,844.50
1434.310,774.00
1435.202,824.00
1436.092,777.00
1436.984,843.00
1437.875,788.00
1438.767,808.50
1439.657,780.00
1440.548,780.50
1441.438,789.00
1442.330,805.00
1443.219,828.50
1444.111,801.50
1445.000,834.00
1445.891,812.00
1446.781,802.50
1447.672,805.50
1448.561,801.00
1449.452,850.00
1450.340,803.50
1451.231,779.00
1452.120,829.00
1453.010,768.50
1453.899,808.50
1454.789,785.50
1455.677,821.00
1456.568,834.50
1457.456,792.50
1458.346,848.00
1459.234,809.50
1460.123,821.50
1461.011,787.50
1461.901,820.50
1462.788,706.00
1463.678,842.50
1464.565,773.50
1465.454,819.50
1466.342,807.00
1467.231,771.50
1468.118,766.50
1469.006,797.50
1469.893,763.00
1470.782,776.50
1471.669,725.50
1472.557,775.50
1473.444,781.50
1474.330,744.50
1475.218,820.00
1476.105,772.00
1476.993,808.00
1477.879,771.00
1478.767,789.50
1479.652,733.50
1480.540,759.00
1481.426,777.00
1482.313,806.00
1483.199,771.50
1484.086,800.50
1484.972,750.00
1485.857,718.00
1486.744,808.00
1487.629,762.50
1488.516,773.00
1489.401,754.50
1490.287,742.00
1491.172,733.50
1492.058,808.50
1492.943,734.50
1493.828,773.00
1494.714,790.00
1495.598,791.00
1496.484,732.50
1497.368,766.00
1498.254,743.00
1499.138,771.50
1500.022,759.00
1500.907,741.50
1501.791,735.00
1502.676,756.00
1503.560,745.50
1504.445,783.00
1505.328,756.50
1506.211,698.00
1507.096,807.00
1507.979,651.50
1508.864,758.00
1509.747,699.50
1510.631,743.50
1511.514,730.50
1512.397,747.50
1513.281,784.00
1514.163,785.00
1515.047,754.00
1515.930,755.00
1516.812,725.00
1517.696,733.00
1518.578,738.50
1519.461,721.00
1520.343,700.00
1521.225,691.00
1522.108,692.00
1522.990,709.50
1523.873,766.00
1524.754,784.00
1525.635,757.00
1526.518,699.00
1527.399,705.50
1528.282,779.00
1529.163,682.00
1530.044,728.00
1530.926,727.00
1531.807,717.50
1532.689,717.50
1533.569,745.50
1534.450,762.00
1535.332,733.50
1536.212,709.50
1537.092,756.00
1537.974,741.50
1538.854,756.50
1539.735,715.00
1540.615,719.00
1541.495,699.50
1542.376,681.00
1543.255,738.00
1544.135,745.50
1545.016,732.50
1545.895,674.00
1546.774,708.50
1547.655,730.50
1548.534,699.00
1549.414,685.00
1550.293,753.50
1551.172,707.00
1552.052,723.00
1552.930,736.50
1553.809,705.50
1554.689,694.50
1555.567,678.00
1556.445,695.50
1557.325,749.00
1558.203,732.50
1559.080,686.50
1559.960,708.50
1560.838,735.00
1561.715,697.50
1562.594,725.50
1563.472,699.50
1564.349,684.50
1565.228,727.50
1566.105,713.00
1566.982,718.00
1567.861,754.50
1568.738,674.50
1569.615,718.50
1570.493,726.50
1571.370,725.50
1572.246,725.00
1573.124,726.50
1574.000,664.50
1574.877,761.50
1575.755,737.00
1576.631,658.00
1577.507,736.50
1578.384,678.50
1579.260,731.00
1580.136,682.00
1581.011,667.00
1581.889,721.50
1582.764,669.00
1583.639,723.50
1584.516,666.00
1585.391,689.50
1586.266,722.00
1587.143,665.50
1588.018,663.50
1588.893,714.00
1589.768,740.00
1590.644,688.00
1591.519,707.50
1592.393,663.50
1593.269,684.50
1594.143,668.50
1595.018,681.00
1595.892,705.00
1596.767,726.00
1597.641,688.00
1598.515,719.00
1599.391,659.50
1600.264,678.50
1601.138,710.00
1602.011,693.50
1602.886,660.50
1603.760,670.50
1604.633,701.50
1605.508,658.00
1606.381,702.50
1607.254,735.00
1608.127,672.00
1609.001,708.00
1609.874,739.50
1610.746,672.00
1611.619,748.00
1612.493,696.50
1613.365,696.50
1614.238,645.50
1615.110,752.00
1615.984,643.00
1616.855,722.50
1617.727,681.00
1618.599,699.00
1619.473,736.50
1620.344,652.00
1621.216,714.50
1622.087,696.00
1622.960,716.00
1623.832,693.00
1624.703,656.50
1625.574,625.50
1626.445,692.50
1627.317,667.50
1628.188,682.00
1629.059,696.50
1629.930,679.50
1630.802,700.00
1631.672,697.00
1632.543,650.50
1633.413,646.00
1634.283,677.50
1635.155,667.00
1636.025,673.50
1636.895,691.50
1637.765,674.00
1638.636,707.00
1639.506,671.50
1640.376,597.00
1641.245,693.50
1642.114,643.50
1642.985,655.50
1643.855,627.50
1644.724,670.50
1645.593,690.50
1646.462,634.00
1647.333,665.00
1648.201,667.00
1649.070,632.50
1649.939,675.00
1650.807,642.50
1651.676,670.00
1652.546,657.00
1653.414,631.50
1654.282,659.50
1655.150,693.00
1656.018,672.00
1656.888,631.50
1657.756,643.50
1658.623,647.50
1659.491,675.50
1660.359,624.50
1661.226,677.00
1662.095,626.50
1662.962,662.00
1663.830,661.50
1664.697,616.00
1665.564,612.50
1666.431,653.00
1667.297,665.50
1668.166,637.50
1669.033,686.00
1669.899,607.50
1670.766,668.00
1671.632,615.00
1672.499,686.00
1673.367,670.00
1674.233,618.00
1675.099,664.50
1675.965,659.50
1676.831,689.00
1677.696,636.50
1678.562,677.00
1679.430,685.50
1680.295,694.00
1681.161,627.50
1682.026,662.00
1682.891,647.00
1683.756,664.00
1684.621,708.00
1685.486,618.50
1686.353,648.00
1687.218,634.50
1688.083,645.50
1688.947,623.50
1689.812,624.00
1690.677,677.50
1691.541,659.00
1692.405,652.00
1693.269,645.50
1694.135,645.00
1694.999,706.00
1695.863,685.50
1696.727,617.50
1697.591,665.50
1698.455,627.50
1699.318,663.00
1700.182,659.50
1701.045,591.00
1701.909,641.00
1702.772,629.00
1703.637,657.00
1704.500,602.00
1705.363,633.00
1706.226,673.00
1707.089,691.50
1707.951,659.00
1708.814,633.50
1709.677,605.00
1710.539,626.50
1711.402,644.50
1712.264,637.50
1713.126,614.50
1713.988,628.50
1714.852,636.00
1715.714,631.50
1716.576,652.50
1717.438,645.50
1718.299,630.00
1719.161,625.00
1720.023,625.00
1720.884,635.00
1721.745,588.50
1722.607,676.00
1723.468,608.00
1724.329,610.50
1725.190,729.00
1726.051,660.00
1726.912,607.50
1727.772,668.00
1728.633,677.50
1729.494,712.50
1730.354,669.50
1731.214,677.50
1732.075,623.00
1732.935,654.00
1733.797,721.00
1734.657,614.50
1735.517,621.50
1736.377,629.00
1737.237,602.00
1738.096,646.00
1738.956,707.50
1739.816,606.00
1740.675,617.00
1741.534,603.50
1742.394,637.00
1743.253,594.50
1744.112,589.50
1744.971,637.00
1745.830,640.00
1746.689,638.50
1747.547,633.00
1748.406,643.50
1749.265,688.50
1750.123,620.50
1750.982,675.00
1751.840,646.00
1752.698,630.00
1753.556,640.00
1754.414,642.00
1755.272,661.00
1756.130,619.50
1756.988,629.50
1757.846,594.00
1758.703,644.50
1759.559,640.50
1760.417,624.50
1761.274,637.50
1762.131,726.50
1762.989,677.00
1763.846,647.50
1764.703,641.00
1765.560,660.50
1766.417,640.50
1767.273,639.00
1768.130,664.00
1768.987,607.50
1769.843,645.50
1770.700,584.50
1771.556,628.00
1772.412,638.50
1773.268,667.50
1774.125,660.00
1774.980,609.50
1775.836,641.50
1776.692,665.00
1777.546,600.00
1778.402,574.00
1779.257,677.00
1780.113,638.50
1780.968,646.50
1781.824,604.50
1782.679,644.00
1783.534,627.00
1784.389,599.50
1785.244,682.50
1786.099,586.00
1786.954,622.00
1787.808,643.00
1788.661,599.00
1789.516,594.00
1790.370,617.50
1791.225,647.50
1792.079,597.50
1792.933,620.50
1793.787,608.00
1794.641,652.00
1795.495,674.50
1796.349,654.50
1797.201,645.50
1798.055,621.50
1798.908,594.50
1799.762,651.50
1800.615,689.50
1801.469,630.00
1802.322,672.00
1803.175,624.00
1804.028,674.00
1804.880,605.00
1805.732,638.50
1806.585,595.50
1807.438,603.00
1808.291,589.50
1809.143,665.50
1809.996,684.00
1810.846,620.50
1811.699,610.00
1812.551,618.50
1813.403,606.00
1814.255,670.50
1815.107,675.50
1815.959,622.00
1816.809,590.00
1817.661,606.00
1818.512,634.50
1819.364,621.50
1820.215,627.50
1821.067,634.00
1821.918,559.00
1822.768,651.50
1823.619,646.00
1824.470,621.00
1825.321,628.50
1826.172,579.00
1827.021,625.50
1827.871,557.00
1828.722,638.00
1829.572,661.00
1830.423,614.50
1831.273,660.00
1832.122,606.50
1832.972,632.50
1833.822,617.50
1834.672,621.50
1835.522,637.00
1836.370,586.00
1837.220,640.50
1838.070,613.00
1838.919,578.00
1839.769,613.00
1840.616,613.50
1841.466,634.50
1842.315,599.00
1843.164,571.50
1844.013,586.00
1844.860,553.00
1845.709,626.50
1846.558,629.50
1847.407,652.00
1848.254,598.00
1849.102,584.50
1849.951,570.00
1850.799,613.00
1851.648,622.00
1852.494,582.00
1853.342,589.50
1854.190,634.50
1855.038,630.50
1855.884,567.00
1856.732,602.50
1857.580,640.50
1858.428,590.50
1859.273,644.50
1860.121,635.50
1860.968,624.50
1861.816,619.00
1862.661,628.00
1863.508,595.50
1864.355,570.50
1865.202,576.00
1866.047,618.50
1866.894,594.00
1867.741,627.50
1868.586,632.50
1869.432,606.00
1870.279,591.00
1871.125,638.50
1871.970,629.00
1872.816,627.00
1873.662,613.50
1874.506,629.50
1875.352,643.50
1876.198,616.00
1877.044,567.50
1877.888,586.00
1878.734,629.50
1879.579,650.00
1880.423,611.50
1881.268,586.00
1882.113,609.50
1882.959,628.50
1883.802,588.00
1884.647,543.00
1885.492,624.00
1886.335,598.00
1887.180,606.50
1888.025,548.00
1888.867,622.50
1889.712,595.00
1890.556,608.00
1891.399,621.50
1892.243,580.50
1893.087,599.00
1893.930,636.50
1894.774,579.00
1895.618,590.50
1896.460,582.00
1897.304,605.00
1898.147,650.00
1898.989,642.00
1899.833,607.50
1900.676,588.00
1901.518,565.50
1902.361,623.50
1903.202,573.50
1904.046,623.00
1904.889,610.50
1905.730,633.50
1906.573,595.00
1907.415,639.50
1908.256,584.00
1909.099,631.00
1909.941,593.00
1910.782,681.00
1911.624,611.00
1912.465,596.50
1913.307,575.50
1914.149,612.00
1914.989,632.00
1915.831,608.50
1916.671,615.50
1917.513,590.00
1918.355,620.50
1919.195,640.50
1920.036,542.00
1920.876,589.00
1921.717,602.50
1922.558,618.50
1923.398,646.50
1924.239,629.00
1925.078,609.50
1925.919,607.00
1926.760,648.50
1927.599,636.50
1928.440,555.50
1929.279,625.50
1930.119,591.50
1930.958,620.50
1931.798,582.50
1932.638,587.50
1933.477,553.00
1934.317,593.00
1935.155,620.50
1935.995,573.00
1936.833,581.50
1937.673,588.00
1938.512,597.00
1939.350,650.00
1940.190,625.50
1941.027,643.00
1941.867,613.00
1942.704,592.00
1943.543,546.50
1944.381,636.50
1945.220,591.00
1946.057,654.00
1946.896,552.50
1947.733,606.50
1948.572,611.50
1949.408,610.00
1950.247,603.00
1951.085,561.00
1951.922,595.50
1952.760,619.50
1953.597,585.50
1954.435,583.50
1955.271,598.50
1956.109,653.00
1956.945,607.50
1957.783,597.00
1958.619,619.00
1959.456,604.50
1960.292,627.00
1961.129,605.50
1961.965,552.50
1962.802,586.00
1963.638,590.50
1964.475,603.00
1965.310,626.50
1966.145,634.50
1966.982,627.00
1967.817,603.00
1968.654,566.00
1969.489,584.50
1970.325,619.00
1971.160,621.00
1971.996,608.50
1972.831,566.50
1973.667,632.50
1974.501,537.00
1975.337,616.00
1976.171,636.00
1977.006,632.00
1977.841,602.50
1978.675,637.00
1979.511,619.00
1980.345,609.00
1981.180,632.00
1982.014,569.50
1982.849,632.50
1983.682,596.00
1984.516,593.00
1985.351,582.50
1986.184,627.50
1987.019,599.50
1987.852,615.50
1988.687,603.50
1989.519,553.50
1990.352,630.00
1991.187,606.50
1992.019,624.50
1992.854,651.50
1993.686,597.00
1994.518,612.00
1995.352,638.50
1996.185,633.00
1997.019,612.00
1997.851,648.50
1998.682,681.50
1999.516,633.00
2000.348,622.50

<< BACKGROUND SPECTRUM >>
Wave[dcm-1],No32
96.716,2555.00
97.759,2392.00
98.802,2307.00
99.846,2921.00
100.886,2573.00
101.929,2735.00
102.972,2748.00
104.015,2638.00
105.057,2782.00
106.100,2215.00
107.142,2619.00
108.184,3005.00
109.226,2821.00
110.268,3064.00
111.310,3366.00
112.352,2898.00
113.393,2982.00
114.435,2826.00
115.476,3097.00
116.517,3092.00
117.558,2560.00
118.599,2920.00
119.640,3256.00
120.681,3263.00
121.722,3161.00
122.762,2896.00
123.803,2788.00
124.843,3129.00
125.883,3366.00
126.923,3538.00
127.963,3257.00
129.001,3589.00
130.041,3967.00
131.080,3248.00
132.120,3117.00
133.159,3547.00
134.199,3602.00
135.238,3175.00
136.277,3564.00
137.316,3747.00
138.355,3622.00
139.393,3209.00
140.432,3282.00
141.470,3444.00
142.509,3186.00
143.547,3793.00
144.585,2991.00
145.623,3381.00
146.661,3141.00
147.699,3477.00
148.736,3594.00
149.774,3198.00
150.811,3503.00
151.849,3963.00
152.886,3403.00
153.923,3645.00
154.960,3125.00
155.997,3927.00
157.034,4930.00
158.072,3583.00
159.109,4079.00
160.145,4227.00
161.182,3231.00
162.218,3516.00
163.254,3335.00
164.290,3246.00
165.326,4038.00
166.361,3914.00
167.397,3537.00
168.432,3711.00
169.468,3400.00
170.503,3741.00
171.538,3361.00
172.573,3746.00
173.608,3199.00
174.643,3740.00
175.677,3607.00
176.712,3803.00
177.746,3836.00
178.781,3323.00
179.815,2721.00
180.849,3810.00
181.883,3323.00
182.917,2852.00
183.951,3150.00
184.984,3875.00
186.020,3268.00
187.053,3606.00
188.087,3248.00
189.120,3504.00
190.153,3687.00
191.186,3697.00
192.219,3801.00
193.251,3693.00
194.284,3777.00
195.317,3874.00
196.349,10655.00
197.381,3415.00
198.413,3523.00
199.445,3247.00
200.477,3580.00
201.509,3607.00
202.543,3543.00
203.575,3927.00
204.606,3663.00
205.637,4433.00
206.669,3174.00
207.700,3695.00
208.731,3594.00
209.762,3187.00
210.792,3251.00
211.823,3721.00
212.854,3274.00
213.884,4440.00
214.914,3706.00
215.947,3586.00
216.977,3626.00
218.007,3580.00
219.037,3840.00
220.066,3332.00
221.096,3825.00
222.126,3160.00
223.155,3384.00
224.184,3729.00
225.214,4300.00
226.245,3911.00
227.274,3321.00
228.302,3692.00
229.331,3707.00
230.360,3421.00
231.388,3386.00
232.417,3222.00
233.445,3621.00
234.473,3383.00
235.501,3734.00
236.531,3729.00
237.559,3677.00
238.587,3335.00
239.614,3314.00
240.642,3632.00
241.669,3654.00
242.696,3711.00
243.724,3591.00
244.753,4073.00
245.780,3424.00
246.806,3229.00
247.833,3634.00
248.860,3491.00
249.886,3563.00
250.913,3241.00
251.939,3495.00
252.967,3501.00
253.993,3546.00
255.019,3935.00
256.045,3535.00
257.070,4059.00
258.096,3278.00
259.121,3733.00
260.147,3575.00
261.174,3463.00
262.199,3451.00
263.224,3589.00
264.249,3891.00
265.274,4030.00
266.298,3562.00
267.323,3666.00
268.349,3898.00
269.374,3210.00
270.398,3196.00
271.422,3681.00
272.446,3332.00
273.470,3085.00
274.496,3797.00
275.519,3744.00
276.543,3871.00
277.566,3901.00
278.589,3838.00
279.613,3746.00
280.636,3729.00
281.661,3886.00
282.684,3798.00
283.706,3920.00
284.729,4160.00
285.751,3014.00
286.774,4016.00
287.798,3432.00
288.820,2980.00
289.842,3312.00
290.864,3385.00
291.886,3709.00
292.910,3477.00
293.932,4076.00
294.953,3532.00
295.974,3618.00
296.996,3742.00
298.017,3555.00
299.040,3432.00
300.061,3712.00
301.082,3412.00
302.102,3304.00
303.123,3798.00
304.143,3565.00
305.166,3517.00
306.186,3740.00
307.206,3380.00
308.226,3788.00
309.246,3131.00
310.268,3851.00
311.288,3513.00
312.307,3204.00
313.327,3520.00
314.346,3750.00
315.368,3003.00
316.387,3622.00
317.406,3656.00
318.425,3573.00
319.443,3457.00
320.464,3159.00
321.483,4020.00
322.501,3352.00
323.520,4003.00
324.538,3511.00
325.558,4007.00
326.576,3652.00
327.594,3524.00
328.612,3362.00
329.629,3158.00
330.649,3830.00
331.666,3573.00
332.684,3145.00
333.701,3717.00
334.718,3221.00
335.737,3453.00
336.754,3703.00
337.771,3758.00
338.787,3214.00
339.806,3426.00
340.823,3426.00
341.839,3543.00
342.855,3445.00
343.871,3604.00
344.889,3401.00
345.905,3809.00
346.921,3783.00
347.937,4354.00
348.954,4169.00
349.970,3695.00
350.985,3550.00
352.000,3142.00
353.017,3748.00
354.032,3155.00
355.047,3875.00
356.062,3473.00
357.077,3429.00
358.093,3985.00
359.108,3755.00
360.122,3639.00
361.136,3487.00
362.152,3959.00
363.166,3218.00
364.180,3130.00
365.194,3998.00
366.210,3379.00
367.223,3306.00
368.237,3460.00
369.250,3636.00
370.265,3404.00
371.278,3942.00
372.291,3700.00
373.304,3049.00
374.319,3764.00
375.332,3812.00
376.344,4044.00
377.357,3425.00
378.371,3879.00
379.383,3364.00
380.395,4305.00
381.407,4113.00
382.421,3466.00
383.433,3403.00
384.445,3393.00
385.456,3514.00
386.470,3099.00
387.481,3973.00
388.492,3887.00
389.505,3282.00
390.516,3936.00
391.527,3531.00
392.538,3479.00
393.551,3683.00
394.561,4360.00
395.572,3684.00
396.582,3578.00
397.594,3755.00
398.604,3390.00
399.614,3601.00
400.624,3408.00
401.636,3417.00
402.646,3555.00
403.655,3188.00
404.667,3330.00
405.676,3317.00
406.685,4322.00
407.694,3883.00
408.705,3061.00
409.714,3116.00
410.723,3270.00
411.734,3265.00
412.742,3450.00
413.751,3630.00
414.759,3664.00
415.769,3589.00
416.777,3774.00
417.785,3524.00
418.795,3389.00
419.803,3569.00
420.811,3283.00
421.818,3940.00
422.828,3465.00
423.835,3398.00
424.842,3442.00
425.852,3278.00
426.859,3684.00
427.866,3718.00
428.874,3633.00
429.881,3509.00
430.888,3760.00
431.894,3636.00
432.902,3569.00
433.909,4542.00
434.915,3611.00
435.923,4240.00
436.929,3100.00
437.935,3534.00
438.942,3429.00
439.948,3519.00
440.953,4128.00
441.959,3176.00
442.966,3936.00
443.971,3722.00
444.976,3170.00
445.983,3652.00
446.988,3421.00
447.993,4048.00
448.999,3625.00
450.004,3592.00
451.008,3313.00
452.014,4062.00
453.019,3809.00
454.023,3267.00
455.029,3244.00
456.032,4006.00
457.036,3488.00
458.042,2914.00
459.045,3459.00
460.049,3748.00
461.052,4097.00
462.057,3764.00
463.060,3985.00
464.063,3439.00
465.068,3440.00
466.071,3314.00
467.073,3848.00
468.078,3179.00
469.080,3103.00
470.082,3573.00
471.087,3408.00
472.089,3565.00
473.091,3810.00
474.095,4010.00
475.096,3474.00
476.098,3392.00
477.101,3723.00
478.103,3292.00
479.104,4204.00
480.107,3440.00
481.108,3065.00
482.109,4251.00
483.112,4209.00
484.113,4605.00
485.114,3812.00
486.116,3611.00
487.117,3890.00
488.117,3594.00
489.119,3715.00
490.119,3773.00
491.121,3235.00
492.121,3048.00
493.121,2893.00
494.123,3603.00
495.122,3710.00
496.122,3570.00
497.123,4521.00
498.122,3383.00
499.121,3587.00
500.122,3624.00
501.121,3180.00
502.120,3163.00
503.121,3239.00
504.119,3215.00
505.118,3736.00
506.118,3289.00
507.117,3263.00
508.115,3666.00
509.115,3555.00
510.113,3116.00
511.112,3790.00
512.110,3454.00
513.108,3801.00
514.107,3898.00
515.105,3800.00
516.102,3917.00
517.101,3505.00
518.098,3586.00
519.095,4097.00
520.094,3440.00
521.091,3419.00
522.089,3739.00
523.086,3380.00
524.082,3731.00
525.081,3648.00
526.077,4763.00
527.073,4571.00
528.071,3552.00
529.067,3375.00
530.064,3424.00
531.060,3162.00
532.056,3435.00
533.053,3993.00
534.048,3770.00
535.044,3536.00
536.041,3728.00
537.036,3547.00
538.030,3690.00
539.027,3833.00
540.022,3112.00
541.019,3504.00
542.013,3823.00
543.007,3673.00
544.004,3474.00
544.998,3540.00
545.994,4101.00
546.988,3942.00
547.981,3431.00
548.977,4145.00
549.971,3653.00
550.964,3807.00
551.960,3653.00
552.953,3550.00
553.948,3835.00
554.941,3390.00
555.934,3211.00
556.929,3723.00
557.922,3296.00
558.916,3786.00
559.909,4040.00
560.901,3599.00
561.895,3658.00
562.888,3301.00
563.880,3749.00
564.874,3885.00
565.865,3810.00
566.859,3237.00
567.851,4055.00
568.842,3443.00
569.836,3590.00
570.827,3233.00
571.820,3574.00
572.811,3710.00
573.802,3595.00
574.795,3344.00
575.786,3838.00
576.779,3725.00
577.769,3209.00
578.760,3642.00
579.752,3232.00
580.742,3393.00
581.735,3670.00
582.725,3323.00
583.714,3808.00
584.706,3257.00
585.696,3523.00
586.688,3781.00
587.677,3495.00
588.667,3705.00
589.658,3495.00
590.647,3654.00
591.638,3631.00
592.627,3403.00
593.616,3134.00
594.607,3674.00
595.595,3573.00
596.586,3179.00
597.574,3879.00
598.562,3941.00
599.553,3168.00
600.541,3598.00
601.531,3711.00
602.519,3470.00
603.508,3667.00
604.496,3732.00
605.484,3648.00
606.473,3518.00
607.460,3420.00
608.450,3487.00
609.437,3700.00
610.424,3892.00
611.413,3117.00
612.400,3300.00
613.388,3618.00
614.375,3441.00
615.361,3461.00
616.350,3346.00
617.336,8401.00
618.324,3900.00
619.310,3371.00
620.298,3231.00
621.284,3596.00
622.270,3267.00
623.257,3553.00
624.243,3527.00
625.230,3734.00
626.216,3557.00
627.203,3926.00
628.188,3486.00
629.173,3438.00
630.160,3261.00
631.145,2687.00
632.131,3345.00
633.116,3177.00
634.102,3656.00
635.087,3794.00
636.071,3803.00
637.057,3371.00
638.041,3095.00
639.027,3253.00
640.011,3445.00
640.995,3270.00
641.980,3263.00
642.964,3422.00
643.949,3986.00
644.932,2775.00
645.918,3361.00
646.901,3514.00
647.886,3353.00
648.868,3401.00
649.851,3143.00
650.836,2955.00
651.818,3236.00
652.803,3730.00
653.785,3510.00
654.769,3710.00
655.751,3626.00
656.733,3916.00
657.717,3048.00
658.699,3545.00
659.683,3317.00
660.664,3140.00
661.648,3345.00
662.629,3369.00
663.611,3242.00
664.594,3091.00
665.575,3096.00
666.558,3446.00
667.539,3102.00
668.521,3345.00
669.502,3338.00
670.484,3376.00
671.465,3264.00
672.445,3476.00
673.427,3246.00
674.407,3200.00
675.390,3560.00
676.369,3321.00
677.351,2965.00
678.331,3641.00
679.312,3432.00
680.292,3248.00
681.271,3006.00
682.253,3531.00
683.232,3038.00
684.213,3216.00
685.192,3708.00
686.172,3964.00
687.151,3366.00
688.132,3429.00
689.110,3564.00
690.089,3717.00
691.069,2876.00
692.047,2833.00
693.027,2987.00
694.005,3441.00
694.985,3986.00
695.963,3528.00
696.943,3258.00
697.920,2999.00
698.898,3775.00
699.877,3649.00
700.854,3253.00
701.833,3265.00
702.810,3743.00
703.789,3466.00
704.766,4518.00
705.745,3942.00
706.721,3166.00
707.698,3719.00
708.676,3089.00
709.653,3269.00
710.631,3692.00
711.607,3364.00
712.585,3415.00
713.561,3095.00
714.539,3902.00
715.514,3300.00
716.492,3037.00
717.467,3850.00
718.443,3042.00
719.420,3624.00
720.395,3809.00
721.372,3519.00
722.347,3640.00
723.324,3189.00
724.298,3349.00
725.275,3122.00
726.250,3291.00
727.226,3177.00
728.200,2951.00
729.176,3286.00
730.151,3600.00
731.125,3802.00
732.100,2906.00
733.074,3314.00
734.050,3236.00
735.023,3033.00
735.999,3301.00
736.972,3192.00
737.947,3669.00
738.921,3408.00
739.896,3571.00
740.869,3447.00
741.841,3269.00
742.816,3794.00
743.789,3056.00
744.763,3055.00
745.736,3374.00
746.710,3227.00
747.682,3113.00
748.656,3272.00
749.628,3246.00
750.602,3269.00
751.574,3394.00
752.548,4190.00
753.519,3444.00
754.491,2945.00
755.464,3143.00
756.435,3973.00
757.408,3600.00
758.379,3496.00
759.352,2859.00
760.323,3002.00
761.296,3247.00
762.267,3349.00
763.239,3097.00
764.209,3547.00
765.182,4457.00
766.152,3647.00
767.124,3106.00
768.094,3102.00
769.064,3499.00
770.036,2971.00
771.005,3646.00
771.977,3165.00
772.947,3264.00
773.918,3735.00
774.887,3303.00
775.858,3121.00
776.827,3222.00
777.798,3240.00
778.767,3823.00
779.738,3238.00
780.707,3158.00
781.677,3332.00
782.646,3081.00
783.614,3746.00
784.584,3381.00
785.552,3505.00
786.522,2952.00
787.490,3279.00
788.460,3185.00
789.428,3162.00
790.397,3687.00
791.365,3008.00
792.334,3263.00
793.302,3375.00
794.271,3408.00
795.238,3174.00
796.207,3133.00
797.174,3599.00
798.143,3046.00
799.109,3657.00
800.076,3213.00
801.044,2887.00
802.011,3106.00
802.979,3141.00
803.945,3310.00
804.913,3867.00
805.879,3206.00
806.847,2912.00
807.813,3598.00
808.780,3208.00
809.746,3262.00
810.713,3693.00
811.678,2956.00
812.646,3248.00
813.611,3236.00
814.578,2964.00
815.543,3619.00
816.510,2904.00
817.474,3176.00
818.439,3212.00
819.405,3541.00
820.370,3106.00
821.336,3020.00
822.300,3396.00
823.266,3188.00
824.230,3422.00
825.196,3276.00
826.160,3621.00
827.126,3664.00
828.089,4021.00
829.055,3289.00
830.018,3365.00
830.983,4098.00
831.946,3092.00
832.911,3090.00
833.874,3891.00
834.837,3110.00
835.802,3193.00
836.765,3744.00
837.729,3141.00
838.691,3210.00
839.656,3556.00
840.618,3422.00
841.582,3477.00
842.544,3527.00
843.508,3712.00
844.470,3020.00
845.434,2884.00
846.395,2759.00
847.359,3119.00
848.320,2893.00
849.283,3032.00
850.245,3141.00
851.208,3522.00
852.169,3210.00
853.130,3011.00
854.092,3472.00
855.053,3179.00
856.016,3204.00
856.976,4337.00
857.938,3247.00
858.899,3261.00
859.861,2911.00
860.821,3156.00
861.783,2547.00
862.743,3254.00
863.704,3523.00
864.664,2742.00
865.626,3368.00
866.585,3043.00
867.546,3297.00
868.506,3319.00
869.467,2776.00
870.426,3301.00
871.387,3503.00
872.346,3518.00
873.304,3318.00
874.265,3417.00
875.223,3287.00
876.184,3315.00
877.142,3077.00
878.102,3240.00
879.060,3207.00
880.021,3286.00
880.978,2866.00
881.938,3175.00
882.896,3592.00
883.856,3446.00
884.813,3168.00
885.772,3144.00
886.730,3399.00
887.689,3408.00
888.646,3025.00
889.603,3572.00
890.562,3632.00
891.519,3379.00
892.477,3400.00
893.434,3291.00
894.392,2845.00
895.349,3284.00
896.307,3350.00
897.263,3476.00
898.221,3366.00
899.177,3102.00
900.135,3412.00
901.091,3160.00
902.048,3737.00
903.004,3188.00
903.961,3021.00
904.917,3188.00
905.874,3228.00
906.829,2934.00
907.784,3277.00
908.741,3287.00
909.696,3113.00
910.653,2753.00
911.607,3172.00
912.564,3127.00
913.518,3190.00
914.475,3291.00
915.429,4931.00
916.385,2925.00
917.339,3623.00
918.295,3389.00
919.249,3434.00
920.205,3258.00
921.158,3390.00
922.114,3119.00
923.067,3295.00
924.020,3313.00
924.976,3136.00
925.929,3397.00
926.884,3306.00
927.837,3554.00
928.791,3466.00
929.744,2917.00
930.699,3267.00
931.651,3264.00
932.606,2881.00
933.558,3073.00
934.512,3418.00
935.464,3302.00
936.418,3589.00
937.370,3427.00
938.322,3026.00
939.276,3117.00
940.227,3241.00
941.181,3342.00
942.132,3675.00
943.085,3828.00
944.036,2819.00
944.990,3534.00
945.941,3024.00
946.893,3091.00
947.844,2908.00
948.797,3403.00
949.747,4025.00
950.700,3125.00
951.650,2650.00
952.601,3380.00
953.553,2975.00
954.503,3426.00
955.455,3199.00
956.405,3241.00
957.356,2888.00
958.306,3510.00
959.258,3196.00
960.207,3626.00
961.158,3566.00
962.108,3269.00
963.059,2908.00
964.008,2876.00
964.959,3828.00
965.908,3180.00
966.856,2975.00
967.807,2796.00
968.756,3589.00
969.706,3296.00
970.654,3100.00
971.605,3214.00
972.553,3320.00
973.503,3214.00
974.451,3528.00
975.401,3257.00
976.348,3277.00
977.296,3100.00
978.246,3448.00
979.193,3629.00
980.142,2954.00
981.090,3323.00
982.039,3196.00
982.986,3361.00
983.935,3586.00
984.882,3313.00
985.830,3459.00
986.777,3377.00
987.725,3098.00
988.672,3036.00
989.618,3270.00
990.567,2990.00
991.513,3119.00
992.461,3000.00
993.407,3453.00
994.354,3300.00
995.300,3393.00
996.248,3298.00
997.193,3381.00
998.141,3122.00
999.086,3288.00
1000.031,3315.00
1000.978,2869.00
1001.924,3183.00
1002.870,3337.00
1003.815,2648.00
1004.762,3039.00
1005.707,3258.00
1006.653,3086.00
1007.598,3190.00
1008.542,2920.00
1009.488,2798.00
1010.432,3100.00
1011.378,2997.00
1012.322,3593.00
1013.268,2933.00
1014.212,3200.00
1015.157,3329.00
1016.101,3646.00
1017.046,2902.00
1017.990,2950.00
1018.933,3160.00
1019.878,2955.00
1020.821,3024.00
1021.766,2885.00
1022.709,3096.00
1023.654,3176.00
1024.596,3463.00
1025.541,3648.00
1026.483,3626.00
1027.425,3356.00
1028.370,3356.00
1029.312,3387.00
1030.256,3097.00
1031.198,3029.00
1032.141,3068.00
1033.083,3632.00
1034.027,3294.00
1034.968,3378.00
1035.910,2738.00
1036.853,3212.00
1037.794,3309.00
1038.738,2960.00
1039.679,3525.00
1040.621,3076.00
1041.562,3097.00
1042.503,3526.00
1043.446,2968.00
1044.386,3442.00
1045.329,3244.00
1046.269,3299.00
1047.211,3129.00
1048.151,3264.00
1049.093,2924.00
1050.033,3964.00
1050.973,3335.00
1051.915,3139.00
1052.854,3092.00
1053.796,3417.00
1054.735,3073.00
1055.677,3035.00
1056.616,3242.00
1057.555,3272.00
1058.496,2890.00
1059.435,3447.00
1060.376,3067.00
1061.315,3004.00
1062.255,2920.00
1063.194,3121.00
1064.132,2907.00
1065.073,3302.00
1066.011,3224.00
1066.951,3188.00
1067.889,2951.00
1068.829,3347.00
1069.767,3244.00
1070.705,2593.00
1071.644,3072.00
1072.582,2799.00
1073.521,3078.00
1074.459,3168.00
1075.398,3287.00
1076.335,3069.00
1077.272,3894.00
1078.211,3329.00
1079.148,3705.00
1080.087,3231.00
1081.023,3606.00
1081.962,3468.00
1082.898,2671.00
1083.835,3062.00
1084.773,2815.00
1085.709,2824.00
1086.647,3152.00
1087.583,3083.00
1088.519,3305.00
1089.457,3323.00
1090.392,2772.00
1091.330,3205.00
1092.266,3075.00
1093.203,3455.00
1094.138,2843.00
1095.073,3692.00
1096.010,3435.00
1096.945,3114.00
1097.882,2783.00
1098.817,2627.00
1099.752,3360.00
1100.688,3158.00
1101.623,3221.00
1102.559,3290.00
1103.493,3470.00
1104.430,2688.00
1105.364,2813.00
1106.298,3102.00
1107.234,3729.00
1108.167,2929.00
1109.094,3093.00
1110.019,3154.00
1110.945,3261.00
1111.869,3131.00
1112.795,3058.00
1113.720,3170.00
1114.646,3169.00
1115.571,2618.00
1116.495,3178.00
1117.420,3221.00
1118.345,2945.00
1119.270,3118.00
1120.195,3256.00
1121.118,3549.00
1122.042,3406.00
1122.967,3143.00
1123.891,3180.00
1124.816,3260.00
1125.738,3166.00
1126.663,2581.00
1127.587,3067.00
1128.511,3000.00
1129.435,3176.00
1130.357,3229.00
1131.280,4014.00
1132.204,2942.00
1133.128,2968.00
1134.051,3056.00
1134.972,3770.00
1135.896,3045.00
1136.819,3433.00
1137.742,3008.00
1138.665,3320.00
1139.586,3136.00
1140.509,2702.00
1141.431,2974.00
1142.354,3645.00
1143.276,3185.00
1144.197,3552.00
1145.119,3248.00
1146.041,2905.00
1146.964,3359.00
1147.885,3255.00
1148.806,3072.00
1149.727,3149.00
1150.649,2787.00
1151.571,3155.00
1152.492,3394.00
1153.412,3261.00
1154.333,3166.00
1155.254,3067.00
1156.175,3070.00
1157.095,3637.00
1158.016,3190.00
1158.936,3004.00
1159.857,3251.00
1160.778,3081.00
1161.697,2807.00
1162.617,3256.00
1163.537,3808.00
1164.458,3650.00
1165.376,2998.00
1166.296,3342.00
1167.216,3469.00
1168.136,3009.00
1169.056,2896.00
1169.974,3085.00
1170.893,3705.00
1171.813,3295.00
1172.732,3067.00
1173.650,3157.00
1174.569,3975.00
1175.488,3334.00
1176.407,2843.00
1177.326,2930.00
1178.243,3134.00
1179.161,3010.00
1180.080,3044.00
1180.999,3275.00
1181.915,3101.00
1182.834,2680.00
1183.752,3329.00
1184.670,3717.00
1185.586,2719.00
1186.504,2974.00
1187.422,3116.00
1188.340,2822.00
1189.258,3299.00
1190.173,3118.00
1191.091,3488.00
1192.008,2948.00
1192.926,3008.00
1193.841,3298.00
1194.758,3240.00
1195.675,2880.00
1196.592,3460.00
1197.507,2952.00
1198.424,3309.00
1199.340,3652.00
1200.257,3085.00
1201.172,3288.00
1202.088,2581.00
1203.004,3270.00
1203.920,3420.00
1204.835,3787.00
1205.750,3509.00
1206.666,3522.00
1207.582,2893.00
1208.496,2977.00
1209.412,3095.00
1210.327,3014.00
1211.243,3616.00
1212.156,2955.00
1213.071,2887.00
1213.986,3139.00
1214.901,2812.00
1215.814,2808.00
1216.729,2902.00
1217.644,2935.00
1218.559,2903.00
1219.471,3925.00
1220.386,3484.00
1221.300,2949.00
1222.213,3278.00
1223.127,3134.00
1224.041,3550.00
1224.955,2928.00
1225.867,3235.00
1226.781,3393.00
1227.694,3544.00
1228.608,3097.00
1229.520,3388.00
1230.433,3430.00
1231.346,2931.00
1232.260,3308.00
1233.171,2895.00
1234.084,3220.00
1234.997,3536.00
1235.908,2975.00
1236.821,3304.00
1237.733,4339.00
1238.646,3452.00
1239.556,3205.00
1240.469,3131.00
1241.381,2952.00
1242.293,2991.00
1243.203,3632.00
1244.115,3682.00
1245.027,3246.00
1245.937,3093.00
1246.849,3099.00
1247.761,3165.00
1248.672,2869.00
1249.582,3053.00
1250.493,3750.00
1251.404,3179.00
1252.313,3326.00
1253.225,3435.00
1254.135,4095.00
1255.046,3285.00
1255.955,3371.00
1256.866,3684.00
1257.777,3010.00
1258.685,2831.00
1259.596,2603.00
1260.506,3514.00
1261.416,3076.00
1262.324,3401.00
1263.234,3110.00
1264.144,3323.00
1265.052,3241.00
1265.962,3205.00
1266.872,3454.00
1267.779,3372.00
1268.689,2739.00
1269.598,2870.00
1270.507,3090.00
1271.415,2969.00
1272.324,3240.00
1273.233,3163.00
1274.140,2973.00
1275.048,2881.00
1275.957,2671.00
1276.864,2993.00
1277.772,2935.00
1278.681,2635.00
1279.587,2922.00
1280.496,3302.00
1281.404,3903.00
1282.312,3342.00
1283.218,2891.00
1284.126,2904.00
1285.033,3652.00
1285.939,3090.00
1286.847,3216.00
1287.754,3130.00
1288.660,2940.00
1289.567,3737.00
1290.474,3253.00
1291.380,3412.00
1292.286,2824.00
1293.193,3200.00
1294.098,3178.00
1295.005,2983.00
1295.912,3504.00
1296.816,3248.00
1297.723,3109.00
1298.629,2968.00
1299.534,3518.00
1300.440,3285.00
1301.346,2948.00
1302.250,2991.00
1303.156,2700.00
1304.062,3580.00
1304.966,3750.00
1305.871,3484.00
1306.777,3011.00
1307.680,3077.00
1308.586,3257.00
1309.491,3372.00
1310.394,3120.00
1311.299,3414.00
1312.204,3654.00
1313.107,3298.00
1314.012,3173.00
1314.917,2869.00
1315.819,3293.00
1316.724,3700.00
1317.628,3297.00
1318.531,3090.00
1319.435,3511.00
1320.339,5231.00
1321.241,3129.00
1322.145,3182.00
1323.049,3253.00
1323.951,2942.00
1324.854,2918.00
1325.756,3418.00
1326.659,3193.00
1327.563,2947.00
1328.464,3289.00
1329.367,3153.00
1330.271,3509.00
1331.172,2875.00
1332.074,3146.00
1332.977,2942.00
1333.878,3314.00
1334.781,3463.00
1335.683,3003.00
1336.584,3096.00
1337.486,2725.00
1338.387,3309.00
1339.289,2855.00
1340.191,2983.00
1341.091,3068.00
1341.993,2863.00
1342.895,2987.00
1343.794,3262.00
1344.696,3338.00
1345.596,3309.00
1346.497,2879.00
1347.398,3083.00
1348.298,2684.00
1349.199,3693.00
1350.100,3067.00
1350.999,3514.00
1351.900,3371.00
1352.799,3525.00
1353.699,3214.00
1354.600,3074.00
1355.499,3216.00
1356.399,2771.00
1357.297,3134.00
1358.198,3172.00
1359.098,2920.00
1359.996,2832.00
1360.896,3630.00
1361.796,3408.00
1362.694,3252.00
1363.593,3117.00
1364.491,3360.00
1365.391,3676.00
1366.290,3120.00
1367.187,2921.00
1368.086,3346.00
1368.984,3256.00
1369.883,2713.00
1370.782,3181.00
1371.679,3318.00
1372.577,3637.00
1373.474,3168.00
1374.373,3062.00
1375.269,3163.00
1376.168,3093.00
1377.066,3395.00
1377.962,3408.00
1378.860,3537.00
1379.756,3530.00
1380.654,3707.00
1381.552,3346.00
1382.448,3301.00
1383.346,3202.00
1384.241,3297.00
1385.139,3418.00
1386.036,3036.00
1386.931,2746.00
1387.829,3225.00
1388.724,3375.00
1389.621,3012.00
1390.516,3172.00
1391.413,3040.00
1392.309,2926.00
1393.204,3422.00
1394.101,3381.00
1394.995,3336.00
1395.891,3301.00
1396.786,2924.00
1397.682,3092.00
1398.578,3231.00
1399.472,3492.00
1400.368,3183.00
1401.262,3137.00
1402.158,3289.00
1403.051,3079.00
1403.947,3076.00
1404.840,3427.00
1405.736,3390.00
1406.631,2938.00
1407.524,3622.00
1408.419,3169.00
1409.312,3079.00
1410.207,3300.00
1411.100,3021.00
1411.995,3016.00
1412.888,3327.00
1413.782,2814.00
1414.675,3549.00
1415.569,2914.00
1416.463,3092.00
1417.355,3114.00
1418.249,2952.00
1419.141,3195.00
1420.035,3281.00
1420.927,3124.00
1421.821,3516.00
1422.713,3049.00
1423.606,3298.00
1424.498,3174.00
1425.391,3713.00
1426.282,2981.00
1427.175,3106.00
1428.068,2684.00
1428.960,3244.00
1429.852,3287.00
1430.743,2918.00
1431.636,3176.00
1432.527,3452.00
1433.419,3316.00
1434.310,3375.00
1435.202,2976.00
1436.092,3145.00
1436.984,3093.00
1437.875,3565.00
1438.767,3170.00
1439.657,2996.00
1440.548,3366.00
1441.438,3262.00
1442.330,3302.00
1443.219,3093.00
1444.111,3405.00
1445.000,2992.00
1445.891,2888.00
1446.781,2964.00
1447.672,3218.00
1448.561,3526.00
1449.452,3301.00
1450.340,2921.00
1451.231,2973.00
1452.120,2905.00
1453.010,3476.00
1453.899,3014.00
1454.789,3358.00
1455.677,3563.00
1456.568,3186.00
1457.456,3209.00
1458.346,3165.00
1459.234,3228.00
1460.123,3495.00
1461.011,3192.00
1461.901,3535.00
1462.788,3650.00
1463.678,3289.00
1464.565,3202.00
1465.454,3100.00
1466.342,3239.00
1467.231,2537.00
1468.118,3471.00
1469.006,3564.00
1469.893,2872.00
1470.782,3314.00
1471.669,3518.00
1472.557,3438.00
1473.444,3148.00
1474.330,3388.00
1475.218,3485.00
1476.105,3109.00
1476.993,3185.00
1477.879,3429.00
1478.767,3084.00
1479.652,2959.00
1480.540,3235.00
1481.426,3367.00
1482.313,3327.00
1483.199,3580.00
1484.086,3387.00
1484.972,2926.00
1485.857,2962.00
1486.744,3226.00
1487.629,2777.00
1488.516,3070.00
1489.401,3364.00
1490.287,3229.00
1491.172,2825.00
1492.058,3111.00
1492.943,2972.00
1493.828,2964.00
1494.714,3350.00
1495.598,3527.00
1496.484,3983.00
1497.368,2824.00
1498.254,3133.00
1499.138,3217.00
1500.022,3170.00
1500.907,3322.00
1501.791,3941.00
1502.676,3166.00
1503.560,3030.00
1504.445,3689.00
1505.328,3345.00
1506.211,3614.00
1507.096,3100.00
1507.979,3528.00
1508.864,3127.00
1509.747,3422.00
1510.631,3265.00
1511.514,3332.00
1512.397,3424.00
1513.281,3675.00
1514.163,3424.00
1515.047,3047.00
1515.930,2920.00
1516.812,3209.00
1517.696,3391.00
1518.578,3120.00
1519.461,3250.00
1520.343,3693.00
1521.225,3042.00
1522.108,3147.00
1522.990,3504.00
1523.873,3576.00
1524.754,2806.00
1525.635,2665.00
1526.518,3346.00
1527.399,3120.00
1528.282,3184.00
1529.163,3365.00
1530.044,3195.00
1530.926,2880.00
1531.807,2948.00
1532.689,3249.00
1533.569,2991.00
1534.450,4227.00
1535.332,3381.00
1536.212,3116.00
1537.092,3451.00
1537.974,2846.00
1538.854,3110.00
1539.735,3739.00
1540.615,3357.00
1541.495,2963.00
1542.376,3629.00
1543.255,2936.00
1544.135,3115.00
1545.016,3202.00
1545.895,3023.00
1546.774,3438.00
1547.655,2728.00
1548.534,3182.00
1549.414,3109.00
1550.293,2847.00
1551.172,3296.00
1552.052,3153.00
1552.930,3048.00
1553.809,3679.00
1554.689,3083.00
1555.567,3116.00
1556.445,3079.00
1557.325,3461.00
1558.203,2779.00
1559.080,3183.00
1559.960,3124.00
1560.838,3810.00
1561.715,3123.00
1562.594,3498.00
1563.472,3362.00
1564.349,3357.00
1565.228,2729.00
1566.105,2954.00
1566.982,3236.00
1567.861,3417.00
1568.738,3139.00
1569.615,2763.00
1570.493,3004.00
1571.370,3053.00
1572.246,2611.00
1573.124,3163.00
1574.000,3135.00
1574.877,3376.00
1575.755,3055.00
1576.631,2983.00
1577.507,3543.00
1578.384,3559.00
1579.260,3273.00
1580.136,3763.00
1581.011,3179.00
1581.889,3134.00
1582.764,3230.00
1583.639,3471.00
1584.516,3363.00
1585.391,3059.00
1586.266,3213.00
1587.143,3673.00
1588.018,3346.00
1588.893,3562.00
1589.768,4487.00
1590.644,3910.00
1591.519,2922.00
1592.393,3360.00
1593.269,3460.00
1594.143,2990.00
1595.018,3156.00
1595.892,3072.00
1596.767,2689.00
1597.641,2692.00
1598.515,2852.00
1599.391,3333.00
1600.264,3060.00
1601.138,2970.00
1602.011,2545.00
1602.886,3724.00
1603.760,3491.00
1604.633,3448.00
1605.508,3388.00
1606.381,3255.00
1607.254,3200.00
1608.127,3314.00
1609.001,2901.00
1609.874,3465.00
1610.746,3459.00
1611.619,3157.00
1612.493,3392.00
1613.365,2974.00
1614.238,3230.00
1615.110,3147.00
1615.984,3223.00
1616.855,2973.00
1617.727,3384.00
1618.599,3037.00
1619.473,3474.00
1620.344,2583.00
1621.216,3171.00
1622.087,3217.00
1622.960,3202.00
1623.832,3165.00
1624.703,3306.00
1625.574,3410.00
1626.445,3218.00
1627.317,3221.00
1628.188,3426.00
1629.059,3101.00
1629.930,3540.00
1630.802,3136.00
1631.672,3355.00
1632.543,3340.00
1633.413,3210.00
1634.283,3684.00
1635.155,3289.00
1636.025,3271.00
1636.895,3232.00
1637.765,2725.00
1638.636,3125.00
1639.506,3343.00
1640.376,4003.00
1641.245,3120.00
1642.114,3251.00
1642.985,2675.00
1643.855,2962.00
1644.724,3090.00
1645.593,3337.00
1646.462,3331.00
1647.333,3239.00
1648.201,3068.00
1649.070,3277.00
1649.939,3358.00
1650.807,3002.00
1651.676,3374.00
1652.546,3417.00
1653.414,3522.00
1654.282,3201.00
1655.150,3048.00
1656.018,3169.00
1656.888,3827.00
1657.756,3212.00
1658.623,2858.00
1659.491,2761.00
1660.359,3566.00
1661.226,3058.00
1662.095,3373.00
1662.962,3085.00
1663.830,3154.00
1664.697,3049.00
1665.564,3232.00
1666.431,3347.00
1667.297,2923.00
1668.166,2948.00
1669.033,2715.00
1669.899,3104.00
1670.766,2838.00
1671.632,3106.00
1672.499,3501.00
1673.367,3215.00
1674.233,3428.00
1675.099,3172.00
1675.965,2857.00
1676.831,3103.00
1677.696,3506.00
1678.562,4913.00
1679.430,2748.00
1680.295,2843.00
1681.161,2983.00
1682.026,2969.00
1682.891,3054.00
1683.756,3101.00
1684.621,3151.00
1685.486,3219.00
1686.353,3167.00
1687.218,3324.00
1688.083,3175.00
1688.947,3487.00
1689.812,3151.00
1690.677,3055.00
1691.541,3264.00
1692.405,2498.00
1693.269,3666.00
1694.135,3394.00
1694.999,3166.00
1695.863,3665.00
1696.727,3085.00
1697.591,3032.00
1698.455,3265.00
1699.318,3044.00
1700.182,4418.00
1701.045,3250.00
1701.909,3200.00
1702.772,3718.00
1703.637,3036.00
1704.500,2805.00
1705.363,3440.00
1706.226,3228.00
1707.089,3253.00
1707.951,3332.00
1708.814,3927.00
1709.677,3953.00
1710.539,3440.00
1711.402,3439.00
1712.264,3177.00
1713.126,3139.00
1713.988,3482.00
1714.852,3448.00
1715.714,2618.00
1716.576,2767.00
1717.438,3422.00
1718.299,2752.00
1719.161,3616.00
1720.023,3160.00
1720.884,3639.00
1721.745,3165.00
1722.607,3053.00
1723.468,2756.00
1724.329,3456.00
1725.190,3162.00
1726.051,3366.00
1726.912,3103.00
1727.772,3245.00
1728.633,3132.00
1729.494,3252.00
1730.354,3413.00
1731.214,2858.00
1732.075,3051.00
1732.935,3037.00
1733.797,3004.00
1734.657,3707.00
1735.517,3920.00
1736.377,3471.00
1737.237,3182.00
1738.096,3856.00
1738.956,3098.00
1739.816,3121.00
1740.675,3163.00
1741.534,2697.00
1742.394,3245.00
1743.253,2973.00
1744.112,3255.00
1744.971,3038.00
1745.830,3330.00
1746.689,3330.00
1747.547,3447.00
1748.406,2822.00
1749.265,3016.00
1750.123,3116.00
1750.982,3369.00
1751.840,3186.00
1752.698,3265.00
1753.556,3021.00
1754.414,3184.00
1755.272,3114.00
1756.130,3201.00
1756.988,3179.00
1757.846,3398.00
1758.703,3028.00
1759.559,3488.00
1760.417,2915.00
1761.274,3798.00
1762.131,3536.00
1762.989,3645.00
1763.846,3580.00
1764.703,3290.00
1765.560,3765.00
1766.417,3241.00
1767.273,2995.00
1768.130,3156.00
1768.987,3081.00
1769.843,3434.00
1770.700,3591.00
1771.556,3094.00
1772.412,3580.00
1773.268,3086.00
1774.125,3516.00
1774.980,3262.00
1775.836,3529.00
1776.692,3093.00
1777.546,3052.00
1778.402,3433.00
1779.257,3224.00
1780.113,3023.00
1780.968,3274.00
1781.824,3472.00
1782.679,2822.00
1783.534,3045.00
1784.389,3718.00
1785.244,3305.00
1786.099,3188.00
1786.954,3452.00
1787.808,3219.00
1788.661,3248.00
1789.516,3659.00
1790.370,3249.00
1791.225,3073.00
1792.079,2863.00
1792.933,3976.00
1793.787,3322.00
1794.641,3226.00
1795.495,3139.00
1796.349,3243.00
1797.201,3032.00
1798.055,3005.00
1798.908,3196.00
1799.762,3574.00
1800.615,3370.00
1801.469,3416.00
1802.322,3595.00
1803.175,3057.00
1804.028,2761.00
1804.880,3769.00
1805.732,3368.00
1806.585,3215.00
1807.438,3250.00
1808.291,2751.00
1809.143,2951.00
1809.996,2829.00
1810.846,3979.00
1811.699,3337.00
1812.551,3131.00
1813.403,3383.00
1814.255,3238.00
1815.107,3234.00
1815.959,3842.00
1816.809,3334.00
1817.661,3350.00
1818.512,3205.00
1819.364,3240.00
1820.215,3333.00
1821.067,2948.00
1821.918,3065.00
1822.768,3466.00
1823.619,3484.00
1824.470,3115.00
1825.321,3368.00
1826.172,3174.00
1827.021,3332.00
1827.871,3528.00
1828.722,3263.00
1829.572,3228.00
1830.423,3240.00
1831.273,3053.00
1832.122,3204.00
1832.972,3174.00
1833.822,2913.00
1834.672,3400.00
1835.522,3415.00
1836.370,3044.00
1837.220,3357.00
1838.070,2782.00
1838.919,2585.00
1839.769,3023.00
1840.616,3461.00
1841.466,3351.00
1842.315,2956.00
1843.164,3875.00
1844.013,3058.00
1844.860,2923.00
1845.709,2963.00
1846.558,3501.00
1847.407,2842.00
1848.254,3332.00
1849.102,3290.00
1849.951,2998.00
1850.799,2659.00
1851.648,3089.00
1852.494,3284.00
1853.342,3308.00
1854.190,3548.00
1855.038,3526.00
1855.884,3235.00
1856.732,4136.00
1857.580,3605.00
1858.428,3085.00
1859.273,2913.00
1860.121,2975.00
1860.968,4053.00
1861.816,3563.00
1862.661,3567.00
1863.508,3830.00
1864.355,3511.00
1865.202,3534.00
1866.047,3314.00
1866.894,3615.00
1867.741,3772.00
1868.586,3355.00
1869.432,3336.00
1870.279,3169.00
1871.125,3038.00
1871.970,3868.00
1872.816,3295.00
1873.662,2733.00
1874.506,3335.00
1875.352,3496.00
1876.198,3648.00
1877.044,3859.00
1877.888,3171.00
1878.734,3238.00
1879.579,3041.00
1880.423,2897.00
1881.268,3134.00
1882.113,3499.00
1882.959,3189.00
1883.802,3058.00
1884.647,3666.00
1885.492,3257.00
1886.335,3215.00
1887.180,3043.00
1888.025,3289.00
1888.867,3032.00
1889.712,3395.00
1890.556,3014.00
1891.399,3506.00
1892.243,3582.00
1893.087,3093.00
1893.930,3366.00
1894.774,3400.00
1895.618,3593.00
1896.460,2849.00
1897.304,3175.00
1898.147,3057.00
1898.989,2929.00
1899.833,3426.00
1900.676,3071.00
1901.518,3531.00
1902.361,3563.00
1903.202,3159.00
1904.046,3057.00
1904.889,3186.00
1905.730,3126.00
1906.573,2895.00
1907.415,3278.00
1908.256,3658.00
1909.099,3357.00
1909.941,3393.00
1910.782,3326.00
1911.624,3056.00
1912.465,3416.00
1913.307,3287.00
1914.149,2986.00
1914.989,3489.00
1915.831,3148.00
1916.671,3632.00
1917.513,3159.00
1918.355,3324.00
1919.195,3446.00
1920.036,3377.00
1920.876,3253.00
1921.717,3394.00
1922.558,3237.00
1923.398,3249.00
1924.239,3226.00
1925.078,3575.00
1925.919,2960.00
1926.760,3343.00
1927.599,3083.00
1928.440,3501.00
1929.279,3238.00
1930.119,3653.00
1930.958,3147.00
1931.798,3239.00
1932.638,3146.00
1933.477,3284.00
1934.317,3015.00
1935.155,3071.00
1935.995,3374.00
1936.833,3076.00
1937.673,3076.00
1938.512,3726.00
1939.350,2827.00
1940.190,3137.00
1941.027,3116.00
1941.867,3121.00
1942.704,3236.00
1943.543,3286.00
1944.381,3391.00
1945.220,3617.00
1946.057,3294.00
1946.896,3588.00
1947.733,3285.00
1948.572,3014.00
1949.408,3590.00
1950.247,3340.00
1951.085,3428.00
1951.922,3598.00
1952.760,3024.00
1953.597,3645.00
1954.435,2637.00
1955.271,3416.00
1956.109,3093.00
1956.945,2880.00
1957.783,3383.00
1958.619,3062.00
1959.456,3209.00
1960.292,3287.00
1961.129,3568.00
1961.965,3810.00
1962.802,3049.00
1963.638,2995.00
1964.475,3263.00
1965.310,3265.00
1966.145,3273.00
1966.982,3034.00
1967.817,2954.00
1968.654,3279.00
1969.489,3063.00
1970.325,3251.00
1971.160,2988.00
1971.996,3400.00
1972.831,3490.00
1973.667,3151.00
1974.501,3714.00
1975.337,3536.00
1976.171,3144.00
1977.006,3512.00
1977.841,3147.00
1978.675,3456.00
1979.511,3869.00
1980.345,3005.00
1981.180,3448.00
1982.014,3294.00
1982.849,3012.00
1983.682,3102.00
1984.516,3106.00
1985.351,2868.00
1986.184,2724.00
1987.019,2736.00
1987.852,2541.00
1988.687,2793.00
1989.519,3044.00
1990.352,3233.00
1991.187,2725.00
1992.019,3023.00
1992.854,3386.00
1993.686,2944.00
1994.518,3067.00
1995.352,2559.00
1996.185,2319.00
1997.019,2900.00
1997.851,2664.00
1998.682,2731.00
1999.516,2763.00
2000.348,2486.00
