RamanScope Measure Spectrum Data V3.72

<< MEASURE CONDITION >>
Exposure Type,Aver
Exposure Time [sec],20
Exposure Count,2
Measure Time,2024/02/15 20:50:43
Data Name,""
Data Comment,""
Rayleigh Wave[nm],532.0

<< SAMPLE SPECTRUM >>
Wave[dcm-1],No26
96.716,19.00
97.759,33.50
98.802,10.00
99.846,-0.50
100.886,-21.50
101.929,20.50
102.972,8.50
104.015,26.50
105.057,2.00
106.100,53.00
107.142,25.50
108.184,13.50
109.226,-15.00
110.268,11.50
111.310,47.50
112.352,18.00
113.393,70.50
114.435,14.50
115.476,52.00
116.517,-43.50
117.558,-21.00
118.599,1.00
119.640,-16.50
120.681,11.50
121.722,20.50
122.762,46.50
123.803,6.00
124.843,-24.50
125.883,-38.00
126.923,44.50
127.963,52.00
129.001,11.50
130.041,-9.00
131.080,-8.00
132.120,15.50
133.159,1.50
134.199,-15.50
135.238,1.50
136.277,84.00
137.316,7.00
138.355,15.50
139.393,28.50
140.432,29.50
141.470,62.50
142.509,-5.00
143.547,-8.50
144.585,43.50
145.623,27.50
146.661,91.00
147.699,143.00
148.736,122.00
149.774,175.00
150.811,282.50
151.849,370.00
152.886,406.50
153.923,573.50
154.960,697.50
155.997,874.50
157.034,1648.50
158.072,1191.00
159.109,1316.00
160.145,1511.00
161.182,1649.50
162.218,1836.00
163.254,1964.00
164.290,2161.00
165.326,2269.50
166.361,2322.50
167.397,2468.50
168.432,2517.50
169.468,2617.00
170.503,2648.00
171.538,2688.00
172.573,2774.00
173.608,2789.00
174.643,2836.00
175.677,2917.00
176.712,2958.50
177.746,2952.00
178.781,3055.50
179.815,3147.00
180.849,3142.50
181.883,3192.00
182.917,3255.50
183.951,3254.50
184.984,3338.00
186.020,3423.50
187.053,3334.00
188.087,3300.00
189.120,3248.50
190.153,3271.00
191.186,3238.50
192.219,3196.00
193.251,3213.50
194.284,3159.00
195.317,3255.00
196.349,3170.50
197.381,3245.00
198.413,3217.00
199.445,3268.50
200.477,3191.00
201.509,3272.00
202.543,3285.00
203.575,3281.00
204.606,3300.50
205.637,3398.00
206.669,3323.50
207.700,3315.50
208.731,3422.50
209.762,3430.00
210.792,3439.50
211.823,3447.00
212.854,3506.00
213.884,3432.50
214.914,3571.50
215.947,3565.00
216.977,3573.00
218.007,3591.50
219.037,3636.50
220.066,3620.00
221.096,3690.50
222.126,3741.00
223.155,3829.00
224.184,3820.50
225.214,3810.50
226.245,3898.00
227.274,3925.50
228.302,3856.50
229.331,3885.00
230.360,3888.00
231.388,3921.50
232.417,3888.50
233.445,3890.50
234.473,3919.00
235.501,3765.50
236.531,3788.00
237.559,3780.00
238.587,3733.50
239.614,3647.50
240.642,3649.50
241.669,3622.50
242.696,3663.50
243.724,3632.00
244.753,3574.00
245.780,3566.50
246.806,3562.50
247.833,3539.00
248.860,3572.50
249.886,3507.00
250.913,3530.50
251.939,3550.50
252.967,3569.50
253.993,3568.00
255.019,3509.50
256.045,3536.50
257.070,3547.50
258.096,3595.00
259.121,3613.00
260.147,3568.50
261.174,3590.50
262.199,3593.00
263.224,3612.50
264.249,3589.00
265.274,3580.50
266.298,3678.00
267.323,3663.50
268.349,3688.00
269.374,3792.00
270.398,3747.50
271.422,3755.50
272.446,3775.50
273.470,3775.50
274.496,3805.00
275.519,3817.50
276.543,3818.00
277.566,3861.50
278.589,3917.00
279.613,3942.00
280.636,3946.00
281.661,4016.50
282.684,4082.50
283.706,4055.00
284.729,4032.50
285.751,4039.00
286.774,4113.50
287.798,4053.50
288.820,4102.50
289.842,4076.50
290.864,4093.00
291.886,4115.50
292.910,4065.00
293.932,4083.00
294.953,4042.50
295.974,4052.50
296.996,3979.50
298.017,3914.00
299.040,3882.00
300.061,3858.50
301.082,3746.50
302.102,3754.00
303.123,3740.00
304.143,3748.50
305.166,3634.00
306.186,3644.00
307.206,3607.00
308.226,3563.50
309.246,3565.00
310.268,3548.50
311.288,3453.50
312.307,3515.50
313.327,3410.00
314.346,3427.00
315.368,3364.00
316.387,3391.00
317.406,3368.50
318.425,3395.00
319.443,3368.00
320.464,3383.00
321.483,3334.50
322.501,3297.50
323.520,3279.00
324.538,3373.50
325.558,3259.00
326.576,3253.50
327.594,3185.50
328.612,3273.00
329.629,3256.00
330.649,3242.50
331.666,3209.00
332.684,3245.00
333.701,3253.00
334.718,3236.00
335.737,3229.50
336.754,3102.50
337.771,3148.50
338.787,3236.50
339.806,3181.50
340.823,3199.50
341.839,3158.50
342.855,3156.00
343.871,3161.50
344.889,3156.50
345.905,3097.00
346.921,3148.00
347.937,3134.00
348.954,3030.00
349.970,3046.50
350.985,3073.00
352.000,3125.50
353.017,3080.00
354.032,3114.00
355.047,3124.50
356.062,3057.50
357.077,3125.00
358.093,3051.50
359.108,3050.50
360.122,3067.00
361.136,3085.00
362.152,3092.00
363.166,3072.50
364.180,3050.50
365.194,3095.50
366.210,3151.00
367.223,3066.00
368.237,3086.50
369.250,3098.50
370.265,3096.50
371.278,3111.50
372.291,3045.50
373.304,3071.50
374.319,3039.50
375.332,3159.00
376.344,3153.50
377.357,3098.00
378.371,3091.00
379.383,3167.50
380.395,3164.50
381.407,3151.50
382.421,3162.50
383.433,3131.00
384.445,3176.00
385.456,3166.50
386.470,3150.00
387.481,3178.00
388.492,3181.00
389.505,3243.50
390.516,3196.50
391.527,3192.00
392.538,3185.50
393.551,3180.00
394.561,3163.50
395.572,3250.00
396.582,3185.50
397.594,3224.00
398.604,3178.50
399.614,3202.00
400.624,3169.00
401.636,3207.00
402.646,3172.00
403.655,3210.00
404.667,3170.50
405.676,3166.50
406.685,3190.50
407.694,3136.00
408.705,3131.50
409.714,3129.50
410.723,3046.50
411.734,3086.50
412.742,3084.50
413.751,3018.50
414.759,3036.00
415.769,3067.00
416.777,2999.50
417.785,2968.50
418.795,2955.00
419.803,2987.00
420.811,2935.50
421.818,2903.50
422.828,2953.00
423.835,2940.00
424.842,2905.50
425.852,2914.00
426.859,2861.00
427.866,2853.50
428.874,2892.00
429.881,2788.50
430.888,2749.00
431.894,2838.50
432.902,2782.50
433.909,2820.50
434.915,2862.00
435.923,2784.00
436.929,2821.00
437.935,2773.50
438.942,2730.50
439.948,2739.00
440.953,2771.50
441.959,2728.00
442.966,2789.50
443.971,2715.50
444.976,2721.00
445.983,2663.00
446.988,2725.00
447.993,2626.00
448.999,2707.00
450.004,2705.50
451.008,2664.00
452.014,2684.00
453.019,2737.00
454.023,2688.00
455.029,2625.50
456.032,2656.00
457.036,2642.50
458.042,2658.00
459.045,2615.50
460.049,2653.50
461.052,2666.00
462.057,2701.50
463.060,2608.00
464.063,2671.50
465.068,2620.50
466.071,2603.50
467.073,2672.50
468.078,2664.00
469.080,2643.00
470.082,2657.50
471.087,2621.00
472.089,2622.00
473.091,2592.50
474.095,2658.00
475.096,2573.50
476.098,2644.50
477.101,2660.00
478.103,2657.50
479.104,2630.50
480.107,2664.50
481.108,2620.50
482.109,2542.00
483.112,2617.50
484.113,2565.00
485.114,2649.50
486.116,2520.50
487.117,2578.50
488.117,2583.50
489.119,2679.00
490.119,2620.00
491.121,2555.00
492.121,2557.50
493.121,2554.00
494.123,2590.00
495.122,2626.00
496.122,2599.00
497.123,2540.00
498.122,2598.50
499.121,2563.00
500.122,2589.50
501.121,2508.00
502.120,2543.00
503.121,2543.00
504.119,2550.50
505.118,2525.50
506.118,2452.50
507.117,2530.50
508.115,2551.00
509.115,2499.50
510.113,2464.00
511.112,2504.50
512.110,2529.00
513.108,2522.50
514.107,2409.50
515.105,2531.00
516.102,2464.50
517.101,2398.00
518.098,2409.00
519.095,2402.50
520.094,2422.00
521.091,2374.00
522.089,2388.50
523.086,2452.50
524.082,2447.00
525.081,2421.00
526.077,2440.50
527.073,2482.00
528.071,2422.00
529.067,2450.00
530.064,2406.50
531.060,2467.50
532.056,2414.50
533.053,2412.50
534.048,2375.00
535.044,2341.50
536.041,2431.00
537.036,2370.00
538.030,2440.00
539.027,2413.50
540.022,2441.00
541.019,2471.50
542.013,2491.50
543.007,2390.00
544.004,2420.00
544.998,2379.50
545.994,2382.00
546.988,2433.50
547.981,2395.00
548.977,2457.00
549.971,2400.50
550.964,2409.50
551.960,2409.00
552.953,2425.50
553.948,2399.50
554.941,2383.50
555.934,2456.00
556.929,2467.00
557.922,2428.00
558.916,2431.00
559.909,2386.50
560.901,2429.00
561.895,2371.00
562.888,2457.50
563.880,2434.50
564.874,2328.00
565.865,2446.00
566.859,2335.00
567.851,2550.00
568.842,2344.00
569.836,2350.50
570.827,2388.00
571.820,2386.50
572.811,2365.50
573.802,2401.00
574.795,2359.00
575.786,2328.00
576.779,2314.00
577.769,2345.50
578.760,2371.50
579.752,2377.50
580.742,2399.50
581.735,2376.50
582.725,2334.50
583.714,2287.50
584.706,2325.00
585.696,2327.50
586.688,2360.50
587.677,2359.50
588.667,2361.00
589.658,2363.50
590.647,2303.50
591.638,2364.00
592.627,2312.50
593.616,2376.50
594.607,2372.50
595.595,2299.50
596.586,2321.00
597.574,2339.00
598.562,2292.50
599.553,2292.00
600.541,2333.00
601.531,2290.50
602.519,2299.50
603.508,2302.50
604.496,2298.00
605.484,2266.00
606.473,2270.00
607.460,2281.50
608.450,2321.50
609.437,2315.00
610.424,2253.00
611.413,2283.00
612.400,2229.50
613.388,2186.00
614.375,2218.50
615.361,2313.00
616.350,2292.00
617.336,2171.00
618.324,2212.50
619.310,2247.50
620.298,2221.50
621.284,2150.50
622.270,2182.50
623.257,2138.00
624.243,2162.50
625.230,2231.50
626.216,2149.50
627.203,2117.00
628.188,2190.00
629.173,2154.50
630.160,2099.00
631.145,2090.00
632.131,2106.00
633.116,2070.50
634.102,2127.00
635.087,2035.00
636.071,2043.50
637.057,2028.50
638.041,2029.00
639.027,2044.00
640.011,2020.50
640.995,1995.00
641.980,1967.00
642.964,1928.00
643.949,1990.50
644.932,1918.50
645.918,1940.50
646.901,1882.00
647.886,1877.50
648.868,1812.00
649.851,1833.50
650.836,1843.00
651.818,1871.00
652.803,1862.50
653.785,1772.50
654.769,1828.00
655.751,1827.50
656.733,1809.50
657.717,1788.50
658.699,1820.50
659.683,1742.50
660.664,1761.00
661.648,1707.00
662.629,1746.50
663.611,1715.00
664.594,1812.50
665.575,1681.50
666.558,1726.00
667.539,1684.50
668.521,1699.00
669.502,1687.50
670.484,1760.00
671.465,1679.00
672.445,1682.00
673.427,1702.00
674.407,1608.50
675.390,1645.00
676.369,1655.00
677.351,1641.00
678.331,1656.50
679.312,1625.00
680.292,1603.50
681.271,1621.00
682.253,1643.50
683.232,1608.00
684.213,1573.50
685.192,1618.50
686.172,1589.00
687.151,1598.00
688.132,1554.50
689.110,1615.50
690.089,1506.50
691.069,1529.50
692.047,1535.00
693.027,1559.50
694.005,1565.00
694.985,1571.00
695.963,1472.50
696.943,1523.00
697.920,1485.00
698.898,1491.00
699.877,1528.00
700.854,1454.00
701.833,1442.00
702.810,1480.50
703.789,1411.00
704.766,1463.50
705.745,1435.50
706.721,1366.50
707.698,1382.50
708.676,1396.00
709.653,1458.00
710.631,1431.50
711.607,1376.00
712.585,1402.50
713.561,1387.00
714.539,1409.50
715.514,1356.00
716.492,1398.00
717.467,1315.00
718.443,1341.00
719.420,1351.00
720.395,1350.50
721.372,1324.00
722.347,1370.00
723.324,1304.50
724.298,1344.00
725.275,1346.00
726.250,1288.50
727.226,1341.50
728.200,1283.00
729.176,1321.00
730.151,1351.00
731.125,1290.50
732.100,1257.50
733.074,1279.00
734.050,1320.50
735.023,1264.00
735.999,1351.00
736.972,1322.00
737.947,1287.00
738.921,1304.50
739.896,1280.00
740.869,1277.00
741.841,1278.50
742.816,1271.00
743.789,1270.00
744.763,1255.00
745.736,1263.00
746.710,1268.00
747.682,1260.50
748.656,1297.00
749.628,1350.00
750.602,1227.00
751.574,1295.50
752.548,1281.00
753.519,1278.00
754.491,1203.50
755.464,1299.50
756.435,1266.50
757.408,1301.50
758.379,1291.00
759.352,1268.50
760.323,1232.50
761.296,1253.00
762.267,1254.50
763.239,1283.00
764.209,1239.00
765.182,1229.50
766.152,1232.50
767.124,1286.00
768.094,1306.50
769.064,1200.50
770.036,1197.00
771.005,1286.50
771.977,1251.00
772.947,1216.00
773.918,1279.50
774.887,1220.00
775.858,1176.50
776.827,1236.50
777.798,1240.00
778.767,1225.00
779.738,1256.00
780.707,1169.50
781.677,1214.50
782.646,1171.00
783.614,1156.00
784.584,1206.00
785.552,1176.00
786.522,1165.50
787.490,1205.00
788.460,1173.00
789.428,1175.00
790.397,1192.50
791.365,1139.00
792.334,1146.50
793.302,1152.00
794.271,1132.00
795.238,1135.00
796.207,1135.00
797.174,1100.00
798.143,1139.50
799.109,1117.00
800.076,1113.50
801.044,1152.00
802.011,1111.00
802.979,1098.50
803.945,1060.00
804.913,1100.50
805.879,1116.00
806.847,1057.00
807.813,1063.50
808.780,1068.00
809.746,1069.00
810.713,1018.00
811.678,1061.00
812.646,1102.00
813.611,1081.00
814.578,1078.50
815.543,1029.00
816.510,1060.50
817.474,990.50
818.439,1041.00
819.405,1078.50
820.370,1010.50
821.336,1027.00
822.300,990.00
823.266,1022.50
824.230,987.50
825.196,992.00
826.160,999.50
827.126,1006.00
828.089,1014.00
829.055,1027.00
830.018,992.00
830.983,973.00
831.946,1038.50
832.911,980.00
833.874,1044.00
834.837,1020.50
835.802,995.00
836.765,920.00
837.729,978.50
838.691,969.50
839.656,1001.00
840.618,977.00
841.582,977.00
842.544,968.00
843.508,978.50
844.470,951.50
845.434,1005.00
846.395,995.50
847.359,938.00
848.320,966.50
849.283,973.50
850.245,940.50
851.208,925.50
852.169,963.50
853.130,983.50
854.092,972.50
855.053,881.50
856.016,1033.00
856.976,969.50
857.938,994.50
858.899,943.50
859.861,1004.50
860.821,995.50
861.783,992.00
862.743,1002.00
863.704,931.50
864.664,997.00
865.626,963.00
866.585,958.50
867.546,979.50
868.506,977.50
869.467,999.50
870.426,1007.00
871.387,942.50
872.346,1026.00
873.304,1039.50
874.265,1014.00
875.223,1030.50
876.184,1049.00
877.142,1013.50
878.102,996.00
879.060,975.50
880.021,988.50
880.978,981.50
881.938,1013.00
882.896,1001.00
883.856,1033.00
884.813,978.50
885.772,947.00
886.730,1041.00
887.689,1006.00
888.646,1028.00
889.603,1022.00
890.562,1009.50
891.519,1028.50
892.477,1027.50
893.434,1065.00
894.392,1012.50
895.349,1032.00
896.307,1077.00
897.263,1047.00
898.221,1088.00
899.177,1035.50
900.135,1040.00
901.091,1068.50
902.048,1015.50
903.004,1062.50
903.961,1133.00
904.917,1107.00
905.874,1073.50
906.829,1092.00
907.784,1098.00
908.741,1113.00
909.696,1115.00
910.653,1075.00
911.607,1107.00
912.564,1095.00
913.518,1117.00
914.475,1119.50
915.429,1046.50
916.385,1120.50
917.339,1133.50
918.295,1126.00
919.249,1139.50
920.205,1102.50
921.158,1161.00
922.114,1122.50
923.067,1177.00
924.020,1159.00
924.976,1192.00
925.929,1158.50
926.884,1224.50
927.837,1161.00
928.791,1166.50
929.744,1206.00
930.699,1135.00
931.651,1181.50
932.606,1203.00
933.558,1160.00
934.512,1184.50
935.464,1222.00
936.418,1137.00
937.370,1193.50
938.322,1231.50
939.276,1190.50
940.227,1215.00
941.181,1253.00
942.132,1210.50
943.085,1194.50
944.036,1246.50
944.990,1247.50
945.941,1251.00
946.893,1233.50
947.844,1235.50
948.797,1237.00
949.747,1268.00
950.700,1242.00
951.650,1252.00
952.601,1217.50
953.553,1276.00
954.503,1225.00
955.455,1228.00
956.405,1233.00
957.356,1255.00
958.306,1218.50
959.258,1249.00
960.207,1244.00
961.158,1209.00
962.108,1239.50
963.059,1231.50
964.008,1242.00
964.959,1207.50
965.908,1240.00
966.856,1240.50
967.807,1235.00
968.756,1226.50
969.706,1180.50
970.654,1190.50
971.605,1263.00
972.553,1150.50
973.503,1227.50
974.451,1217.00
975.401,1202.50
976.348,1220.00
977.296,1197.00
978.246,1207.50
979.193,1230.00
980.142,1212.00
981.090,1210.50
982.039,1204.50
982.986,1205.00
983.935,1219.50
984.882,1193.50
985.830,1185.50
986.777,1215.00
987.725,1149.50
988.672,1180.00
989.618,1179.00
990.567,1182.00
991.513,1191.00
992.461,1203.50
993.407,1145.50
994.354,1163.50
995.300,1198.50
996.248,1165.00
997.193,1173.00
998.141,1182.50
999.086,1195.50
1000.031,1135.00
1000.978,1158.50
1001.924,1188.00
1002.870,1227.00
1003.815,1140.50
1004.762,1154.50
1005.707,1166.50
1006.653,1132.50
1007.598,1178.00
1008.542,1168.00
1009.488,1164.00
1010.432,1115.00
1011.378,1074.50
1012.322,1072.00
1013.268,1114.00
1014.212,1143.50
1015.157,1129.00
1016.101,1091.50
1017.046,1131.00
1017.990,1053.50
1018.933,1163.00
1019.878,1032.00
1020.821,1067.50
1021.766,1071.50
1022.709,1068.50
1023.654,1111.50
1024.596,1050.00
1025.541,1074.50
1026.483,1091.50
1027.425,1097.50
1028.370,1055.00
1029.312,1069.00
1030.256,1095.00
1031.198,1057.00
1032.141,1047.00
1033.083,1049.00
1034.027,1066.00
1034.968,1056.50
1035.910,1073.00
1036.853,1102.00
1037.794,1031.00
1038.738,1076.00
1039.679,1031.50
1040.621,1066.00
1041.562,1028.50
1042.503,1024.50
1043.446,1006.00
1044.386,1003.00
1045.329,1060.00
1046.269,1056.50
1047.211,1036.50
1048.151,1066.00
1049.093,1018.00
1050.033,1070.00
1050.973,1037.50
1051.915,1037.00
1052.854,991.00
1053.796,978.50
1054.735,1018.00
1055.677,1002.00
1056.616,972.50
1057.555,1072.00
1058.496,1024.50
1059.435,1079.50
1060.376,1050.00
1061.315,1069.50
1062.255,1110.50
1063.194,1016.50
1064.132,1024.50
1065.073,1091.00
1066.011,1059.00
1066.951,1084.50
1067.889,1046.00
1068.829,1023.00
1069.767,1023.00
1070.705,983.50
1071.644,1035.00
1072.582,1071.00
1073.521,1020.50
1074.459,1040.50
1075.398,988.00
1076.335,1104.50
1077.272,1056.00
1078.211,1062.00
1079.148,1064.50
1080.087,1036.50
1081.023,1046.00
1081.962,1061.00
1082.898,1133.00
1083.835,1042.00
1084.773,1075.50
1085.709,1043.50
1086.647,1105.50
1087.583,1057.00
1088.519,1085.50
1089.457,1063.50
1090.392,1049.50
1091.330,1094.50
1092.266,1044.50
1093.203,1151.50
1094.138,1114.00
1095.073,1135.50
1096.010,1073.50
1096.945,1065.50
1097.882,1083.00
1098.817,1063.50
1099.752,1053.00
1100.688,1019.00
1101.623,1024.50
1102.559,1065.50
1103.493,1053.50
1104.430,1000.50
1105.364,1061.50
1106.298,1048.50
1107.234,1025.50
1108.167,1029.00
1109.094,1026.00
1110.019,1050.00
1110.945,1066.00
1111.869,1002.50
1112.795,1023.50
1113.720,1068.50
1114.646,1006.00
1115.571,1023.00
1116.495,1015.00
1117.420,1024.00
1118.345,1010.50
1119.270,1014.50
1120.195,990.50
1121.118,979.50
1122.042,1027.00
1122.967,963.50
1123.891,986.50
1124.816,943.50
1125.738,971.00
1126.663,944.00
1127.587,933.00
1128.511,929.50
1129.435,965.50
1130.357,974.50
1131.280,847.50
1132.204,898.50
1133.128,906.50
1134.051,914.50
1134.972,883.00
1135.896,904.00
1136.819,927.00
1137.742,871.00
1138.665,853.00
1139.586,906.00
1140.509,853.00
1141.431,878.50
1142.354,839.50
1143.276,825.50
1144.197,804.00
1145.119,856.50
1146.041,810.00
1146.964,815.50
1147.885,777.00
1148.806,841.00
1149.727,834.50
1150.649,828.00
1151.571,827.50
1152.492,855.00
1153.412,772.50
1154.333,838.00
1155.254,785.50
1156.175,804.00
1157.095,804.50
1158.016,769.50
1158.936,790.00
1159.857,804.50
1160.778,795.50
1161.697,785.00
1162.617,795.50
1163.537,776.50
1164.458,759.50
1165.376,775.00
1166.296,792.00
1167.216,814.50
1168.136,752.50
1169.056,770.00
1169.974,760.00
1170.893,787.50
1171.813,801.00
1172.732,717.50
1173.650,693.50
1174.569,724.50
1175.488,696.50
1176.407,755.00
1177.326,732.50
1178.243,711.00
1179.161,677.00
1180.080,739.00
1180.999,680.50
1181.915,653.00
1182.834,692.50
1183.752,712.00
1184.670,682.00
1185.586,737.00
1186.504,695.50
1187.422,674.50
1188.340,686.00
1189.258,672.50
1190.173,690.00
1191.091,687.50
1192.008,727.50
1192.926,664.00
1193.841,719.00
1194.758,732.50
1195.675,684.50
1196.592,707.50
1197.507,662.00
1198.424,643.00
1199.340,670.50
1200.257,686.50
1201.172,648.00
1202.088,681.50
1203.004,614.50
1203.920,609.50
1204.835,645.50
1205.750,720.00
1206.666,644.50
1207.582,650.50
1208.496,675.00
1209.412,649.00
1210.327,650.00
1211.243,629.00
1212.156,683.50
1213.071,654.00
1213.986,641.50
1214.901,687.00
1215.814,684.00
1216.729,651.50
1217.644,634.50
1218.559,653.50
1219.471,666.00
1220.386,628.50
1221.300,611.50
1222.213,664.50
1223.127,653.00
1224.041,646.50
1224.955,657.00
1225.867,644.50
1226.781,681.00
1227.694,682.50
1228.608,668.50
1229.520,641.50
1230.433,583.00
1231.346,659.50
1232.260,662.50
1233.171,631.00
1234.084,625.50
1234.997,658.00
1235.908,653.00
1236.821,696.00
1237.733,687.00
1238.646,627.00
1239.556,699.50
1240.469,663.50
1241.381,656.50
1242.293,605.50
1243.203,603.00
1244.115,576.00
1245.027,653.00
1245.937,624.00
1246.849,671.50
1247.761,638.00
1248.672,683.50
1249.582,678.50
1250.493,636.50
1251.404,642.00
1252.313,655.00
1253.225,614.50
1254.135,660.50
1255.046,667.50
1255.955,642.50
1256.866,709.00
1257.777,634.50
1258.685,654.50
1259.596,689.00
1260.506,597.50
1261.416,671.50
1262.324,618.50
1263.234,688.00
1264.144,634.00
1265.052,661.00
1265.962,683.00
1266.872,640.00
1267.779,640.00
1268.689,609.00
1269.598,629.50
1270.507,658.00
1271.415,651.50
1272.324,597.00
1273.233,672.50
1274.140,642.50
1275.048,606.00
1275.957,677.00
1276.864,646.00
1277.772,703.50
1278.681,616.50
1279.587,627.00
1280.496,638.00
1281.404,672.00
1282.312,686.00
1283.218,688.50
1284.126,649.50
1285.033,612.50
1285.939,702.50
1286.847,724.50
1287.754,683.50
1288.660,633.50
1289.567,648.50
1290.474,659.50
1291.380,653.50
1292.286,656.00
1293.193,659.50
1294.098,613.00
1295.005,611.00
1295.912,632.00
1296.816,624.50
1297.723,695.00
1298.629,627.00
1299.534,638.50
1300.440,607.50
1301.346,647.50
1302.250,621.50
1303.156,652.50
1304.062,625.50
1304.966,607.50
1305.871,644.00
1306.777,624.00
1307.680,669.00
1308.586,678.50
1309.491,600.50
1310.394,684.50
1311.299,635.00
1312.204,610.00
1313.107,571.00
1314.012,632.50
1314.917,604.00
1315.819,686.50
1316.724,608.50
1317.628,591.00
1318.531,577.50
1319.435,578.00
1320.339,584.00
1321.241,592.50
1322.145,554.50
1323.049,644.50
1323.951,588.00
1324.854,585.00
1325.756,620.00
1326.659,576.50
1327.563,528.50
1328.464,548.00
1329.367,644.50
1330.271,577.50
1331.172,542.50
1332.074,604.00
1332.977,591.00
1333.878,531.50
1334.781,584.00
1335.683,544.00
1336.584,590.00
1337.486,544.00
1338.387,572.50
1339.289,563.50
1340.191,565.00
1341.091,618.00
1341.993,547.50
1342.895,607.00
1343.794,563.50
1344.696,592.00
1345.596,507.50
1346.497,520.50
1347.398,567.00
1348.298,507.50
1349.199,546.00
1350.100,558.50
1350.999,527.50
1351.900,544.50
1352.799,540.00
1353.699,583.00
1354.600,554.50
1355.499,531.00
1356.399,518.50
1357.297,556.50
1358.198,545.00
1359.098,523.50
1359.996,511.50
1360.896,530.50
1361.796,450.00
1362.694,487.50
1363.593,505.50
1364.491,523.50
1365.391,484.50
1366.290,522.00
1367.187,516.50
1368.086,496.00
1368.984,506.50
1369.883,578.50
1370.782,464.50
1371.679,494.50
1372.577,518.00
1373.474,504.00
1374.373,538.00
1375.269,498.00
1376.168,493.00
1377.066,518.50
1377.962,435.00
1378.860,484.50
1379.756,486.00
1380.654,516.00
1381.552,461.00
1382.448,557.50
1383.346,529.50
1384.241,463.00
1385.139,559.00
1386.036,522.00
1386.931,482.50
1387.829,522.50
1388.724,524.00
1389.621,463.00
1390.516,523.50
1391.413,450.50
1392.309,408.50
1393.204,521.00
1394.101,522.00
1394.995,526.50
1395.891,487.00
1396.786,488.00
1397.682,543.50
1398.578,524.00
1399.472,434.50
1400.368,456.50
1401.262,442.50
1402.158,424.50
1403.051,469.50
1403.947,479.50
1404.840,456.00
1405.736,486.00
1406.631,476.50
1407.524,481.00
1408.419,524.00
1409.312,488.00
1410.207,523.50
1411.100,482.00
1411.995,479.00
1412.888,459.00
1413.782,464.50
1414.675,472.50
1415.569,458.00
1416.463,466.50
1417.355,451.00
1418.249,463.00
1419.141,488.50
1420.035,469.50
1420.927,465.00
1421.821,420.00
1422.713,448.00
1423.606,459.50
1424.498,448.50
1425.391,476.50
1426.282,492.00
1427.175,437.50
1428.068,464.50
1428.960,464.50
1429.852,460.50
1430.743,486.50
1431.636,456.50
1432.527,481.00
1433.419,414.50
1434.310,482.50
1435.202,476.00
1436.092,438.00
1436.984,459.00
1437.875,466.00
1438.767,462.50
1439.657,448.00
1440.548,449.00
1441.438,420.00
1442.330,441.50
1443.219,480.00
1444.111,404.00
1445.000,450.50
1445.891,457.50
1446.781,486.50
1447.672,450.00
1448.561,453.50
1449.452,432.00
1450.340,446.50
1451.231,459.00
1452.120,441.50
1453.010,470.00
1453.899,463.50
1454.789,454.50
1455.677,460.50
1456.568,436.00
1457.456,465.50
1458.346,472.50
1459.234,413.00
1460.123,443.50
1461.011,418.00
1461.901,413.00
1462.788,472.50
1463.678,398.00
1464.565,394.50
1465.454,396.50
1466.342,412.00
1467.231,441.00
1468.118,418.00
1469.006,424.50
1469.893,457.00
1470.782,404.50
1471.669,459.50
1472.557,428.50
1473.444,447.50
1474.330,413.00
1475.218,464.50
1476.105,389.00
1476.993,410.50
1477.879,471.00
1478.767,443.00
1479.652,459.00
1480.540,482.50
1481.426,426.00
1482.313,392.50
1483.199,398.50
1484.086,409.00
1484.972,390.00
1485.857,390.50
1486.744,399.50
1487.629,450.50
1488.516,398.50
1489.401,415.50
1490.287,397.50
1491.172,395.00
1492.058,393.50
1492.943,390.00
1493.828,437.50
1494.714,411.00
1495.598,386.50
1496.484,411.50
1497.368,407.50
1498.254,454.50
1499.138,425.00
1500.022,415.50
1500.907,463.50
1501.791,408.00
1502.676,442.00
1503.560,399.50
1504.445,410.50
1505.328,403.50
1506.211,414.50
1507.096,408.50
1507.979,376.00
1508.864,435.00
1509.747,390.00
1510.631,397.50
1511.514,434.50
1512.397,387.50
1513.281,459.50
1514.163,438.00
1515.047,408.50
1515.930,401.00
1516.812,427.00
1517.696,387.00
1518.578,371.50
1519.461,381.50
1520.343,394.50
1521.225,414.50
1522.108,460.00
1522.990,406.00
1523.873,340.50
1524.754,406.00
1525.635,360.50
1526.518,339.00
1527.399,364.50
1528.282,415.00
1529.163,410.50
1530.044,397.50
1530.926,358.00
1531.807,396.50
1532.689,400.00
1533.569,417.50
1534.450,343.00
1535.332,413.50
1536.212,408.50
1537.092,417.50
1537.974,385.50
1538.854,330.50
1539.735,361.50
1540.615,352.00
1541.495,392.00
1542.376,349.00
1543.255,338.50
1544.135,380.00
1545.016,415.00
1545.895,358.00
1546.774,332.00
1547.655,372.50
1548.534,419.00
1549.414,356.50
1550.293,372.50
1551.172,362.50
1552.052,398.00
1552.930,395.50
1553.809,375.00
1554.689,340.00
1555.567,380.00
1556.445,376.00
1557.325,374.50
1558.203,340.50
1559.080,396.50
1559.960,355.00
1560.838,431.00
1561.715,381.00
1562.594,339.00
1563.472,377.00
1564.349,406.00
1565.228,327.50
1566.105,385.00
1566.982,363.00
1567.861,401.50
1568.738,395.00
1569.615,302.50
1570.493,347.50
1571.370,372.50
1572.246,356.00
1573.124,319.00
1574.000,351.50
1574.877,351.50
1575.755,358.00
1576.631,296.50
1577.507,389.50
1578.384,334.00
1579.260,342.00
1580.136,378.00
1581.011,362.50
1581.889,371.00
1582.764,381.00
1583.639,381.50
1584.516,404.00
1585.391,372.00
1586.266,339.50
1587.143,355.50
1588.018,341.00
1588.893,385.50
1589.768,354.00
1590.644,388.00
1591.519,306.00
1592.393,335.50
1593.269,352.50
1594.143,338.00
1595.018,386.50
1595.892,362.00
1596.767,344.50
1597.641,323.50
1598.515,361.50
1599.391,342.00
1600.264,401.50
1601.138,363.50
1602.011,386.00
1602.886,367.00
1603.760,362.50
1604.633,329.00
1605.508,320.50
1606.381,346.50
1607.254,377.00
1608.127,335.00
1609.001,344.00
1609.874,262.00
1610.746,406.50
1611.619,390.00
1612.493,366.00
1613.365,367.50
1614.238,346.50
1615.110,351.50
1615.984,306.50
1616.855,341.00
1617.727,330.50
1618.599,361.00
1619.473,391.50
1620.344,298.00
1621.216,321.00
1622.087,315.00
1622.960,346.50
1623.832,339.00
1624.703,318.00
1625.574,347.00
1626.445,368.00
1627.317,337.50
1628.188,306.50
1629.059,369.00
1629.930,366.50
1630.802,355.50
1631.672,303.00
1632.543,348.00
1633.413,338.50
1634.283,329.00
1635.155,339.50
1636.025,418.00
1636.895,356.50
1637.765,368.00
1638.636,345.00
1639.506,381.00
1640.376,327.00
1641.245,319.50
1642.114,337.00
1642.985,352.00
1643.855,363.50
1644.724,359.50
1645.593,333.00
1646.462,336.50
1647.333,343.50
1648.201,317.00
1649.070,334.00
1649.939,362.00
1650.807,360.00
1651.676,345.50
1652.546,336.50
1653.414,327.00
1654.282,329.50
1655.150,352.00
1656.018,362.00
1656.888,344.00
1657.756,328.00
1658.623,343.50
1659.491,308.00
1660.359,339.00
1661.226,273.50
1662.095,299.00
1662.962,329.50
1663.830,342.50
1664.697,315.00
1665.564,346.00
1666.431,320.00
1667.297,344.00
1668.166,368.50
1669.033,300.50
1669.899,317.00
1670.766,343.50
1671.632,299.50
1672.499,297.00
1673.367,285.00
1674.233,348.00
1675.099,326.00
1675.965,317.50
1676.831,342.00
1677.696,296.00
1678.562,327.50
1679.430,314.00
1680.295,314.50
1681.161,330.50
1682.026,329.00
1682.891,159.00
1683.756,288.50
1684.621,276.50
1685.486,317.50
1686.353,310.50
1687.218,304.50
1688.083,310.50
1688.947,317.50
1689.812,333.00
1690.677,318.00
1691.541,335.50
1692.405,303.50
1693.269,359.50
1694.135,315.50
1694.999,291.50
1695.863,322.50
1696.727,325.50
1697.591,334.00
1698.455,379.50
1699.318,330.50
1700.182,327.50
1701.045,352.50
1701.909,275.00
1702.772,328.00
1703.637,347.50
1704.500,324.00
1705.363,317.50
1706.226,286.00
1707.089,314.50
1707.951,293.00
1708.814,281.50
1709.677,366.00
1710.539,304.50
1711.402,345.50
1712.264,304.00
1713.126,308.00
1713.988,313.00
1714.852,309.50
1715.714,292.50
1716.576,277.50
1717.438,286.00
1718.299,304.00
1719.161,367.50
1720.023,296.50
1720.884,317.50
1721.745,325.00
1722.607,314.00
1723.468,321.50
1724.329,313.00
1725.190,363.50
1726.051,304.50
1726.912,250.50
1727.772,294.50
1728.633,355.00
1729.494,333.50
1730.354,298.00
1731.214,301.00
1732.075,334.00
1732.935,260.50
1733.797,317.00
1734.657,344.00
1735.517,286.50
1736.377,329.50
1737.237,260.50
1738.096,336.00
1738.956,310.50
1739.816,297.50
1740.675,336.50
1741.534,273.00
1742.394,334.00
1743.253,308.50
1744.112,291.00
1744.971,335.50
1745.830,295.50
1746.689,345.50
1747.547,308.00
1748.406,341.00
1749.265,295.00
1750.123,337.00
1750.982,276.50
1751.840,301.00
1752.698,350.00
1753.556,305.50
1754.414,314.50
1755.272,277.00
1756.130,309.50
1756.988,300.00
1757.846,272.50
1758.703,312.00
1759.559,328.00
1760.417,281.00
1761.274,256.50
1762.131,275.50
1762.989,302.00
1763.846,314.50
1764.703,333.00
1765.560,319.00
1766.417,305.00
1767.273,310.50
1768.130,309.50
1768.987,281.00
1769.843,331.50
1770.700,246.50
1771.556,318.00
1772.412,271.00
1773.268,314.50
1774.125,296.00
1774.980,324.50
1775.836,270.00
1776.692,317.00
1777.546,275.00
1778.402,300.00
1779.257,291.50
1780.113,331.00
1780.968,312.00
1781.824,309.50
1782.679,310.50
1783.534,336.50
1784.389,275.50
1785.244,275.00
1786.099,337.50
1786.954,291.50
1787.808,350.00
1788.661,340.00
1789.516,362.00
1790.370,269.00
1791.225,272.50
1792.079,318.50
1792.933,245.00
1793.787,231.50
1794.641,337.00
1795.495,301.00
1796.349,323.00
1797.201,257.00
1798.055,300.00
1798.908,270.00
1799.762,241.00
1800.615,264.50
1801.469,257.00
1802.322,289.00
1803.175,311.00
1804.028,266.50
1804.880,255.50
1805.732,340.50
1806.585,280.50
1807.438,276.00
1808.291,278.00
1809.143,301.50
1809.996,272.00
1810.846,276.00
1811.699,286.50
1812.551,313.50
1813.403,283.50
1814.255,326.50
1815.107,303.00
1815.959,299.50
1816.809,252.50
1817.661,268.00
1818.512,313.50
1819.364,259.50
1820.215,260.00
1821.067,289.50
1821.918,259.00
1822.768,305.00
1823.619,278.50
1824.470,304.00
1825.321,273.50
1826.172,242.00
1827.021,292.50
1827.871,314.00
1828.722,272.00
1829.572,345.50
1830.423,246.50
1831.273,286.00
1832.122,290.50
1832.972,287.00
1833.822,243.50
1834.672,255.00
1835.522,264.50
1836.370,311.50
1837.220,302.50
1838.070,258.00
1838.919,262.50
1839.769,296.00
1840.616,339.50
1841.466,299.50
1842.315,278.50
1843.164,264.50
1844.013,298.50
1844.860,295.00
1845.709,266.50
1846.558,282.00
1847.407,261.00
1848.254,292.00
1849.102,330.00
1849.951,299.00
1850.799,293.50
1851.648,288.50
1852.494,253.00
1853.342,296.00
1854.190,252.50
1855.038,315.50
1855.884,273.00
1856.732,330.00
1857.580,316.00
1858.428,282.50
1859.273,306.00
1860.121,248.50
1860.968,227.50
1861.816,275.50
1862.661,248.00
1863.508,242.00
1864.355,247.00
1865.202,227.50
1866.047,307.00
1866.894,265.50
1867.741,238.50
1868.586,268.00
1869.432,237.50
1870.279,262.50
1871.125,281.00
1871.970,241.00
1872.816,314.00
1873.662,306.00
1874.506,249.00
1875.352,302.50
1876.198,275.50
1877.044,318.00
1877.888,310.50
1878.734,293.50
1879.579,313.50
1880.423,280.50
1881.268,276.00
1882.113,304.00
1882.959,266.00
1883.802,308.00
1884.647,304.00
1885.492,323.00
1886.335,257.50
1887.180,293.00
1888.025,261.50
1888.867,258.00
1889.712,283.00
1890.556,259.00
1891.399,263.50
1892.243,342.00
1893.087,318.00
1893.930,303.50
1894.774,270.00
1895.618,291.00
1896.460,291.00
1897.304,229.50
1898.147,263.00
1898.989,283.50
1899.833,268.00
1900.676,245.50
1901.518,269.00
1902.361,262.00
1903.202,345.50
1904.046,315.00
1904.889,244.00
1905.730,262.50
1906.573,252.00
1907.415,302.50
1908.256,246.50
1909.099,323.50
1909.941,303.50
1910.782,202.50
1911.624,261.50
1912.465,214.00
1913.307,216.50
1914.149,253.50
1914.989,303.50
1915.831,284.50
1916.671,290.50
1917.513,280.50
1918.355,258.00
1919.195,246.50
1920.036,309.00
1920.876,264.00
1921.717,250.00
1922.558,248.00
1923.398,286.00
1924.239,304.50
1925.078,253.00
1925.919,210.00
1926.760,266.00
1927.599,251.00
1928.440,217.50
1929.279,240.50
1930.119,243.50
1930.958,238.00
1931.798,289.00
1932.638,260.00
1933.477,280.00
1934.317,234.50
1935.155,305.50
1935.995,283.50
1936.833,257.00
1937.673,247.00
1938.512,339.00
1939.350,235.00
1940.190,291.50
1941.027,228.00
1941.867,243.00
1942.704,240.50
1943.543,320.00
1944.381,277.00
1945.220,265.00
1946.057,263.00
1946.896,279.00
1947.733,265.00
1948.572,234.00
1949.408,262.50
1950.247,250.50
1951.085,281.50
1951.922,312.50
1952.760,314.50
1953.597,267.50
1954.435,248.50
1955.271,272.00
1956.109,276.00
1956.945,237.00
1957.783,275.00
1958.619,283.00
1959.456,264.00
1960.292,220.00
1961.129,254.50
1961.965,252.00
1962.802,355.00
1963.638,293.00
1964.475,320.00
1965.310,308.00
1966.145,296.00
1966.982,301.00
1967.817,269.00
1968.654,293.00
1969.489,247.00
1970.325,242.50
1971.160,278.50
1971.996,251.50
1972.831,177.00
1973.667,246.00
1974.501,283.00
1975.337,264.50
1976.171,272.00
1977.006,273.00
1977.841,279.50
1978.675,289.00
1979.511,258.00
1980.345,271.50
1981.180,267.00
1982.014,225.50
1982.849,221.50
1983.682,312.00
1984.516,243.50
1985.351,295.50
1986.184,252.00
1987.019,307.50
1987.852,307.50
1988.687,289.00
1989.519,271.50
1990.352,303.50
1991.187,241.50
1992.019,227.00
1992.854,311.00
1993.686,255.50
1994.518,263.00
1995.352,244.00
1996.185,270.00
1997.019,249.00
1997.851,293.00
1998.682,270.50
1999.516,228.00
2000.348,261.00

<< BACKGROUND SPECTRUM >>
Wave[dcm-1],No26
96.716,2573.00
97.759,2339.00
98.802,2296.00
99.846,2922.00
100.886,2579.00
101.929,2730.00
102.972,2767.00
104.015,2628.00
105.057,2756.00
106.100,2190.00
107.142,2600.00
108.184,3002.00
109.226,2880.00
110.268,3053.00
111.310,3329.00
112.352,2904.00
113.393,2937.00
114.435,2820.00
115.476,3063.00
116.517,3147.00
117.558,2621.00
118.599,2959.00
119.640,3288.00
120.681,3251.00
121.722,3167.00
122.762,2874.00
123.803,2747.00
124.843,3160.00
125.883,3411.00
126.923,3551.00
127.963,3249.00
129.001,3587.00
130.041,4004.00
131.080,3278.00
132.120,3150.00
133.159,3511.00
134.199,3651.00
135.238,3165.00
136.277,3477.00
137.316,3701.00
138.355,3614.00
139.393,3195.00
140.432,3302.00
141.470,3398.00
142.509,3191.00
143.547,3792.00
144.585,2966.00
145.623,3420.00
146.661,3132.00
147.699,3486.00
148.736,3617.00
149.774,3240.00
150.811,3485.00
151.849,3893.00
152.886,3436.00
153.923,3635.00
154.960,3129.00
155.997,3863.00
157.034,4286.00
158.072,3548.00
159.109,4059.00
160.145,4194.00
161.182,3230.00
162.218,3493.00
163.254,3356.00
164.290,3279.00
165.326,4013.00
166.361,3901.00
167.397,3494.00
168.432,3729.00
169.468,3414.00
170.503,3687.00
171.538,3410.00
172.573,3741.00
173.608,3222.00
174.643,3756.00
175.677,3602.00
176.712,3772.00
177.746,3822.00
178.781,3305.00
179.815,2684.00
180.849,3780.00
181.883,3309.00
182.917,2813.00
183.951,3115.00
184.984,3837.00
186.020,3232.00
187.053,3626.00
188.087,3223.00
189.120,3495.00
190.153,3682.00
191.186,3701.00
192.219,3761.00
193.251,3655.00
194.284,3791.00
195.317,3828.00
196.349,10571.00
197.381,3434.00
198.413,3486.00
199.445,3262.00
200.477,3613.00
201.509,3511.00
202.543,3517.00
203.575,3928.00
204.606,3665.00
205.637,4342.00
206.669,3155.00
207.700,3719.00
208.731,3508.00
209.762,3223.00
210.792,3225.00
211.823,3667.00
212.854,3226.00
213.884,4385.00
214.914,3687.00
215.947,3567.00
216.977,3631.00
218.007,3585.00
219.037,3819.00
220.066,3375.00
221.096,3794.00
222.126,3163.00
223.155,3342.00
224.184,3763.00
225.214,4302.00
226.245,3892.00
227.274,3327.00
228.302,3696.00
229.331,3739.00
230.360,3429.00
231.388,3401.00
232.417,3211.00
233.445,3593.00
234.473,3374.00
235.501,3771.00
236.531,3751.00
237.559,3678.00
238.587,3278.00
239.614,3317.00
240.642,3590.00
241.669,3686.00
242.696,3689.00
243.724,3664.00
244.753,4034.00
245.780,3417.00
246.806,3241.00
247.833,3634.00
248.860,3476.00
249.886,3609.00
250.913,3239.00
251.939,3523.00
252.967,3457.00
253.993,3456.00
255.019,3939.00
256.045,3591.00
257.070,4078.00
258.096,3307.00
259.121,3681.00
260.147,3563.00
261.174,3483.00
262.199,3425.00
263.224,3582.00
264.249,3938.00
265.274,4099.00
266.298,3523.00
267.323,3631.00
268.349,3885.00
269.374,3196.00
270.398,3238.00
271.422,3707.00
272.446,3326.00
273.470,3119.00
274.496,3704.00
275.519,3740.00
276.543,3883.00
277.566,3896.00
278.589,3858.00
279.613,3756.00
280.636,3744.00
281.661,3818.00
282.684,3773.00
283.706,3964.00
284.729,4188.00
285.751,2993.00
286.774,3972.00
287.798,3398.00
288.820,3016.00
289.842,3325.00
290.864,3326.00
291.886,3612.00
292.910,3469.00
293.932,4040.00
294.953,3523.00
295.974,3512.00
296.996,3696.00
298.017,3574.00
299.040,3400.00
300.061,3671.00
301.082,3377.00
302.102,3216.00
303.123,3792.00
304.143,3532.00
305.166,3479.00
306.186,3751.00
307.206,3329.00
308.226,3757.00
309.246,3116.00
310.268,3830.00
311.288,3535.00
312.307,3179.00
313.327,3519.00
314.346,3776.00
315.368,3041.00
316.387,3642.00
317.406,3647.00
318.425,3543.00
319.443,3469.00
320.464,3131.00
321.483,4008.00
322.501,3330.00
323.520,3942.00
324.538,3395.00
325.558,4010.00
326.576,3616.00
327.594,3568.00
328.612,3373.00
329.629,3107.00
330.649,3780.00
331.666,3569.00
332.684,3093.00
333.701,3690.00
334.718,3178.00
335.737,3404.00
336.754,3746.00
337.771,3806.00
338.787,3152.00
339.806,3425.00
340.823,3424.00
341.839,3549.00
342.855,3461.00
343.871,3584.00
344.889,3343.00
345.905,3861.00
346.921,3747.00
347.937,4342.00
348.954,4180.00
349.970,3699.00
350.985,3575.00
352.000,3103.00
353.017,3752.00
354.032,3125.00
355.047,3827.00
356.062,3499.00
357.077,3391.00
358.093,3969.00
359.108,3726.00
360.122,3622.00
361.136,3454.00
362.152,3951.00
363.166,3259.00
364.180,3165.00
365.194,3973.00
366.210,3396.00
367.223,3307.00
368.237,3387.00
369.250,3571.00
370.265,3351.00
371.278,3893.00
372.291,3683.00
373.304,3030.00
374.319,3790.00
375.332,3799.00
376.344,4050.00
377.357,3434.00
378.371,3856.00
379.383,3332.00
380.395,4294.00
381.407,4056.00
382.421,3364.00
383.433,3440.00
384.445,3349.00
385.456,3513.00
386.470,3089.00
387.481,3977.00
388.492,3921.00
389.505,3227.00
390.516,3975.00
391.527,3506.00
392.538,3479.00
393.551,3695.00
394.561,4354.00
395.572,3679.00
396.582,3581.00
397.594,3750.00
398.604,3430.00
399.614,3580.00
400.624,3422.00
401.636,3443.00
402.646,3533.00
403.655,3161.00
404.667,3384.00
405.676,3372.00
406.685,4330.00
407.694,3887.00
408.705,3019.00
409.714,3088.00
410.723,3317.00
411.734,3289.00
412.742,3378.00
413.751,3631.00
414.759,3621.00
415.769,3534.00
416.777,3786.00
417.785,3537.00
418.795,3390.00
419.803,3563.00
420.811,3301.00
421.818,4004.00
422.828,3454.00
423.835,3392.00
424.842,3383.00
425.852,3271.00
426.859,3648.00
427.866,3733.00
428.874,3581.00
429.881,3511.00
430.888,3814.00
431.894,3588.00
432.902,3567.00
433.909,4502.00
434.915,3567.00
435.923,4281.00
436.929,3084.00
437.935,3526.00
438.942,3433.00
439.948,3522.00
440.953,4035.00
441.959,3216.00
442.966,3924.00
443.971,3730.00
444.976,3200.00
445.983,3650.00
446.988,3469.00
447.993,4029.00
448.999,3609.00
450.004,3553.00
451.008,3409.00
452.014,4042.00
453.019,3811.00
454.023,3235.00
455.029,3214.00
456.032,3998.00
457.036,3472.00
458.042,2922.00
459.045,3431.00
460.049,3728.00
461.052,4020.00
462.057,3720.00
463.060,4037.00
464.063,3386.00
465.068,3465.00
466.071,3309.00
467.073,3837.00
468.078,3142.00
469.080,3052.00
470.082,3530.00
471.087,3455.00
472.089,3586.00
473.091,3824.00
474.095,3993.00
475.096,3500.00
476.098,3382.00
477.101,3712.00
478.103,3268.00
479.104,4174.00
480.107,3421.00
481.108,3061.00
482.109,4229.00
483.112,4176.00
484.113,4609.00
485.114,3734.00
486.116,3615.00
487.117,3854.00
488.117,3616.00
489.119,3646.00
490.119,3752.00
491.121,3218.00
492.121,3060.00
493.121,2925.00
494.123,3557.00
495.122,3617.00
496.122,3549.00
497.123,4548.00
498.122,3342.00
499.121,3639.00
500.122,3571.00
501.121,3191.00
502.120,3132.00
503.121,3252.00
504.119,3206.00
505.118,3778.00
506.118,3318.00
507.117,3272.00
508.115,3729.00
509.115,3536.00
510.113,3117.00
511.112,3809.00
512.110,3417.00
513.108,3750.00
514.107,3912.00
515.105,3738.00
516.102,3939.00
517.101,3543.00
518.098,3604.00
519.095,4081.00
520.094,3389.00
521.091,3426.00
522.089,3734.00
523.086,3348.00
524.082,3658.00
525.081,3602.00
526.077,4752.00
527.073,4493.00
528.071,3493.00
529.067,3325.00
530.064,3392.00
531.060,3084.00
532.056,3406.00
533.053,3838.00
534.048,3739.00
535.044,3568.00
536.041,3648.00
537.036,3609.00
538.030,3697.00
539.027,3779.00
540.022,3132.00
541.019,3465.00
542.013,3727.00
543.007,3651.00
544.004,3475.00
544.998,3529.00
545.994,4094.00
546.988,3914.00
547.981,3410.00
548.977,4151.00
549.971,3723.00
550.964,3841.00
551.960,3629.00
552.953,3569.00
553.948,3799.00
554.941,3378.00
555.934,3202.00
556.929,3706.00
557.922,3283.00
558.916,3834.00
559.909,4033.00
560.901,3572.00
561.895,3616.00
562.888,3227.00
563.880,3712.00
564.874,3939.00
565.865,3781.00
566.859,3232.00
567.851,4055.00
568.842,3465.00
569.836,3578.00
570.827,3222.00
571.820,3592.00
572.811,3731.00
573.802,3522.00
574.795,3296.00
575.786,3857.00
576.779,3684.00
577.769,3194.00
578.760,3585.00
579.752,3217.00
580.742,3343.00
581.735,3640.00
582.725,3325.00
583.714,3802.00
584.706,3250.00
585.696,3526.00
586.688,3757.00
587.677,3490.00
588.667,3701.00
589.658,3481.00
590.647,3656.00
591.638,3586.00
592.627,3357.00
593.616,3070.00
594.607,3623.00
595.595,3548.00
596.586,3177.00
597.574,3847.00
598.562,3925.00
599.553,3154.00
600.541,3533.00
601.531,3670.00
602.519,3423.00
603.508,3663.00
604.496,3664.00
605.484,3623.00
606.473,3512.00
607.460,3366.00
608.450,3406.00
609.437,3697.00
610.424,3871.00
611.413,3116.00
612.400,3288.00
613.388,3613.00
614.375,3438.00
615.361,3379.00
616.350,3244.00
617.336,8464.00
618.324,3854.00
619.310,3348.00
620.298,3195.00
621.284,3692.00
622.270,3252.00
623.257,3589.00
624.243,3577.00
625.230,3726.00
626.216,3528.00
627.203,3921.00
628.188,3442.00
629.173,3367.00
630.160,3293.00
631.145,2693.00
632.131,3326.00
633.116,3184.00
634.102,3595.00
635.087,3778.00
636.071,3763.00
637.057,3340.00
638.041,3084.00
639.027,3206.00
640.011,3400.00
640.995,3231.00
641.980,3237.00
642.964,3425.00
643.949,3872.00
644.932,2769.00
645.918,3354.00
646.901,3523.00
647.886,3319.00
648.868,3392.00
649.851,3166.00
650.836,2960.00
651.818,3170.00
652.803,3703.00
653.785,3500.00
654.769,3672.00
655.751,3645.00
656.733,3897.00
657.717,3051.00
658.699,3517.00
659.683,3328.00
660.664,3159.00
661.648,3402.00
662.629,3323.00
663.611,3290.00
664.594,3041.00
665.575,3123.00
666.558,3416.00
667.539,3111.00
668.521,3368.00
669.502,3374.00
670.484,3302.00
671.465,3220.00
672.445,3422.00
673.427,3209.00
674.407,3257.00
675.390,3533.00
676.369,3316.00
677.351,2989.00
678.331,3602.00
679.312,3371.00
680.292,3267.00
681.271,2952.00
682.253,3527.00
683.232,3053.00
684.213,3251.00
685.192,3647.00
686.172,3920.00
687.151,3367.00
688.132,3442.00
689.110,3570.00
690.089,3735.00
691.069,2869.00
692.047,2814.00
693.027,2956.00
694.005,3380.00
694.985,3947.00
695.963,3519.00
696.943,3217.00
697.920,3001.00
698.898,3761.00
699.877,3607.00
700.854,3282.00
701.833,3231.00
702.810,3718.00
703.789,3458.00
704.766,4435.00
705.745,3917.00
706.721,3198.00
707.698,3717.00
708.676,3057.00
709.653,3222.00
710.631,3618.00
711.607,3389.00
712.585,3371.00
713.561,3087.00
714.539,3869.00
715.514,3269.00
716.492,3066.00
717.467,3814.00
718.443,3030.00
719.420,3682.00
720.395,3770.00
721.372,3508.00
722.347,3604.00
723.324,3224.00
724.298,3344.00
725.275,3101.00
726.250,3312.00
727.226,3145.00
728.200,2980.00
729.176,3320.00
730.151,3563.00
731.125,3797.00
732.100,2990.00
733.074,3329.00
734.050,3148.00
735.023,3071.00
735.999,3231.00
736.972,3192.00
737.947,3707.00
738.921,3393.00
739.896,3542.00
740.869,3438.00
741.841,3256.00
742.816,3791.00
743.789,3079.00
744.763,3113.00
745.736,3308.00
746.710,3204.00
747.682,3070.00
748.656,3283.00
749.628,3206.00
750.602,3297.00
751.574,3373.00
752.548,4189.00
753.519,3454.00
754.491,2921.00
755.464,3139.00
756.435,3943.00
757.408,3551.00
758.379,3440.00
759.352,2863.00
760.323,2995.00
761.296,3239.00
762.267,3351.00
763.239,3033.00
764.209,3566.00
765.182,4482.00
766.152,3614.00
767.124,3050.00
768.094,3110.00
769.064,3496.00
770.036,3001.00
771.005,3621.00
771.977,3157.00
772.947,3245.00
773.918,3700.00
774.887,3271.00
775.858,3115.00
776.827,3202.00
777.798,3234.00
778.767,3785.00
779.738,3234.00
780.707,3218.00
781.677,3345.00
782.646,3125.00
783.614,3674.00
784.584,3349.00
785.552,3481.00
786.522,2970.00
787.490,3255.00
788.460,3160.00
789.428,3135.00
790.397,3670.00
791.365,2977.00
792.334,3162.00
793.302,3349.00
794.271,3427.00
795.238,3164.00
796.207,3139.00
797.174,3569.00
798.143,2991.00
799.109,3627.00
800.076,3169.00
801.044,2830.00
802.011,3042.00
802.979,3103.00
803.945,3295.00
804.913,3871.00
805.879,3205.00
806.847,2929.00
807.813,3606.00
808.780,3231.00
809.746,3235.00
810.713,3687.00
811.678,2967.00
812.646,3164.00
813.611,3199.00
814.578,2970.00
815.543,3642.00
816.510,2830.00
817.474,3152.00
818.439,3206.00
819.405,3445.00
820.370,3108.00
821.336,2992.00
822.300,3385.00
823.266,3168.00
824.230,3470.00
825.196,3256.00
826.160,3601.00
827.126,3610.00
828.089,3972.00
829.055,3265.00
830.018,3348.00
830.983,4066.00
831.946,3028.00
832.911,3084.00
833.874,3830.00
834.837,3064.00
835.802,3172.00
836.765,3781.00
837.729,3112.00
838.691,3217.00
839.656,3548.00
840.618,3413.00
841.582,3494.00
842.544,3533.00
843.508,3739.00
844.470,2993.00
845.434,2822.00
846.395,2729.00
847.359,3182.00
848.320,2903.00
849.283,3030.00
850.245,3116.00
851.208,3530.00
852.169,3229.00
853.130,2990.00
854.092,3425.00
855.053,3228.00
856.016,3189.00
856.976,4326.00
857.938,3233.00
858.899,3286.00
859.861,2893.00
860.821,3131.00
861.783,2545.00
862.743,3227.00
863.704,3532.00
864.664,2723.00
865.626,3362.00
866.585,3074.00
867.546,3327.00
868.506,3332.00
869.467,2763.00
870.426,3281.00
871.387,3529.00
872.346,3491.00
873.304,3308.00
874.265,3418.00
875.223,3282.00
876.184,3274.00
877.142,3091.00
878.102,3216.00
879.060,3225.00
880.021,3317.00
880.978,2833.00
881.938,3179.00
882.896,3580.00
883.856,3379.00
884.813,3187.00
885.772,3174.00
886.730,3407.00
887.689,3396.00
888.646,3058.00
889.603,3586.00
890.562,3621.00
891.519,3350.00
892.477,3393.00
893.434,3261.00
894.392,2860.00
895.349,3263.00
896.307,3317.00
897.263,3431.00
898.221,3290.00
899.177,3100.00
900.135,3398.00
901.091,3194.00
902.048,3703.00
903.004,3184.00
903.961,2996.00
904.917,3173.00
905.874,3212.00
906.829,2919.00
907.784,3269.00
908.741,3256.00
909.696,3082.00
910.653,2777.00
911.607,3147.00
912.564,3147.00
913.518,3136.00
914.475,3277.00
915.429,4986.00
916.385,2922.00
917.339,3595.00
918.295,3365.00
919.249,3422.00
920.205,3301.00
921.158,3329.00
922.114,3135.00
923.067,3254.00
924.020,3272.00
924.976,3102.00
925.929,3374.00
926.884,3275.00
927.837,3521.00
928.791,3452.00
929.744,2924.00
930.699,3261.00
931.651,3246.00
932.606,2859.00
933.558,3112.00
934.512,3420.00
935.464,3311.00
936.418,3620.00
937.370,3375.00
938.322,2985.00
939.276,3165.00
940.227,3214.00
941.181,3277.00
942.132,3643.00
943.085,3831.00
944.036,2775.00
944.990,3517.00
945.941,2999.00
946.893,3090.00
947.844,2902.00
948.797,3366.00
949.747,3967.00
950.700,3102.00
951.650,2668.00
952.601,3344.00
953.553,2989.00
954.503,3434.00
955.455,3169.00
956.405,3225.00
957.356,2889.00
958.306,3502.00
959.258,3217.00
960.207,3630.00
961.158,3534.00
962.108,3251.00
963.059,2924.00
964.008,2855.00
964.959,3873.00
965.908,3140.00
966.856,2975.00
967.807,2793.00
968.756,3570.00
969.706,3251.00
970.654,3180.00
971.605,3187.00
972.553,3398.00
973.503,3188.00
974.451,3494.00
975.401,3253.00
976.348,3259.00
977.296,3116.00
978.246,3480.00
979.193,3621.00
980.142,2994.00
981.090,3278.00
982.039,3192.00
982.986,3304.00
983.935,3539.00
984.882,3301.00
985.830,3420.00
986.777,3344.00
987.725,3105.00
988.672,3026.00
989.618,3243.00
990.567,2969.00
991.513,3120.00
992.461,2986.00
993.407,3429.00
994.354,3331.00
995.300,3346.00
996.248,3288.00
997.193,3348.00
998.141,3119.00
999.086,3326.00
1000.031,3316.00
1000.978,2812.00
1001.924,3177.00
1002.870,3286.00
1003.815,2609.00
1004.762,2988.00
1005.707,3181.00
1006.653,3122.00
1007.598,3112.00
1008.542,2855.00
1009.488,2809.00
1010.432,3095.00
1011.378,2997.00
1012.322,3608.00
1013.268,2899.00
1014.212,3179.00
1015.157,3283.00
1016.101,3642.00
1017.046,2909.00
1017.990,2935.00
1018.933,3091.00
1019.878,3026.00
1020.821,3004.00
1021.766,2855.00
1022.709,3051.00
1023.654,3143.00
1024.596,3456.00
1025.541,3601.00
1026.483,3590.00
1027.425,3258.00
1028.370,3382.00
1029.312,3388.00
1030.256,3075.00
1031.198,3041.00
1032.141,3080.00
1033.083,3597.00
1034.027,3273.00
1034.968,3362.00
1035.910,2718.00
1036.853,3145.00
1037.794,3266.00
1038.738,2882.00
1039.679,3488.00
1040.621,3060.00
1041.562,3110.00
1042.503,3488.00
1043.446,2917.00
1044.386,3461.00
1045.329,3164.00
1046.269,3289.00
1047.211,3109.00
1048.151,3231.00
1049.093,2915.00
1050.033,3920.00
1050.973,3318.00
1051.915,3106.00
1052.854,3135.00
1053.796,3466.00
1054.735,3032.00
1055.677,3084.00
1056.616,3308.00
1057.555,3250.00
1058.496,2869.00
1059.435,3357.00
1060.376,3016.00
1061.315,3000.00
1062.255,2840.00
1063.194,3135.00
1064.132,2867.00
1065.073,3237.00
1066.011,3220.00
1066.951,3141.00
1067.889,2923.00
1068.829,3347.00
1069.767,3291.00
1070.705,2625.00
1071.644,3083.00
1072.582,2727.00
1073.521,3090.00
1074.459,3138.00
1075.398,3310.00
1076.335,2986.00
1077.272,3799.00
1078.211,3313.00
1079.148,3685.00
1080.087,3188.00
1081.023,3612.00
1081.962,3407.00
1082.898,2658.00
1083.835,3071.00
1084.773,2752.00
1085.709,2821.00
1086.647,3151.00
1087.583,3084.00
1088.519,3283.00
1089.457,3308.00
1090.392,2738.00
1091.330,3159.00
1092.266,3112.00
1093.203,3426.00
1094.138,2805.00
1095.073,3612.00
1096.010,3434.00
1096.945,3092.00
1097.882,2773.00
1098.817,2619.00
1099.752,3341.00
1100.688,3197.00
1101.623,3253.00
1102.559,3231.00
1103.493,3450.00
1104.430,2730.00
1105.364,2799.00
1106.298,3083.00
1107.234,3706.00
1108.167,2904.00
1109.094,3085.00
1110.019,3118.00
1110.945,3259.00
1111.869,3165.00
1112.795,3009.00
1113.720,3134.00
1114.646,3145.00
1115.571,2578.00
1116.495,3187.00
1117.420,3199.00
1118.345,2953.00
1119.270,3106.00
1120.195,3252.00
1121.118,3543.00
1122.042,3362.00
1122.967,3138.00
1123.891,3197.00
1124.816,3180.00
1125.738,3166.00
1126.663,2564.00
1127.587,3053.00
1128.511,2986.00
1129.435,3136.00
1130.357,3156.00
1131.280,4025.00
1132.204,2930.00
1133.128,2969.00
1134.051,3025.00
1134.972,3756.00
1135.896,3023.00
1136.819,3424.00
1137.742,2966.00
1138.665,3286.00
1139.586,3108.00
1140.509,2690.00
1141.431,2932.00
1142.354,3577.00
1143.276,3161.00
1144.197,3556.00
1145.119,3184.00
1146.041,2900.00
1146.964,3338.00
1147.885,3287.00
1148.806,3065.00
1149.727,3153.00
1150.649,2741.00
1151.571,3116.00
1152.492,3294.00
1153.412,3278.00
1154.333,3106.00
1155.254,2987.00
1156.175,3008.00
1157.095,3564.00
1158.016,3188.00
1158.936,2976.00
1159.857,3263.00
1160.778,3061.00
1161.697,2745.00
1162.617,3212.00
1163.537,3760.00
1164.458,3590.00
1165.376,2946.00
1166.296,3326.00
1167.216,3425.00
1168.136,2981.00
1169.056,2853.00
1169.974,3064.00
1170.893,3653.00
1171.813,3255.00
1172.732,3074.00
1173.650,3235.00
1174.569,3972.00
1175.488,3347.00
1176.407,2838.00
1177.326,2917.00
1178.243,3135.00
1179.161,3013.00
1180.080,3018.00
1180.999,3300.00
1181.915,3154.00
1182.834,2702.00
1183.752,3314.00
1184.670,3700.00
1185.586,2637.00
1186.504,2993.00
1187.422,3121.00
1188.340,2816.00
1189.258,3284.00
1190.173,3147.00
1191.091,3434.00
1192.008,2914.00
1192.926,3004.00
1193.841,3208.00
1194.758,3194.00
1195.675,2905.00
1196.592,3404.00
1197.507,2929.00
1198.424,3309.00
1199.340,3593.00
1200.257,3055.00
1201.172,3297.00
1202.088,2579.00
1203.004,3258.00
1203.920,3394.00
1204.835,3742.00
1205.750,3447.00
1206.666,3531.00
1207.582,2909.00
1208.496,2921.00
1209.412,3049.00
1210.327,2979.00
1211.243,3666.00
1212.156,2930.00
1213.071,2887.00
1213.986,3179.00
1214.901,2783.00
1215.814,2748.00
1216.729,2928.00
1217.644,2914.00
1218.559,2886.00
1219.471,3847.00
1220.386,3492.00
1221.300,2944.00
1222.213,3261.00
1223.127,3088.00
1224.041,3502.00
1224.955,2901.00
1225.867,3221.00
1226.781,3347.00
1227.694,3460.00
1228.608,3049.00
1229.520,3375.00
1230.433,3362.00
1231.346,2891.00
1232.260,3289.00
1233.171,2910.00
1234.084,3218.00
1234.997,3548.00
1235.908,2970.00
1236.821,3250.00
1237.733,4272.00
1238.646,3417.00
1239.556,3185.00
1240.469,3113.00
1241.381,2928.00
1242.293,2933.00
1243.203,3642.00
1244.115,3695.00
1245.027,3203.00
1245.937,3001.00
1246.849,3022.00
1247.761,3121.00
1248.672,2883.00
1249.582,3026.00
1250.493,3734.00
1251.404,3161.00
1252.313,3318.00
1253.225,3499.00
1254.135,4069.00
1255.046,3256.00
1255.955,3318.00
1256.866,3608.00
1257.777,3031.00
1258.685,2807.00
1259.596,2581.00
1260.506,3524.00
1261.416,3077.00
1262.324,3387.00
1263.234,3082.00
1264.144,3366.00
1265.052,3237.00
1265.962,3119.00
1266.872,3426.00
1267.779,3389.00
1268.689,2721.00
1269.598,2871.00
1270.507,3079.00
1271.415,2977.00
1272.324,3238.00
1273.233,3102.00
1274.140,3007.00
1275.048,2923.00
1275.957,2630.00
1276.864,2957.00
1277.772,2936.00
1278.681,2643.00
1279.587,2910.00
1280.496,3296.00
1281.404,3875.00
1282.312,3264.00
1283.218,2843.00
1284.126,2913.00
1285.033,3672.00
1285.939,3066.00
1286.847,3144.00
1287.754,3014.00
1288.660,2894.00
1289.567,3709.00
1290.474,3208.00
1291.380,3392.00
1292.286,2805.00
1293.193,3176.00
1294.098,3178.00
1295.005,2976.00
1295.912,3465.00
1296.816,3214.00
1297.723,3064.00
1298.629,2968.00
1299.534,3452.00
1300.440,3275.00
1301.346,2912.00
1302.250,2965.00
1303.156,2684.00
1304.062,3572.00
1304.966,3690.00
1305.871,3432.00
1306.777,2978.00
1307.680,3061.00
1308.586,3197.00
1309.491,3393.00
1310.394,3092.00
1311.299,3396.00
1312.204,3663.00
1313.107,3331.00
1314.012,3179.00
1314.917,2857.00
1315.819,3232.00
1316.724,3626.00
1317.628,3246.00
1318.531,3122.00
1319.435,3523.00
1320.339,5173.00
1321.241,3121.00
1322.145,3184.00
1323.049,3173.00
1323.951,2902.00
1324.854,2918.00
1325.756,3390.00
1326.659,3229.00
1327.563,2955.00
1328.464,3301.00
1329.367,3092.00
1330.271,3473.00
1331.172,2899.00
1332.074,3126.00
1332.977,2934.00
1333.878,3320.00
1334.781,3450.00
1335.683,2934.00
1336.584,3052.00
1337.486,2752.00
1338.387,3285.00
1339.289,2865.00
1340.191,2997.00
1341.091,3036.00
1341.993,2877.00
1342.895,2975.00
1343.794,3226.00
1344.696,3330.00
1345.596,3277.00
1346.497,2871.00
1347.398,3095.00
1348.298,2716.00
1349.199,3701.00
1350.100,2999.00
1350.999,3514.00
1351.900,3330.00
1352.799,3465.00
1353.699,3194.00
1354.600,3087.00
1355.499,3216.00
1356.399,2729.00
1357.297,3070.00
1358.198,3173.00
1359.098,2926.00
1359.996,2825.00
1360.896,3607.00
1361.796,3444.00
1362.694,3279.00
1363.593,3156.00
1364.491,3318.00
1365.391,3687.00
1366.290,3077.00
1367.187,2919.00
1368.086,3369.00
1368.984,3193.00
1369.883,2687.00
1370.782,3194.00
1371.679,3327.00
1372.577,3639.00
1373.474,3159.00
1374.373,3050.00
1375.269,3161.00
1376.168,3098.00
1377.066,3406.00
1377.962,3414.00
1378.860,3528.00
1379.756,3491.00
1380.654,3720.00
1381.552,3389.00
1382.448,3229.00
1383.346,3184.00
1384.241,3302.00
1385.139,3345.00
1386.036,3035.00
1386.931,2739.00
1387.829,3181.00
1388.724,3353.00
1389.621,3019.00
1390.516,3151.00
1391.413,3059.00
1392.309,2951.00
1393.204,3422.00
1394.101,3303.00
1394.995,3299.00
1395.891,3318.00
1396.786,2902.00
1397.682,3057.00
1398.578,3195.00
1399.472,3487.00
1400.368,3164.00
1401.262,3148.00
1402.158,3347.00
1403.051,3075.00
1403.947,3030.00
1404.840,3405.00
1405.736,3364.00
1406.631,2903.00
1407.524,3571.00
1408.419,3156.00
1409.312,3023.00
1410.207,3237.00
1411.100,3006.00
1411.995,2991.00
1412.888,3329.00
1413.782,2814.00
1414.675,3499.00
1415.569,2904.00
1416.463,3078.00
1417.355,3111.00
1418.249,2953.00
1419.141,3195.00
1420.035,3253.00
1420.927,3101.00
1421.821,3511.00
1422.713,3010.00
1423.606,3282.00
1424.498,3187.00
1425.391,3734.00
1426.282,2931.00
1427.175,3105.00
1428.068,2637.00
1428.960,3207.00
1429.852,3249.00
1430.743,2850.00
1431.636,3147.00
1432.527,3419.00
1433.419,3343.00
1434.310,3307.00
1435.202,2921.00
1436.092,3114.00
1436.984,3075.00
1437.875,3534.00
1438.767,3127.00
1439.657,2955.00
1440.548,3308.00
1441.438,3271.00
1442.330,3257.00
1443.219,3058.00
1444.111,3435.00
1445.000,2964.00
1445.891,2855.00
1446.781,2899.00
1447.672,3189.00
1448.561,3503.00
1449.452,3305.00
1450.340,2895.00
1451.231,2927.00
1452.120,2891.00
1453.010,3374.00
1453.899,2995.00
1454.789,3307.00
1455.677,3518.00
1456.568,3179.00
1457.456,3141.00
1458.346,3159.00
1459.234,3243.00
1460.123,3476.00
1461.011,3171.00
1461.901,3523.00
1462.788,3531.00
1463.678,3327.00
1464.565,3173.00
1465.454,3098.00
1466.342,3263.00
1467.231,2502.00
1468.118,3426.00
1469.006,3563.00
1469.893,2860.00
1470.782,3306.00
1471.669,3445.00
1472.557,3424.00
1473.444,3178.00
1474.330,3361.00
1475.218,3497.00
1476.105,3114.00
1476.993,3193.00
1477.879,3340.00
1478.767,3082.00
1479.652,2895.00
1480.540,3172.00
1481.426,3334.00
1482.313,3324.00
1483.199,3556.00
1484.086,3406.00
1484.972,2896.00
1485.857,2864.00
1486.744,3268.00
1487.629,2733.00
1488.516,3056.00
1489.401,3381.00
1490.287,3184.00
1491.172,2772.00
1492.058,3118.00
1492.943,2965.00
1493.828,2942.00
1494.714,3341.00
1495.598,3564.00
1496.484,3992.00
1497.368,2815.00
1498.254,3093.00
1499.138,3166.00
1500.022,3144.00
1500.907,3288.00
1501.791,3914.00
1502.676,3147.00
1503.560,3021.00
1504.445,3685.00
1505.328,3304.00
1506.211,3560.00
1507.096,3114.00
1507.979,3483.00
1508.864,3087.00
1509.747,3336.00
1510.631,3224.00
1511.514,3313.00
1512.397,3415.00
1513.281,3603.00
1514.163,3368.00
1515.047,3037.00
1515.930,2894.00
1516.812,3170.00
1517.696,3346.00
1518.578,3145.00
1519.461,3242.00
1520.343,3672.00
1521.225,2984.00
1522.108,3053.00
1522.990,3487.00
1523.873,3601.00
1524.754,2785.00
1525.635,2661.00
1526.518,3335.00
1527.399,3138.00
1528.282,3166.00
1529.163,3282.00
1530.044,3166.00
1530.926,2862.00
1531.807,2933.00
1532.689,3221.00
1533.569,2932.00
1534.450,4225.00
1535.332,3329.00
1536.212,3055.00
1537.092,3419.00
1537.974,2864.00
1538.854,3154.00
1539.735,3714.00
1540.615,3366.00
1541.495,2931.00
1542.376,3601.00
1543.255,2933.00
1544.135,3141.00
1545.016,3217.00
1545.895,2983.00
1546.774,3415.00
1547.655,2727.00
1548.534,3135.00
1549.414,3102.00
1550.293,2826.00
1551.172,3234.00
1552.052,3143.00
1552.930,3019.00
1553.809,3660.00
1554.689,3093.00
1555.567,3088.00
1556.445,3034.00
1557.325,3491.00
1558.203,2828.00
1559.080,3158.00
1559.960,3104.00
1560.838,3793.00
1561.715,3095.00
1562.594,3473.00
1563.472,3349.00
1564.349,3317.00
1565.228,2767.00
1566.105,2911.00
1566.982,3223.00
1567.861,3391.00
1568.738,3095.00
1569.615,2803.00
1570.493,3043.00
1571.370,3066.00
1572.246,2606.00
1573.124,3178.00
1574.000,3114.00
1574.877,3410.00
1575.755,3057.00
1576.631,2984.00
1577.507,3529.00
1578.384,3564.00
1579.260,3280.00
1580.136,3734.00
1581.011,3157.00
1581.889,3139.00
1582.764,3148.00
1583.639,3445.00
1584.516,3289.00
1585.391,3038.00
1586.266,3219.00
1587.143,3633.00
1588.018,3322.00
1588.893,3519.00
1589.768,3917.00
1590.644,3846.00
1591.519,2943.00
1592.393,3333.00
1593.269,3431.00
1594.143,2974.00
1595.018,3120.00
1595.892,3030.00
1596.767,2679.00
1597.641,2714.00
1598.515,2853.00
1599.391,3309.00
1600.264,3009.00
1601.138,2950.00
1602.011,2532.00
1602.886,3683.00
1603.760,3458.00
1604.633,3479.00
1605.508,3377.00
1606.381,3220.00
1607.254,3174.00
1608.127,3289.00
1609.001,2942.00
1609.874,3527.00
1610.746,3381.00
1611.619,3172.00
1612.493,3382.00
1613.365,2965.00
1614.238,3230.00
1615.110,3206.00
1615.984,3184.00
1616.855,2989.00
1617.727,3403.00
1618.599,3008.00
1619.473,3452.00
1620.344,2557.00
1621.216,3198.00
1622.087,3230.00
1622.960,3212.00
1623.832,3149.00
1624.703,3310.00
1625.574,3377.00
1626.445,3177.00
1627.317,3208.00
1628.188,3458.00
1629.059,3080.00
1629.930,3498.00
1630.802,3123.00
1631.672,3376.00
1632.543,3276.00
1633.413,3164.00
1634.283,3653.00
1635.155,3246.00
1636.025,3221.00
1636.895,3204.00
1637.765,2697.00
1638.636,3143.00
1639.506,3296.00
1640.376,3930.00
1641.245,3120.00
1642.114,3214.00
1642.985,2627.00
1643.855,2917.00
1644.724,3061.00
1645.593,3337.00
1646.462,3328.00
1647.333,3199.00
1648.201,3091.00
1649.070,3239.00
1649.939,3318.00
1650.807,2936.00
1651.676,3378.00
1652.546,3382.00
1653.414,3479.00
1654.282,3177.00
1655.150,3033.00
1656.018,3145.00
1656.888,3812.00
1657.756,3211.00
1658.623,2806.00
1659.491,2750.00
1660.359,3539.00
1661.226,3077.00
1662.095,3375.00
1662.962,3048.00
1663.830,3112.00
1664.697,3011.00
1665.564,3162.00
1666.431,3314.00
1667.297,2893.00
1668.166,2877.00
1669.033,2762.00
1669.899,3049.00
1670.766,2833.00
1671.632,3063.00
1672.499,3518.00
1673.367,3228.00
1674.233,3382.00
1675.099,3178.00
1675.965,2882.00
1676.831,3060.00
1677.696,3516.00
1678.562,4893.00
1679.430,2748.00
1680.295,2869.00
1681.161,2952.00
1682.026,2948.00
1682.891,3191.00
1683.756,3132.00
1684.621,3239.00
1685.486,3220.00
1686.353,3176.00
1687.218,3334.00
1688.083,3185.00
1688.947,3474.00
1689.812,3104.00
1690.677,3020.00
1691.541,3236.00
1692.405,2526.00
1693.269,3628.00
1694.135,3349.00
1694.999,3221.00
1695.863,3689.00
1696.727,3000.00
1697.591,3036.00
1698.455,3234.00
1699.318,2999.00
1700.182,4410.00
1701.045,3181.00
1701.909,3245.00
1702.772,3645.00
1703.637,3014.00
1704.500,2733.00
1705.363,3430.00
1706.226,3254.00
1707.089,3302.00
1707.951,3317.00
1708.814,3903.00
1709.677,3880.00
1710.539,3444.00
1711.402,3392.00
1712.264,3159.00
1713.126,3083.00
1713.988,3441.00
1714.852,3424.00
1715.714,2593.00
1716.576,2779.00
1717.438,3434.00
1718.299,2726.00
1719.161,3508.00
1720.023,3143.00
1720.884,3606.00
1721.745,3129.00
1722.607,3085.00
1723.468,2676.00
1724.329,3419.00
1725.190,3136.00
1726.051,3370.00
1726.912,3106.00
1727.772,3257.00
1728.633,3107.00
1729.494,3232.00
1730.354,3465.00
1731.214,2904.00
1732.075,2987.00
1732.935,3054.00
1733.797,3040.00
1734.657,3655.00
1735.517,3868.00
1736.377,3443.00
1737.237,3181.00
1738.096,3824.00
1738.956,3098.00
1739.816,3104.00
1740.675,3115.00
1741.534,2662.00
1742.394,3205.00
1743.253,2949.00
1744.112,3200.00
1744.971,2998.00
1745.830,3313.00
1746.689,3319.00
1747.547,3387.00
1748.406,2784.00
1749.265,3049.00
1750.123,3055.00
1750.982,3387.00
1751.840,3139.00
1752.698,3216.00
1753.556,3027.00
1754.414,3162.00
1755.272,3131.00
1756.130,3195.00
1756.988,3149.00
1757.846,3395.00
1758.703,3013.00
1759.559,3446.00
1760.417,2902.00
1761.274,3846.00
1762.131,3582.00
1762.989,3691.00
1763.846,3584.00
1764.703,3252.00
1765.560,3736.00
1766.417,3229.00
1767.273,2930.00
1768.130,3136.00
1768.987,3073.00
1769.843,3413.00
1770.700,3578.00
1771.556,3069.00
1772.412,3589.00
1773.268,3090.00
1774.125,3526.00
1774.980,3209.00
1775.836,3511.00
1776.692,3106.00
1777.546,3029.00
1778.402,3365.00
1779.257,3246.00
1780.113,2975.00
1780.968,3264.00
1781.824,3467.00
1782.679,2814.00
1783.534,3009.00
1784.389,3651.00
1785.244,3361.00
1786.099,3114.00
1786.954,3440.00
1787.808,3179.00
1788.661,3187.00
1789.516,3571.00
1790.370,3221.00
1791.225,3085.00
1792.079,2802.00
1792.933,3959.00
1793.787,3367.00
1794.641,3215.00
1795.495,3142.00
1796.349,3221.00
1797.201,3063.00
1798.055,3007.00
1798.908,3187.00
1799.762,3621.00
1800.615,3430.00
1801.469,3451.00
1802.322,3574.00
1803.175,3018.00
1804.028,2806.00
1804.880,3760.00
1805.732,3334.00
1806.585,3188.00
1807.438,3213.00
1808.291,2729.00
1809.143,2920.00
1809.996,2841.00
1810.846,4005.00
1811.699,3310.00
1812.551,3087.00
1813.403,3400.00
1814.255,3214.00
1815.107,3255.00
1815.959,3820.00
1816.809,3315.00
1817.661,3337.00
1818.512,3168.00
1819.364,3259.00
1820.215,3333.00
1821.067,2954.00
1821.918,3038.00
1822.768,3461.00
1823.619,3467.00
1824.470,3067.00
1825.321,3344.00
1826.172,3156.00
1827.021,3302.00
1827.871,3451.00
1828.722,3258.00
1829.572,3200.00
1830.423,3220.00
1831.273,3060.00
1832.122,3210.00
1832.972,3161.00
1833.822,2912.00
1834.672,3401.00
1835.522,3412.00
1836.370,2964.00
1837.220,3302.00
1838.070,2760.00
1838.919,2554.00
1839.769,2957.00
1840.616,3388.00
1841.466,3344.00
1842.315,2940.00
1843.164,3821.00
1844.013,3018.00
1844.860,2884.00
1845.709,2957.00
1846.558,3489.00
1847.407,2871.00
1848.254,3288.00
1849.102,3221.00
1849.951,2950.00
1850.799,2639.00
1851.648,3074.00
1852.494,3241.00
1853.342,3298.00
1854.190,3540.00
1855.038,3490.00
1855.884,3184.00
1856.732,4051.00
1857.580,3605.00
1858.428,3017.00
1859.273,2892.00
1860.121,2968.00
1860.968,4059.00
1861.816,3551.00
1862.661,3571.00
1863.508,3808.00
1864.355,3473.00
1865.202,3530.00
1866.047,3271.00
1866.894,3611.00
1867.741,3800.00
1868.586,3343.00
1869.432,3352.00
1870.279,3150.00
1871.125,3014.00
1871.970,3888.00
1872.816,3275.00
1873.662,2708.00
1874.506,3369.00
1875.352,3508.00
1876.198,3649.00
1877.044,3758.00
1877.888,3140.00
1878.734,3231.00
1879.579,3028.00
1880.423,2863.00
1881.268,3112.00
1882.113,3428.00
1882.959,3187.00
1883.802,3008.00
1884.647,3555.00
1885.492,3229.00
1886.335,3189.00
1887.180,3015.00
1888.025,3249.00
1888.867,2990.00
1889.712,3359.00
1890.556,2982.00
1891.399,3511.00
1892.243,3478.00
1893.087,3049.00
1893.930,3343.00
1894.774,3365.00
1895.618,3539.00
1896.460,2804.00
1897.304,3203.00
1898.147,3098.00
1898.989,2907.00
1899.833,3403.00
1900.676,3053.00
1901.518,3503.00
1902.361,3572.00
1903.202,3066.00
1904.046,3011.00
1904.889,3175.00
1905.730,3134.00
1906.573,2921.00
1907.415,3261.00
1908.256,3626.00
1909.099,3307.00
1909.941,3336.00
1910.782,3374.00
1911.624,3038.00
1912.465,3472.00
1913.307,3331.00
1914.149,2956.00
1914.989,3480.00
1915.831,3141.00
1916.671,3616.00
1917.513,3155.00
1918.355,3309.00
1919.195,3473.00
1920.036,3279.00
1920.876,3217.00
1921.717,3391.00
1922.558,3255.00
1923.398,3250.00
1924.239,3218.00
1925.078,3563.00
1925.919,2942.00
1926.760,3331.00
1927.599,3105.00
1928.440,3476.00
1929.279,3242.00
1930.119,3705.00
1930.958,3151.00
1931.798,3207.00
1932.638,3116.00
1933.477,3220.00
1934.317,3015.00
1935.155,3039.00
1935.995,3355.00
1936.833,3053.00
1937.673,3036.00
1938.512,3603.00
1939.350,2839.00
1940.190,3134.00
1941.027,3155.00
1941.867,3105.00
1942.704,3210.00
1943.543,3191.00
1944.381,3376.00
1945.220,3599.00
1946.057,3291.00
1946.896,3513.00
1947.733,3255.00
1948.572,3021.00
1949.408,3586.00
1950.247,3350.00
1951.085,3395.00
1951.922,3518.00
1952.760,2982.00
1953.597,3600.00
1954.435,2601.00
1955.271,3398.00
1956.109,3100.00
1956.945,2845.00
1957.783,3376.00
1958.619,3031.00
1959.456,3189.00
1960.292,3332.00
1961.129,3574.00
1961.965,3753.00
1962.802,2958.00
1963.638,2991.00
1964.475,3217.00
1965.310,3225.00
1966.145,3243.00
1966.982,3009.00
1967.817,2939.00
1968.654,3203.00
1969.489,3023.00
1970.325,3282.00
1971.160,2978.00
1971.996,3395.00
1972.831,3479.00
1973.667,3119.00
1974.501,3648.00
1975.337,3493.00
1976.171,3138.00
1977.006,3515.00
1977.841,3119.00
1978.675,3481.00
1979.511,3867.00
1980.345,2985.00
1981.180,3454.00
1982.014,3250.00
1982.849,2971.00
1983.682,3067.00
1984.516,3094.00
1985.351,2801.00
1986.184,2721.00
1987.019,2698.00
1987.852,2499.00
1988.687,2737.00
1989.519,2978.00
1990.352,3203.00
1991.187,2708.00
1992.019,3035.00
1992.854,3347.00
1993.686,2940.00
1994.518,3067.00
1995.352,2568.00
1996.185,2306.00
1997.019,2882.00
1997.851,2636.00
1998.682,2742.00
1999.516,2776.00
2000.348,2464.00
