RamanScope Measure Spectrum Data V3.72

<< MEASURE CONDITION >>
Exposure Type,Aver
Exposure Time [sec],20
Exposure Count,2
Measure Time,2024/02/15 20:37:53
Data Name,""
Data Comment,""
Rayleigh Wave[nm],532.0

<< SAMPLE SPECTRUM >>
Wave[dcm-1],No19
96.716,54.50
97.759,10.00
98.802,-19.50
99.846,2.00
100.886,-6.00
101.929,-7.00
102.972,42.50
104.015,-26.00
105.057,15.50
106.100,14.00
107.142,-0.50
108.184,-51.00
109.226,44.00
110.268,5.50
111.310,15.50
112.352,19.50
113.393,4.00
114.435,-21.50
115.476,-10.00
116.517,19.00
117.558,27.50
118.599,-6.50
119.640,24.50
120.681,112.00
121.722,-2.50
122.762,-14.00
123.803,22.00
124.843,5.00
125.883,16.00
126.923,30.00
127.963,24.00
129.001,-11.50
130.041,16.00
131.080,11.50
132.120,23.50
133.159,-30.50
134.199,16.50
135.238,23.50
136.277,33.00
137.316,29.00
138.355,-6.00
139.393,33.00
140.432,19.50
141.470,32.00
142.509,6.00
143.547,4.00
144.585,92.50
145.623,47.50
146.661,118.00
147.699,174.00
148.736,223.50
149.774,284.00
150.811,285.00
151.849,459.50
152.886,510.00
153.923,631.00
154.960,839.00
155.997,906.00
157.034,1149.50
158.072,1352.50
159.109,1545.50
160.145,1726.00
161.182,1973.00
162.218,2069.50
163.254,2281.00
164.290,2427.00
165.326,2572.50
166.361,2681.50
167.397,2735.00
168.432,2827.50
169.468,2993.50
170.503,3006.50
171.538,3055.00
172.573,3018.50
173.608,3115.50
174.643,3153.50
175.677,3215.50
176.712,3299.50
177.746,3317.00
178.781,3397.50
179.815,3439.50
180.849,3502.00
181.883,3573.50
182.917,3643.00
183.951,3673.50
184.984,3732.00
186.020,3705.00
187.053,3756.50
188.087,3735.50
189.120,3712.00
190.153,3701.50
191.186,3649.00
192.219,3648.50
193.251,3593.50
194.284,3554.50
195.317,3540.00
196.349,3681.00
197.381,3606.50
198.413,3581.50
199.445,3634.50
200.477,3654.00
201.509,3688.00
202.543,3676.00
203.575,3711.00
204.606,3677.50
205.637,3758.50
206.669,3775.00
207.700,3876.00
208.731,3826.50
209.762,3911.50
210.792,3910.00
211.823,3939.50
212.854,4040.00
213.884,4053.50
214.914,4100.50
215.947,4164.50
216.977,4274.50
218.007,4255.00
219.037,4311.00
220.066,4319.00
221.096,4465.00
222.126,4454.00
223.155,4572.50
224.184,4542.50
225.214,4620.50
226.245,4607.50
227.274,4618.50
228.302,4681.50
229.331,4608.50
230.360,4587.00
231.388,4593.00
232.417,4626.50
233.445,4527.00
234.473,4441.50
235.501,4427.00
236.531,4427.00
237.559,4382.00
238.587,4305.00
239.614,4218.50
240.642,4262.50
241.669,4184.50
242.696,4088.00
243.724,4130.50
244.753,4139.50
245.780,4125.00
246.806,4133.50
247.833,4035.50
248.860,4112.50
249.886,4076.00
250.913,4079.00
251.939,4143.00
252.967,4007.50
253.993,4066.50
255.019,4055.50
256.045,4122.50
257.070,4065.50
258.096,4128.00
259.121,4123.50
260.147,4153.00
261.174,4103.00
262.199,4106.50
263.224,4119.00
264.249,4130.00
265.274,4120.00
266.298,4102.50
267.323,4148.50
268.349,4212.00
269.374,4176.00
270.398,4291.00
271.422,4267.00
272.446,4263.50
273.470,4302.50
274.496,4288.50
275.519,4280.50
276.543,4375.50
277.566,4361.50
278.589,4444.00
279.613,4498.00
280.636,4493.00
281.661,4535.50
282.684,4510.50
283.706,4507.00
284.729,4519.00
285.751,4512.50
286.774,4550.00
287.798,4498.50
288.820,4462.50
289.842,4398.00
290.864,4376.50
291.886,4400.00
292.910,4419.50
293.932,4346.50
294.953,4270.00
295.974,4242.50
296.996,4192.50
298.017,4183.50
299.040,4139.00
300.061,4087.00
301.082,4108.00
302.102,4049.50
303.123,4039.50
304.143,3942.00
305.166,3914.50
306.186,3953.50
307.206,3837.50
308.226,3836.00
309.246,3810.50
310.268,3779.50
311.288,3766.50
312.307,3741.50
313.327,3668.00
314.346,3629.00
315.368,3666.50
316.387,3599.50
317.406,3579.00
318.425,3621.00
319.443,3678.00
320.464,3545.00
321.483,3575.50
322.501,3521.50
323.520,3549.50
324.538,3517.50
325.558,3493.50
326.576,3454.50
327.594,3505.00
328.612,3516.00
329.629,3580.50
330.649,3520.50
331.666,3529.50
332.684,3514.00
333.701,3408.50
334.718,3481.00
335.737,3478.50
336.754,3400.00
337.771,3360.50
338.787,3487.50
339.806,3437.00
340.823,3439.00
341.839,3416.00
342.855,3424.00
343.871,3474.00
344.889,3364.00
345.905,3355.00
346.921,3412.50
347.937,3342.50
348.954,3391.50
349.970,3405.00
350.985,3403.00
352.000,3383.00
353.017,3394.00
354.032,3391.00
355.047,3401.50
356.062,3381.50
357.077,3380.50
358.093,3330.50
359.108,3440.00
360.122,3329.50
361.136,3334.00
362.152,3380.00
363.166,3378.00
364.180,3353.50
365.194,3415.00
366.210,3405.00
367.223,3391.50
368.237,3287.00
369.250,3405.00
370.265,3320.50
371.278,3332.00
372.291,3344.50
373.304,3409.00
374.319,3408.50
375.332,3457.50
376.344,3378.00
377.357,3421.50
378.371,3374.50
379.383,3409.00
380.395,3397.00
381.407,3441.00
382.421,3428.50
383.433,3424.50
384.445,3497.00
385.456,3482.00
386.470,3428.50
387.481,3459.00
388.492,3450.00
389.505,3477.00
390.516,3454.00
391.527,3483.00
392.538,3424.50
393.551,3441.00
394.561,3516.00
395.572,3497.00
396.582,3483.00
397.594,3423.50
398.604,3422.00
399.614,3470.50
400.624,3477.00
401.636,3486.00
402.646,3432.00
403.655,3470.50
404.667,3443.00
405.676,3457.00
406.685,3537.50
407.694,3469.50
408.705,3351.50
409.714,3377.50
410.723,3370.50
411.734,3341.00
412.742,3312.50
413.751,3370.50
414.759,3354.00
415.769,3304.50
416.777,3327.50
417.785,3334.50
418.795,3295.50
419.803,3294.50
420.811,3220.50
421.818,3323.50
422.828,3211.00
423.835,3216.50
424.842,3230.00
425.852,3196.00
426.859,3237.50
427.866,3198.00
428.874,3193.50
429.881,3152.50
430.888,3283.00
431.894,3203.00
432.902,3175.00
433.909,3196.50
434.915,3161.50
435.923,3135.50
436.929,3125.50
437.935,3150.00
438.942,3107.00
439.948,3131.50
440.953,3083.50
441.959,3092.50
442.966,3095.00
443.971,3053.00
444.976,3073.00
445.983,3195.50
446.988,3107.50
447.993,3080.00
448.999,3101.00
450.004,3154.50
451.008,3178.00
452.014,3122.50
453.019,3092.50
454.023,3091.50
455.029,3010.00
456.032,3045.50
457.036,3077.50
458.042,3049.00
459.045,3034.00
460.049,3076.00
461.052,3074.50
462.057,3100.50
463.060,3090.00
464.063,3081.50
465.068,3064.00
466.071,3102.50
467.073,3063.00
468.078,3081.00
469.080,2964.50
470.082,3062.00
471.087,2963.50
472.089,3016.00
473.091,2982.00
474.095,3038.50
475.096,3043.50
476.098,3036.00
477.101,3090.00
478.103,3016.00
479.104,3005.50
480.107,3042.00
481.108,3050.50
482.109,3033.00
483.112,3041.00
484.113,3055.50
485.114,3017.00
486.116,3057.50
487.117,3077.00
488.117,3037.00
489.119,3054.00
490.119,3015.00
491.121,3007.50
492.121,2989.00
493.121,2970.00
494.123,3004.00
495.122,2987.00
496.122,3021.50
497.123,3098.00
498.122,3037.00
499.121,2989.00
500.122,2953.50
501.121,3023.00
502.120,2955.00
503.121,2924.50
504.119,2953.50
505.118,2947.00
506.118,2903.00
507.117,2975.50
508.115,2918.00
509.115,2935.50
510.113,2865.50
511.112,2909.50
512.110,2894.50
513.108,2940.50
514.107,2917.50
515.105,2862.50
516.102,2884.00
517.101,2882.50
518.098,2802.50
519.095,2842.00
520.094,2874.50
521.091,2802.00
522.089,2860.00
523.086,2824.50
524.082,2897.00
525.081,2897.50
526.077,2812.50
527.073,2894.00
528.071,2802.00
529.067,2876.00
530.064,2857.00
531.060,2891.00
532.056,2848.50
533.053,2867.00
534.048,2848.50
535.044,2859.00
536.041,2839.50
537.036,2844.00
538.030,2811.50
539.027,2823.00
540.022,2826.50
541.019,2860.50
542.013,2814.50
543.007,2836.00
544.004,2828.50
544.998,2790.00
545.994,2804.00
546.988,2838.50
547.981,2798.50
548.977,2823.00
549.971,2777.00
550.964,2799.00
551.960,2719.00
552.953,2783.00
553.948,2863.00
554.941,2776.00
555.934,2754.00
556.929,2807.50
557.922,2823.00
558.916,2767.50
559.909,2774.50
560.901,2775.50
561.895,2749.50
562.888,2753.00
563.880,2773.50
564.874,2751.00
565.865,2691.50
566.859,2685.00
567.851,2711.00
568.842,2673.00
569.836,2691.00
570.827,2757.00
571.820,2731.50
572.811,2729.50
573.802,2688.00
574.795,2694.50
575.786,2679.50
576.779,2669.00
577.769,2608.50
578.760,2678.50
579.752,2651.00
580.742,2637.50
581.735,2668.00
582.725,2600.00
583.714,2663.00
584.706,2677.50
585.696,2616.50
586.688,2613.50
587.677,2642.50
588.667,2639.00
589.658,2624.50
590.647,2587.00
591.638,2606.00
592.627,2575.50
593.616,2564.00
594.607,2541.00
595.595,2619.50
596.586,2513.50
597.574,2552.50
598.562,2530.50
599.553,2567.00
600.541,2550.00
601.531,2551.50
602.519,2525.50
603.508,2523.50
604.496,2522.50
605.484,2395.00
606.473,2496.50
607.460,2543.50
608.450,2490.00
609.437,2453.00
610.424,2446.00
611.413,2449.50
612.400,2461.50
613.388,2401.00
614.375,2385.00
615.361,2462.50
616.350,2417.00
617.336,2358.50
618.324,2406.50
619.310,2372.00
620.298,2330.00
621.284,2351.00
622.270,2347.50
623.257,2337.50
624.243,2284.00
625.230,2320.50
626.216,2291.00
627.203,2209.50
628.188,2231.00
629.173,2222.50
630.160,2237.50
631.145,2227.50
632.131,2087.00
633.116,2179.50
634.102,2182.50
635.087,2219.00
636.071,2158.00
637.057,2171.00
638.041,2126.00
639.027,2193.00
640.011,2155.50
640.995,2207.00
641.980,2103.50
642.964,2163.00
643.949,2069.00
644.932,2112.50
645.918,2116.00
646.901,2046.50
647.886,2097.00
648.868,2034.00
649.851,2053.00
650.836,2054.00
651.818,2037.50
652.803,2032.00
653.785,1999.50
654.769,2049.00
655.751,2002.50
656.733,2008.50
657.717,2003.50
658.699,1983.00
659.683,1926.50
660.664,1933.50
661.648,2002.00
662.629,1910.50
663.611,1910.50
664.594,1940.50
665.575,1918.50
666.558,2020.00
667.539,1911.50
668.521,1869.50
669.502,1881.50
670.484,1913.50
671.465,1861.00
672.445,1858.50
673.427,1873.50
674.407,1828.00
675.390,1857.50
676.369,1872.00
677.351,1916.00
678.331,1875.00
679.312,1829.00
680.292,1844.50
681.271,1808.50
682.253,1835.50
683.232,1860.50
684.213,1848.00
685.192,1823.00
686.172,1801.50
687.151,1860.50
688.132,1826.50
689.110,1813.00
690.089,1787.00
691.069,1795.50
692.047,1808.50
693.027,1761.50
694.005,1771.00
694.985,1745.00
695.963,1784.50
696.943,1730.50
697.920,1650.50
698.898,1657.50
699.877,1681.00
700.854,1684.50
701.833,1669.50
702.810,1712.00
703.789,1662.50
704.766,1716.00
705.745,1705.50
706.721,1653.00
707.698,1643.50
708.676,1699.50
709.653,1620.00
710.631,1604.00
711.607,1664.00
712.585,1627.50
713.561,1629.00
714.539,1647.00
715.514,1682.00
716.492,1617.50
717.467,1614.50
718.443,1683.00
719.420,1554.50
720.395,1600.00
721.372,1622.50
722.347,1592.00
723.324,1551.50
724.298,1567.50
725.275,1558.50
726.250,1622.00
727.226,1532.50
728.200,1541.00
729.176,1562.00
730.151,1526.00
731.125,1562.00
732.100,1566.50
733.074,1506.50
734.050,1512.00
735.023,1506.50
735.999,1543.50
736.972,1553.50
737.947,1513.50
738.921,1546.50
739.896,1505.50
740.869,1453.00
741.841,1485.00
742.816,1503.50
743.789,1468.50
744.763,1535.00
745.736,1523.00
746.710,1506.50
747.682,1473.50
748.656,1478.50
749.628,1427.00
750.602,1503.50
751.574,1513.00
752.548,1482.00
753.519,1470.50
754.491,1447.00
755.464,1472.00
756.435,1482.00
757.408,1413.50
758.379,1448.00
759.352,1380.50
760.323,1461.00
761.296,1474.50
762.267,1485.00
763.239,1432.50
764.209,1418.00
765.182,1372.00
766.152,1390.50
767.124,1368.50
768.094,1443.50
769.064,1396.50
770.036,1417.50
771.005,1358.00
771.977,1419.00
772.947,1400.00
773.918,1379.00
774.887,1424.50
775.858,1345.00
776.827,1413.00
777.798,1399.00
778.767,1414.00
779.738,1349.00
780.707,1373.00
781.677,1381.50
782.646,1343.00
783.614,1336.50
784.584,1371.50
785.552,1397.50
786.522,1303.50
787.490,1300.00
788.460,1360.50
789.428,1370.50
790.397,1313.50
791.365,1334.00
792.334,1320.00
793.302,1271.00
794.271,1321.50
795.238,1288.00
796.207,1296.00
797.174,1264.50
798.143,1253.00
799.109,1302.50
800.076,1273.50
801.044,1300.00
802.011,1296.50
802.979,1295.50
803.945,1297.00
804.913,1278.50
805.879,1249.00
806.847,1300.00
807.813,1248.00
808.780,1201.50
809.746,1252.50
810.713,1231.50
811.678,1258.50
812.646,1328.00
813.611,1250.00
814.578,1206.00
815.543,1264.00
816.510,1248.00
817.474,1255.00
818.439,1217.50
819.405,1210.00
820.370,1241.00
821.336,1204.00
822.300,1213.00
823.266,1184.50
824.230,1212.50
825.196,1213.00
826.160,1144.00
827.126,1252.00
828.089,1202.00
829.055,1222.50
830.018,1229.00
830.983,1192.00
831.946,1180.50
832.911,1206.50
833.874,1164.50
834.837,1247.00
835.802,1193.00
836.765,1242.50
837.729,1255.00
838.691,1239.00
839.656,1204.50
840.618,1241.00
841.582,1216.00
842.544,1179.00
843.508,1157.00
844.470,1201.00
845.434,1259.00
846.395,1174.00
847.359,1211.50
848.320,1186.50
849.283,1175.00
850.245,1231.50
851.208,1211.50
852.169,1205.00
853.130,1188.00
854.092,1228.50
855.053,1175.00
856.016,1233.50
856.976,1242.00
857.938,1251.50
858.899,1218.50
859.861,1285.00
860.821,1243.00
861.783,1234.50
862.743,1262.00
863.704,1217.50
864.664,1278.50
865.626,1326.00
866.585,1292.50
867.546,1246.50
868.506,1289.00
869.467,1270.50
870.426,1337.50
871.387,1258.50
872.346,1284.00
873.304,1329.50
874.265,1251.00
875.223,1337.50
876.184,1274.50
877.142,1353.00
878.102,1331.00
879.060,1271.50
880.021,1345.50
880.978,1279.00
881.938,1338.00
882.896,1292.00
883.856,1322.00
884.813,1299.00
885.772,1387.50
886.730,1356.00
887.689,1312.50
888.646,1345.00
889.603,1334.00
890.562,1304.00
891.519,1351.50
892.477,1391.00
893.434,1396.50
894.392,1363.00
895.349,1359.50
896.307,1390.50
897.263,1427.50
898.221,1326.50
899.177,1408.00
900.135,1382.00
901.091,1440.50
902.048,1387.00
903.004,1420.50
903.961,1405.00
904.917,1420.00
905.874,1464.50
906.829,1447.00
907.784,1438.00
908.741,1471.50
909.696,1453.50
910.653,1468.00
911.607,1380.00
912.564,1426.50
913.518,1450.00
914.475,1464.00
915.429,1453.00
916.385,1415.00
917.339,1437.50
918.295,1512.00
919.249,1468.50
920.205,1484.00
921.158,1452.50
922.114,1434.00
923.067,1496.00
924.020,1453.50
924.976,1494.50
925.929,1487.00
926.884,1491.00
927.837,1503.50
928.791,1479.00
929.744,1479.50
930.699,1513.50
931.651,1507.00
932.606,1552.00
933.558,1471.00
934.512,1463.00
935.464,1512.00
936.418,1438.50
937.370,1525.00
938.322,1476.00
939.276,1531.50
940.227,1466.00
941.181,1479.50
942.132,1492.50
943.085,1492.50
944.036,1492.50
944.990,1506.00
945.941,1550.50
946.893,1472.50
947.844,1465.50
948.797,1457.00
949.747,1472.50
950.700,1446.50
951.650,1475.50
952.601,1469.50
953.553,1483.00
954.503,1402.00
955.455,1520.50
956.405,1445.00
957.356,1467.00
958.306,1453.50
959.258,1437.00
960.207,1426.50
961.158,1396.50
962.108,1465.00
963.059,1436.00
964.008,1446.50
964.959,1455.50
965.908,1431.50
966.856,1369.00
967.807,1345.00
968.756,1407.50
969.706,1396.50
970.654,1363.50
971.605,1374.00
972.553,1368.50
973.503,1398.00
974.451,1318.50
975.401,1373.00
976.348,1392.50
977.296,1381.50
978.246,1403.00
979.193,1287.00
980.142,1370.50
981.090,1320.00
982.039,1385.50
982.986,1318.50
983.935,1353.50
984.882,1296.00
985.830,1304.50
986.777,1272.50
987.725,1263.50
988.672,1311.00
989.618,1280.00
990.567,1281.50
991.513,1256.00
992.461,1344.50
993.407,1297.00
994.354,1325.50
995.300,1282.50
996.248,1289.50
997.193,1284.50
998.141,1309.00
999.086,1332.50
1000.031,1291.00
1000.978,1231.50
1001.924,1267.50
1002.870,1262.00
1003.815,1222.00
1004.762,1278.50
1005.707,1255.50
1006.653,1223.50
1007.598,1248.00
1008.542,1248.50
1009.488,1211.00
1010.432,1199.50
1011.378,1196.00
1012.322,1232.00
1013.268,1208.50
1014.212,1200.50
1015.157,1208.00
1016.101,1200.00
1017.046,1157.50
1017.990,1207.50
1018.933,1292.50
1019.878,1240.00
1020.821,1144.00
1021.766,1266.50
1022.709,1242.50
1023.654,1209.00
1024.596,1110.00
1025.541,1211.00
1026.483,1191.00
1027.425,1188.00
1028.370,1227.50
1029.312,1188.50
1030.256,1193.50
1031.198,1204.50
1032.141,1199.00
1033.083,1170.50
1034.027,1167.00
1034.968,1187.00
1035.910,1118.50
1036.853,1169.50
1037.794,1195.50
1038.738,1200.50
1039.679,1207.50
1040.621,1158.00
1041.562,1161.00
1042.503,1207.00
1043.446,1150.00
1044.386,1161.00
1045.329,1161.50
1046.269,1214.50
1047.211,1132.00
1048.151,1116.50
1049.093,1165.50
1050.033,1107.00
1050.973,1168.50
1051.915,1143.00
1052.854,1168.50
1053.796,1156.00
1054.735,1108.50
1055.677,1090.50
1056.616,1137.50
1057.555,1115.50
1058.496,1157.50
1059.435,1110.00
1060.376,1124.00
1061.315,1172.00
1062.255,1135.50
1063.194,1107.50
1064.132,1116.00
1065.073,1172.50
1066.011,1170.50
1066.951,1156.00
1067.889,1102.50
1068.829,1142.00
1069.767,1106.50
1070.705,1129.50
1071.644,1153.50
1072.582,1147.00
1073.521,1129.50
1074.459,1118.00
1075.398,1064.00
1076.335,1162.00
1077.272,1106.00
1078.211,1121.50
1079.148,1079.50
1080.087,1135.50
1081.023,1165.00
1081.962,1125.00
1082.898,1146.50
1083.835,1139.00
1084.773,1129.00
1085.709,1116.00
1086.647,1121.50
1087.583,1149.00
1088.519,1147.50
1089.457,1118.00
1090.392,1081.00
1091.330,1083.00
1092.266,1138.00
1093.203,1116.50
1094.138,1112.50
1095.073,1157.50
1096.010,1087.50
1096.945,1120.00
1097.882,1154.50
1098.817,1054.50
1099.752,1140.00
1100.688,1132.50
1101.623,1143.00
1102.559,1077.50
1103.493,1111.00
1104.430,1112.00
1105.364,1089.50
1106.298,1073.50
1107.234,1125.00
1108.167,1093.50
1109.094,1112.50
1110.019,1100.50
1110.945,999.50
1111.869,1070.00
1112.795,1077.50
1113.720,1021.50
1114.646,967.00
1115.571,1021.50
1116.495,1045.00
1117.420,1002.50
1118.345,1065.00
1119.270,1052.50
1120.195,987.50
1121.118,1026.50
1122.042,947.00
1122.967,1001.50
1123.891,1013.00
1124.816,968.00
1125.738,998.00
1126.663,1008.00
1127.587,974.00
1128.511,1009.50
1129.435,984.50
1130.357,1021.00
1131.280,967.00
1132.204,984.00
1133.128,957.50
1134.051,941.50
1134.972,992.00
1135.896,981.00
1136.819,872.00
1137.742,847.00
1138.665,987.50
1139.586,981.00
1140.509,897.50
1141.431,891.50
1142.354,937.50
1143.276,881.00
1144.197,898.00
1145.119,977.50
1146.041,941.50
1146.964,883.00
1147.885,898.50
1148.806,945.50
1149.727,917.00
1150.649,852.50
1151.571,874.00
1152.492,892.50
1153.412,887.50
1154.333,863.00
1155.254,868.50
1156.175,877.00
1157.095,887.50
1158.016,877.50
1158.936,892.00
1159.857,917.50
1160.778,818.50
1161.697,871.50
1162.617,798.50
1163.537,864.00
1164.458,847.00
1165.376,864.00
1166.296,811.00
1167.216,877.00
1168.136,810.50
1169.056,856.50
1169.974,840.00
1170.893,896.00
1171.813,835.00
1172.732,905.00
1173.650,890.50
1174.569,877.00
1175.488,834.50
1176.407,759.00
1177.326,836.00
1178.243,831.00
1179.161,806.00
1180.080,764.50
1180.999,785.50
1181.915,836.00
1182.834,800.00
1183.752,880.00
1184.670,774.50
1185.586,801.50
1186.504,830.00
1187.422,798.50
1188.340,784.50
1189.258,815.00
1190.173,791.50
1191.091,733.00
1192.008,791.50
1192.926,821.50
1193.841,809.00
1194.758,758.50
1195.675,837.50
1196.592,796.50
1197.507,797.50
1198.424,805.00
1199.340,771.50
1200.257,780.50
1201.172,756.00
1202.088,832.50
1203.004,810.00
1203.920,792.50
1204.835,729.50
1205.750,764.00
1206.666,791.50
1207.582,788.00
1208.496,768.50
1209.412,833.50
1210.327,787.50
1211.243,812.00
1212.156,810.50
1213.071,763.00
1213.986,779.00
1214.901,757.00
1215.814,773.50
1216.729,748.00
1217.644,807.50
1218.559,794.00
1219.471,768.50
1220.386,752.00
1221.300,793.00
1222.213,771.00
1223.127,778.50
1224.041,823.00
1224.955,785.50
1225.867,822.50
1226.781,762.50
1227.694,763.00
1228.608,835.50
1229.520,789.00
1230.433,751.00
1231.346,799.00
1232.260,780.50
1233.171,814.50
1234.084,779.00
1234.997,836.00
1235.908,764.50
1236.821,752.00
1237.733,733.00
1238.646,798.00
1239.556,820.00
1240.469,740.50
1241.381,752.00
1242.293,739.50
1243.203,774.50
1244.115,787.00
1245.027,750.50
1245.937,843.00
1246.849,764.00
1247.761,797.00
1248.672,822.50
1249.582,820.50
1250.493,778.00
1251.404,801.00
1252.313,767.50
1253.225,741.00
1254.135,786.00
1255.046,799.00
1255.955,756.50
1256.866,795.00
1257.777,859.00
1258.685,792.00
1259.596,799.00
1260.506,786.00
1261.416,736.00
1262.324,811.00
1263.234,772.50
1264.144,804.00
1265.052,754.50
1265.962,746.00
1266.872,771.00
1267.779,754.00
1268.689,829.00
1269.598,827.00
1270.507,789.00
1271.415,808.50
1272.324,772.50
1273.233,761.00
1274.140,759.50
1275.048,740.00
1275.957,780.00
1276.864,789.50
1277.772,747.00
1278.681,774.50
1279.587,766.50
1280.496,784.00
1281.404,800.50
1282.312,788.50
1283.218,762.00
1284.126,797.50
1285.033,765.50
1285.939,831.50
1286.847,793.50
1287.754,774.00
1288.660,799.50
1289.567,761.50
1290.474,784.00
1291.380,797.50
1292.286,751.50
1293.193,793.00
1294.098,806.00
1295.005,807.00
1295.912,788.00
1296.816,794.50
1297.723,757.00
1298.629,742.00
1299.534,786.00
1300.440,760.00
1301.346,768.50
1302.250,767.50
1303.156,794.00
1304.062,726.00
1304.966,783.00
1305.871,686.00
1306.777,747.50
1307.680,786.50
1308.586,801.50
1309.491,792.00
1310.394,771.50
1311.299,762.00
1312.204,797.50
1313.107,780.50
1314.012,721.50
1314.917,791.00
1315.819,740.50
1316.724,680.50
1317.628,744.00
1318.531,732.50
1319.435,707.00
1320.339,747.00
1321.241,740.50
1322.145,773.00
1323.049,731.00
1323.951,713.00
1324.854,772.50
1325.756,741.00
1326.659,749.00
1327.563,687.50
1328.464,737.00
1329.367,759.50
1330.271,747.00
1331.172,689.50
1332.074,757.50
1332.977,692.50
1333.878,745.50
1334.781,714.00
1335.683,727.00
1336.584,690.00
1337.486,761.00
1338.387,662.50
1339.289,756.50
1340.191,667.00
1341.091,739.00
1341.993,706.50
1342.895,718.00
1343.794,682.50
1344.696,725.50
1345.596,651.00
1346.497,676.50
1347.398,719.00
1348.298,708.00
1349.199,722.50
1350.100,672.50
1350.999,673.00
1351.900,653.00
1352.799,641.50
1353.699,704.50
1354.600,646.50
1355.499,676.00
1356.399,677.00
1357.297,650.50
1358.198,641.00
1359.098,671.00
1359.996,696.50
1360.896,677.50
1361.796,727.50
1362.694,673.50
1363.593,647.50
1364.491,610.00
1365.391,607.50
1366.290,636.00
1367.187,612.50
1368.086,624.50
1368.984,661.50
1369.883,585.50
1370.782,619.50
1371.679,609.00
1372.577,658.00
1373.474,600.50
1374.373,578.00
1375.269,614.50
1376.168,596.00
1377.066,664.50
1377.962,643.50
1378.860,637.00
1379.756,662.00
1380.654,652.50
1381.552,608.00
1382.448,580.50
1383.346,629.00
1384.241,575.50
1385.139,625.00
1386.036,576.50
1386.931,646.50
1387.829,614.50
1388.724,595.50
1389.621,577.00
1390.516,648.00
1391.413,598.00
1392.309,547.50
1393.204,637.50
1394.101,589.00
1394.995,596.50
1395.891,591.00
1396.786,639.00
1397.682,572.00
1398.578,589.00
1399.472,583.50
1400.368,593.50
1401.262,502.00
1402.158,563.50
1403.051,631.00
1403.947,566.00
1404.840,574.00
1405.736,600.00
1406.631,591.50
1407.524,557.00
1408.419,616.50
1409.312,532.00
1410.207,592.50
1411.100,548.00
1411.995,569.00
1412.888,600.50
1413.782,546.00
1414.675,566.50
1415.569,581.00
1416.463,585.00
1417.355,535.00
1418.249,520.00
1419.141,540.00
1420.035,485.00
1420.927,517.00
1421.821,548.50
1422.713,577.50
1423.606,553.00
1424.498,612.00
1425.391,514.50
1426.282,551.00
1427.175,572.00
1428.068,638.50
1428.960,576.50
1429.852,569.00
1430.743,496.00
1431.636,563.50
1432.527,588.50
1433.419,558.00
1434.310,548.50
1435.202,553.00
1436.092,520.00
1436.984,574.00
1437.875,576.00
1438.767,561.00
1439.657,543.00
1440.548,554.00
1441.438,531.00
1442.330,562.00
1443.219,563.00
1444.111,563.50
1445.000,539.50
1445.891,556.00
1446.781,558.50
1447.672,477.00
1448.561,495.00
1449.452,544.50
1450.340,529.50
1451.231,530.50
1452.120,570.50
1453.010,521.50
1453.899,527.00
1454.789,518.00
1455.677,558.50
1456.568,533.50
1457.456,523.00
1458.346,512.50
1459.234,505.50
1460.123,525.00
1461.011,520.50
1461.901,515.50
1462.788,515.00
1463.678,535.50
1464.565,511.50
1465.454,552.00
1466.342,532.00
1467.231,568.00
1468.118,496.00
1469.006,522.50
1469.893,463.00
1470.782,507.00
1471.669,496.00
1472.557,522.50
1473.444,489.50
1474.330,462.50
1475.218,465.00
1476.105,476.50
1476.993,522.50
1477.879,567.50
1478.767,513.00
1479.652,488.50
1480.540,465.00
1481.426,466.50
1482.313,481.50
1483.199,537.50
1484.086,502.00
1484.972,501.50
1485.857,526.00
1486.744,404.50
1487.629,447.50
1488.516,514.00
1489.401,492.50
1490.287,476.50
1491.172,508.50
1492.058,461.50
1492.943,511.50
1493.828,470.50
1494.714,462.00
1495.598,432.00
1496.484,467.00
1497.368,469.00
1498.254,458.50
1499.138,468.50
1500.022,517.50
1500.907,451.50
1501.791,476.00
1502.676,494.50
1503.560,499.00
1504.445,539.50
1505.328,469.00
1506.211,477.00
1507.096,541.00
1507.979,487.00
1508.864,514.50
1509.747,465.50
1510.631,469.00
1511.514,423.00
1512.397,495.00
1513.281,469.50
1514.163,471.50
1515.047,488.50
1515.930,547.00
1516.812,460.50
1517.696,430.50
1518.578,448.00
1519.461,450.50
1520.343,450.00
1521.225,445.50
1522.108,509.00
1522.990,483.50
1523.873,443.50
1524.754,469.50
1525.635,492.50
1526.518,475.00
1527.399,470.50
1528.282,496.50
1529.163,484.00
1530.044,499.50
1530.926,514.00
1531.807,443.50
1532.689,464.50
1533.569,419.00
1534.450,494.50
1535.332,400.00
1536.212,437.50
1537.092,476.00
1537.974,421.00
1538.854,473.00
1539.735,450.50
1540.615,455.00
1541.495,427.50
1542.376,460.50
1543.255,360.50
1544.135,424.50
1545.016,411.00
1545.895,443.00
1546.774,437.00
1547.655,393.50
1548.534,444.00
1549.414,501.50
1550.293,448.00
1551.172,434.00
1552.052,440.00
1552.930,426.00
1553.809,460.50
1554.689,454.50
1555.567,459.00
1556.445,455.00
1557.325,449.50
1558.203,452.50
1559.080,445.00
1559.960,453.50
1560.838,461.50
1561.715,386.50
1562.594,428.50
1563.472,465.00
1564.349,419.00
1565.228,436.00
1566.105,440.50
1566.982,516.00
1567.861,375.00
1568.738,467.50
1569.615,434.50
1570.493,453.00
1571.370,391.00
1572.246,401.50
1573.124,385.00
1574.000,429.00
1574.877,458.50
1575.755,439.50
1576.631,468.50
1577.507,425.50
1578.384,459.50
1579.260,423.00
1580.136,496.00
1581.011,385.50
1581.889,408.50
1582.764,390.50
1583.639,445.00
1584.516,456.00
1585.391,402.50
1586.266,418.00
1587.143,418.00
1588.018,396.00
1588.893,404.00
1589.768,361.00
1590.644,457.50
1591.519,464.50
1592.393,426.00
1593.269,445.50
1594.143,444.00
1595.018,479.00
1595.892,499.50
1596.767,445.50
1597.641,393.50
1598.515,453.00
1599.391,439.00
1600.264,432.00
1601.138,430.00
1602.011,453.00
1602.886,453.50
1603.760,382.50
1604.633,401.50
1605.508,382.50
1606.381,398.50
1607.254,394.00
1608.127,433.50
1609.001,412.50
1609.874,418.00
1610.746,473.50
1611.619,363.50
1612.493,418.50
1613.365,434.00
1614.238,414.50
1615.110,447.00
1615.984,434.00
1616.855,398.50
1617.727,442.50
1618.599,421.50
1619.473,384.00
1620.344,387.50
1621.216,457.50
1622.087,384.00
1622.960,373.50
1623.832,404.50
1624.703,384.50
1625.574,392.00
1626.445,427.00
1627.317,389.00
1628.188,441.50
1629.059,381.00
1629.930,409.50
1630.802,390.00
1631.672,381.00
1632.543,401.00
1633.413,398.50
1634.283,407.50
1635.155,443.00
1636.025,416.00
1636.895,346.50
1637.765,387.00
1638.636,418.50
1639.506,367.00
1640.376,426.50
1641.245,359.50
1642.114,387.50
1642.985,382.00
1643.855,434.50
1644.724,365.00
1645.593,387.50
1646.462,429.00
1647.333,405.00
1648.201,414.50
1649.070,418.00
1649.939,382.50
1650.807,390.50
1651.676,399.50
1652.546,387.50
1653.414,463.50
1654.282,407.50
1655.150,398.00
1656.018,400.00
1656.888,394.50
1657.756,342.00
1658.623,388.50
1659.491,383.50
1660.359,425.50
1661.226,370.50
1662.095,373.00
1662.962,374.00
1663.830,312.00
1664.697,407.00
1665.564,370.50
1666.431,439.00
1667.297,331.50
1668.166,382.50
1669.033,362.00
1669.899,414.00
1670.766,414.50
1671.632,392.50
1672.499,369.50
1673.367,474.00
1674.233,414.00
1675.099,355.00
1675.965,322.50
1676.831,400.00
1677.696,367.00
1678.562,357.00
1679.430,402.00
1680.295,390.50
1681.161,371.50
1682.026,340.50
1682.891,378.00
1683.756,414.50
1684.621,386.50
1685.486,412.00
1686.353,388.50
1687.218,398.00
1688.083,373.00
1688.947,404.00
1689.812,366.50
1690.677,393.00
1691.541,382.00
1692.405,356.00
1693.269,392.50
1694.135,383.50
1694.999,386.00
1695.863,349.50
1696.727,391.50
1697.591,403.50
1698.455,411.50
1699.318,405.50
1700.182,379.50
1701.045,394.50
1701.909,385.00
1702.772,346.00
1703.637,376.00
1704.500,367.00
1705.363,322.50
1706.226,366.50
1707.089,415.00
1707.951,377.00
1708.814,332.50
1709.677,334.00
1710.539,403.00
1711.402,383.00
1712.264,369.00
1713.126,393.00
1713.988,349.00
1714.852,380.50
1715.714,334.50
1716.576,319.00
1717.438,381.00
1718.299,372.00
1719.161,380.50
1720.023,380.50
1720.884,382.50
1721.745,330.00
1722.607,361.00
1723.468,421.50
1724.329,388.00
1725.190,375.00
1726.051,364.50
1726.912,333.50
1727.772,332.50
1728.633,350.50
1729.494,359.50
1730.354,337.00
1731.214,354.50
1732.075,350.50
1732.935,356.00
1733.797,362.50
1734.657,393.50
1735.517,355.00
1736.377,345.00
1737.237,374.00
1738.096,358.00
1738.956,390.00
1739.816,374.00
1740.675,379.50
1741.534,429.50
1742.394,376.50
1743.253,350.50
1744.112,355.50
1744.971,421.00
1745.830,361.50
1746.689,369.50
1747.547,361.50
1748.406,363.00
1749.265,380.00
1750.123,368.00
1750.982,369.50
1751.840,409.00
1752.698,371.50
1753.556,342.00
1754.414,399.00
1755.272,329.00
1756.130,338.50
1756.988,334.00
1757.846,366.00
1758.703,407.50
1759.559,326.00
1760.417,378.00
1761.274,413.50
1762.131,311.50
1762.989,423.50
1763.846,361.00
1764.703,412.00
1765.560,361.00
1766.417,356.00
1767.273,388.50
1768.130,351.50
1768.987,365.50
1769.843,360.50
1770.700,416.50
1771.556,374.50
1772.412,332.00
1773.268,365.50
1774.125,380.00
1774.980,388.00
1775.836,346.50
1776.692,389.00
1777.546,358.50
1778.402,339.50
1779.257,387.00
1780.113,324.00
1780.968,371.50
1781.824,295.00
1782.679,356.50
1783.534,401.00
1784.389,354.50
1785.244,383.50
1786.099,377.00
1786.954,360.50
1787.808,331.50
1788.661,389.50
1789.516,331.00
1790.370,333.00
1791.225,370.00
1792.079,325.50
1792.933,282.50
1793.787,352.00
1794.641,398.00
1795.495,391.50
1796.349,396.00
1797.201,332.50
1798.055,417.50
1798.908,346.50
1799.762,316.00
1800.615,340.50
1801.469,291.50
1802.322,346.50
1803.175,365.50
1804.028,360.00
1804.880,302.50
1805.732,343.00
1806.585,356.50
1807.438,271.50
1808.291,313.50
1809.143,374.00
1809.996,352.00
1810.846,376.50
1811.699,337.00
1812.551,352.00
1813.403,350.00
1814.255,345.50
1815.107,308.00
1815.959,338.00
1816.809,303.00
1817.661,318.00
1818.512,345.50
1819.364,319.50
1820.215,345.50
1821.067,306.50
1821.918,346.00
1822.768,364.00
1823.619,340.00
1824.470,328.50
1825.321,326.00
1826.172,330.50
1827.021,355.50
1827.871,281.50
1828.722,321.00
1829.572,340.00
1830.423,310.50
1831.273,305.00
1832.122,292.50
1832.972,351.50
1833.822,313.00
1834.672,277.50
1835.522,342.00
1836.370,373.00
1837.220,324.50
1838.070,273.00
1838.919,317.00
1839.769,339.00
1840.616,323.50
1841.466,347.50
1842.315,271.50
1843.164,356.50
1844.013,315.50
1844.860,349.50
1845.709,320.00
1846.558,306.50
1847.407,302.00
1848.254,355.50
1849.102,328.00
1849.951,335.00
1850.799,293.50
1851.648,305.50
1852.494,360.00
1853.342,333.00
1854.190,367.00
1855.038,311.00
1855.884,396.50
1856.732,315.00
1857.580,350.00
1858.428,311.00
1859.273,358.00
1860.121,325.00
1860.968,366.00
1861.816,371.50
1862.661,335.50
1863.508,322.50
1864.355,356.00
1865.202,323.00
1866.047,358.00
1866.894,364.00
1867.741,362.50
1868.586,366.00
1869.432,386.50
1870.279,287.50
1871.125,299.00
1871.970,402.00
1872.816,371.00
1873.662,355.00
1874.506,327.00
1875.352,296.00
1876.198,362.00
1877.044,310.50
1877.888,297.00
1878.734,302.00
1879.579,328.50
1880.423,361.00
1881.268,353.00
1882.113,319.50
1882.959,305.50
1883.802,269.50
1884.647,331.00
1885.492,278.50
1886.335,329.50
1887.180,417.00
1888.025,329.50
1888.867,374.00
1889.712,271.00
1890.556,318.00
1891.399,288.50
1892.243,300.00
1893.087,334.00
1893.930,288.50
1894.774,341.00
1895.618,343.00
1896.460,296.50
1897.304,379.00
1898.147,284.50
1898.989,320.50
1899.833,313.00
1900.676,304.00
1901.518,330.50
1902.361,300.00
1903.202,307.50
1904.046,304.00
1904.889,300.50
1905.730,326.50
1906.573,349.50
1907.415,273.00
1908.256,348.50
1909.099,338.00
1909.941,327.00
1910.782,294.50
1911.624,276.00
1912.465,344.50
1913.307,318.50
1914.149,376.00
1914.989,310.00
1915.831,247.50
1916.671,283.00
1917.513,342.50
1918.355,334.50
1919.195,365.50
1920.036,325.00
1920.876,301.50
1921.717,321.50
1922.558,292.50
1923.398,336.50
1924.239,301.00
1925.078,297.50
1925.919,342.00
1926.760,320.50
1927.599,303.00
1928.440,301.00
1929.279,332.00
1930.119,309.00
1930.958,270.00
1931.798,314.50
1932.638,293.00
1933.477,301.50
1934.317,330.00
1935.155,335.00
1935.995,253.50
1936.833,297.50
1937.673,296.00
1938.512,358.00
1939.350,313.00
1940.190,324.50
1941.027,299.00
1941.867,292.50
1942.704,306.00
1943.543,327.50
1944.381,333.00
1945.220,321.00
1946.057,317.00
1946.896,281.00
1947.733,355.50
1948.572,316.00
1949.408,310.00
1950.247,337.50
1951.085,299.00
1951.922,252.00
1952.760,330.00
1953.597,354.00
1954.435,301.50
1955.271,330.00
1956.109,321.00
1956.945,338.00
1957.783,336.50
1958.619,315.00
1959.456,292.00
1960.292,319.50
1961.129,286.50
1961.965,243.00
1962.802,330.00
1963.638,295.50
1964.475,289.50
1965.310,317.00
1966.145,334.50
1966.982,315.50
1967.817,344.00
1968.654,300.00
1969.489,269.50
1970.325,312.00
1971.160,312.50
1971.996,321.50
1972.831,292.00
1973.667,309.50
1974.501,308.50
1975.337,275.50
1976.171,330.50
1977.006,295.50
1977.841,325.50
1978.675,339.00
1979.511,275.50
1980.345,306.50
1981.180,323.50
1982.014,299.00
1982.849,300.50
1983.682,306.50
1984.516,334.50
1985.351,354.00
1986.184,337.50
1987.019,292.00
1987.852,292.50
1988.687,310.50
1989.519,274.00
1990.352,368.00
1991.187,276.50
1992.019,323.50
1992.854,276.50
1993.686,310.50
1994.518,338.00
1995.352,280.00
1996.185,343.00
1997.019,288.50
1997.851,333.50
1998.682,318.50
1999.516,300.50
2000.348,317.00

<< BACKGROUND SPECTRUM >>
Wave[dcm-1],No19
96.716,2502.00
97.759,2359.00
98.802,2309.00
99.846,2934.00
100.886,2574.00
101.929,2741.00
102.972,2714.00
104.015,2687.00
105.057,2745.00
106.100,2232.00
107.142,2607.00
108.184,3037.00
109.226,2835.00
110.268,3070.00
111.310,3305.00
112.352,2866.00
113.393,2982.00
114.435,2838.00
115.476,3073.00
116.517,3122.00
117.558,2596.00
118.599,2961.00
119.640,3265.00
120.681,3186.00
121.722,3193.00
122.762,2900.00
123.803,2746.00
124.843,3127.00
125.883,3397.00
126.923,3555.00
127.963,3261.00
129.001,3588.00
130.041,3987.00
131.080,3279.00
132.120,3135.00
133.159,3571.00
134.199,3605.00
135.238,3151.00
136.277,3486.00
137.316,3667.00
138.355,3602.00
139.393,3203.00
140.432,3298.00
141.470,3440.00
142.509,3206.00
143.547,3797.00
144.585,2970.00
145.623,3408.00
146.661,3096.00
147.699,3464.00
148.736,3563.00
149.774,3173.00
150.811,3516.00
151.849,3913.00
152.886,3461.00
153.923,3674.00
154.960,3102.00
155.997,3945.00
157.034,4926.00
158.072,3606.00
159.109,4053.00
160.145,4220.00
161.182,3202.00
162.218,3528.00
163.254,3304.00
164.290,3275.00
165.326,4000.00
166.361,3901.00
167.397,3520.00
168.432,3713.00
169.468,3383.00
170.503,3673.00
171.538,3366.00
172.573,3804.00
173.608,3214.00
174.643,3722.00
175.677,3634.00
176.712,3777.00
177.746,3812.00
178.781,3312.00
179.815,2728.00
180.849,3809.00
181.883,3310.00
182.917,2793.00
183.951,3144.00
184.984,3848.00
186.020,3302.00
187.053,3645.00
188.087,3255.00
189.120,3449.00
190.153,3653.00
191.186,3740.00
192.219,3807.00
193.251,3674.00
194.284,3814.00
195.317,3843.00
196.349,5952.00
197.381,3447.00
198.413,3500.00
199.445,3265.00
200.477,3538.00
201.509,3521.00
202.543,3555.00
203.575,3961.00
204.606,3714.00
205.637,4380.00
206.669,3167.00
207.700,3695.00
208.731,3586.00
209.762,3228.00
210.792,3244.00
211.823,3651.00
212.854,3238.00
213.884,4372.00
214.914,3677.00
215.947,3544.00
216.977,3599.00
218.007,3573.00
219.037,3805.00
220.066,3390.00
221.096,3785.00
222.126,3182.00
223.155,3374.00
224.184,3738.00
225.214,3320.00
226.245,3927.00
227.274,3316.00
228.302,3688.00
229.331,3737.00
230.360,3457.00
231.388,3431.00
232.417,3189.00
233.445,3617.00
234.473,3478.00
235.501,3778.00
236.531,3710.00
237.559,3658.00
238.587,3399.00
239.614,3297.00
240.642,3628.00
241.669,3668.00
242.696,3717.00
243.724,3694.00
244.753,4034.00
245.780,3400.00
246.806,3224.00
247.833,3631.00
248.860,3429.00
249.886,3601.00
250.913,3228.00
251.939,3517.00
252.967,3534.00
253.993,3535.00
255.019,3955.00
256.045,3584.00
257.070,4119.00
258.096,3293.00
259.121,3690.00
260.147,3538.00
261.174,3468.00
262.199,3419.00
263.224,3583.00
264.249,3888.00
265.274,4089.00
266.298,3596.00
267.323,3671.00
268.349,3903.00
269.374,3237.00
270.398,3234.00
271.422,3732.00
272.446,3322.00
273.470,3106.00
274.496,3774.00
275.519,3768.00
276.543,3853.00
277.566,3908.00
278.589,3837.00
279.613,3709.00
280.636,3680.00
281.661,3798.00
282.684,3809.00
283.706,3938.00
284.729,4139.00
285.751,3024.00
286.774,3949.00
287.798,3387.00
288.820,2992.00
289.842,3342.00
290.864,3389.00
291.886,3655.00
292.910,3470.00
293.932,4105.00
294.953,3569.00
295.974,3603.00
296.996,3726.00
298.017,3552.00
299.040,3410.00
300.061,3727.00
301.082,3347.00
302.102,3212.00
303.123,3784.00
304.143,3573.00
305.166,3514.00
306.186,3763.00
307.206,3356.00
308.226,3764.00
309.246,3114.00
310.268,3884.00
311.288,3507.00
312.307,3208.00
313.327,3488.00
314.346,3788.00
315.368,3005.00
316.387,3638.00
317.406,3680.00
318.425,3588.00
319.443,3424.00
320.464,3162.00
321.483,4020.00
322.501,3401.00
323.520,3957.00
324.538,3477.00
325.558,4065.00
326.576,3621.00
327.594,3566.00
328.612,3398.00
329.629,3119.00
330.649,3799.00
331.666,3526.00
332.684,3112.00
333.701,3752.00
334.718,3175.00
335.737,3411.00
336.754,3744.00
337.771,3856.00
338.787,3156.00
339.806,3455.00
340.823,3474.00
341.839,3569.00
342.855,3468.00
343.871,3549.00
344.889,3354.00
345.905,3849.00
346.921,3790.00
347.937,4400.00
348.954,4135.00
349.970,3676.00
350.985,3586.00
352.000,3129.00
353.017,3769.00
354.032,3131.00
355.047,3869.00
356.062,3493.00
357.077,3442.00
358.093,4010.00
359.108,3678.00
360.122,3666.00
361.136,3490.00
362.152,3945.00
363.166,3249.00
364.180,3137.00
365.194,3981.00
366.210,3376.00
367.223,3315.00
368.237,3446.00
369.250,3590.00
370.265,3370.00
371.278,3956.00
372.291,3723.00
373.304,3069.00
374.319,3716.00
375.332,3800.00
376.344,4124.00
377.357,3406.00
378.371,3818.00
379.383,3316.00
380.395,4320.00
381.407,4108.00
382.421,3405.00
383.433,3433.00
384.445,3373.00
385.456,3512.00
386.470,3124.00
387.481,3963.00
388.492,3942.00
389.505,3270.00
390.516,3945.00
391.527,3517.00
392.538,3494.00
393.551,3728.00
394.561,4272.00
395.572,3691.00
396.582,3587.00
397.594,3772.00
398.604,3401.00
399.614,3616.00
400.624,3387.00
401.636,3462.00
402.646,3537.00
403.655,3190.00
404.667,3389.00
405.676,3374.00
406.685,4309.00
407.694,3899.00
408.705,3036.00
409.714,3155.00
410.723,3296.00
411.734,3327.00
412.742,3439.00
413.751,3609.00
414.759,3630.00
415.769,3601.00
416.777,3767.00
417.785,3539.00
418.795,3378.00
419.803,3592.00
420.811,3319.00
421.818,3926.00
422.828,3515.00
423.835,3441.00
424.842,3433.00
425.852,3287.00
426.859,3632.00
427.866,3747.00
428.874,3642.00
429.881,3490.00
430.888,3730.00
431.894,3548.00
432.902,3558.00
433.909,4513.00
434.915,3688.00
435.923,4261.00
436.929,3077.00
437.935,3504.00
438.942,3419.00
439.948,3564.00
440.953,4178.00
441.959,3223.00
442.966,3992.00
443.971,3755.00
444.976,3220.00
445.983,3568.00
446.988,3474.00
447.993,4024.00
448.999,3622.00
450.004,3548.00
451.008,3264.00
452.014,4009.00
453.019,3832.00
454.023,3265.00
455.029,3268.00
456.032,4017.00
457.036,3494.00
458.042,2913.00
459.045,3471.00
460.049,3749.00
461.052,4039.00
462.057,3785.00
463.060,3974.00
464.063,3379.00
465.068,3442.00
466.071,3283.00
467.073,3911.00
468.078,3153.00
469.080,3131.00
470.082,3604.00
471.087,3482.00
472.089,3622.00
473.091,3847.00
474.095,4007.00
475.096,3453.00
476.098,3396.00
477.101,3733.00
478.103,3318.00
479.104,4194.00
480.107,3490.00
481.108,3004.00
482.109,4199.00
483.112,4212.00
484.113,4612.00
485.114,3797.00
486.116,3540.00
487.117,3822.00
488.117,3588.00
489.119,3696.00
490.119,3767.00
491.121,3236.00
492.121,3084.00
493.121,2925.00
494.123,3620.00
495.122,3663.00
496.122,3520.00
497.123,4473.00
498.122,3335.00
499.121,3656.00
500.122,3551.00
501.121,3148.00
502.120,3154.00
503.121,3290.00
504.119,3241.00
505.118,3783.00
506.118,3329.00
507.117,3273.00
508.115,3748.00
509.115,3518.00
510.113,3139.00
511.112,3787.00
512.110,3471.00
513.108,3780.00
514.107,3880.00
515.105,3787.00
516.102,3935.00
517.101,3519.00
518.098,3641.00
519.095,4100.00
520.094,3391.00
521.091,3438.00
522.089,3730.00
523.086,3399.00
524.082,3681.00
525.081,3602.00
526.077,4808.00
527.073,4532.00
528.071,3531.00
529.067,3358.00
530.064,3416.00
531.060,3169.00
532.056,3420.00
533.053,3831.00
534.048,3780.00
535.044,3516.00
536.041,3699.00
537.036,3556.00
538.030,3723.00
539.027,3788.00
540.022,3188.00
541.019,3499.00
542.013,3800.00
543.007,3626.00
544.004,3468.00
544.998,3560.00
545.994,4119.00
546.988,3917.00
547.981,3448.00
548.977,4201.00
549.971,3696.00
550.964,3807.00
551.960,3666.00
552.953,3592.00
553.948,3790.00
554.941,3397.00
555.934,3246.00
556.929,3717.00
557.922,3289.00
558.916,3869.00
559.909,4022.00
560.901,3601.00
561.895,3642.00
562.888,3294.00
563.880,3742.00
564.874,3929.00
565.865,3798.00
566.859,3213.00
567.851,4036.00
568.842,3473.00
569.836,3562.00
570.827,3228.00
571.820,3615.00
572.811,3697.00
573.802,3550.00
574.795,3284.00
575.786,3837.00
576.779,3687.00
577.769,3219.00
578.760,3632.00
579.752,3229.00
580.742,3370.00
581.735,3690.00
582.725,3351.00
583.714,3788.00
584.706,3247.00
585.696,3557.00
586.688,3777.00
587.677,3466.00
588.667,3684.00
589.658,3475.00
590.647,3671.00
591.638,3590.00
592.627,3392.00
593.616,3109.00
594.607,3695.00
595.595,3535.00
596.586,3193.00
597.574,3877.00
598.562,3942.00
599.553,3142.00
600.541,3559.00
601.531,3662.00
602.519,3458.00
603.508,3660.00
604.496,3696.00
605.484,3667.00
606.473,3513.00
607.460,3344.00
608.450,3444.00
609.437,3729.00
610.424,3866.00
611.413,3110.00
612.400,3240.00
613.388,3613.00
614.375,3446.00
615.361,3440.00
616.350,3272.00
617.336,8405.00
618.324,3858.00
619.310,3352.00
620.298,3209.00
621.284,3652.00
622.270,3246.00
623.257,3576.00
624.243,3613.00
625.230,3798.00
626.216,3557.00
627.203,3956.00
628.188,3469.00
629.173,3406.00
630.160,3304.00
631.145,2707.00
632.131,3441.00
633.116,3191.00
634.102,3657.00
635.087,3772.00
636.071,3774.00
637.057,3334.00
638.041,3126.00
639.027,3259.00
640.011,3417.00
640.995,3241.00
641.980,3273.00
642.964,3376.00
643.949,3934.00
644.932,2803.00
645.918,3335.00
646.901,3559.00
647.886,3348.00
648.868,3421.00
649.851,3158.00
650.836,2954.00
651.818,3210.00
652.803,3712.00
653.785,3527.00
654.769,3689.00
655.751,3688.00
656.733,3949.00
657.717,3053.00
658.699,3562.00
659.683,3306.00
660.664,3156.00
661.648,3363.00
662.629,3367.00
663.611,3316.00
664.594,3081.00
665.575,3105.00
666.558,3370.00
667.539,3114.00
668.521,3420.00
669.502,3410.00
670.484,3342.00
671.465,3276.00
672.445,3465.00
673.427,3252.00
674.407,3241.00
675.390,3564.00
676.369,3313.00
677.351,2954.00
678.331,3628.00
679.312,3383.00
680.292,3265.00
681.271,2998.00
682.253,3545.00
683.232,3048.00
684.213,3279.00
685.192,3690.00
686.172,3964.00
687.151,3351.00
688.132,3417.00
689.110,3574.00
690.089,3721.00
691.069,2868.00
692.047,2799.00
693.027,2970.00
694.005,3445.00
694.985,4022.00
695.963,3481.00
696.943,3247.00
697.920,3045.00
698.898,3823.00
699.877,3624.00
700.854,3263.00
701.833,3270.00
702.810,3695.00
703.789,3487.00
704.766,4456.00
705.745,3926.00
706.721,3185.00
707.698,3707.00
708.676,3050.00
709.653,3304.00
710.631,3692.00
711.607,3358.00
712.585,3414.00
713.561,3097.00
714.539,3888.00
715.514,3261.00
716.492,3109.00
717.467,3805.00
718.443,2991.00
719.420,3704.00
720.395,3771.00
721.372,3495.00
722.347,3654.00
723.324,3231.00
724.298,3404.00
725.275,3126.00
726.250,3266.00
727.226,3196.00
728.200,2986.00
729.176,3289.00
730.151,3601.00
731.125,3816.00
732.100,2957.00
733.074,3336.00
734.050,3227.00
735.023,3046.00
735.999,3277.00
736.972,3214.00
737.947,3724.00
738.921,3402.00
739.896,3564.00
740.869,3478.00
741.841,3272.00
742.816,3780.00
743.789,3109.00
744.763,3108.00
745.736,3280.00
746.710,3148.00
747.682,3092.00
748.656,3287.00
749.628,3285.00
750.602,3301.00
751.574,3356.00
752.548,4188.00
753.519,3483.00
754.491,2914.00
755.464,3155.00
756.435,3965.00
757.408,3617.00
758.379,3471.00
759.352,2904.00
760.323,2983.00
761.296,3258.00
762.267,3319.00
763.239,3062.00
764.209,3577.00
765.182,4502.00
766.152,3669.00
767.124,3134.00
768.094,3116.00
769.064,3498.00
770.036,2973.00
771.005,3651.00
771.977,3133.00
772.947,3237.00
773.918,3709.00
774.887,3223.00
775.858,3118.00
776.827,3198.00
777.798,3231.00
778.767,3783.00
779.738,3306.00
780.707,3209.00
781.677,3361.00
782.646,3122.00
783.614,3694.00
784.584,3373.00
785.552,3491.00
786.522,2994.00
787.490,3292.00
788.460,3161.00
789.428,3139.00
790.397,3698.00
791.365,2976.00
792.334,3184.00
793.302,3431.00
794.271,3426.00
795.238,3220.00
796.207,3141.00
797.174,3596.00
798.143,3054.00
799.109,3657.00
800.076,3201.00
801.044,2863.00
802.011,3073.00
802.979,3105.00
803.945,3278.00
804.913,3923.00
805.879,3235.00
806.847,2923.00
807.813,3630.00
808.780,3269.00
809.746,3243.00
810.713,3679.00
811.678,2930.00
812.646,3145.00
813.611,3235.00
814.578,2951.00
815.543,3642.00
816.510,2872.00
817.474,3131.00
818.439,3223.00
819.405,3519.00
820.370,3089.00
821.336,3028.00
822.300,3394.00
823.266,3207.00
824.230,3458.00
825.196,3266.00
826.160,3685.00
827.126,3588.00
828.089,4031.00
829.055,3297.00
830.018,3360.00
830.983,4087.00
831.946,3084.00
832.911,3082.00
833.874,3907.00
834.837,3084.00
835.802,3215.00
836.765,3709.00
837.729,3088.00
838.691,3211.00
839.656,3592.00
840.618,3403.00
841.582,3483.00
842.544,3564.00
843.508,3743.00
844.470,3013.00
845.434,2847.00
846.395,2786.00
847.359,3165.00
848.320,2906.00
849.283,3091.00
850.245,3135.00
851.208,3513.00
852.169,3219.00
853.130,3009.00
854.092,3438.00
855.053,3203.00
856.016,3202.00
856.976,4335.00
857.938,3243.00
858.899,3293.00
859.861,2923.00
860.821,3161.00
861.783,2590.00
862.743,3247.00
863.704,3542.00
864.664,2750.00
865.626,3331.00
866.585,3069.00
867.546,3370.00
868.506,3329.00
869.467,2769.00
870.426,3275.00
871.387,3523.00
872.346,3540.00
873.304,3315.00
874.265,3471.00
875.223,3286.00
876.184,3363.00
877.142,3049.00
878.102,3203.00
879.060,3247.00
880.021,3284.00
880.978,2843.00
881.938,3179.00
882.896,3610.00
883.856,3403.00
884.813,3209.00
885.772,3135.00
886.730,3407.00
887.689,3444.00
888.646,3070.00
889.603,3619.00
890.562,3666.00
891.519,3375.00
892.477,3349.00
893.434,3300.00
894.392,2867.00
895.349,3277.00
896.307,3351.00
897.263,3447.00
898.221,3377.00
899.177,3086.00
900.135,3439.00
901.091,3155.00
902.048,3710.00
903.004,3199.00
903.961,3044.00
904.917,3202.00
905.874,3203.00
906.829,2945.00
907.784,3306.00
908.741,3285.00
909.696,3105.00
910.653,2766.00
911.607,3174.00
912.564,3148.00
913.518,3150.00
914.475,3291.00
915.429,4980.00
916.385,2972.00
917.339,3640.00
918.295,3320.00
919.249,3422.00
920.205,3280.00
921.158,3388.00
922.114,3192.00
923.067,3265.00
924.020,3340.00
924.976,3148.00
925.929,3396.00
926.884,3272.00
927.837,3519.00
928.791,3453.00
929.744,2952.00
930.699,3293.00
931.651,3240.00
932.606,2842.00
933.558,3115.00
934.512,3445.00
935.464,3339.00
936.418,3636.00
937.370,3404.00
938.322,3007.00
939.276,3139.00
940.227,3267.00
941.181,3320.00
942.132,3676.00
943.085,3866.00
944.036,2847.00
944.990,3555.00
945.941,2993.00
946.893,3117.00
947.844,2892.00
948.797,3394.00
949.747,3974.00
950.700,3155.00
951.650,2678.00
952.601,3352.00
953.553,3008.00
954.503,3468.00
955.455,3207.00
956.405,3221.00
957.356,2900.00
958.306,3521.00
959.258,3213.00
960.207,3603.00
961.158,3566.00
962.108,3233.00
963.059,2907.00
964.008,2858.00
964.959,3794.00
965.908,3152.00
966.856,2995.00
967.807,2858.00
968.756,3556.00
969.706,3269.00
970.654,3164.00
971.605,3243.00
972.553,3312.00
973.503,3233.00
974.451,3531.00
975.401,3285.00
976.348,3270.00
977.296,3124.00
978.246,3438.00
979.193,3674.00
980.142,2998.00
981.090,3337.00
982.039,3184.00
982.986,3328.00
983.935,3561.00
984.882,3321.00
985.830,3438.00
986.777,3421.00
987.725,3116.00
988.672,3035.00
989.618,3234.00
990.567,2984.00
991.513,3178.00
992.461,2993.00
993.407,3438.00
994.354,3301.00
995.300,3357.00
996.248,3321.00
997.193,3363.00
998.141,3133.00
999.086,3343.00
1000.031,3298.00
1000.978,2842.00
1001.924,3214.00
1002.870,3339.00
1003.815,2663.00
1004.762,2992.00
1005.707,3232.00
1006.653,3156.00
1007.598,3174.00
1008.542,2858.00
1009.488,2865.00
1010.432,3132.00
1011.378,3005.00
1012.322,3593.00
1013.268,2905.00
1014.212,3238.00
1015.157,3308.00
1016.101,3643.00
1017.046,2935.00
1017.990,2906.00
1018.933,3109.00
1019.878,2941.00
1020.821,3054.00
1021.766,2847.00
1022.709,3085.00
1023.654,3163.00
1024.596,3518.00
1025.541,3620.00
1026.483,3591.00
1027.425,3294.00
1028.370,3371.00
1029.312,3416.00
1030.256,3077.00
1031.198,3030.00
1032.141,3081.00
1033.083,3603.00
1034.027,3341.00
1034.968,3375.00
1035.910,2801.00
1036.853,3183.00
1037.794,3286.00
1038.738,2902.00
1039.679,3459.00
1040.621,3066.00
1041.562,3115.00
1042.503,3453.00
1043.446,2932.00
1044.386,3466.00
1045.329,3193.00
1046.269,3274.00
1047.211,3130.00
1048.151,3268.00
1049.093,2933.00
1050.033,3958.00
1050.973,3297.00
1051.915,3165.00
1052.854,3081.00
1053.796,3407.00
1054.735,3076.00
1055.677,3095.00
1056.616,3271.00
1057.555,3290.00
1058.496,2859.00
1059.435,3429.00
1060.376,3046.00
1061.315,3034.00
1062.255,2876.00
1063.194,3154.00
1064.132,2903.00
1065.073,3264.00
1066.011,3208.00
1066.951,3192.00
1067.889,2961.00
1068.829,3326.00
1069.767,3253.00
1070.705,2588.00
1071.644,3097.00
1072.582,2763.00
1073.521,3129.00
1074.459,3163.00
1075.398,3341.00
1076.335,3019.00
1077.272,3859.00
1078.211,3314.00
1079.148,3719.00
1080.087,3179.00
1081.023,3587.00
1081.962,3435.00
1082.898,2709.00
1083.835,3054.00
1084.773,2758.00
1085.709,2810.00
1086.647,3179.00
1087.583,3050.00
1088.519,3301.00
1089.457,3336.00
1090.392,2765.00
1091.330,3215.00
1092.266,3113.00
1093.203,3467.00
1094.138,2828.00
1095.073,3663.00
1096.010,3451.00
1096.945,3110.00
1097.882,2767.00
1098.817,2669.00
1099.752,3978.00
1100.688,3175.00
1101.623,3204.00
1102.559,3234.00
1103.493,3475.00
1104.430,2696.00
1105.364,2814.00
1106.298,3109.00
1107.234,3677.00
1108.167,2907.00
1109.094,3072.00
1110.019,3093.00
1110.945,3298.00
1111.869,3142.00
1112.795,3026.00
1113.720,3180.00
1114.646,3242.00
1115.571,2640.00
1116.495,3220.00
1117.420,3281.00
1118.345,2960.00
1119.270,3084.00
1120.195,3316.00
1121.118,3520.00
1122.042,3462.00
1122.967,3149.00
1123.891,3216.00
1124.816,3245.00
1125.738,3200.00
1126.663,2584.00
1127.587,3074.00
1128.511,2993.00
1129.435,3162.00
1130.357,3220.00
1131.280,3989.00
1132.204,2933.00
1133.128,2978.00
1134.051,3072.00
1134.972,3760.00
1135.896,3031.00
1136.819,3487.00
1137.742,3053.00
1138.665,3244.00
1139.586,3132.00
1140.509,2715.00
1141.431,2975.00
1142.354,3575.00
1143.276,3176.00
1144.197,3560.00
1145.119,3234.00
1146.041,2870.00
1146.964,3383.00
1147.885,3272.00
1148.806,3065.00
1149.727,3144.00
1150.649,2805.00
1151.571,3179.00
1152.492,3317.00
1153.412,3246.00
1154.333,3165.00
1155.254,3027.00
1156.175,3051.00
1157.095,3590.00
1158.016,3204.00
1158.936,2963.00
1159.857,3246.00
1160.778,3102.00
1161.697,2744.00
1162.617,3289.00
1163.537,3794.00
1164.458,3640.00
1165.376,2969.00
1166.296,3389.00
1167.216,3455.00
1168.136,3032.00
1169.056,2852.00
1169.974,3079.00
1170.893,3627.00
1171.813,3338.00
1172.732,3012.00
1173.650,3149.00
1174.569,3926.00
1175.488,3350.00
1176.407,2912.00
1177.326,2912.00
1178.243,3110.00
1179.161,3012.00
1180.080,3081.00
1180.999,3305.00
1181.915,3080.00
1182.834,2724.00
1183.752,3276.00
1184.670,3743.00
1185.586,2690.00
1186.504,2985.00
1187.422,3108.00
1188.340,2864.00
1189.258,3283.00
1190.173,3168.00
1191.091,3539.00
1192.008,2956.00
1192.926,3008.00
1193.841,3239.00
1194.758,3313.00
1195.675,2875.00
1196.592,3437.00
1197.507,2908.00
1198.424,3338.00
1199.340,3646.00
1200.257,3087.00
1201.172,3303.00
1202.088,2557.00
1203.004,3217.00
1203.920,3401.00
1204.835,3798.00
1205.750,3502.00
1206.666,3522.00
1207.582,2898.00
1208.496,2967.00
1209.412,3052.00
1210.327,3013.00
1211.243,3664.00
1212.156,2928.00
1213.071,2934.00
1213.986,3172.00
1214.901,2843.00
1215.814,2805.00
1216.729,2932.00
1217.644,2945.00
1218.559,2889.00
1219.471,3918.00
1220.386,3510.00
1221.300,2928.00
1222.213,3287.00
1223.127,3118.00
1224.041,3496.00
1224.955,2925.00
1225.867,3200.00
1226.781,3426.00
1227.694,3540.00
1228.608,3049.00
1229.520,3375.00
1230.433,3373.00
1231.346,2901.00
1232.260,3316.00
1233.171,2875.00
1234.084,3210.00
1234.997,3527.00
1235.908,2982.00
1236.821,3313.00
1237.733,4363.00
1238.646,3404.00
1239.556,3234.00
1240.469,3169.00
1241.381,2966.00
1242.293,2955.00
1243.203,3668.00
1244.115,3705.00
1245.027,3247.00
1245.937,3017.00
1246.849,3090.00
1247.761,3177.00
1248.672,2906.00
1249.582,3027.00
1250.493,3726.00
1251.404,3168.00
1252.313,3375.00
1253.225,3484.00
1254.135,4098.00
1255.046,3276.00
1255.955,3428.00
1256.866,3623.00
1257.777,2988.00
1258.685,2809.00
1259.596,2621.00
1260.506,3516.00
1261.416,3130.00
1262.324,3396.00
1263.234,3146.00
1264.144,3355.00
1265.052,3248.00
1265.962,3197.00
1266.872,3477.00
1267.779,3396.00
1268.689,2695.00
1269.598,2840.00
1270.507,3082.00
1271.415,2998.00
1272.324,3220.00
1273.233,3187.00
1274.140,3041.00
1275.048,2952.00
1275.957,2644.00
1276.864,2956.00
1277.772,3023.00
1278.681,2675.00
1279.587,2920.00
1280.496,3284.00
1281.404,3913.00
1282.312,3338.00
1283.218,2919.00
1284.126,2908.00
1285.033,3693.00
1285.939,3094.00
1286.847,3220.00
1287.754,3074.00
1288.660,2900.00
1289.567,3782.00
1290.474,3217.00
1291.380,3392.00
1292.286,2857.00
1293.193,3188.00
1294.098,3161.00
1295.005,2962.00
1295.912,3468.00
1296.816,3227.00
1297.723,3133.00
1298.629,2991.00
1299.534,3504.00
1300.440,3277.00
1301.346,2951.00
1302.250,3011.00
1303.156,2714.00
1304.062,3633.00
1304.966,3694.00
1305.871,3506.00
1306.777,3002.00
1307.680,3092.00
1308.586,3247.00
1309.491,3361.00
1310.394,3137.00
1311.299,3404.00
1312.204,3664.00
1313.107,3287.00
1314.012,3247.00
1314.917,2842.00
1315.819,3296.00
1316.724,3693.00
1317.628,3259.00
1318.531,3127.00
1319.435,3533.00
1320.339,4001.00
1321.241,3139.00
1322.145,3146.00
1323.049,3239.00
1323.951,2955.00
1324.854,2906.00
1325.756,3386.00
1326.659,3189.00
1327.563,2959.00
1328.464,3295.00
1329.367,3104.00
1330.271,3496.00
1331.172,2911.00
1332.074,3146.00
1332.977,2934.00
1333.878,3288.00
1334.781,3457.00
1335.683,2946.00
1336.584,3112.00
1337.486,2728.00
1338.387,3321.00
1339.289,2806.00
1340.191,3032.00
1341.091,3061.00
1341.993,2872.00
1342.895,3002.00
1343.794,3261.00
1344.696,3333.00
1345.596,3322.00
1346.497,2913.00
1347.398,3100.00
1348.298,2671.00
1349.199,3695.00
1350.100,3060.00
1350.999,3535.00
1351.900,3376.00
1352.799,3495.00
1353.699,3223.00
1354.600,3145.00
1355.499,3262.00
1356.399,2744.00
1357.297,3107.00
1358.198,3199.00
1359.098,2907.00
1359.996,2812.00
1360.896,3609.00
1361.796,3378.00
1362.694,3283.00
1363.593,3115.00
1364.491,3369.00
1365.391,3714.00
1366.290,3117.00
1367.187,2991.00
1368.086,3375.00
1368.984,3211.00
1369.883,2780.00
1370.782,3163.00
1371.679,3319.00
1372.577,3635.00
1373.474,3211.00
1374.373,3092.00
1375.269,3199.00
1376.168,3127.00
1377.066,3410.00
1377.962,3346.00
1378.860,3516.00
1379.756,3486.00
1380.654,3726.00
1381.552,3368.00
1382.448,3329.00
1383.346,3172.00
1384.241,3361.00
1385.139,3405.00
1386.036,3084.00
1386.931,2743.00
1387.829,3224.00
1388.724,3398.00
1389.621,3051.00
1390.516,3160.00
1391.413,3058.00
1392.309,2952.00
1393.204,3424.00
1394.101,3354.00
1394.995,3300.00
1395.891,3348.00
1396.786,2901.00
1397.682,3132.00
1398.578,3244.00
1399.472,3484.00
1400.368,3181.00
1401.262,3183.00
1402.158,3341.00
1403.051,3048.00
1403.947,3052.00
1404.840,3411.00
1405.736,3391.00
1406.631,2914.00
1407.524,3617.00
1408.419,3160.00
1409.312,3090.00
1410.207,3306.00
1411.100,3053.00
1411.995,3006.00
1412.888,3337.00
1413.782,2840.00
1414.675,3521.00
1415.569,2898.00
1416.463,3089.00
1417.355,3130.00
1418.249,2973.00
1419.141,3267.00
1420.035,3329.00
1420.927,3154.00
1421.821,3500.00
1422.713,3035.00
1423.606,3290.00
1424.498,3170.00
1425.391,3776.00
1426.282,2977.00
1427.175,3074.00
1428.068,2592.00
1428.960,3220.00
1429.852,3268.00
1430.743,2943.00
1431.636,3149.00
1432.527,3429.00
1433.419,3321.00
1434.310,3360.00
1435.202,2939.00
1436.092,3118.00
1436.984,3078.00
1437.875,3534.00
1438.767,3124.00
1439.657,2983.00
1440.548,3328.00
1441.438,3228.00
1442.330,3273.00
1443.219,3089.00
1444.111,3419.00
1445.000,3001.00
1445.891,2892.00
1446.781,2926.00
1447.672,3282.00
1448.561,3522.00
1449.452,3315.00
1450.340,2937.00
1451.231,2973.00
1452.120,2888.00
1453.010,3437.00
1453.899,3059.00
1454.789,3354.00
1455.677,3523.00
1456.568,3204.00
1457.456,3194.00
1458.346,3218.00
1459.234,3273.00
1460.123,3507.00
1461.011,3181.00
1461.901,3533.00
1462.788,3572.00
1463.678,3286.00
1464.565,3195.00
1465.454,3090.00
1466.342,3266.00
1467.231,2509.00
1468.118,3461.00
1469.006,3555.00
1469.893,2904.00
1470.782,3308.00
1471.669,3519.00
1472.557,3442.00
1473.444,3182.00
1474.330,3424.00
1475.218,3520.00
1476.105,3162.00
1476.993,3197.00
1477.879,3376.00
1478.767,3109.00
1479.652,2972.00
1480.540,3261.00
1481.426,3383.00
1482.313,3328.00
1483.199,3531.00
1484.086,3417.00
1484.972,2879.00
1485.857,2886.00
1486.744,3321.00
1487.629,2786.00
1488.516,3067.00
1489.401,3395.00
1490.287,3200.00
1491.172,2795.00
1492.058,3116.00
1492.943,2955.00
1493.828,2987.00
1494.714,3369.00
1495.598,3590.00
1496.484,4028.00
1497.368,2846.00
1498.254,3159.00
1499.138,3230.00
1500.022,3169.00
1500.907,3365.00
1501.791,3921.00
1502.676,3191.00
1503.560,3017.00
1504.445,3654.00
1505.328,3339.00
1506.211,3543.00
1507.096,3066.00
1507.979,3454.00
1508.864,3097.00
1509.747,3359.00
1510.631,3254.00
1511.514,3365.00
1512.397,3436.00
1513.281,3674.00
1514.163,3410.00
1515.047,3056.00
1515.930,2870.00
1516.812,3184.00
1517.696,3341.00
1518.578,3157.00
1519.461,3249.00
1520.343,3705.00
1521.225,3036.00
1522.108,3087.00
1522.990,3503.00
1523.873,3638.00
1524.754,2815.00
1525.635,2657.00
1526.518,3339.00
1527.399,3127.00
1528.282,3189.00
1529.163,3286.00
1530.044,3154.00
1530.926,2811.00
1531.807,2958.00
1532.689,3239.00
1533.569,3001.00
1534.450,4217.00
1535.332,3426.00
1536.212,3104.00
1537.092,3450.00
1537.974,2899.00
1538.854,3127.00
1539.735,3744.00
1540.615,3345.00
1541.495,2961.00
1542.376,3582.00
1543.255,2978.00
1544.135,3117.00
1545.016,3270.00
1545.895,2971.00
1546.774,3405.00
1547.655,2804.00
1548.534,3187.00
1549.414,3057.00
1550.293,2882.00
1551.172,3274.00
1552.052,3172.00
1552.930,3050.00
1553.809,3671.00
1554.689,3092.00
1555.567,3116.00
1556.445,3093.00
1557.325,3493.00
1558.203,2811.00
1559.080,3188.00
1559.960,3089.00
1560.838,3859.00
1561.715,3135.00
1562.594,3511.00
1563.472,3333.00
1564.349,3334.00
1565.228,2762.00
1566.105,2971.00
1566.982,3215.00
1567.861,3490.00
1568.738,3077.00
1569.615,2800.00
1570.493,3018.00
1571.370,3083.00
1572.246,2637.00
1573.124,3159.00
1574.000,3096.00
1574.877,3400.00
1575.755,3055.00
1576.631,2935.00
1577.507,3575.00
1578.384,3541.00
1579.260,3293.00
1580.136,3723.00
1581.011,3186.00
1581.889,3167.00
1582.764,3191.00
1583.639,3474.00
1584.516,3323.00
1585.391,3093.00
1586.266,3231.00
1587.143,3674.00
1588.018,3361.00
1588.893,3547.00
1589.768,3951.00
1590.644,3887.00
1591.519,2916.00
1592.393,3330.00
1593.269,3431.00
1594.143,2938.00
1595.018,3126.00
1595.892,3008.00
1596.767,2681.00
1597.641,2722.00
1598.515,2820.00
1599.391,3281.00
1600.264,3020.00
1601.138,2978.00
1602.011,2533.00
1602.886,3657.00
1603.760,3490.00
1604.633,3473.00
1605.508,3408.00
1606.381,3254.00
1607.254,3207.00
1608.127,3272.00
1609.001,2927.00
1609.874,3525.00
1610.746,3380.00
1611.619,3231.00
1612.493,3413.00
1613.365,2979.00
1614.238,3206.00
1615.110,3189.00
1615.984,3190.00
1616.855,3023.00
1617.727,3402.00
1618.599,3044.00
1619.473,3510.00
1620.344,2577.00
1621.216,3174.00
1622.087,3257.00
1622.960,3244.00
1623.832,3176.00
1624.703,3319.00
1625.574,3397.00
1626.445,3202.00
1627.317,3240.00
1628.188,3408.00
1629.059,3118.00
1629.930,3547.00
1630.802,3148.00
1631.672,3368.00
1632.543,3332.00
1633.413,3196.00
1634.283,3662.00
1635.155,3248.00
1636.025,3317.00
1636.895,3300.00
1637.765,2709.00
1638.636,3157.00
1639.506,3357.00
1640.376,3930.00
1641.245,3176.00
1642.114,3239.00
1642.985,2663.00
1643.855,2926.00
1644.724,3120.00
1645.593,3368.00
1646.462,3322.00
1647.333,3234.00
1648.201,3085.00
1649.070,3213.00
1649.939,3385.00
1650.807,3016.00
1651.676,3389.00
1652.546,3422.00
1653.414,3475.00
1654.282,3190.00
1655.150,3077.00
1656.018,3162.00
1656.888,3829.00
1657.756,3255.00
1658.623,2857.00
1659.491,2803.00
1660.359,3513.00
1661.226,3075.00
1662.095,3370.00
1662.962,3078.00
1663.830,3179.00
1664.697,3014.00
1665.564,3195.00
1666.431,3324.00
1667.297,2965.00
1668.166,2934.00
1669.033,2813.00
1669.899,3063.00
1670.766,2824.00
1671.632,3071.00
1672.499,3532.00
1673.367,3162.00
1674.233,3410.00
1675.099,3200.00
1675.965,2939.00
1676.831,3136.00
1677.696,3525.00
1678.562,5753.00
1679.430,2728.00
1680.295,2839.00
1681.161,2981.00
1682.026,2994.00
1682.891,3047.00
1683.756,3076.00
1684.621,3223.00
1685.486,3175.00
1686.353,3165.00
1687.218,3303.00
1688.083,3180.00
1688.947,3439.00
1689.812,3142.00
1690.677,3054.00
1691.541,3267.00
1692.405,2553.00
1693.269,3658.00
1694.135,3368.00
1694.999,3192.00
1695.863,3735.00
1696.727,3047.00
1697.591,3048.00
1698.455,3284.00
1699.318,3029.00
1700.182,4454.00
1701.045,3195.00
1701.909,3221.00
1702.772,3684.00
1703.637,3042.00
1704.500,2813.00
1705.363,3459.00
1706.226,3282.00
1707.089,3297.00
1707.951,3333.00
1708.814,3926.00
1709.677,3962.00
1710.539,3429.00
1711.402,3443.00
1712.264,3171.00
1713.126,3089.00
1713.988,3481.00
1714.852,3442.00
1715.714,2618.00
1716.576,2782.00
1717.438,3426.00
1718.299,2754.00
1719.161,3597.00
1720.023,3129.00
1720.884,3644.00
1721.745,3196.00
1722.607,3085.00
1723.468,2694.00
1724.329,3447.00
1725.190,3180.00
1726.051,3392.00
1726.912,3079.00
1727.772,3257.00
1728.633,3150.00
1729.494,3277.00
1730.354,3464.00
1731.214,2907.00
1732.075,3051.00
1732.935,3068.00
1733.797,3051.00
1734.657,3677.00
1735.517,3886.00
1736.377,3502.00
1737.237,3164.00
1738.096,3851.00
1738.956,3091.00
1739.816,3073.00
1740.675,3129.00
1741.534,2633.00
1742.394,3242.00
1743.253,2958.00
1744.112,3235.00
1744.971,2979.00
1745.830,3322.00
1746.689,3352.00
1747.547,3444.00
1748.406,2798.00
1749.265,3054.00
1750.123,3097.00
1750.982,3400.00
1751.840,3125.00
1752.698,3237.00
1753.556,3032.00
1754.414,3174.00
1755.272,3153.00
1756.130,3234.00
1756.988,3195.00
1757.846,3360.00
1758.703,2997.00
1759.559,3515.00
1760.417,2892.00
1761.274,3823.00
1762.131,3605.00
1762.989,3654.00
1763.846,3602.00
1764.703,3264.00
1765.560,3762.00
1766.417,3242.00
1767.273,2941.00
1768.130,3193.00
1768.987,3029.00
1769.843,3444.00
1770.700,3504.00
1771.556,3067.00
1772.412,3603.00
1773.268,3098.00
1774.125,3521.00
1774.980,3216.00
1775.836,3539.00
1776.692,3095.00
1777.546,3009.00
1778.402,3411.00
1779.257,3252.00
1780.113,3039.00
1780.968,3295.00
1781.824,3499.00
1782.679,2831.00
1783.534,3017.00
1784.389,3690.00
1785.244,3302.00
1786.099,3134.00
1786.954,3443.00
1787.808,3235.00
1788.661,3208.00
1789.516,3633.00
1790.370,3241.00
1791.225,3051.00
1792.079,2862.00
1792.933,4033.00
1793.787,3335.00
1794.641,3223.00
1795.495,3159.00
1796.349,3252.00
1797.201,3075.00
1798.055,2979.00
1798.908,3186.00
1799.762,3647.00
1800.615,3456.00
1801.469,3510.00
1802.322,3635.00
1803.175,2996.00
1804.028,2774.00
1804.880,3753.00
1805.732,3393.00
1806.585,3191.00
1807.438,3292.00
1808.291,2753.00
1809.143,2955.00
1809.996,2839.00
1810.846,3971.00
1811.699,3333.00
1812.551,3159.00
1813.403,3394.00
1814.255,3267.00
1815.107,3247.00
1815.959,3846.00
1816.809,3359.00
1817.661,3348.00
1818.512,3194.00
1819.364,3295.00
1820.215,3333.00
1821.067,3006.00
1821.918,3028.00
1822.768,3468.00
1823.619,3462.00
1824.470,3111.00
1825.321,3397.00
1826.172,3152.00
1827.021,3317.00
1827.871,3529.00
1828.722,3307.00
1829.572,3251.00
1830.423,3233.00
1831.273,3095.00
1832.122,3259.00
1832.972,3167.00
1833.822,2923.00
1834.672,3414.00
1835.522,3419.00
1836.370,2987.00
1837.220,3343.00
1838.070,2807.00
1838.919,2588.00
1839.769,3002.00
1840.616,3487.00
1841.466,3370.00
1842.315,2999.00
1843.164,3820.00
1844.013,3041.00
1844.860,2882.00
1845.709,3012.00
1846.558,3527.00
1847.407,2889.00
1848.254,3314.00
1849.102,3261.00
1849.951,2993.00
1850.799,2690.00
1851.648,3103.00
1852.494,3249.00
1853.342,3266.00
1854.190,3515.00
1855.038,3553.00
1855.884,3171.00
1856.732,4087.00
1857.580,3653.00
1858.428,3107.00
1859.273,2931.00
1860.121,2978.00
1860.968,4050.00
1861.816,3559.00
1862.661,3599.00
1863.508,3810.00
1864.355,3432.00
1865.202,3533.00
1866.047,3283.00
1866.894,3587.00
1867.741,3733.00
1868.586,3293.00
1869.432,3294.00
1870.279,3199.00
1871.125,3067.00
1871.970,3823.00
1872.816,3311.00
1873.662,2725.00
1874.506,3370.00
1875.352,3535.00
1876.198,3639.00
1877.044,3834.00
1877.888,3203.00
1878.734,3269.00
1879.579,3042.00
1880.423,2879.00
1881.268,3088.00
1882.113,3507.00
1882.959,3207.00
1883.802,3096.00
1884.647,3578.00
1885.492,3300.00
1886.335,3170.00
1887.180,3002.00
1888.025,3244.00
1888.867,2976.00
1889.712,3416.00
1890.556,3005.00
1891.399,3528.00
1892.243,3536.00
1893.087,3049.00
1893.930,3404.00
1894.774,3390.00
1895.618,3560.00
1896.460,2864.00
1897.304,3122.00
1898.147,3113.00
1898.989,2944.00
1899.833,3424.00
1900.676,3044.00
1901.518,3504.00
1902.361,3595.00
1903.202,3148.00
1904.046,3060.00
1904.889,3188.00
1905.730,3125.00
1906.573,2903.00
1907.415,3309.00
1908.256,3632.00
1909.099,3348.00
1909.941,3350.00
1910.782,3375.00
1911.624,3066.00
1912.465,3401.00
1913.307,3280.00
1914.149,2928.00
1914.989,3518.00
1915.831,3197.00
1916.671,3659.00
1917.513,3145.00
1918.355,3324.00
1919.195,3437.00
1920.036,3310.00
1920.876,3243.00
1921.717,3366.00
1922.558,3273.00
1923.398,3263.00
1924.239,3257.00
1925.078,3590.00
1925.919,2904.00
1926.760,3371.00
1927.599,3106.00
1928.440,3474.00
1929.279,3228.00
1930.119,3685.00
1930.958,3175.00
1931.798,3236.00
1932.638,3160.00
1933.477,3269.00
1934.317,2999.00
1935.155,3063.00
1935.995,3392.00
1936.833,3093.00
1937.673,3071.00
1938.512,3642.00
1939.350,2850.00
1940.190,3153.00
1941.027,3147.00
1941.867,3138.00
1942.704,3204.00
1943.543,3217.00
1944.381,3410.00
1945.220,3602.00
1946.057,3320.00
1946.896,3565.00
1947.733,3254.00
1948.572,3009.00
1949.408,3616.00
1950.247,3329.00
1951.085,3411.00
1951.922,3632.00
1952.760,3014.00
1953.597,3588.00
1954.435,2630.00
1955.271,3394.00
1956.109,3116.00
1956.945,2821.00
1957.783,3384.00
1958.619,3048.00
1959.456,3236.00
1960.292,3301.00
1961.129,3582.00
1961.965,3816.00
1962.802,3008.00
1963.638,3033.00
1964.475,3294.00
1965.310,3273.00
1966.145,3244.00
1966.982,3077.00
1967.817,2955.00
1968.654,3257.00
1969.489,3051.00
1970.325,3268.00
1971.160,3003.00
1971.996,3383.00
1972.831,3483.00
1973.667,3134.00
1974.501,3664.00
1975.337,3566.00
1976.171,3123.00
1977.006,3547.00
1977.841,3120.00
1978.675,3456.00
1979.511,3908.00
1980.345,3023.00
1981.180,3450.00
1982.014,3245.00
1982.849,2960.00
1983.682,3113.00
1984.516,3103.00
1985.351,2825.00
1986.184,2703.00
1987.019,2764.00
1987.852,2539.00
1988.687,2779.00
1989.519,3038.00
1990.352,3203.00
1991.187,2760.00
1992.019,3030.00
1992.854,3427.00
1993.686,2964.00
1994.518,3059.00
1995.352,2596.00
1996.185,2325.00
1997.019,2911.00
1997.851,2668.00
1998.682,2738.00
1999.516,2768.00
2000.348,2487.00
