RamanScope Measure Spectrum Data V3.72

<< MEASURE CONDITION >>
Exposure Type,Aver
Exposure Time [sec],20
Exposure Count,2
Measure Time,2024/02/15 20:27:58
Data Name,""
Data Comment,""
Rayleigh Wave[nm],532.0

<< SAMPLE SPECTRUM >>
Wave[dcm-1],No11
96.716,9.50
97.759,-19.00
98.802,4.00
99.846,28.50
100.886,13.00
101.929,16.50
102.972,26.50
104.015,35.00
105.057,-14.50
106.100,9.50
107.142,14.50
108.184,25.00
109.226,19.00
110.268,32.00
111.310,51.50
112.352,-5.50
113.393,0.00
114.435,58.00
115.476,-39.00
116.517,-22.00
117.558,15.00
118.599,25.00
119.640,60.50
120.681,24.50
121.722,24.00
122.762,8.00
123.803,28.50
124.843,6.00
125.883,9.50
126.923,13.50
127.963,-8.50
129.001,34.00
130.041,-17.50
131.080,46.00
132.120,22.50
133.159,1.00
134.199,41.00
135.238,-6.50
136.277,33.00
137.316,-4.50
138.355,5.00
139.393,3.00
140.432,-10.50
141.470,30.00
142.509,65.00
143.547,132.50
144.585,61.00
145.623,57.50
146.661,144.00
147.699,147.00
148.736,172.50
149.774,264.50
150.811,347.00
151.849,416.00
152.886,519.00
153.923,599.50
154.960,816.00
155.997,927.50
157.034,1079.50
158.072,1310.50
159.109,1475.50
160.145,1811.50
161.182,1923.00
162.218,2232.50
163.254,2395.00
164.290,2540.00
165.326,2709.50
166.361,2779.50
167.397,2996.00
168.432,3066.50
169.468,3184.00
170.503,3335.00
171.538,3349.00
172.573,3346.00
173.608,3374.00
174.643,3423.50
175.677,3497.50
176.712,3533.00
177.746,3664.50
178.781,3686.50
179.815,3738.50
180.849,3808.50
181.883,3938.00
182.917,3925.00
183.951,4028.00
184.984,4010.50
186.020,4176.50
187.053,4135.00
188.087,4177.00
189.120,4034.50
190.153,4035.00
191.186,4033.50
192.219,3962.00
193.251,3919.00
194.284,3898.00
195.317,3870.00
196.349,3956.00
197.381,3873.00
198.413,3830.00
199.445,3814.00
200.477,3825.50
201.509,3878.50
202.543,3879.00
203.575,3867.00
204.606,3951.00
205.637,4059.50
206.669,4101.50
207.700,4089.00
208.731,4182.50
209.762,4133.50
210.792,4161.50
211.823,4217.00
212.854,4240.50
213.884,4245.50
214.914,4310.50
215.947,4391.50
216.977,4449.00
218.007,4531.50
219.037,4522.50
220.066,4647.00
221.096,4703.50
222.126,4805.50
223.155,4780.00
224.184,4824.50
225.214,4853.50
226.245,5012.50
227.274,5028.00
228.302,5026.50
229.331,4989.50
230.360,5083.00
231.388,5086.00
232.417,5145.00
233.445,4976.00
234.473,4933.50
235.501,4911.50
236.531,4846.50
237.559,4837.50
238.587,4678.00
239.614,4633.00
240.642,4704.00
241.669,4602.50
242.696,4614.00
243.724,4572.50
244.753,4525.00
245.780,4505.00
246.806,4548.00
247.833,4491.50
248.860,4451.00
249.886,4491.50
250.913,4485.00
251.939,4539.50
252.967,4607.50
253.993,4606.50
255.019,4588.00
256.045,4675.50
257.070,4705.50
258.096,4667.00
259.121,4646.50
260.147,4638.00
261.174,4571.50
262.199,4598.00
263.224,4529.50
264.249,4534.50
265.274,4507.00
266.298,4508.50
267.323,4594.00
268.349,4639.00
269.374,4526.00
270.398,4543.00
271.422,4526.00
272.446,4614.00
273.470,4635.50
274.496,4585.00
275.519,4524.50
276.543,4603.50
277.566,4646.50
278.589,4690.00
279.613,4725.00
280.636,4790.50
281.661,4760.50
282.684,4784.50
283.706,4880.50
284.729,4814.00
285.751,4764.50
286.774,4815.00
287.798,4858.00
288.820,4866.00
289.842,4787.50
290.864,4791.00
291.886,4819.50
292.910,4819.50
293.932,4736.00
294.953,4667.50
295.974,4605.50
296.996,4628.00
298.017,4490.50
299.040,4501.00
300.061,4389.00
301.082,4274.00
302.102,4305.50
303.123,4254.50
304.143,4256.00
305.166,4266.50
306.186,4245.00
307.206,4167.50
308.226,4088.00
309.246,4044.50
310.268,4029.50
311.288,3998.50
312.307,3921.50
313.327,3965.50
314.346,3915.50
315.368,3898.00
316.387,3882.50
317.406,3826.00
318.425,3903.50
319.443,3845.50
320.464,3737.50
321.483,3737.00
322.501,3666.50
323.520,3766.00
324.538,3664.00
325.558,3576.50
326.576,3690.00
327.594,3631.50
328.612,3616.00
329.629,3624.00
330.649,3617.00
331.666,3591.00
332.684,3553.50
333.701,3523.00
334.718,3554.50
335.737,3466.00
336.754,3517.50
337.771,3510.00
338.787,3513.50
339.806,3497.00
340.823,3532.00
341.839,3479.00
342.855,3439.00
343.871,3456.50
344.889,3488.50
345.905,3449.50
346.921,3394.50
347.937,3425.00
348.954,3422.50
349.970,3408.50
350.985,3350.50
352.000,3373.50
353.017,3383.00
354.032,3338.50
355.047,3387.50
356.062,3400.00
357.077,3332.50
358.093,3364.00
359.108,3301.00
360.122,3308.00
361.136,3284.00
362.152,3320.50
363.166,3334.00
364.180,3315.50
365.194,3342.50
366.210,3302.00
367.223,3240.50
368.237,3290.50
369.250,3230.50
370.265,3281.00
371.278,3317.00
372.291,3271.00
373.304,3300.00
374.319,3285.50
375.332,3286.50
376.344,3392.50
377.357,3331.00
378.371,3273.50
379.383,3232.00
380.395,3357.50
381.407,3303.50
382.421,3292.50
383.433,3287.50
384.445,3342.50
385.456,3356.50
386.470,3397.50
387.481,3355.00
388.492,3331.50
389.505,3357.00
390.516,3420.50
391.527,3353.50
392.538,3402.50
393.551,3402.00
394.561,3406.00
395.572,3388.50
396.582,3369.00
397.594,3335.00
398.604,3404.50
399.614,3354.50
400.624,3343.50
401.636,3314.00
402.646,3376.50
403.655,3380.00
404.667,3390.00
405.676,3362.00
406.685,3343.50
407.694,3324.50
408.705,3332.50
409.714,3305.00
410.723,3304.00
411.734,3342.00
412.742,3360.00
413.751,3269.50
414.759,3215.00
415.769,3295.50
416.777,3320.00
417.785,3291.50
418.795,3295.50
419.803,3266.00
420.811,3294.00
421.818,3254.50
422.828,3211.00
423.835,3199.50
424.842,3176.00
425.852,3213.50
426.859,3225.50
427.866,3146.50
428.874,3175.50
429.881,3225.50
430.888,3115.50
431.894,3207.00
432.902,3251.00
433.909,3164.00
434.915,3158.00
435.923,3045.00
436.929,3162.00
437.935,3156.00
438.942,3128.50
439.948,3051.00
440.953,3095.50
441.959,3124.50
442.966,3108.50
443.971,3174.00
444.976,3127.50
445.983,3041.50
446.988,3166.50
447.993,3109.50
448.999,3147.00
450.004,3080.50
451.008,3134.00
452.014,3217.50
453.019,3123.00
454.023,3119.50
455.029,3163.00
456.032,3081.50
457.036,3069.50
458.042,3096.00
459.045,3162.50
460.049,3154.50
461.052,3111.00
462.057,3164.50
463.060,3070.50
464.063,3178.50
465.068,3089.50
466.071,3174.00
467.073,3095.00
468.078,3097.00
469.080,3228.00
470.082,3215.50
471.087,3194.50
472.089,3079.50
473.091,3134.00
474.095,3102.50
475.096,3182.00
476.098,3160.00
477.101,3142.00
478.103,3183.00
479.104,3185.50
480.107,3165.00
481.108,3164.50
482.109,3165.00
483.112,3153.00
484.113,3189.00
485.114,3176.50
486.116,3118.00
487.117,3180.50
488.117,3249.00
489.119,3222.50
490.119,3252.00
491.121,3125.00
492.121,3212.50
493.121,3205.00
494.123,3213.00
495.122,3261.00
496.122,3212.50
497.123,3149.50
498.122,3225.00
499.121,3152.00
500.122,3202.50
501.121,3203.00
502.120,3188.00
503.121,3173.50
504.119,3220.50
505.118,3147.00
506.118,3219.00
507.117,3172.50
508.115,3202.00
509.115,3158.00
510.113,3188.00
511.112,3194.00
512.110,3175.50
513.108,3131.00
514.107,3114.50
515.105,3120.50
516.102,3104.00
517.101,3087.00
518.098,3062.50
519.095,3113.00
520.094,3096.00
521.091,3066.00
522.089,3064.50
523.086,3023.00
524.082,3010.00
525.081,3037.00
526.077,3012.00
527.073,3096.00
528.071,3071.50
529.067,3093.50
530.064,3057.00
531.060,3084.50
532.056,3069.00
533.053,3083.00
534.048,3053.50
535.044,3061.00
536.041,3087.00
537.036,3023.00
538.030,3078.00
539.027,3167.50
540.022,3090.50
541.019,3120.00
542.013,3075.50
543.007,3028.00
544.004,3131.00
544.998,3106.50
545.994,3094.00
546.988,3075.50
547.981,3054.50
548.977,3092.00
549.971,3043.50
550.964,3089.50
551.960,3098.00
552.953,3109.00
553.948,2986.00
554.941,3123.00
555.934,3116.50
556.929,3101.00
557.922,3080.00
558.916,3041.00
559.909,3010.00
560.901,3055.00
561.895,3080.00
562.888,3072.00
563.880,3065.50
564.874,3031.50
565.865,3020.00
566.859,3082.00
567.851,3013.50
568.842,3097.00
569.836,3038.50
570.827,3089.50
571.820,3037.50
572.811,3007.00
573.802,3075.50
574.795,3062.00
575.786,3009.50
576.779,3004.50
577.769,3091.00
578.760,3001.50
579.752,3082.50
580.742,3048.50
581.735,3042.50
582.725,3049.50
583.714,3009.50
584.706,3090.50
585.696,3067.50
586.688,3100.50
587.677,3061.50
588.667,3084.00
589.658,3075.00
590.647,3022.50
591.638,3102.00
592.627,3048.50
593.616,3100.50
594.607,3132.50
595.595,3081.00
596.586,3110.00
597.574,3122.50
598.562,3108.50
599.553,3132.00
600.541,3157.00
601.531,3127.00
602.519,3163.00
603.508,3016.50
604.496,3184.50
605.484,3095.50
606.473,3178.00
607.460,3243.00
608.450,3198.00
609.437,3122.50
610.424,3098.50
611.413,3154.50
612.400,3120.00
613.388,3158.50
614.375,3205.50
615.361,3189.50
616.350,3180.50
617.336,3135.00
618.324,3147.00
619.310,3157.00
620.298,3106.00
621.284,3109.00
622.270,3150.50
623.257,3092.50
624.243,3211.00
625.230,3153.50
626.216,3098.50
627.203,3110.00
628.188,3092.00
629.173,3050.00
630.160,3027.50
631.145,2974.00
632.131,2941.00
633.116,2927.50
634.102,2911.50
635.087,2959.50
636.071,2870.00
637.057,2814.50
638.041,2907.00
639.027,2844.50
640.011,2832.00
640.995,2763.50
641.980,2795.50
642.964,2821.00
643.949,2755.50
644.932,2741.50
645.918,2746.00
646.901,2725.00
647.886,2664.00
648.868,2631.00
649.851,2604.50
650.836,2687.50
651.818,2643.00
652.803,2601.50
653.785,2625.50
654.769,2508.50
655.751,2518.50
656.733,2478.50
657.717,2583.00
658.699,2535.00
659.683,2517.00
660.664,2465.00
661.648,2479.50
662.629,2456.00
663.611,2456.50
664.594,2406.50
665.575,2399.50
666.558,2406.00
667.539,2424.50
668.521,2489.00
669.502,2450.50
670.484,2396.50
671.465,2436.00
672.445,2421.50
673.427,2425.50
674.407,2437.50
675.390,2439.00
676.369,2418.50
677.351,2368.00
678.331,2307.50
679.312,2357.00
680.292,2348.50
681.271,2354.00
682.253,2326.00
683.232,2279.50
684.213,2313.00
685.192,2287.00
686.172,2321.00
687.151,2303.00
688.132,2285.50
689.110,2256.50
690.089,2187.50
691.069,2178.50
692.047,2242.00
693.027,2159.50
694.005,2155.00
694.985,2196.50
695.963,2164.50
696.943,2141.50
697.920,2171.00
698.898,2080.00
699.877,2091.50
700.854,2093.50
701.833,2100.00
702.810,1986.00
703.789,2061.50
704.766,2059.50
705.745,2074.00
706.721,2054.50
707.698,2071.00
708.676,2007.00
709.653,1991.50
710.631,1976.00
711.607,1964.00
712.585,1928.00
713.561,1974.50
714.539,2010.50
715.514,1928.50
716.492,1998.50
717.467,1933.00
718.443,1984.50
719.420,1898.00
720.395,1895.50
721.372,1945.00
722.347,1851.00
723.324,1914.50
724.298,1862.50
725.275,1910.50
726.250,1851.50
727.226,1862.50
728.200,1854.00
729.176,1883.00
730.151,1873.50
731.125,1861.50
732.100,1876.00
733.074,1778.50
734.050,1877.00
735.023,1882.00
735.999,1849.50
736.972,1831.00
737.947,1824.50
738.921,1770.00
739.896,1760.50
740.869,1778.00
741.841,1805.00
742.816,1778.00
743.789,1808.00
744.763,1773.50
745.736,1751.00
746.710,1759.00
747.682,1811.00
748.656,1739.50
749.628,1765.50
750.602,1804.50
751.574,1781.00
752.548,1726.50
753.519,1752.50
754.491,1678.50
755.464,1709.00
756.435,1686.50
757.408,1704.00
758.379,1670.00
759.352,1648.50
760.323,1689.50
761.296,1707.00
762.267,1668.00
763.239,1694.50
764.209,1601.50
765.182,1676.00
766.152,1632.50
767.124,1595.50
768.094,1668.00
769.064,1614.00
770.036,1632.50
771.005,1621.00
771.977,1551.00
772.947,1602.00
773.918,1600.50
774.887,1574.50
775.858,1571.00
776.827,1553.00
777.798,1540.00
778.767,1580.50
779.738,1570.00
780.707,1556.50
781.677,1586.50
782.646,1570.00
783.614,1580.00
784.584,1555.00
785.552,1593.00
786.522,1554.00
787.490,1461.50
788.460,1542.50
789.428,1538.00
790.397,1544.00
791.365,1493.00
792.334,1488.00
793.302,1538.00
794.271,1507.50
795.238,1475.00
796.207,1499.00
797.174,1450.50
798.143,1477.50
799.109,1470.50
800.076,1516.50
801.044,1461.50
802.011,1534.50
802.979,1469.00
803.945,1456.50
804.913,1499.00
805.879,1456.50
806.847,1508.50
807.813,1409.00
808.780,1423.50
809.746,1463.50
810.713,1423.00
811.678,1458.00
812.646,1411.00
813.611,1453.00
814.578,1450.00
815.543,1424.00
816.510,1409.00
817.474,1370.00
818.439,1371.50
819.405,1442.00
820.370,1353.00
821.336,1414.00
822.300,1432.50
823.266,1321.50
824.230,1373.50
825.196,1369.00
826.160,1391.00
827.126,1359.50
828.089,1341.50
829.055,1388.00
830.018,1403.00
830.983,1335.00
831.946,1321.00
832.911,1332.50
833.874,1352.50
834.837,1358.00
835.802,1396.50
836.765,1309.50
837.729,1445.00
838.691,1349.50
839.656,1357.50
840.618,1386.00
841.582,1396.50
842.544,1368.00
843.508,1426.00
844.470,1411.50
845.434,1372.00
846.395,1370.50
847.359,1369.00
848.320,1350.50
849.283,1391.50
850.245,1362.00
851.208,1389.00
852.169,1367.00
853.130,1354.00
854.092,1358.00
855.053,1372.00
856.016,1371.00
856.976,1430.50
857.938,1347.50
858.899,1403.00
859.861,1384.00
860.821,1359.00
861.783,1386.00
862.743,1385.50
863.704,1303.50
864.664,1382.00
865.626,1346.00
866.585,1365.50
867.546,1372.00
868.506,1340.50
869.467,1332.50
870.426,1368.50
871.387,1336.50
872.346,1330.00
873.304,1349.00
874.265,1377.50
875.223,1395.00
876.184,1368.00
877.142,1377.50
878.102,1409.00
879.060,1326.00
880.021,1358.50
880.978,1325.50
881.938,1351.50
882.896,1360.50
883.856,1367.50
884.813,1417.50
885.772,1425.50
886.730,1391.00
887.689,1409.00
888.646,1417.50
889.603,1353.00
890.562,1397.50
891.519,1415.50
892.477,1349.50
893.434,1403.00
894.392,1343.00
895.349,1330.00
896.307,1391.00
897.263,1382.00
898.221,1352.50
899.177,1410.00
900.135,1408.00
901.091,1394.00
902.048,1469.00
903.004,1350.00
903.961,1355.50
904.917,1364.50
905.874,1374.50
906.829,1337.00
907.784,1415.00
908.741,1381.00
909.696,1368.50
910.653,1392.00
911.607,1376.00
912.564,1343.00
913.518,1391.00
914.475,1380.50
915.429,1436.50
916.385,1351.50
917.339,1407.50
918.295,1383.50
919.249,1432.50
920.205,1394.50
921.158,1371.50
922.114,1433.00
923.067,1416.50
924.020,1384.50
924.976,1395.00
925.929,1383.50
926.884,1369.50
927.837,1328.50
928.791,1396.00
929.744,1382.00
930.699,1355.50
931.651,1393.00
932.606,1355.00
933.558,1364.00
934.512,1327.00
935.464,1407.00
936.418,1383.00
937.370,1352.00
938.322,1391.50
939.276,1392.50
940.227,1376.50
941.181,1464.00
942.132,1360.00
943.085,1378.00
944.036,1390.50
944.990,1386.50
945.941,1383.00
946.893,1414.00
947.844,1360.00
948.797,1392.00
949.747,1393.50
950.700,1381.50
951.650,1385.50
952.601,1350.50
953.553,1348.50
954.503,1343.00
955.455,1394.50
956.405,1396.50
957.356,1413.00
958.306,1395.50
959.258,1369.50
960.207,1362.00
961.158,1358.50
962.108,1348.00
963.059,1381.50
964.008,1299.00
964.959,1348.00
965.908,1342.50
966.856,1389.00
967.807,1364.50
968.756,1332.00
969.706,1300.00
970.654,1306.50
971.605,1326.00
972.553,1322.00
973.503,1325.00
974.451,1357.50
975.401,1314.50
976.348,1307.50
977.296,1380.00
978.246,1290.50
979.193,1314.00
980.142,1305.50
981.090,1305.50
982.039,1298.50
982.986,1343.00
983.935,1340.50
984.882,1342.00
985.830,1303.00
986.777,1348.00
987.725,1353.00
988.672,1355.00
989.618,1237.50
990.567,1334.00
991.513,1284.50
992.461,1295.50
993.407,1266.00
994.354,1271.00
995.300,1297.50
996.248,1326.00
997.193,1282.00
998.141,1382.00
999.086,1325.50
1000.031,1260.50
1000.978,1264.00
1001.924,1269.00
1002.870,1303.50
1003.815,1274.50
1004.762,1262.50
1005.707,1289.00
1006.653,1224.50
1007.598,1251.00
1008.542,1225.00
1009.488,1282.50
1010.432,1275.00
1011.378,1310.00
1012.322,1238.50
1013.268,1264.50
1014.212,1244.00
1015.157,1360.00
1016.101,1209.00
1017.046,1222.00
1017.990,1269.00
1018.933,1222.50
1019.878,1230.00
1020.821,1261.00
1021.766,1304.50
1022.709,1265.50
1023.654,1277.50
1024.596,1291.50
1025.541,1276.50
1026.483,1265.00
1027.425,1226.00
1028.370,1298.00
1029.312,1210.00
1030.256,1281.50
1031.198,1281.00
1032.141,1287.00
1033.083,1219.00
1034.027,1292.00
1034.968,1319.00
1035.910,1255.50
1036.853,1297.50
1037.794,1261.00
1038.738,1287.50
1039.679,1248.50
1040.621,1247.00
1041.562,1263.50
1042.503,1285.00
1043.446,1251.00
1044.386,1250.50
1045.329,1268.50
1046.269,1254.50
1047.211,1233.00
1048.151,1285.00
1049.093,1270.00
1050.033,1264.00
1050.973,1263.00
1051.915,1320.00
1052.854,1304.00
1053.796,1255.50
1054.735,1267.00
1055.677,1309.00
1056.616,1286.50
1057.555,1303.00
1058.496,1290.00
1059.435,1307.00
1060.376,1280.50
1061.315,1273.00
1062.255,1316.50
1063.194,1256.00
1064.132,1316.00
1065.073,1306.00
1066.011,1301.00
1066.951,1275.00
1067.889,1345.50
1068.829,1336.50
1069.767,1313.50
1070.705,1316.50
1071.644,1295.50
1072.582,1283.50
1073.521,1331.50
1074.459,1371.50
1075.398,1323.50
1076.335,1307.50
1077.272,1354.00
1078.211,1331.50
1079.148,1377.50
1080.087,1366.50
1081.023,1336.50
1081.962,1358.50
1082.898,1327.50
1083.835,1326.00
1084.773,1369.50
1085.709,1363.00
1086.647,1348.00
1087.583,1327.50
1088.519,1349.00
1089.457,1341.00
1090.392,1380.50
1091.330,1375.50
1092.266,1386.50
1093.203,1423.00
1094.138,1378.00
1095.073,1332.00
1096.010,1356.50
1096.945,1326.50
1097.882,1332.50
1098.817,1321.00
1099.752,1356.00
1100.688,1328.50
1101.623,1350.50
1102.559,1336.50
1103.493,1329.00
1104.430,1380.00
1105.364,1358.00
1106.298,1375.50
1107.234,1350.00
1108.167,1343.50
1109.094,1342.50
1110.019,1370.00
1110.945,1262.00
1111.869,1334.50
1112.795,1309.00
1113.720,1336.50
1114.646,1252.00
1115.571,1312.50
1116.495,1271.50
1117.420,1296.00
1118.345,1321.50
1119.270,1275.00
1120.195,1240.50
1121.118,1266.00
1122.042,1226.00
1122.967,1225.50
1123.891,1223.50
1124.816,1192.50
1125.738,1237.00
1126.663,1233.50
1127.587,1216.50
1128.511,1217.00
1129.435,1192.00
1130.357,1210.50
1131.280,394.50
1132.204,1174.50
1133.128,1204.50
1134.051,1204.50
1134.972,1231.00
1135.896,1242.50
1136.819,1158.00
1137.742,1161.00
1138.665,1140.00
1139.586,1163.50
1140.509,1139.00
1141.431,1145.50
1142.354,1116.50
1143.276,1147.50
1144.197,1074.50
1145.119,1132.50
1146.041,1149.00
1146.964,1112.00
1147.885,1099.00
1148.806,1124.00
1149.727,1094.50
1150.649,1058.50
1151.571,1059.00
1152.492,1100.50
1153.412,1131.00
1154.333,1082.50
1155.254,1117.00
1156.175,1108.50
1157.095,1109.00
1158.016,1088.00
1158.936,1084.00
1159.857,1137.00
1160.778,1069.00
1161.697,1062.00
1162.617,1073.50
1163.537,1076.00
1164.458,1023.50
1165.376,1026.00
1166.296,1041.50
1167.216,1030.00
1168.136,1037.50
1169.056,1051.50
1169.974,1016.00
1170.893,1065.50
1171.813,1020.50
1172.732,1058.50
1173.650,1069.00
1174.569,1022.50
1175.488,1034.00
1176.407,994.00
1177.326,1003.00
1178.243,991.00
1179.161,1033.50
1180.080,1024.00
1180.999,991.00
1181.915,985.50
1182.834,1015.00
1183.752,1052.00
1184.670,941.50
1185.586,1029.50
1186.504,966.00
1187.422,966.00
1188.340,1042.50
1189.258,1038.50
1190.173,996.00
1191.091,963.00
1192.008,1031.00
1192.926,980.00
1193.841,976.50
1194.758,963.50
1195.675,1005.50
1196.592,993.50
1197.507,984.00
1198.424,1029.50
1199.340,1034.50
1200.257,975.00
1201.172,945.50
1202.088,961.00
1203.004,979.00
1203.920,959.50
1204.835,916.50
1205.750,912.00
1206.666,926.50
1207.582,945.00
1208.496,1032.50
1209.412,949.50
1210.327,969.00
1211.243,954.00
1212.156,969.00
1213.071,973.00
1213.986,931.00
1214.901,966.00
1215.814,959.00
1216.729,953.50
1217.644,969.50
1218.559,964.50
1219.471,952.00
1220.386,970.50
1221.300,997.00
1222.213,934.50
1223.127,957.50
1224.041,1000.50
1224.955,945.50
1225.867,962.50
1226.781,994.00
1227.694,957.00
1228.608,981.50
1229.520,969.50
1230.433,956.00
1231.346,999.00
1232.260,956.00
1233.171,925.00
1234.084,1001.00
1234.997,941.00
1235.908,960.00
1236.821,1008.00
1237.733,1033.00
1238.646,959.00
1239.556,989.50
1240.469,960.50
1241.381,1014.50
1242.293,989.50
1243.203,997.00
1244.115,961.50
1245.027,958.00
1245.937,977.50
1246.849,987.00
1247.761,960.50
1248.672,948.00
1249.582,955.00
1250.493,969.50
1251.404,1024.50
1252.313,985.50
1253.225,977.50
1254.135,929.50
1255.046,981.50
1255.955,990.50
1256.866,1010.50
1257.777,978.50
1258.685,975.50
1259.596,966.50
1260.506,977.50
1261.416,1027.50
1262.324,995.00
1263.234,975.00
1264.144,982.00
1265.052,972.50
1265.962,1040.00
1266.872,982.50
1267.779,955.50
1268.689,978.50
1269.598,1001.50
1270.507,960.00
1271.415,969.50
1272.324,973.50
1273.233,966.50
1274.140,972.00
1275.048,996.00
1275.957,1044.00
1276.864,948.50
1277.772,975.50
1278.681,1009.50
1279.587,949.00
1280.496,1017.00
1281.404,888.00
1282.312,1002.50
1283.218,976.50
1284.126,945.50
1285.033,1041.50
1285.939,985.50
1286.847,984.50
1287.754,1002.00
1288.660,1018.50
1289.567,947.00
1290.474,964.50
1291.380,1008.00
1292.286,1013.50
1293.193,1021.50
1294.098,961.50
1295.005,974.00
1295.912,981.00
1296.816,980.50
1297.723,996.00
1298.629,967.00
1299.534,963.00
1300.440,967.50
1301.346,981.50
1302.250,992.00
1303.156,970.50
1304.062,1023.50
1304.966,930.50
1305.871,908.00
1306.777,944.00
1307.680,933.00
1308.586,1023.50
1309.491,932.50
1310.394,981.00
1311.299,900.00
1312.204,984.50
1313.107,964.50
1314.012,974.00
1314.917,970.00
1315.819,967.00
1316.724,930.50
1317.628,908.00
1318.531,988.00
1319.435,946.00
1320.339,874.00
1321.241,935.00
1322.145,951.00
1323.049,958.50
1323.951,939.50
1324.854,983.00
1325.756,977.00
1326.659,927.00
1327.563,882.50
1328.464,961.00
1329.367,925.00
1330.271,941.50
1331.172,907.50
1332.074,864.50
1332.977,919.50
1333.878,884.50
1334.781,894.00
1335.683,933.00
1336.584,901.50
1337.486,872.00
1338.387,858.00
1339.289,885.00
1340.191,896.00
1341.091,906.00
1341.993,865.00
1342.895,868.00
1343.794,859.00
1344.696,898.00
1345.596,899.50
1346.497,919.50
1347.398,899.00
1348.298,917.50
1349.199,795.50
1350.100,931.50
1350.999,863.50
1351.900,897.50
1352.799,842.00
1353.699,869.00
1354.600,845.00
1355.499,883.50
1356.399,878.50
1357.297,835.00
1358.198,848.50
1359.098,843.00
1359.996,843.00
1360.896,886.50
1361.796,874.00
1362.694,869.00
1363.593,830.50
1364.491,831.00
1365.391,809.00
1366.290,850.50
1367.187,865.00
1368.086,848.50
1368.984,801.00
1369.883,868.00
1370.782,862.00
1371.679,806.50
1372.577,790.50
1373.474,758.50
1374.373,818.00
1375.269,842.50
1376.168,800.50
1377.066,827.00
1377.962,805.00
1378.860,763.00
1379.756,838.00
1380.654,837.50
1381.552,818.00
1382.448,795.00
1383.346,789.00
1384.241,792.00
1385.139,808.00
1386.036,839.50
1386.931,837.00
1387.829,803.00
1388.724,788.00
1389.621,760.00
1390.516,748.50
1391.413,771.00
1392.309,792.00
1393.204,769.50
1394.101,748.50
1394.995,793.50
1395.891,778.00
1396.786,787.50
1397.682,754.00
1398.578,791.50
1399.472,759.50
1400.368,753.00
1401.262,745.50
1402.158,776.50
1403.051,769.50
1403.947,796.50
1404.840,789.50
1405.736,776.50
1406.631,753.50
1407.524,760.50
1408.419,814.00
1409.312,773.50
1410.207,790.50
1411.100,756.00
1411.995,753.50
1412.888,771.00
1413.782,721.00
1414.675,688.50
1415.569,771.50
1416.463,788.50
1417.355,794.00
1418.249,698.50
1419.141,739.00
1420.035,746.00
1420.927,740.00
1421.821,732.50
1422.713,739.00
1423.606,668.50
1424.498,687.00
1425.391,725.50
1426.282,752.00
1427.175,735.50
1428.068,722.00
1428.960,737.50
1429.852,743.00
1430.743,656.00
1431.636,759.00
1432.527,709.50
1433.419,702.00
1434.310,721.50
1435.202,733.50
1436.092,779.00
1436.984,697.00
1437.875,786.00
1438.767,712.50
1439.657,703.00
1440.548,712.50
1441.438,757.50
1442.330,693.00
1443.219,737.50
1444.111,731.00
1445.000,694.00
1445.891,701.00
1446.781,664.00
1447.672,703.50
1448.561,709.00
1449.452,712.50
1450.340,656.50
1451.231,686.50
1452.120,759.50
1453.010,736.50
1453.899,626.50
1454.789,700.00
1455.677,698.50
1456.568,618.00
1457.456,665.50
1458.346,692.50
1459.234,743.00
1460.123,633.50
1461.011,689.00
1461.901,666.00
1462.788,676.00
1463.678,779.50
1464.565,679.00
1465.454,698.50
1466.342,710.50
1467.231,665.00
1468.118,669.50
1469.006,683.50
1469.893,725.50
1470.782,666.50
1471.669,682.00
1472.557,737.00
1473.444,628.00
1474.330,750.50
1475.218,693.50
1476.105,690.50
1476.993,620.50
1477.879,687.00
1478.767,687.50
1479.652,617.00
1480.540,703.50
1481.426,651.50
1482.313,652.50
1483.199,663.50
1484.086,649.50
1484.972,669.50
1485.857,661.00
1486.744,679.50
1487.629,649.00
1488.516,670.50
1489.401,633.50
1490.287,696.50
1491.172,631.00
1492.058,664.00
1492.943,606.00
1493.828,601.00
1494.714,683.00
1495.598,612.00
1496.484,592.50
1497.368,602.50
1498.254,670.50
1499.138,595.00
1500.022,677.50
1500.907,640.00
1501.791,700.00
1502.676,671.00
1503.560,664.50
1504.445,623.50
1505.328,669.50
1506.211,616.00
1507.096,664.00
1507.979,681.50
1508.864,594.50
1509.747,647.00
1510.631,597.00
1511.514,623.00
1512.397,577.50
1513.281,604.00
1514.163,703.00
1515.047,609.50
1515.930,651.00
1516.812,612.00
1517.696,583.50
1518.578,614.50
1519.461,642.50
1520.343,596.00
1521.225,556.50
1522.108,629.00
1522.990,626.00
1523.873,589.50
1524.754,606.00
1525.635,586.50
1526.518,663.00
1527.399,634.50
1528.282,627.50
1529.163,587.00
1530.044,619.00
1530.926,595.00
1531.807,588.00
1532.689,634.00
1533.569,632.00
1534.450,606.50
1535.332,624.00
1536.212,623.00
1537.092,616.00
1537.974,601.00
1538.854,553.00
1539.735,612.50
1540.615,638.50
1541.495,633.50
1542.376,609.50
1543.255,616.00
1544.135,610.50
1545.016,609.50
1545.895,561.50
1546.774,545.50
1547.655,595.00
1548.534,569.50
1549.414,586.00
1550.293,584.50
1551.172,601.50
1552.052,619.00
1552.930,647.50
1553.809,638.50
1554.689,583.00
1555.567,591.50
1556.445,591.00
1557.325,599.00
1558.203,608.50
1559.080,583.00
1559.960,626.00
1560.838,557.50
1561.715,565.50
1562.594,538.50
1563.472,618.00
1564.349,591.00
1565.228,626.50
1566.105,586.50
1566.982,587.50
1567.861,684.00
1568.738,624.00
1569.615,556.50
1570.493,550.50
1571.370,568.00
1572.246,576.00
1573.124,569.00
1574.000,539.00
1574.877,553.50
1575.755,543.50
1576.631,574.00
1577.507,592.00
1578.384,521.50
1579.260,575.00
1580.136,558.50
1581.011,562.50
1581.889,545.00
1582.764,557.00
1583.639,509.00
1584.516,564.50
1585.391,523.00
1586.266,550.00
1587.143,577.00
1588.018,567.50
1588.893,554.50
1589.768,621.00
1590.644,578.50
1591.519,551.00
1592.393,565.50
1593.269,552.50
1594.143,601.00
1595.018,550.50
1595.892,586.50
1596.767,555.50
1597.641,516.00
1598.515,600.50
1599.391,585.50
1600.264,578.50
1601.138,554.50
1602.011,562.00
1602.886,529.00
1603.760,532.50
1604.633,559.00
1605.508,550.00
1606.381,606.00
1607.254,510.00
1608.127,594.00
1609.001,583.00
1609.874,546.50
1610.746,554.50
1611.619,526.00
1612.493,552.00
1613.365,576.50
1614.238,560.50
1615.110,556.50
1615.984,530.50
1616.855,551.00
1617.727,563.00
1618.599,525.00
1619.473,539.00
1620.344,558.50
1621.216,590.50
1622.087,517.50
1622.960,514.00
1623.832,559.50
1624.703,557.50
1625.574,598.50
1626.445,541.50
1627.317,524.50
1628.188,552.50
1629.059,568.50
1629.930,570.50
1630.802,564.50
1631.672,561.00
1632.543,532.00
1633.413,511.50
1634.283,553.00
1635.155,542.50
1636.025,534.00
1636.895,536.50
1637.765,517.00
1638.636,609.00
1639.506,508.50
1640.376,506.00
1641.245,578.00
1642.114,546.00
1642.985,479.50
1643.855,559.50
1644.724,540.00
1645.593,498.00
1646.462,507.00
1647.333,530.50
1648.201,573.50
1649.070,520.50
1649.939,546.00
1650.807,550.00
1651.676,559.00
1652.546,520.50
1653.414,545.00
1654.282,499.00
1655.150,496.00
1656.018,576.00
1656.888,500.50
1657.756,508.00
1658.623,551.50
1659.491,568.50
1660.359,531.00
1661.226,557.00
1662.095,527.50
1662.962,535.00
1663.830,481.00
1664.697,535.00
1665.564,560.50
1666.431,543.00
1667.297,579.00
1668.166,490.50
1669.033,491.50
1669.899,533.50
1670.766,488.00
1671.632,509.50
1672.499,546.50
1673.367,523.00
1674.233,512.00
1675.099,521.50
1675.965,524.00
1676.831,524.00
1677.696,522.50
1678.562,496.50
1679.430,500.00
1680.295,546.00
1681.161,505.00
1682.026,497.00
1682.891,525.00
1683.756,561.50
1684.621,518.00
1685.486,480.00
1686.353,483.50
1687.218,494.50
1688.083,499.00
1688.947,513.50
1689.812,533.00
1690.677,481.50
1691.541,512.00
1692.405,513.00
1693.269,503.00
1694.135,500.50
1694.999,520.00
1695.863,557.00
1696.727,505.00
1697.591,506.00
1698.455,519.00
1699.318,493.50
1700.182,528.50
1701.045,503.00
1701.909,464.50
1702.772,496.50
1703.637,478.00
1704.500,492.50
1705.363,557.00
1706.226,478.00
1707.089,531.50
1707.951,476.50
1708.814,520.50
1709.677,473.50
1710.539,456.00
1711.402,518.50
1712.264,527.00
1713.126,504.00
1713.988,486.50
1714.852,522.00
1715.714,517.50
1716.576,508.50
1717.438,551.00
1718.299,540.50
1719.161,502.50
1720.023,536.00
1720.884,495.00
1721.745,486.00
1722.607,505.00
1723.468,515.50
1724.329,540.50
1725.190,473.00
1726.051,450.00
1726.912,535.50
1727.772,537.00
1728.633,466.50
1729.494,498.00
1730.354,475.50
1731.214,539.00
1732.075,504.00
1732.935,492.00
1733.797,548.00
1734.657,480.00
1735.517,443.50
1736.377,470.00
1737.237,480.50
1738.096,474.00
1738.956,495.00
1739.816,451.00
1740.675,483.50
1741.534,507.00
1742.394,426.00
1743.253,473.50
1744.112,546.00
1744.971,470.50
1745.830,515.00
1746.689,465.00
1747.547,455.50
1748.406,494.50
1749.265,480.00
1750.123,444.00
1750.982,497.50
1751.840,506.50
1752.698,503.00
1753.556,471.50
1754.414,553.50
1755.272,503.00
1756.130,488.50
1756.988,477.00
1757.846,473.00
1758.703,499.00
1759.559,525.00
1760.417,548.00
1761.274,484.00
1762.131,428.50
1762.989,451.00
1763.846,486.00
1764.703,469.00
1765.560,523.00
1766.417,475.50
1767.273,450.00
1768.130,516.00
1768.987,466.00
1769.843,492.50
1770.700,480.00
1771.556,492.00
1772.412,550.00
1773.268,498.50
1774.125,489.00
1774.980,490.50
1775.836,530.00
1776.692,522.00
1777.546,516.00
1778.402,385.00
1779.257,451.00
1780.113,485.00
1780.968,508.00
1781.824,485.00
1782.679,457.00
1783.534,502.50
1784.389,462.00
1785.244,477.00
1786.099,539.50
1786.954,501.00
1787.808,476.50
1788.661,511.50
1789.516,469.00
1790.370,488.50
1791.225,527.00
1792.079,437.00
1792.933,447.50
1793.787,399.00
1794.641,448.50
1795.495,402.50
1796.349,470.50
1797.201,433.50
1798.055,498.50
1798.908,476.50
1799.762,444.50
1800.615,450.50
1801.469,568.50
1802.322,444.50
1803.175,484.50
1804.028,454.50
1804.880,486.00
1805.732,432.50
1806.585,487.50
1807.438,473.50
1808.291,423.50
1809.143,521.00
1809.996,474.00
1810.846,435.50
1811.699,515.50
1812.551,487.00
1813.403,463.50
1814.255,459.00
1815.107,498.00
1815.959,468.00
1816.809,444.50
1817.661,499.50
1818.512,414.50
1819.364,403.00
1820.215,476.00
1821.067,437.00
1821.918,434.50
1822.768,443.50
1823.619,522.50
1824.470,460.00
1825.321,447.00
1826.172,480.50
1827.021,530.50
1827.871,490.50
1828.722,458.00
1829.572,529.00
1830.423,451.50
1831.273,470.00
1832.122,434.50
1832.972,444.00
1833.822,489.00
1834.672,456.00
1835.522,429.00
1836.370,483.00
1837.220,440.00
1838.070,410.50
1838.919,446.50
1839.769,448.50
1840.616,446.50
1841.466,463.50
1842.315,422.50
1843.164,489.00
1844.013,450.00
1844.860,493.00
1845.709,433.00
1846.558,445.00
1847.407,480.50
1848.254,436.50
1849.102,509.50
1849.951,419.50
1850.799,471.50
1851.648,468.00
1852.494,432.50
1853.342,477.00
1854.190,380.00
1855.038,418.50
1855.884,415.00
1856.732,443.00
1857.580,471.50
1858.428,429.00
1859.273,464.50
1860.121,430.00
1860.968,480.50
1861.816,516.00
1862.661,440.50
1863.508,490.00
1864.355,463.00
1865.202,444.50
1866.047,427.00
1866.894,446.00
1867.741,467.50
1868.586,444.50
1869.432,446.50
1870.279,443.00
1871.125,415.00
1871.970,513.00
1872.816,403.00
1873.662,487.50
1874.506,404.00
1875.352,475.00
1876.198,486.00
1877.044,421.00
1877.888,428.00
1878.734,450.50
1879.579,438.00
1880.423,458.50
1881.268,409.50
1882.113,430.50
1882.959,450.50
1883.802,436.00
1884.647,442.50
1885.492,456.50
1886.335,475.50
1887.180,372.50
1888.025,446.50
1888.867,383.00
1889.712,492.00
1890.556,463.00
1891.399,440.00
1892.243,455.00
1893.087,420.00
1893.930,393.00
1894.774,448.50
1895.618,442.00
1896.460,400.00
1897.304,431.50
1898.147,429.00
1898.989,446.00
1899.833,470.00
1900.676,421.00
1901.518,392.50
1902.361,392.50
1903.202,415.50
1904.046,468.00
1904.889,411.50
1905.730,423.00
1906.573,442.50
1907.415,438.00
1908.256,451.50
1909.099,438.00
1909.941,397.00
1910.782,491.50
1911.624,375.00
1912.465,491.00
1913.307,438.50
1914.149,455.00
1914.989,454.00
1915.831,409.00
1916.671,411.00
1917.513,474.00
1918.355,475.50
1919.195,472.00
1920.036,418.00
1920.876,422.50
1921.717,437.00
1922.558,400.50
1923.398,505.00
1924.239,441.50
1925.078,466.50
1925.919,427.50
1926.760,424.50
1927.599,399.00
1928.440,397.50
1929.279,385.00
1930.119,429.00
1930.958,441.50
1931.798,460.50
1932.638,442.00
1933.477,435.50
1934.317,430.00
1935.155,451.00
1935.995,431.50
1936.833,433.00
1937.673,406.00
1938.512,453.50
1939.350,481.50
1940.190,430.00
1941.027,383.50
1941.867,427.00
1942.704,395.00
1943.543,460.00
1944.381,432.00
1945.220,391.50
1946.057,389.50
1946.896,506.50
1947.733,456.00
1948.572,411.50
1949.408,474.00
1950.247,407.00
1951.085,409.50
1951.922,376.50
1952.760,432.50
1953.597,429.50
1954.435,465.00
1955.271,408.50
1956.109,458.50
1956.945,444.50
1957.783,496.50
1958.619,463.50
1959.456,447.00
1960.292,445.00
1961.129,401.50
1961.965,446.50
1962.802,478.00
1963.638,445.50
1964.475,401.50
1965.310,418.00
1966.145,436.00
1966.982,417.00
1967.817,429.50
1968.654,436.00
1969.489,413.50
1970.325,396.50
1971.160,447.00
1971.996,430.00
1972.831,405.00
1973.667,387.50
1974.501,441.50
1975.337,482.00
1976.171,451.00
1977.006,481.00
1977.841,443.50
1978.675,405.50
1979.511,464.50
1980.345,448.50
1981.180,438.50
1982.014,403.00
1982.849,421.00
1983.682,464.50
1984.516,420.50
1985.351,403.50
1986.184,423.50
1987.019,414.50
1987.852,463.50
1988.687,452.00
1989.519,439.50
1990.352,429.00
1991.187,406.50
1992.019,454.50
1992.854,427.00
1993.686,418.50
1994.518,412.00
1995.352,425.50
1996.185,445.50
1997.019,417.00
1997.851,446.50
1998.682,462.00
1999.516,451.50
2000.348,406.00

<< BACKGROUND SPECTRUM >>
Wave[dcm-1],No11
96.716,2559.00
97.759,2389.00
98.802,2298.00
99.846,2909.00
100.886,2568.00
101.929,2763.00
102.972,2754.00
104.015,2628.00
105.057,2782.00
106.100,2209.00
107.142,2623.00
108.184,3000.00
109.226,2840.00
110.268,3029.00
111.310,3322.00
112.352,2935.00
113.393,2981.00
114.435,2801.00
115.476,3098.00
116.517,3112.00
117.558,2599.00
118.599,2927.00
119.640,3230.00
120.681,3224.00
121.722,3180.00
122.762,2914.00
123.803,2750.00
124.843,3109.00
125.883,3360.00
126.923,3577.00
127.963,3293.00
129.001,3561.00
130.041,3970.00
131.080,3244.00
132.120,3135.00
133.159,3542.00
134.199,3583.00
135.238,3184.00
136.277,3504.00
137.316,3690.00
138.355,3600.00
139.393,3198.00
140.432,3356.00
141.470,3445.00
142.509,3129.00
143.547,3680.00
144.585,2961.00
145.623,3392.00
146.661,3099.00
147.699,3502.00
148.736,3565.00
149.774,3186.00
150.811,3456.00
151.849,3894.00
152.886,3412.00
153.923,3662.00
154.960,3072.00
155.997,3909.00
157.034,4941.00
158.072,3588.00
159.109,4068.00
160.145,4181.00
161.182,3255.00
162.218,3443.00
163.254,3308.00
164.290,3276.00
165.326,4014.00
166.361,3955.00
167.397,3526.00
168.432,3756.00
169.468,3412.00
170.503,3636.00
171.538,3399.00
172.573,3740.00
173.608,3245.00
174.643,3749.00
175.677,3609.00
176.712,3834.00
177.746,3780.00
178.781,3366.00
179.815,2719.00
180.849,3767.00
181.883,3264.00
182.917,2869.00
183.951,3112.00
184.984,3847.00
186.020,3243.00
187.053,3648.00
188.087,3239.00
189.120,3524.00
190.153,3695.00
191.186,3654.00
192.219,3768.00
193.251,3662.00
194.284,3769.00
195.317,3831.00
196.349,6021.00
197.381,3417.00
198.413,3468.00
199.445,3291.00
200.477,3603.00
201.509,3566.00
202.543,3558.00
203.575,3964.00
204.606,3659.00
205.637,5194.00
206.669,3144.00
207.700,3692.00
208.731,3540.00
209.762,3191.00
210.792,3248.00
211.823,3672.00
212.854,3296.00
213.884,4356.00
214.914,3711.00
215.947,3584.00
216.977,3665.00
218.007,3572.00
219.037,3849.00
220.066,3331.00
221.096,3796.00
222.126,3159.00
223.155,3385.00
224.184,3759.00
225.214,4267.00
226.245,3885.00
227.274,3298.00
228.302,3674.00
229.331,3770.00
230.360,3446.00
231.388,3415.00
232.417,3165.00
233.445,3645.00
234.473,3432.00
235.501,3741.00
236.531,3734.00
237.559,3663.00
238.587,3358.00
239.614,3297.00
240.642,3615.00
241.669,3733.00
242.696,3683.00
243.724,3672.00
244.753,4027.00
245.780,3411.00
246.806,3191.00
247.833,3607.00
248.860,3453.00
249.886,3587.00
250.913,3235.00
251.939,3507.00
252.967,3498.00
253.993,3490.00
255.019,3910.00
256.045,3579.00
257.070,4042.00
258.096,3292.00
259.121,3685.00
260.147,3549.00
261.174,3474.00
262.199,3420.00
263.224,3609.00
264.249,3871.00
265.274,4150.00
266.298,3565.00
267.323,3621.00
268.349,3838.00
269.374,3254.00
270.398,3253.00
271.422,3730.00
272.446,3322.00
273.470,3117.00
274.496,3760.00
275.519,3774.00
276.543,3885.00
277.566,3944.00
278.589,3839.00
279.613,3744.00
280.636,3705.00
281.661,3839.00
282.684,3865.00
283.706,3930.00
284.729,4129.00
285.751,3023.00
286.774,4007.00
287.798,3402.00
288.820,2973.00
289.842,3319.00
290.864,3355.00
291.886,3639.00
292.910,3449.00
293.932,4030.00
294.953,3570.00
295.974,3595.00
296.996,3707.00
298.017,3591.00
299.040,3393.00
300.061,3712.00
301.082,3430.00
302.102,3259.00
303.123,3863.00
304.143,3602.00
305.166,3496.00
306.186,3721.00
307.206,3330.00
308.226,3746.00
309.246,3120.00
310.268,3896.00
311.288,3498.00
312.307,3232.00
313.327,3509.00
314.346,3776.00
315.368,3056.00
316.387,3633.00
317.406,3620.00
318.425,3538.00
319.443,3456.00
320.464,3169.00
321.483,4022.00
322.501,3372.00
323.520,3925.00
324.538,3440.00
325.558,4095.00
326.576,3580.00
327.594,3560.00
328.612,3431.00
329.629,3149.00
330.649,3799.00
331.666,3553.00
332.684,3148.00
333.701,3762.00
334.718,3186.00
335.737,3459.00
336.754,3699.00
337.771,3761.00
338.787,3197.00
339.806,3460.00
340.823,3394.00
341.839,3551.00
342.855,3475.00
343.871,3583.00
344.889,3312.00
345.905,3837.00
346.921,3738.00
347.937,4339.00
348.954,4147.00
349.970,3689.00
350.985,3623.00
352.000,3160.00
353.017,3754.00
354.032,3159.00
355.047,3834.00
356.062,3430.00
357.077,3429.00
358.093,3969.00
359.108,3715.00
360.122,3640.00
361.136,3477.00
362.152,3943.00
363.166,3238.00
364.180,3143.00
365.194,3972.00
366.210,3415.00
367.223,3347.00
368.237,3400.00
369.250,3627.00
370.265,3376.00
371.278,3894.00
372.291,3702.00
373.304,3032.00
374.319,3750.00
375.332,3804.00
376.344,4016.00
377.357,3441.00
378.371,3861.00
379.383,3360.00
380.395,4296.00
381.407,4108.00
382.421,3422.00
383.433,3438.00
384.445,3400.00
385.456,3509.00
386.470,3060.00
387.481,3948.00
388.492,3868.00
389.505,3220.00
390.516,3931.00
391.527,3488.00
392.538,3468.00
393.551,3668.00
394.561,4312.00
395.572,3683.00
396.582,3609.00
397.594,3797.00
398.604,3424.00
399.614,3620.00
400.624,3394.00
401.636,3471.00
402.646,3502.00
403.655,3172.00
404.667,3356.00
405.676,3385.00
406.685,4319.00
407.694,3897.00
408.705,3012.00
409.714,3104.00
410.723,3299.00
411.734,3315.00
412.742,3371.00
413.751,3648.00
414.759,3696.00
415.769,3607.00
416.777,3787.00
417.785,3483.00
418.795,3352.00
419.803,3568.00
420.811,3247.00
421.818,3914.00
422.828,3494.00
423.835,3436.00
424.842,3433.00
425.852,3287.00
426.859,3644.00
427.866,3728.00
428.874,3636.00
429.881,3479.00
430.888,3802.00
431.894,3572.00
432.902,3517.00
433.909,4529.00
434.915,3643.00
435.923,4285.00
436.929,3069.00
437.935,3479.00
438.942,3430.00
439.948,3558.00
440.953,4139.00
441.959,3226.00
442.966,3950.00
443.971,3728.00
444.976,3181.00
445.983,3614.00
446.988,3433.00
447.993,4000.00
448.999,3605.00
450.004,3571.00
451.008,3368.00
452.014,4002.00
453.019,3828.00
454.023,3263.00
455.029,3226.00
456.032,4009.00
457.036,3504.00
458.042,2940.00
459.045,3419.00
460.049,3748.00
461.052,4038.00
462.057,3749.00
463.060,4024.00
464.063,3379.00
465.068,3488.00
466.071,3300.00
467.073,3914.00
468.078,3181.00
469.080,3083.00
470.082,3528.00
471.087,3428.00
472.089,3601.00
473.091,3795.00
474.095,4026.00
475.096,3433.00
476.098,3412.00
477.101,3771.00
478.103,3314.00
479.104,4152.00
480.107,3438.00
481.108,3056.00
482.109,4235.00
483.112,4193.00
484.113,4584.00
485.114,3744.00
486.116,3608.00
487.117,3858.00
488.117,3583.00
489.119,3688.00
490.119,3741.00
491.121,3252.00
492.121,3017.00
493.121,2915.00
494.123,3580.00
495.122,3682.00
496.122,3516.00
497.123,4550.00
498.122,3358.00
499.121,3653.00
500.122,3584.00
501.121,3161.00
502.120,3137.00
503.121,3249.00
504.119,3210.00
505.118,3800.00
506.118,3258.00
507.117,3270.00
508.115,3706.00
509.115,3577.00
510.113,3069.00
511.112,3821.00
512.110,3456.00
513.108,3797.00
514.107,3886.00
515.105,3794.00
516.102,3978.00
517.101,3536.00
518.098,3606.00
519.095,4041.00
520.094,3401.00
521.091,3401.00
522.089,3744.00
523.086,3420.00
524.082,3735.00
525.081,3627.00
526.077,4770.00
527.073,4521.00
528.071,3517.00
529.067,3359.00
530.064,3446.00
531.060,3172.00
532.056,3430.00
533.053,3831.00
534.048,3738.00
535.044,3556.00
536.041,3665.00
537.036,3617.00
538.030,3718.00
539.027,3780.00
540.022,3144.00
541.019,3467.00
542.013,3787.00
543.007,3677.00
544.004,3457.00
544.998,3517.00
545.994,4111.00
546.988,3934.00
547.981,3430.00
548.977,4187.00
549.971,3710.00
550.964,3787.00
551.960,3637.00
552.953,3564.00
553.948,3823.00
554.941,3348.00
555.934,3215.00
556.929,3730.00
557.922,3288.00
558.916,3822.00
559.909,4045.00
560.901,3614.00
561.895,3652.00
562.888,3272.00
563.880,3737.00
564.874,3911.00
565.865,3804.00
566.859,3205.00
567.851,4077.00
568.842,3406.00
569.836,3551.00
570.827,3245.00
571.820,3611.00
572.811,3726.00
573.802,3517.00
574.795,3294.00
575.786,3850.00
576.779,3703.00
577.769,3181.00
578.760,3670.00
579.752,3212.00
580.742,3353.00
581.735,3655.00
582.725,3303.00
583.714,3860.00
584.706,3233.00
585.696,3514.00
586.688,3755.00
587.677,3490.00
588.667,3696.00
589.658,3483.00
590.647,3669.00
591.638,3586.00
592.627,3437.00
593.616,3112.00
594.607,3654.00
595.595,3547.00
596.586,3184.00
597.574,3859.00
598.562,3901.00
599.553,3177.00
600.541,3594.00
601.531,3673.00
602.519,3471.00
603.508,3739.00
604.496,3678.00
605.484,3685.00
606.473,3503.00
607.460,3394.00
608.450,3438.00
609.437,3701.00
610.424,3947.00
611.413,3146.00
612.400,3276.00
613.388,3596.00
614.375,3414.00
615.361,3430.00
616.350,3277.00
617.336,8436.00
618.324,3885.00
619.310,3352.00
620.298,3212.00
621.284,3670.00
622.270,3260.00
623.257,3590.00
624.243,3536.00
625.230,3753.00
626.216,3520.00
627.203,3892.00
628.188,3425.00
629.173,3433.00
630.160,3294.00
631.145,2689.00
632.131,3336.00
633.116,3179.00
634.102,3639.00
635.087,3752.00
636.071,3782.00
637.057,3360.00
638.041,3135.00
639.027,3251.00
640.011,3421.00
640.995,3257.00
641.980,3272.00
642.964,3375.00
643.949,3926.00
644.932,2783.00
645.918,3322.00
646.901,3521.00
647.886,3338.00
648.868,3425.00
649.851,3179.00
650.836,2933.00
651.818,3182.00
652.803,3725.00
653.785,3491.00
654.769,3747.00
655.751,3711.00
656.733,3980.00
657.717,3043.00
658.699,3579.00
659.683,3291.00
660.664,3174.00
661.648,3392.00
662.629,3339.00
663.611,3302.00
664.594,3098.00
665.575,3105.00
666.558,3453.00
667.539,3110.00
668.521,3324.00
669.502,3413.00
670.484,3375.00
671.465,3222.00
672.445,3420.00
673.427,3229.00
674.407,3178.00
675.390,3502.00
676.369,3300.00
677.351,2960.00
678.331,3642.00
679.312,3396.00
680.292,3276.00
681.271,2977.00
682.253,3568.00
683.232,3084.00
684.213,3261.00
685.192,3681.00
686.172,3907.00
687.151,3377.00
688.132,3416.00
689.110,3594.00
690.089,3731.00
691.069,2922.00
692.047,2823.00
693.027,3012.00
694.005,3416.00
694.985,3995.00
695.963,3521.00
696.943,3227.00
697.920,2973.00
698.898,3804.00
699.877,3614.00
700.854,3258.00
701.833,3231.00
702.810,3771.00
703.789,3445.00
704.766,4476.00
705.745,3893.00
706.721,3174.00
707.698,3675.00
708.676,3063.00
709.653,3252.00
710.631,3691.00
711.607,3389.00
712.585,3415.00
713.561,3110.00
714.539,3853.00
715.514,3286.00
716.492,3058.00
717.467,3806.00
718.443,3009.00
719.420,3690.00
720.395,3776.00
721.372,3461.00
722.347,3668.00
723.324,3243.00
724.298,3376.00
725.275,3093.00
726.250,3315.00
727.226,3204.00
728.200,2967.00
729.176,3324.00
730.151,3570.00
731.125,3814.00
732.100,2948.00
733.074,3366.00
734.050,3161.00
735.023,3028.00
735.999,3276.00
736.972,3221.00
737.947,3681.00
738.921,3470.00
739.896,3612.00
740.869,3440.00
741.841,3259.00
742.816,3762.00
743.789,3077.00
744.763,3104.00
745.736,3340.00
746.710,3166.00
747.682,3044.00
748.656,3275.00
749.628,3260.00
750.602,3256.00
751.574,3388.00
752.548,4204.00
753.519,3463.00
754.491,2961.00
755.464,3169.00
756.435,3944.00
757.408,3600.00
758.379,3471.00
759.352,2899.00
760.323,3003.00
761.296,3245.00
762.267,3377.00
763.239,3062.00
764.209,3590.00
765.182,4454.00
766.152,3646.00
767.124,3111.00
768.094,3120.00
769.064,3517.00
770.036,2960.00
771.005,3645.00
771.977,3218.00
772.947,3268.00
773.918,3722.00
774.887,3293.00
775.858,3107.00
776.827,3217.00
777.798,3285.00
778.767,3797.00
779.738,3251.00
780.707,3174.00
781.677,3358.00
782.646,3111.00
783.614,3698.00
784.584,3394.00
785.552,3469.00
786.522,2948.00
787.490,3307.00
788.460,3164.00
789.428,3181.00
790.397,3694.00
791.365,3020.00
792.334,3198.00
793.302,3380.00
794.271,3415.00
795.238,3176.00
796.207,3153.00
797.174,3608.00
798.143,3009.00
799.109,3671.00
800.076,3208.00
801.044,2887.00
802.011,3021.00
802.979,3102.00
803.945,3283.00
804.913,3860.00
805.879,3243.00
806.847,2943.00
807.813,3621.00
808.780,3262.00
809.746,3233.00
810.713,3662.00
811.678,2942.00
812.646,3190.00
813.611,3232.00
814.578,2931.00
815.543,3637.00
816.510,2853.00
817.474,3192.00
818.439,3253.00
819.405,3526.00
820.370,3122.00
821.336,3002.00
822.300,3352.00
823.266,3234.00
824.230,3441.00
825.196,3296.00
826.160,3660.00
827.126,3604.00
828.089,4028.00
829.055,3311.00
830.018,3332.00
830.983,4084.00
831.946,3113.00
832.911,3093.00
833.874,3894.00
834.837,3128.00
835.802,3172.00
836.765,3759.00
837.729,3075.00
838.691,3252.00
839.656,3561.00
840.618,3405.00
841.582,3475.00
842.544,3551.00
843.508,3708.00
844.470,2966.00
845.434,2862.00
846.395,2747.00
847.359,3127.00
848.320,2916.00
849.283,3012.00
850.245,3124.00
851.208,3503.00
852.169,3215.00
853.130,2996.00
854.092,3424.00
855.053,3196.00
856.016,3230.00
856.976,4290.00
857.938,3257.00
858.899,3249.00
859.861,2913.00
860.821,3145.00
861.783,2573.00
862.743,3246.00
863.704,3559.00
864.664,2735.00
865.626,3362.00
866.585,3067.00
867.546,3288.00
868.506,3355.00
869.467,2790.00
870.426,3316.00
871.387,3519.00
872.346,3609.00
873.304,3339.00
874.265,3420.00
875.223,3265.00
876.184,3351.00
877.142,3071.00
878.102,3194.00
879.060,3228.00
880.021,3330.00
880.978,2879.00
881.938,3186.00
882.896,3564.00
883.856,3413.00
884.813,3140.00
885.772,3158.00
886.730,3396.00
887.689,3412.00
888.646,3038.00
889.603,3597.00
890.562,3612.00
891.519,3341.00
892.477,3377.00
893.434,3281.00
894.392,2878.00
895.349,3309.00
896.307,3347.00
897.263,3458.00
898.221,3354.00
899.177,3073.00
900.135,3426.00
901.091,3206.00
902.048,3632.00
903.004,3201.00
903.961,3055.00
904.917,3188.00
905.874,3248.00
906.829,2956.00
907.784,3278.00
908.741,3255.00
909.696,3113.00
910.653,2773.00
911.607,3172.00
912.564,3164.00
913.518,3151.00
914.475,3291.00
915.429,4882.00
916.385,2969.00
917.339,3573.00
918.295,3359.00
919.249,3395.00
920.205,3281.00
921.158,3394.00
922.114,3138.00
923.067,3255.00
924.020,3283.00
924.976,3103.00
925.929,3384.00
926.884,3285.00
927.837,3563.00
928.791,3483.00
929.744,2950.00
930.699,3280.00
931.651,3258.00
932.606,2906.00
933.558,3142.00
934.512,3476.00
935.464,3321.00
936.418,3593.00
937.370,3420.00
938.322,3005.00
939.276,3156.00
940.227,3222.00
941.181,3247.00
942.132,3652.00
943.085,3834.00
944.036,2781.00
944.990,3545.00
945.941,3023.00
946.893,3097.00
947.844,2929.00
948.797,3347.00
949.747,4002.00
950.700,3127.00
951.650,2655.00
952.601,3406.00
953.553,3018.00
954.503,3440.00
955.455,3159.00
956.405,3243.00
957.356,2877.00
958.306,3476.00
959.258,3229.00
960.207,3603.00
961.158,3543.00
962.108,3243.00
963.059,2904.00
964.008,2922.00
964.959,3831.00
965.908,3179.00
966.856,2959.00
967.807,2777.00
968.756,3561.00
969.706,3267.00
970.654,3175.00
971.605,3215.00
972.553,3311.00
973.503,3214.00
974.451,3495.00
975.401,3247.00
976.348,3279.00
977.296,3094.00
978.246,3480.00
979.193,3659.00
980.142,2994.00
981.090,3290.00
982.039,3236.00
982.986,3300.00
983.935,3566.00
984.882,3272.00
985.830,3440.00
986.777,3373.00
987.725,3073.00
988.672,2984.00
989.618,3273.00
990.567,2981.00
991.513,3154.00
992.461,3019.00
993.407,3489.00
994.354,3342.00
995.300,3347.00
996.248,3289.00
997.193,3367.00
998.141,3055.00
999.086,3337.00
1000.031,3351.00
1000.978,2806.00
1001.924,3214.00
1002.870,3343.00
1003.815,2635.00
1004.762,3051.00
1005.707,3224.00
1006.653,3176.00
1007.598,3202.00
1008.542,2895.00
1009.488,2863.00
1010.432,3108.00
1011.378,2945.00
1012.322,3652.00
1013.268,2926.00
1014.212,3247.00
1015.157,3245.00
1016.101,3666.00
1017.046,2937.00
1017.990,2916.00
1018.933,3186.00
1019.878,2987.00
1020.821,3036.00
1021.766,2834.00
1022.709,3085.00
1023.654,3172.00
1024.596,3435.00
1025.541,3664.00
1026.483,3604.00
1027.425,3299.00
1028.370,3380.00
1029.312,3447.00
1030.256,3080.00
1031.198,3053.00
1032.141,3079.00
1033.083,3636.00
1034.027,3294.00
1034.968,3353.00
1035.910,2763.00
1036.853,3191.00
1037.794,3277.00
1038.738,2921.00
1039.679,3530.00
1040.621,3071.00
1041.562,3134.00
1042.503,3519.00
1043.446,2947.00
1044.386,3465.00
1045.329,3198.00
1046.269,3361.00
1047.211,3150.00
1048.151,3234.00
1049.093,2946.00
1050.033,3977.00
1050.973,3354.00
1051.915,3113.00
1052.854,3105.00
1053.796,3417.00
1054.735,3047.00
1055.677,3053.00
1056.616,3302.00
1057.555,3266.00
1058.496,2903.00
1059.435,3434.00
1060.376,3050.00
1061.315,3053.00
1062.255,2864.00
1063.194,3147.00
1064.132,2901.00
1065.073,3229.00
1066.011,3239.00
1066.951,3217.00
1067.889,2903.00
1068.829,3306.00
1069.767,3283.00
1070.705,2570.00
1071.644,3111.00
1072.582,2778.00
1073.521,3068.00
1074.459,3118.00
1075.398,3324.00
1076.335,3026.00
1077.272,3808.00
1078.211,3332.00
1079.148,3676.00
1080.087,3201.00
1081.023,3601.00
1081.962,3440.00
1082.898,2724.00
1083.835,3080.00
1084.773,2766.00
1085.709,2787.00
1086.647,3176.00
1087.583,3080.00
1088.519,3321.00
1089.457,3312.00
1090.392,2746.00
1091.330,3165.00
1092.266,3101.00
1093.203,3414.00
1094.138,2828.00
1095.073,3681.00
1096.010,3419.00
1096.945,3111.00
1097.882,2808.00
1098.817,2672.00
1099.752,4062.00
1100.688,3195.00
1101.623,3271.00
1102.559,3273.00
1103.493,3493.00
1104.430,2713.00
1105.364,2802.00
1106.298,3094.00
1107.234,3714.00
1108.167,2939.00
1109.094,3086.00
1110.019,3085.00
1110.945,3300.00
1111.869,3172.00
1112.795,3034.00
1113.720,3181.00
1114.646,3210.00
1115.571,2592.00
1116.495,3212.00
1117.420,3233.00
1118.345,2966.00
1119.270,3120.00
1120.195,3281.00
1121.118,3529.00
1122.042,3443.00
1122.967,3148.00
1123.891,3245.00
1124.816,3239.00
1125.738,3174.00
1126.663,2571.00
1127.587,3057.00
1128.511,3011.00
1129.435,3186.00
1130.357,3208.00
1131.280,4039.00
1132.204,2959.00
1133.128,2966.00
1134.051,3068.00
1134.972,3756.00
1135.896,3027.00
1136.819,3442.00
1137.742,3009.00
1138.665,3292.00
1139.586,3109.00
1140.509,2699.00
1141.431,2985.00
1142.354,3622.00
1143.276,3137.00
1144.197,3551.00
1145.119,3238.00
1146.041,2890.00
1146.964,3317.00
1147.885,3250.00
1148.806,3091.00
1149.727,3161.00
1150.649,2776.00
1151.571,3199.00
1152.492,3328.00
1153.412,3255.00
1154.333,3151.00
1155.254,3012.00
1156.175,3010.00
1157.095,3604.00
1158.016,3175.00
1158.936,2982.00
1159.857,3241.00
1160.778,3065.00
1161.697,2749.00
1162.617,3243.00
1163.537,3773.00
1164.458,3643.00
1165.376,2970.00
1166.296,3375.00
1167.216,3483.00
1168.136,3011.00
1169.056,2858.00
1169.974,3121.00
1170.893,3658.00
1171.813,3310.00
1172.732,3051.00
1173.650,3177.00
1174.569,3962.00
1175.488,3312.00
1176.407,2857.00
1177.326,2934.00
1178.243,3123.00
1179.161,2988.00
1180.080,3001.00
1180.999,3271.00
1181.915,3121.00
1182.834,2711.00
1183.752,3321.00
1184.670,3759.00
1185.586,2675.00
1186.504,3015.00
1187.422,3131.00
1188.340,2806.00
1189.258,3223.00
1190.173,3159.00
1191.091,3482.00
1192.008,2922.00
1192.926,2969.00
1193.841,3259.00
1194.758,3259.00
1195.675,2865.00
1196.592,3401.00
1197.507,2910.00
1198.424,3274.00
1199.340,3587.00
1200.257,3087.00
1201.172,3294.00
1202.088,2608.00
1203.004,3209.00
1203.920,3402.00
1204.835,3762.00
1205.750,3501.00
1206.666,3556.00
1207.582,2930.00
1208.496,2917.00
1209.412,3080.00
1210.327,3006.00
1211.243,3672.00
1212.156,2940.00
1213.071,2922.00
1213.986,3181.00
1214.901,2789.00
1215.814,2792.00
1216.729,2921.00
1217.644,2905.00
1218.559,2906.00
1219.471,3915.00
1220.386,3500.00
1221.300,2943.00
1222.213,3299.00
1223.127,3116.00
1224.041,3506.00
1224.955,2948.00
1225.867,3210.00
1226.781,3395.00
1227.694,3541.00
1228.608,3052.00
1229.520,3368.00
1230.433,3352.00
1231.346,2882.00
1232.260,3315.00
1233.171,2957.00
1234.084,3197.00
1234.997,3560.00
1235.908,2988.00
1236.821,3267.00
1237.733,4262.00
1238.646,3427.00
1239.556,3233.00
1240.469,3156.00
1241.381,2926.00
1242.293,2913.00
1243.203,3603.00
1244.115,3698.00
1245.027,3221.00
1245.937,3032.00
1246.849,3043.00
1247.761,3190.00
1248.672,2941.00
1249.582,3091.00
1250.493,3760.00
1251.404,3134.00
1252.313,3356.00
1253.225,3491.00
1254.135,4127.00
1255.046,3300.00
1255.955,3357.00
1256.866,3621.00
1257.777,3019.00
1258.685,2814.00
1259.596,2609.00
1260.506,3494.00
1261.416,3102.00
1262.324,3363.00
1263.234,3145.00
1264.144,3371.00
1265.052,3245.00
1265.962,3149.00
1266.872,3450.00
1267.779,3387.00
1268.689,2734.00
1269.598,2854.00
1270.507,3098.00
1271.415,3008.00
1272.324,3230.00
1273.233,3161.00
1274.140,3029.00
1275.048,2865.00
1275.957,2629.00
1276.864,3009.00
1277.772,2994.00
1278.681,2631.00
1279.587,2915.00
1280.496,3210.00
1281.404,3974.00
1282.312,3305.00
1283.218,2879.00
1284.126,2919.00
1285.033,3637.00
1285.939,3113.00
1286.847,3239.00
1287.754,3055.00
1288.660,2895.00
1289.567,3762.00
1290.474,3239.00
1291.380,3378.00
1292.286,2811.00
1293.193,3178.00
1294.098,3157.00
1295.005,2986.00
1295.912,3472.00
1296.816,3219.00
1297.723,3112.00
1298.629,2986.00
1299.534,3517.00
1300.440,3281.00
1301.346,2958.00
1302.250,2989.00
1303.156,2712.00
1304.062,3563.00
1304.966,3711.00
1305.871,3488.00
1306.777,2987.00
1307.680,3113.00
1308.586,3226.00
1309.491,3403.00
1310.394,3141.00
1311.299,3458.00
1312.204,3654.00
1313.107,3273.00
1314.012,3219.00
1314.917,2834.00
1315.819,3256.00
1316.724,3669.00
1317.628,3255.00
1318.531,3059.00
1319.435,3517.00
1320.339,4096.00
1321.241,3130.00
1322.145,3139.00
1323.049,3246.00
1323.951,2919.00
1324.854,2901.00
1325.756,3381.00
1326.659,3207.00
1327.563,2937.00
1328.464,3282.00
1329.367,3131.00
1330.271,3479.00
1331.172,2911.00
1332.074,3171.00
1332.977,2913.00
1333.878,3314.00
1334.781,3466.00
1335.683,2915.00
1336.584,3102.00
1337.486,2751.00
1338.387,3308.00
1339.289,2876.00
1340.191,2995.00
1341.091,3040.00
1341.993,2926.00
1342.895,3012.00
1343.794,3273.00
1344.696,3358.00
1345.596,3269.00
1346.497,2849.00
1347.398,3100.00
1348.298,2655.00
1349.199,3753.00
1350.100,3002.00
1350.999,3522.00
1351.900,3313.00
1352.799,3470.00
1353.699,3242.00
1354.600,3121.00
1355.499,3212.00
1356.399,2715.00
1357.297,3128.00
1358.198,3172.00
1359.098,2926.00
1359.996,2840.00
1360.896,3611.00
1361.796,3369.00
1362.694,3228.00
1363.593,3140.00
1364.491,3320.00
1365.391,3715.00
1366.290,3094.00
1367.187,2913.00
1368.086,3353.00
1368.984,3228.00
1369.883,2706.00
1370.782,3153.00
1371.679,3342.00
1372.577,3675.00
1373.474,3212.00
1374.373,3060.00
1375.269,3166.00
1376.168,3093.00
1377.066,3418.00
1377.962,3385.00
1378.860,3537.00
1379.756,3481.00
1380.654,3702.00
1381.552,3360.00
1382.448,3294.00
1383.346,3194.00
1384.241,3318.00
1385.139,3405.00
1386.036,3013.00
1386.931,2713.00
1387.829,3225.00
1388.724,3392.00
1389.621,3031.00
1390.516,3211.00
1391.413,3063.00
1392.309,2902.00
1393.204,3441.00
1394.101,3370.00
1394.995,3330.00
1395.891,3326.00
1396.786,2929.00
1397.682,3143.00
1398.578,3228.00
1399.472,3480.00
1400.368,3185.00
1401.262,3146.00
1402.158,3290.00
1403.051,3076.00
1403.947,3037.00
1404.840,3391.00
1405.736,3341.00
1406.631,2908.00
1407.524,3581.00
1408.419,3163.00
1409.312,3054.00
1410.207,3259.00
1411.100,3012.00
1411.995,2994.00
1412.888,3315.00
1413.782,2808.00
1414.675,3559.00
1415.569,2849.00
1416.463,3057.00
1417.355,3090.00
1418.249,2972.00
1419.141,3223.00
1420.035,3294.00
1420.927,3115.00
1421.821,3480.00
1422.713,3040.00
1423.606,3326.00
1424.498,3221.00
1425.391,3751.00
1426.282,2924.00
1427.175,3105.00
1428.068,2637.00
1428.960,3215.00
1429.852,3251.00
1430.743,2977.00
1431.636,3126.00
1432.527,3463.00
1433.419,3358.00
1434.310,3363.00
1435.202,2975.00
1436.092,3089.00
1436.984,3111.00
1437.875,3525.00
1438.767,3179.00
1439.657,2962.00
1440.548,3354.00
1441.438,3195.00
1442.330,3303.00
1443.219,3094.00
1444.111,3388.00
1445.000,3000.00
1445.891,2891.00
1446.781,2966.00
1447.672,3232.00
1448.561,3524.00
1449.452,3300.00
1450.340,2966.00
1451.231,2956.00
1452.120,2836.00
1453.010,3428.00
1453.899,3053.00
1454.789,3316.00
1455.677,3561.00
1456.568,3241.00
1457.456,3184.00
1458.346,3187.00
1459.234,3209.00
1460.123,3550.00
1461.011,3187.00
1461.901,3552.00
1462.788,3575.00
1463.678,3247.00
1464.565,3196.00
1465.454,3078.00
1466.342,3240.00
1467.231,2555.00
1468.118,3442.00
1469.006,3569.00
1469.893,2836.00
1470.782,3333.00
1471.669,3458.00
1472.557,3381.00
1473.444,3210.00
1474.330,3301.00
1475.218,3478.00
1476.105,3092.00
1476.993,3230.00
1477.879,3388.00
1478.767,3070.00
1479.652,2977.00
1480.540,3212.00
1481.426,3376.00
1482.313,3344.00
1483.199,3544.00
1484.086,3411.00
1484.972,2900.00
1485.857,2896.00
1486.744,3256.00
1487.629,2781.00
1488.516,3047.00
1489.401,3404.00
1490.287,3168.00
1491.172,2817.00
1492.058,3103.00
1492.943,2998.00
1493.828,3000.00
1494.714,3329.00
1495.598,3559.00
1496.484,4046.00
1497.368,2836.00
1498.254,3124.00
1499.138,3235.00
1500.022,3147.00
1500.907,3329.00
1501.791,3877.00
1502.676,3172.00
1503.560,3010.00
1504.445,3738.00
1505.328,3323.00
1506.211,3598.00
1507.096,3101.00
1507.979,3448.00
1508.864,3137.00
1509.747,3331.00
1510.631,3260.00
1511.514,3346.00
1512.397,3488.00
1513.281,3678.00
1514.163,3406.00
1515.047,3057.00
1515.930,2889.00
1516.812,3224.00
1517.696,3377.00
1518.578,3128.00
1519.461,3259.00
1520.343,3674.00
1521.225,3072.00
1522.108,3099.00
1522.990,3504.00
1523.873,3658.00
1524.754,2836.00
1525.635,2673.00
1526.518,3303.00
1527.399,3096.00
1528.282,3148.00
1529.163,3337.00
1530.044,3167.00
1530.926,2858.00
1531.807,2961.00
1532.689,3192.00
1533.569,2967.00
1534.450,4254.00
1535.332,3397.00
1536.212,3042.00
1537.092,3444.00
1537.974,2843.00
1538.854,3133.00
1539.735,3706.00
1540.615,3308.00
1541.495,2933.00
1542.376,3587.00
1543.255,2891.00
1544.135,3121.00
1545.016,3212.00
1545.895,2982.00
1546.774,3422.00
1547.655,2722.00
1548.534,3202.00
1549.414,3105.00
1550.293,2893.00
1551.172,3264.00
1552.052,3145.00
1552.930,3032.00
1553.809,3634.00
1554.689,3082.00
1555.567,3104.00
1556.445,3043.00
1557.325,3476.00
1558.203,2797.00
1559.080,3164.00
1559.960,3104.00
1560.838,3859.00
1561.715,3121.00
1562.594,3523.00
1563.472,3321.00
1564.349,3317.00
1565.228,2739.00
1566.105,2931.00
1566.982,3242.00
1567.861,3382.00
1568.738,3082.00
1569.615,2771.00
1570.493,3039.00
1571.370,3052.00
1572.246,2625.00
1573.124,3156.00
1574.000,3138.00
1574.877,3418.00
1575.755,3089.00
1576.631,2983.00
1577.507,3549.00
1578.384,3581.00
1579.260,3284.00
1580.136,3767.00
1581.011,3162.00
1581.889,3155.00
1582.764,3183.00
1583.639,3500.00
1584.516,3319.00
1585.391,3065.00
1586.266,3230.00
1587.143,3651.00
1588.018,3317.00
1588.893,3551.00
1589.768,3894.00
1590.644,3884.00
1591.519,2903.00
1592.393,3338.00
1593.269,3455.00
1594.143,2965.00
1595.018,3145.00
1595.892,3054.00
1596.767,2696.00
1597.641,2731.00
1598.515,2794.00
1599.391,3282.00
1600.264,3009.00
1601.138,2973.00
1602.011,2562.00
1602.886,3728.00
1603.760,3493.00
1604.633,3450.00
1605.508,3391.00
1606.381,3213.00
1607.254,3216.00
1608.127,3246.00
1609.001,2901.00
1609.874,3514.00
1610.746,3462.00
1611.619,3212.00
1612.493,3405.00
1613.365,2978.00
1614.238,3213.00
1615.110,3193.00
1615.984,3208.00
1616.855,3003.00
1617.727,3400.00
1618.599,3043.00
1619.473,3503.00
1620.344,2557.00
1621.216,3154.00
1622.087,3269.00
1622.960,3215.00
1623.832,3159.00
1624.703,3310.00
1625.574,3337.00
1626.445,3190.00
1627.317,3250.00
1628.188,3411.00
1629.059,3089.00
1629.930,3511.00
1630.802,3101.00
1631.672,3332.00
1632.543,3298.00
1633.413,3210.00
1634.283,3646.00
1635.155,3259.00
1636.025,3272.00
1636.895,3232.00
1637.765,2740.00
1638.636,3120.00
1639.506,3339.00
1640.376,3956.00
1641.245,3080.00
1642.114,3233.00
1642.985,2705.00
1643.855,2930.00
1644.724,3061.00
1645.593,3389.00
1646.462,3367.00
1647.333,3191.00
1648.201,3052.00
1649.070,3254.00
1649.939,3347.00
1650.807,2946.00
1651.676,3346.00
1652.546,3409.00
1653.414,3501.00
1654.282,3219.00
1655.150,3092.00
1656.018,3108.00
1656.888,3851.00
1657.756,3207.00
1658.623,2847.00
1659.491,2736.00
1660.359,3508.00
1661.226,3011.00
1662.095,3343.00
1662.962,3047.00
1663.830,3149.00
1664.697,3001.00
1665.564,3170.00
1666.431,3335.00
1667.297,2895.00
1668.166,2946.00
1669.033,2775.00
1669.899,3032.00
1670.766,2851.00
1671.632,3067.00
1672.499,3525.00
1673.367,3234.00
1674.233,3393.00
1675.099,3183.00
1675.965,2866.00
1676.831,3086.00
1677.696,3476.00
1678.562,5706.00
1679.430,2734.00
1680.295,2840.00
1681.161,2957.00
1682.026,2973.00
1682.891,3048.00
1683.756,3053.00
1684.621,3213.00
1685.486,3198.00
1686.353,3195.00
1687.218,3316.00
1688.083,3194.00
1688.947,3451.00
1689.812,3129.00
1690.677,3038.00
1691.541,3252.00
1692.405,2517.00
1693.269,3642.00
1694.135,3346.00
1694.999,3192.00
1695.863,3680.00
1696.727,3070.00
1697.591,3073.00
1698.455,3281.00
1699.318,3065.00
1700.182,4428.00
1701.045,3232.00
1701.909,3218.00
1702.772,3718.00
1703.637,3026.00
1704.500,2773.00
1705.363,3376.00
1706.226,3284.00
1707.089,3300.00
1707.951,3360.00
1708.814,3887.00
1709.677,3977.00
1710.539,3464.00
1711.402,3413.00
1712.264,3148.00
1713.126,3103.00
1713.988,3443.00
1714.852,3421.00
1715.714,2562.00
1716.576,2776.00
1717.438,3378.00
1718.299,2711.00
1719.161,3546.00
1720.023,3132.00
1720.884,3629.00
1721.745,3161.00
1722.607,3055.00
1723.468,2708.00
1724.329,3408.00
1725.190,3186.00
1726.051,3394.00
1726.912,3027.00
1727.772,3237.00
1728.633,3153.00
1729.494,3264.00
1730.354,3449.00
1731.214,2867.00
1732.075,3031.00
1732.935,3047.00
1733.797,3008.00
1734.657,3691.00
1735.517,3919.00
1736.377,3470.00
1737.237,3150.00
1738.096,3844.00
1738.956,3103.00
1739.816,3098.00
1740.675,3121.00
1741.534,2660.00
1742.394,3260.00
1743.253,2955.00
1744.112,3168.00
1744.971,3043.00
1745.830,3292.00
1746.689,3337.00
1747.547,3446.00
1748.406,2776.00
1749.265,3071.00
1750.123,3132.00
1750.982,3387.00
1751.840,3173.00
1752.698,3220.00
1753.556,3031.00
1754.414,3169.00
1755.272,3131.00
1756.130,3195.00
1756.988,3173.00
1757.846,3350.00
1758.703,3010.00
1759.559,3426.00
1760.417,2850.00
1761.274,3827.00
1762.131,3608.00
1762.989,3689.00
1763.846,3612.00
1764.703,3280.00
1765.560,3714.00
1766.417,3240.00
1767.273,2963.00
1768.130,3152.00
1768.987,3045.00
1769.843,3408.00
1770.700,3524.00
1771.556,3062.00
1772.412,3508.00
1773.268,3066.00
1774.125,3501.00
1774.980,3224.00
1775.836,3472.00
1776.692,3089.00
1777.546,2992.00
1778.402,3442.00
1779.257,3252.00
1780.113,3005.00
1780.968,3279.00
1781.824,3457.00
1782.679,2829.00
1783.534,3020.00
1784.389,3659.00
1785.244,3306.00
1786.099,3099.00
1786.954,3390.00
1787.808,3193.00
1788.661,3219.00
1789.516,3637.00
1790.370,3203.00
1791.225,3024.00
1792.079,2842.00
1792.933,3966.00
1793.787,3367.00
1794.641,3287.00
1795.495,3220.00
1796.349,3240.00
1797.201,3080.00
1798.055,2990.00
1798.908,3211.00
1799.762,3613.00
1800.615,3433.00
1801.469,3413.00
1802.322,3621.00
1803.175,3055.00
1804.028,2803.00
1804.880,3702.00
1805.732,3395.00
1806.585,3174.00
1807.438,3214.00
1808.291,2770.00
1809.143,2924.00
1809.996,2842.00
1810.846,4000.00
1811.699,3280.00
1812.551,3117.00
1813.403,3385.00
1814.255,3253.00
1815.107,3193.00
1815.959,3837.00
1816.809,3322.00
1817.661,3302.00
1818.512,3210.00
1819.364,3303.00
1820.215,3314.00
1821.067,2964.00
1821.918,3057.00
1822.768,3488.00
1823.619,3430.00
1824.470,3101.00
1825.321,3368.00
1826.172,3111.00
1827.021,3281.00
1827.871,3457.00
1828.722,3270.00
1829.572,3208.00
1830.423,3230.00
1831.273,3051.00
1832.122,3231.00
1832.972,3181.00
1833.822,2857.00
1834.672,3377.00
1835.522,3411.00
1836.370,2987.00
1837.220,3323.00
1838.070,2778.00
1838.919,2546.00
1839.769,2982.00
1840.616,3458.00
1841.466,3395.00
1842.315,2929.00
1843.164,3848.00
1844.013,3012.00
1844.860,2860.00
1845.709,2990.00
1846.558,3483.00
1847.407,2860.00
1848.254,3312.00
1849.102,3213.00
1849.951,2989.00
1850.799,2627.00
1851.648,3068.00
1852.494,3233.00
1853.342,3287.00
1854.190,3578.00
1855.038,3563.00
1855.884,3205.00
1856.732,4082.00
1857.580,3615.00
1858.428,3073.00
1859.273,2915.00
1860.121,3006.00
1860.968,4044.00
1861.816,3530.00
1862.661,3594.00
1863.508,3766.00
1864.355,3469.00
1865.202,3529.00
1866.047,3317.00
1866.894,3596.00
1867.741,3737.00
1868.586,3342.00
1869.432,3307.00
1870.279,3155.00
1871.125,3076.00
1871.970,3823.00
1872.816,3340.00
1873.662,2718.00
1874.506,3391.00
1875.352,3497.00
1876.198,3614.00
1877.044,3805.00
1877.888,3160.00
1878.734,3270.00
1879.579,3047.00
1880.423,2860.00
1881.268,3127.00
1882.113,3484.00
1882.959,3177.00
1883.802,3010.00
1884.647,3577.00
1885.492,3247.00
1886.335,3152.00
1887.180,3087.00
1888.025,3240.00
1888.867,3050.00
1889.712,3302.00
1890.556,2968.00
1891.399,3506.00
1892.243,3521.00
1893.087,3112.00
1893.930,3373.00
1894.774,3368.00
1895.618,3568.00
1896.460,2855.00
1897.304,3137.00
1898.147,3062.00
1898.989,2936.00
1899.833,3356.00
1900.676,3058.00
1901.518,3539.00
1902.361,3600.00
1903.202,3129.00
1904.046,3025.00
1904.889,3197.00
1905.730,3143.00
1906.573,2881.00
1907.415,3278.00
1908.256,3615.00
1909.099,3362.00
1909.941,3379.00
1910.782,3334.00
1911.624,3097.00
1912.465,3378.00
1913.307,3260.00
1914.149,2938.00
1914.989,3504.00
1915.831,3171.00
1916.671,3677.00
1917.513,3108.00
1918.355,3273.00
1919.195,3444.00
1920.036,3311.00
1920.876,3222.00
1921.717,3365.00
1922.558,3263.00
1923.398,3217.00
1924.239,3243.00
1925.078,3541.00
1925.919,2911.00
1926.760,3379.00
1927.599,3107.00
1928.440,3466.00
1929.279,3291.00
1930.119,3666.00
1930.958,3122.00
1931.798,3226.00
1932.638,3092.00
1933.477,3255.00
1934.317,3017.00
1935.155,3053.00
1935.995,3312.00
1936.833,3061.00
1937.673,3067.00
1938.512,3687.00
1939.350,2799.00
1940.190,3160.00
1941.027,3203.00
1941.867,3118.00
1942.704,3226.00
1943.543,3199.00
1944.381,3428.00
1945.220,3614.00
1946.057,3349.00
1946.896,3472.00
1947.733,3222.00
1948.572,3033.00
1949.408,3581.00
1950.247,3326.00
1951.085,3420.00
1951.922,3588.00
1952.760,3011.00
1953.597,3619.00
1954.435,2600.00
1955.271,3421.00
1956.109,3125.00
1956.945,2839.00
1957.783,3327.00
1958.619,3037.00
1959.456,3195.00
1960.292,3275.00
1961.129,3566.00
1961.965,3763.00
1962.802,2994.00
1963.638,2971.00
1964.475,3303.00
1965.310,3273.00
1966.145,3278.00
1966.982,3065.00
1967.817,2954.00
1968.654,3251.00
1969.489,3039.00
1970.325,3256.00
1971.160,2970.00
1971.996,3404.00
1972.831,3467.00
1973.667,3170.00
1974.501,3636.00
1975.337,3476.00
1976.171,3120.00
1977.006,3482.00
1977.841,3116.00
1978.675,3520.00
1979.511,3832.00
1980.345,2976.00
1981.180,3424.00
1982.014,3265.00
1982.849,2980.00
1983.682,3049.00
1984.516,3069.00
1985.351,2852.00
1986.184,2751.00
1987.019,2748.00
1987.852,2506.00
1988.687,2758.00
1989.519,2988.00
1990.352,3230.00
1991.187,2741.00
1992.019,3009.00
1992.854,3381.00
1993.686,2965.00
1994.518,3056.00
1995.352,2566.00
1996.185,2306.00
1997.019,2879.00
1997.851,2659.00
1998.682,2709.00
1999.516,2732.00
2000.348,2484.00
