RamanScope Measure Spectrum Data V3.72

<< MEASURE CONDITION >>
Exposure Type,Aver
Exposure Time [sec],20
Exposure Count,2
Measure Time,2024/02/15 21:06:20
Data Name,""
Data Comment,""
Rayleigh Wave[nm],532.0

<< SAMPLE SPECTRUM >>
Wave[dcm-1],No38
96.716,33.50
97.759,-5.50
98.802,24.00
99.846,-10.50
100.886,-9.50
101.929,8.50
102.972,42.50
104.015,12.50
105.057,31.00
106.100,32.50
107.142,1.00
108.184,-29.00
109.226,13.50
110.268,12.00
111.310,60.50
112.352,-12.00
113.393,-5.00
114.435,4.50
115.476,30.00
116.517,61.00
117.558,8.00
118.599,43.00
119.640,3.00
120.681,38.50
121.722,-34.00
122.762,19.50
123.803,20.00
124.843,12.00
125.883,-7.00
126.923,12.50
127.963,-5.50
129.001,-13.50
130.041,-23.00
131.080,-3.50
132.120,-31.00
133.159,-2.00
134.199,-23.50
135.238,25.50
136.277,14.00
137.316,31.00
138.355,63.50
139.393,-7.00
140.432,-7.50
141.470,38.50
142.509,54.00
143.547,49.50
144.585,43.50
145.623,-5.00
146.661,52.00
147.699,90.50
148.736,125.50
149.774,224.00
150.811,224.50
151.849,271.50
152.886,397.50
153.923,512.00
154.960,636.00
155.997,799.50
157.034,870.50
158.072,985.00
159.109,1201.50
160.145,1321.00
161.182,1502.50
162.218,1683.50
163.254,1838.00
164.290,1989.00
165.326,2141.50
166.361,2154.50
167.397,2297.50
168.432,2345.50
169.468,2428.00
170.503,2464.00
171.538,2509.50
172.573,2552.00
173.608,2560.50
174.643,2642.00
175.677,2704.00
176.712,2640.00
177.746,2699.50
178.781,2738.50
179.815,2848.00
180.849,2912.50
181.883,2937.00
182.917,2978.50
183.951,3031.50
184.984,3114.50
186.020,3156.50
187.053,3117.00
188.087,3077.00
189.120,3106.50
190.153,3082.00
191.186,3088.50
192.219,3020.00
193.251,2981.50
194.284,2949.00
195.317,2966.00
196.349,2909.50
197.381,2968.50
198.413,2970.00
199.445,2964.00
200.477,3000.50
201.509,3106.00
202.543,3000.00
203.575,3074.00
204.606,3122.50
205.637,3204.00
206.669,3161.50
207.700,3229.50
208.731,3325.50
209.762,3287.00
210.792,3313.00
211.823,3395.00
212.854,3480.00
213.884,3408.00
214.914,3519.50
215.947,3538.00
216.977,3668.50
218.007,3755.50
219.037,3802.50
220.066,3945.50
221.096,4018.50
222.126,4040.00
223.155,4134.00
224.184,4085.50
225.214,4280.00
226.245,4295.50
227.274,4285.50
228.302,4344.00
229.331,4376.50
230.360,4323.00
231.388,4336.00
232.417,4234.00
233.445,4244.50
234.473,4165.50
235.501,4085.00
236.531,4107.50
237.559,4024.50
238.587,3867.00
239.614,3881.50
240.642,3815.00
241.669,3821.00
242.696,3730.00
243.724,3722.50
244.753,3751.50
245.780,3712.50
246.806,3675.00
247.833,3646.50
248.860,3639.50
249.886,3601.50
250.913,3678.50
251.939,3676.00
252.967,3753.00
253.993,3767.50
255.019,3730.50
256.045,3812.00
257.070,3847.50
258.096,3811.50
259.121,3777.50
260.147,3772.00
261.174,3742.50
262.199,3779.00
263.224,3778.50
264.249,3742.50
265.274,3695.50
266.298,3793.50
267.323,3789.50
268.349,3778.50
269.374,3807.00
270.398,3868.00
271.422,3832.00
272.446,3862.00
273.470,3908.50
274.496,3889.50
275.519,3878.50
276.543,3874.00
277.566,3959.50
278.589,4002.50
279.613,4043.50
280.636,4126.00
281.661,4111.50
282.684,4134.00
283.706,4232.50
284.729,4145.00
285.751,4186.00
286.774,4197.00
287.798,4226.00
288.820,4184.50
289.842,4184.50
290.864,4145.50
291.886,4135.00
292.910,4110.00
293.932,4002.00
294.953,4002.00
295.974,4010.00
296.996,3940.00
298.017,3930.00
299.040,3813.50
300.061,3780.50
301.082,3673.50
302.102,3645.50
303.123,3678.00
304.143,3565.00
305.166,3504.00
306.186,3518.00
307.206,3532.50
308.226,3426.00
309.246,3374.50
310.268,3328.50
311.288,3342.00
312.307,3250.50
313.327,3304.50
314.346,3222.50
315.368,3210.00
316.387,3171.00
317.406,3197.50
318.425,3128.00
319.443,3157.00
320.464,3111.50
321.483,3070.00
322.501,3005.00
323.520,2978.50
324.538,2981.50
325.558,2941.50
326.576,2885.00
327.594,2936.00
328.612,2940.50
329.629,2970.00
330.649,2932.00
331.666,2968.50
332.684,2882.50
333.701,2852.00
334.718,2833.00
335.737,2847.00
336.754,2828.00
337.771,2774.50
338.787,2814.50
339.806,2802.50
340.823,2768.50
341.839,2771.50
342.855,2727.00
343.871,2771.50
344.889,2791.50
345.905,2770.50
346.921,2725.50
347.937,2782.50
348.954,2749.00
349.970,2681.00
350.985,2760.00
352.000,2726.00
353.017,2723.00
354.032,2755.50
355.047,2662.00
356.062,2651.00
357.077,2736.00
358.093,2765.50
359.108,2705.00
360.122,2685.00
361.136,2673.50
362.152,2689.00
363.166,2729.50
364.180,2665.00
365.194,2656.50
366.210,2713.00
367.223,2730.50
368.237,2699.50
369.250,2696.50
370.265,2664.00
371.278,2642.00
372.291,2743.00
373.304,2713.50
374.319,2775.00
375.332,2748.00
376.344,2750.50
377.357,2771.00
378.371,2627.00
379.383,2718.00
380.395,2713.00
381.407,2826.00
382.421,2794.00
383.433,2792.50
384.445,2783.00
385.456,2785.00
386.470,2802.00
387.481,2820.00
388.492,2782.50
389.505,2797.00
390.516,2733.50
391.527,2819.50
392.538,2790.50
393.551,2735.00
394.561,2796.00
395.572,2821.50
396.582,2831.00
397.594,2815.00
398.604,2828.00
399.614,2788.00
400.624,2741.00
401.636,2780.50
402.646,2797.00
403.655,2824.00
404.667,2835.50
405.676,2800.00
406.685,2792.00
407.694,2747.50
408.705,2763.50
409.714,2725.00
410.723,2812.50
411.734,2698.50
412.742,2743.00
413.751,2680.00
414.759,2710.50
415.769,2656.50
416.777,2649.50
417.785,2683.00
418.795,2642.50
419.803,2654.50
420.811,2611.50
421.818,2625.50
422.828,2654.50
423.835,2557.50
424.842,2585.50
425.852,2669.50
426.859,2587.00
427.866,2569.50
428.874,2549.50
429.881,2546.50
430.888,2586.50
431.894,2566.50
432.902,2567.00
433.909,2524.00
434.915,2472.50
435.923,2487.50
436.929,2495.50
437.935,2547.50
438.942,2489.50
439.948,2495.00
440.953,2523.00
441.959,2526.00
442.966,2574.00
443.971,2527.50
444.976,2466.50
445.983,2480.50
446.988,2432.00
447.993,2413.00
448.999,2500.00
450.004,2529.50
451.008,2531.50
452.014,2501.00
453.019,2503.00
454.023,2489.00
455.029,2486.50
456.032,2474.50
457.036,2520.50
458.042,2473.50
459.045,2537.50
460.049,2502.00
461.052,2483.00
462.057,2457.00
463.060,2509.50
464.063,2467.50
465.068,2514.00
466.071,2534.50
467.073,2505.50
468.078,2496.00
469.080,2548.00
470.082,2505.00
471.087,2552.50
472.089,2604.00
473.091,2514.00
474.095,2467.50
475.096,2480.50
476.098,2506.50
477.101,2525.50
478.103,2572.50
479.104,2494.50
480.107,2516.00
481.108,2523.00
482.109,2563.00
483.112,2488.50
484.113,2569.50
485.114,2509.00
486.116,2508.50
487.117,2519.50
488.117,2531.50
489.119,2559.00
490.119,2552.50
491.121,2576.00
492.121,2500.50
493.121,2568.50
494.123,2522.00
495.122,2557.50
496.122,2546.00
497.123,2552.00
498.122,2538.50
499.121,2535.50
500.122,2575.50
501.121,2514.00
502.120,2567.00
503.121,2563.00
504.119,2516.50
505.118,2511.00
506.118,2526.00
507.117,2534.50
508.115,2491.50
509.115,2506.50
510.113,2530.50
511.112,2514.00
512.110,2477.00
513.108,2515.00
514.107,2447.00
515.105,2533.50
516.102,2433.00
517.101,2510.50
518.098,2417.00
519.095,2407.00
520.094,2488.00
521.091,2447.00
522.089,2421.00
523.086,2493.50
524.082,2486.50
525.081,2470.50
526.077,2461.50
527.073,2492.50
528.071,2429.50
529.067,2457.00
530.064,2401.50
531.060,2492.50
532.056,2463.50
533.053,2366.00
534.048,2405.00
535.044,2404.00
536.041,2426.00
537.036,2406.00
538.030,2455.00
539.027,2453.00
540.022,2520.50
541.019,2448.00
542.013,2465.50
543.007,2469.50
544.004,2421.00
544.998,2522.50
545.994,2516.50
546.988,2512.00
547.981,2431.00
548.977,2446.00
549.971,2479.50
550.964,2452.50
551.960,2470.50
552.953,2433.00
553.948,2509.50
554.941,2459.00
555.934,2492.50
556.929,2449.00
557.922,2437.00
558.916,2412.50
559.909,2441.00
560.901,2441.00
561.895,2461.50
562.888,2516.00
563.880,2490.00
564.874,2447.00
565.865,2410.00
566.859,2516.50
567.851,2472.50
568.842,2485.00
569.836,2374.00
570.827,2464.00
571.820,2473.00
572.811,2485.00
573.802,2362.00
574.795,2447.50
575.786,2433.50
576.779,2400.50
577.769,2489.50
578.760,2522.00
579.752,2503.50
580.742,2494.00
581.735,2513.00
582.725,2502.50
583.714,2441.50
584.706,2510.00
585.696,2472.50
586.688,2532.00
587.677,2506.00
588.667,2519.50
589.658,2533.00
590.647,2496.00
591.638,2560.00
592.627,2523.50
593.616,2549.00
594.607,2576.00
595.595,2529.50
596.586,2548.00
597.574,2555.00
598.562,2555.50
599.553,2615.50
600.541,2637.50
601.531,2608.00
602.519,2523.00
603.508,2583.50
604.496,2562.50
605.484,2505.00
606.473,2585.50
607.460,2593.00
608.450,2584.50
609.437,2622.50
610.424,2556.50
611.413,2596.50
612.400,2580.50
613.388,2537.00
614.375,2565.50
615.361,2539.50
616.350,2597.00
617.336,2646.00
618.324,2559.50
619.310,2537.00
620.298,2541.50
621.284,2495.50
622.270,2554.00
623.257,2498.00
624.243,2503.00
625.230,2542.50
626.216,2418.00
627.203,2468.00
628.188,2516.00
629.173,2301.50
630.160,2451.00
631.145,2460.50
632.131,2355.50
633.116,2387.50
634.102,2392.00
635.087,2372.00
636.071,2317.00
637.057,2302.50
638.041,2281.00
639.027,2306.50
640.011,2246.00
640.995,2262.00
641.980,2210.50
642.964,2238.50
643.949,2243.00
644.932,2243.00
645.918,2198.00
646.901,2179.00
647.886,2223.00
648.868,2207.00
649.851,2156.50
650.836,2101.00
651.818,2107.00
652.803,2121.50
653.785,2079.50
654.769,2144.00
655.751,2150.00
656.733,2112.00
657.717,2081.50
658.699,2108.00
659.683,2018.00
660.664,2018.50
661.648,2043.50
662.629,2099.00
663.611,2068.00
664.594,2036.50
665.575,1999.00
666.558,1994.50
667.539,1977.00
668.521,1972.00
669.502,1979.50
670.484,2009.00
671.465,1987.00
672.445,1922.50
673.427,1886.00
674.407,2016.50
675.390,1924.50
676.369,1933.00
677.351,1941.00
678.331,1932.00
679.312,1925.00
680.292,1901.00
681.271,1948.00
682.253,1888.50
683.232,1903.00
684.213,1890.00
685.192,1844.00
686.172,1796.50
687.151,1815.00
688.132,1822.00
689.110,1885.00
690.089,1842.00
691.069,1854.50
692.047,1776.00
693.027,1756.00
694.005,1763.00
694.985,1799.00
695.963,1745.00
696.943,1727.50
697.920,1731.00
698.898,1742.50
699.877,1700.00
700.854,1678.00
701.833,1677.50
702.810,1694.00
703.789,1647.00
704.766,1651.50
705.745,1726.00
706.721,1679.50
707.698,1650.50
708.676,1614.00
709.653,1705.50
710.631,1638.00
711.607,1663.00
712.585,1623.50
713.561,1611.00
714.539,1591.00
715.514,1567.00
716.492,1549.00
717.467,1559.00
718.443,1546.00
719.420,1568.00
720.395,1586.00
721.372,1585.50
722.347,1489.00
723.324,1562.50
724.298,1522.50
725.275,1567.00
726.250,1531.00
727.226,1540.50
728.200,1532.00
729.176,1580.50
730.151,1475.50
731.125,1514.50
732.100,1502.00
733.074,1466.50
734.050,1500.00
735.023,1462.00
735.999,1474.50
736.972,1484.50
737.947,1457.00
738.921,1442.50
739.896,1509.50
740.869,1426.00
741.841,1436.50
742.816,1471.50
743.789,1368.00
744.763,1444.50
745.736,1397.00
746.710,1463.00
747.682,1445.00
748.656,1422.50
749.628,1426.00
750.602,1384.00
751.574,1375.00
752.548,1398.00
753.519,1381.50
754.491,1345.50
755.464,1402.50
756.435,1425.50
757.408,1361.00
758.379,1397.50
759.352,1339.50
760.323,1351.50
761.296,1352.00
762.267,1359.50
763.239,1316.00
764.209,1396.50
765.182,1373.50
766.152,1323.50
767.124,1308.00
768.094,1268.50
769.064,1318.00
770.036,1271.00
771.005,1357.50
771.977,1317.00
772.947,1341.50
773.918,1294.50
774.887,1267.00
775.858,1271.50
776.827,1306.50
777.798,1263.50
778.767,1292.00
779.738,1315.00
780.707,1257.00
781.677,1273.00
782.646,1273.50
783.614,1297.50
784.584,1240.50
785.552,1288.50
786.522,1292.00
787.490,1239.50
788.460,1244.00
789.428,1211.50
790.397,1262.00
791.365,1254.00
792.334,1254.00
793.302,1246.00
794.271,1243.00
795.238,1254.50
796.207,1241.00
797.174,1193.50
798.143,1226.00
799.109,1180.00
800.076,1188.00
801.044,1220.50
802.011,1211.50
802.979,1236.00
803.945,1208.50
804.913,1187.50
805.879,1189.00
806.847,1217.00
807.813,1173.00
808.780,1141.50
809.746,1185.50
810.713,1193.00
811.678,1129.00
812.646,1183.50
813.611,1139.50
814.578,1185.00
815.543,1188.50
816.510,1128.50
817.474,1125.00
818.439,1128.50
819.405,1144.00
820.370,1158.00
821.336,1066.00
822.300,1156.00
823.266,1102.00
824.230,1138.00
825.196,1190.50
826.160,1126.50
827.126,1168.00
828.089,1109.00
829.055,1101.00
830.018,1113.00
830.983,1168.00
831.946,1110.00
832.911,1077.50
833.874,1060.50
834.837,1135.00
835.802,1109.50
836.765,1134.00
837.729,1078.50
838.691,1117.50
839.656,1143.50
840.618,1103.00
841.582,1158.50
842.544,1075.00
843.508,1129.00
844.470,1059.50
845.434,1101.00
846.395,1119.00
847.359,1086.50
848.320,1081.00
849.283,1146.50
850.245,1100.00
851.208,1081.00
852.169,1108.50
853.130,1079.00
854.092,1092.00
855.053,1107.50
856.016,1083.00
856.976,1119.50
857.938,1067.00
858.899,1054.00
859.861,1035.00
860.821,1115.00
861.783,1071.50
862.743,1017.50
863.704,1071.50
864.664,1097.50
865.626,1112.00
866.585,1074.50
867.546,1073.50
868.506,1116.50
869.467,1062.50
870.426,1051.50
871.387,1106.00
872.346,1067.50
873.304,1079.00
874.265,1072.00
875.223,1057.50
876.184,1045.50
877.142,993.00
878.102,1057.50
879.060,1113.00
880.021,1042.00
880.978,1098.00
881.938,1042.00
882.896,1076.00
883.856,1037.00
884.813,1019.00
885.772,1065.50
886.730,1089.50
887.689,1076.50
888.646,1065.00
889.603,1010.50
890.562,1050.00
891.519,1041.50
892.477,1035.00
893.434,1100.50
894.392,1050.00
895.349,1143.00
896.307,1061.00
897.263,1061.00
898.221,1025.00
899.177,1070.50
900.135,1048.50
901.091,1100.00
902.048,1047.00
903.004,1134.50
903.961,1054.00
904.917,1065.00
905.874,1017.50
906.829,1102.00
907.784,1092.00
908.741,1040.50
909.696,1079.50
910.653,1052.50
911.607,1077.00
912.564,1125.50
913.518,1058.00
914.475,1147.00
915.429,1024.00
916.385,1069.00
917.339,1050.50
918.295,1042.00
919.249,1062.00
920.205,1069.50
921.158,1035.00
922.114,1017.00
923.067,1021.00
924.020,1039.50
924.976,1091.00
925.929,1062.00
926.884,1122.00
927.837,1029.00
928.791,1075.00
929.744,1096.50
930.699,1075.00
931.651,1105.00
932.606,1063.00
933.558,1054.50
934.512,1092.50
935.464,1092.00
936.418,1062.00
937.370,1086.50
938.322,1103.00
939.276,1114.00
940.227,1098.50
941.181,1118.50
942.132,1090.00
943.085,1088.50
944.036,1084.00
944.990,1069.00
945.941,1038.50
946.893,1115.00
947.844,1041.50
948.797,1043.50
949.747,1077.00
950.700,1054.50
951.650,1124.50
952.601,1108.00
953.553,1083.00
954.503,1073.50
955.455,1077.00
956.405,1066.00
957.356,1102.00
958.306,1019.50
959.258,1034.00
960.207,972.00
961.158,1017.00
962.108,1083.00
963.059,1042.00
964.008,1045.50
964.959,1048.50
965.908,1096.00
966.856,1061.00
967.807,1075.50
968.756,1037.00
969.706,1023.50
970.654,1089.50
971.605,1053.50
972.553,1022.00
973.503,1089.50
974.451,1025.00
975.401,1080.50
976.348,976.50
977.296,1048.00
978.246,997.00
979.193,1017.50
980.142,1070.00
981.090,1049.00
982.039,1044.00
982.986,1064.00
983.935,1043.00
984.882,1005.00
985.830,1025.00
986.777,997.00
987.725,1044.50
988.672,1033.50
989.618,1025.00
990.567,1015.50
991.513,1003.00
992.461,996.00
993.407,1031.00
994.354,1015.50
995.300,1032.50
996.248,1021.00
997.193,1056.00
998.141,1049.50
999.086,1060.50
1000.031,1022.50
1000.978,986.50
1001.924,1013.50
1002.870,961.00
1003.815,1039.50
1004.762,1003.50
1005.707,1005.00
1006.653,1038.50
1007.598,1033.50
1008.542,1004.00
1009.488,1025.50
1010.432,1060.50
1011.378,1036.50
1012.322,957.00
1013.268,1059.50
1014.212,1051.00
1015.157,1014.00
1016.101,1034.50
1017.046,1018.00
1017.990,999.50
1018.933,1070.00
1019.878,1067.00
1020.821,973.50
1021.766,1033.50
1022.709,1011.50
1023.654,1030.00
1024.596,1022.00
1025.541,1018.00
1026.483,981.00
1027.425,1024.50
1028.370,1053.50
1029.312,1034.00
1030.256,1026.00
1031.198,1039.00
1032.141,1080.00
1033.083,975.50
1034.027,1066.50
1034.968,1025.50
1035.910,1025.50
1036.853,1044.00
1037.794,1080.50
1038.738,1055.50
1039.679,1049.50
1040.621,1111.50
1041.562,1103.00
1042.503,999.50
1043.446,1046.50
1044.386,1035.50
1045.329,975.00
1046.269,1063.00
1047.211,1072.50
1048.151,1009.00
1049.093,1057.00
1050.033,1014.50
1050.973,1017.50
1051.915,1086.50
1052.854,1061.50
1053.796,1061.50
1054.735,1102.50
1055.677,1082.50
1056.616,1104.00
1057.555,1133.00
1058.496,1057.00
1059.435,1091.50
1060.376,1063.00
1061.315,1119.50
1062.255,1118.00
1063.194,1090.50
1064.132,1049.00
1065.073,1069.00
1066.011,1131.00
1066.951,1120.50
1067.889,1071.50
1068.829,1082.00
1069.767,1083.50
1070.705,1173.00
1071.644,1091.00
1072.582,1094.50
1073.521,1123.50
1074.459,1127.50
1075.398,1138.00
1076.335,1119.00
1077.272,1175.00
1078.211,1134.50
1079.148,1132.50
1080.087,1117.00
1081.023,1112.50
1081.962,1193.50
1082.898,1137.50
1083.835,1087.50
1084.773,1121.00
1085.709,1193.50
1086.647,1192.00
1087.583,1144.00
1088.519,1137.50
1089.457,1157.00
1090.392,1138.50
1091.330,1103.00
1092.266,1137.00
1093.203,1213.00
1094.138,1102.00
1095.073,1176.00
1096.010,1125.50
1096.945,1146.50
1097.882,1146.50
1098.817,1173.50
1099.752,1122.50
1100.688,1114.50
1101.623,1136.00
1102.559,1073.00
1103.493,1156.50
1104.430,1145.50
1105.364,1147.50
1106.298,1163.00
1107.234,1169.00
1108.167,1135.50
1109.094,1108.50
1110.019,1111.00
1110.945,1113.50
1111.869,1152.00
1112.795,1052.00
1113.720,1100.00
1114.646,1135.00
1115.571,1097.00
1116.495,1113.00
1117.420,1139.00
1118.345,1097.00
1119.270,1095.50
1120.195,1112.50
1121.118,1087.50
1122.042,1087.00
1122.967,1064.00
1123.891,1064.00
1124.816,1097.00
1125.738,1095.00
1126.663,1031.50
1127.587,1036.50
1128.511,1023.50
1129.435,1008.50
1130.357,1024.50
1131.280,1006.00
1132.204,1025.00
1133.128,1027.50
1134.051,985.50
1134.972,1015.00
1135.896,1026.50
1136.819,984.50
1137.742,1004.00
1138.665,1008.50
1139.586,1012.50
1140.509,1025.00
1141.431,1007.50
1142.354,963.00
1143.276,938.50
1144.197,965.00
1145.119,1006.00
1146.041,980.50
1146.964,977.00
1147.885,955.00
1148.806,926.50
1149.727,988.50
1150.649,998.50
1151.571,930.00
1152.492,984.00
1153.412,948.00
1154.333,954.00
1155.254,975.00
1156.175,991.50
1157.095,1008.50
1158.016,988.00
1158.936,902.00
1159.857,946.00
1160.778,920.00
1161.697,889.50
1162.617,936.50
1163.537,873.00
1164.458,945.00
1165.376,933.50
1166.296,913.50
1167.216,916.00
1168.136,922.50
1169.056,911.00
1169.974,983.00
1170.893,858.50
1171.813,891.50
1172.732,909.50
1173.650,911.00
1174.569,928.50
1175.488,831.50
1176.407,897.00
1177.326,899.50
1178.243,927.50
1179.161,889.50
1180.080,883.00
1180.999,882.50
1181.915,934.50
1182.834,855.00
1183.752,897.50
1184.670,846.00
1185.586,857.50
1186.504,852.50
1187.422,875.00
1188.340,850.00
1189.258,885.00
1190.173,865.00
1191.091,864.50
1192.008,898.00
1192.926,872.00
1193.841,887.00
1194.758,899.50
1195.675,867.50
1196.592,904.00
1197.507,832.00
1198.424,852.00
1199.340,851.00
1200.257,856.50
1201.172,815.50
1202.088,861.50
1203.004,845.50
1203.920,848.00
1204.835,861.00
1205.750,916.50
1206.666,894.50
1207.582,875.00
1208.496,855.00
1209.412,847.00
1210.327,876.00
1211.243,867.00
1212.156,848.00
1213.071,877.00
1213.986,835.50
1214.901,810.00
1215.814,847.00
1216.729,821.50
1217.644,846.50
1218.559,853.50
1219.471,835.50
1220.386,881.50
1221.300,835.50
1222.213,931.50
1223.127,902.00
1224.041,820.00
1224.955,868.00
1225.867,860.50
1226.781,780.00
1227.694,947.00
1228.608,879.00
1229.520,835.50
1230.433,830.00
1231.346,850.00
1232.260,787.50
1233.171,844.00
1234.084,891.00
1234.997,870.50
1235.908,863.00
1236.821,855.50
1237.733,833.50
1238.646,816.00
1239.556,862.00
1240.469,834.00
1241.381,861.50
1242.293,837.50
1243.203,868.50
1244.115,860.00
1245.027,893.00
1245.937,909.50
1246.849,846.00
1247.761,903.00
1248.672,841.00
1249.582,874.00
1250.493,900.00
1251.404,904.00
1252.313,894.50
1253.225,858.00
1254.135,808.00
1255.046,901.00
1255.955,878.00
1256.866,821.00
1257.777,925.50
1258.685,889.00
1259.596,869.50
1260.506,879.00
1261.416,949.00
1262.324,865.50
1263.234,857.00
1264.144,927.50
1265.052,909.00
1265.962,905.50
1266.872,909.50
1267.779,892.00
1268.689,839.00
1269.598,867.50
1270.507,895.00
1271.415,888.00
1272.324,858.50
1273.233,855.00
1274.140,860.00
1275.048,905.00
1275.957,849.00
1276.864,872.00
1277.772,840.00
1278.681,881.00
1279.587,847.00
1280.496,862.50
1281.404,922.00
1282.312,903.50
1283.218,904.50
1284.126,867.00
1285.033,837.00
1285.939,861.50
1286.847,880.50
1287.754,868.00
1288.660,914.00
1289.567,911.00
1290.474,920.00
1291.380,917.00
1292.286,896.50
1293.193,915.00
1294.098,887.00
1295.005,845.00
1295.912,844.00
1296.816,885.00
1297.723,862.00
1298.629,853.00
1299.534,883.00
1300.440,864.00
1301.346,876.00
1302.250,872.00
1303.156,849.50
1304.062,842.00
1304.966,840.50
1305.871,869.00
1306.777,881.00
1307.680,824.50
1308.586,826.50
1309.491,853.50
1310.394,866.50
1311.299,828.50
1312.204,806.50
1313.107,876.50
1314.012,864.50
1314.917,860.00
1315.819,870.50
1316.724,847.50
1317.628,881.00
1318.531,863.50
1319.435,846.50
1320.339,893.00
1321.241,819.50
1322.145,905.50
1323.049,811.00
1323.951,822.50
1324.854,854.50
1325.756,846.50
1326.659,848.50
1327.563,807.00
1328.464,805.50
1329.367,821.50
1330.271,826.50
1331.172,835.00
1332.074,807.00
1332.977,781.00
1333.878,797.50
1334.781,774.50
1335.683,806.50
1336.584,804.00
1337.486,762.50
1338.387,804.00
1339.289,848.50
1340.191,856.50
1341.091,789.50
1341.993,811.00
1342.895,718.50
1343.794,725.00
1344.696,829.50
1345.596,785.50
1346.497,808.50
1347.398,777.00
1348.298,753.00
1349.199,813.00
1350.100,758.00
1350.999,796.50
1351.900,819.50
1352.799,735.50
1353.699,771.50
1354.600,769.50
1355.499,829.50
1356.399,740.00
1357.297,783.00
1358.198,721.00
1359.098,756.00
1359.996,761.50
1360.896,723.00
1361.796,763.50
1362.694,708.00
1363.593,744.50
1364.491,743.50
1365.391,715.50
1366.290,766.50
1367.187,728.00
1368.086,689.00
1368.984,724.00
1369.883,751.00
1370.782,658.00
1371.679,717.00
1372.577,739.00
1373.474,687.50
1374.373,743.50
1375.269,727.50
1376.168,717.00
1377.066,698.00
1377.962,692.00
1378.860,721.00
1379.756,755.00
1380.654,689.00
1381.552,761.00
1382.448,700.50
1383.346,690.00
1384.241,662.50
1385.139,661.50
1386.036,694.50
1386.931,718.00
1387.829,688.00
1388.724,691.00
1389.621,684.00
1390.516,677.00
1391.413,663.00
1392.309,693.00
1393.204,645.00
1394.101,678.00
1394.995,678.00
1395.891,694.50
1396.786,663.50
1397.682,645.50
1398.578,702.50
1399.472,651.50
1400.368,623.50
1401.262,696.50
1402.158,658.50
1403.051,688.50
1403.947,631.50
1404.840,652.00
1405.736,704.50
1406.631,681.00
1407.524,675.50
1408.419,643.00
1409.312,651.00
1410.207,641.50
1411.100,674.00
1411.995,657.00
1412.888,705.50
1413.782,645.00
1414.675,634.00
1415.569,668.50
1416.463,665.00
1417.355,654.00
1418.249,615.00
1419.141,627.50
1420.035,594.50
1420.927,640.50
1421.821,619.00
1422.713,622.00
1423.606,644.00
1424.498,624.50
1425.391,667.50
1426.282,637.50
1427.175,650.50
1428.068,616.00
1428.960,602.50
1429.852,591.00
1430.743,655.00
1431.636,664.50
1432.527,584.50
1433.419,595.00
1434.310,607.50
1435.202,660.00
1436.092,624.00
1436.984,612.50
1437.875,579.50
1438.767,631.00
1439.657,633.50
1440.548,593.50
1441.438,622.50
1442.330,635.00
1443.219,634.00
1444.111,606.50
1445.000,627.00
1445.891,616.00
1446.781,641.00
1447.672,593.50
1448.561,572.50
1449.452,596.50
1450.340,556.50
1451.231,601.00
1452.120,613.50
1453.010,605.50
1453.899,600.50
1454.789,614.00
1455.677,618.50
1456.568,606.00
1457.456,556.00
1458.346,573.50
1459.234,603.50
1460.123,651.50
1461.011,570.50
1461.901,566.00
1462.788,639.00
1463.678,582.00
1464.565,623.00
1465.454,621.00
1466.342,560.50
1467.231,610.00
1468.118,523.00
1469.006,594.50
1469.893,568.50
1470.782,584.50
1471.669,601.00
1472.557,548.00
1473.444,616.50
1474.330,597.50
1475.218,549.50
1476.105,591.00
1476.993,560.50
1477.879,511.00
1478.767,591.00
1479.652,600.50
1480.540,550.50
1481.426,600.50
1482.313,586.00
1483.199,538.00
1484.086,532.50
1484.972,535.00
1485.857,540.00
1486.744,511.50
1487.629,546.00
1488.516,526.50
1489.401,574.50
1490.287,573.00
1491.172,503.00
1492.058,545.00
1492.943,536.50
1493.828,534.00
1494.714,597.00
1495.598,546.00
1496.484,533.50
1497.368,559.50
1498.254,577.00
1499.138,550.00
1500.022,524.50
1500.907,534.00
1501.791,515.50
1502.676,538.00
1503.560,531.50
1504.445,582.50
1505.328,518.00
1506.211,570.00
1507.096,557.50
1507.979,492.00
1508.864,572.50
1509.747,561.50
1510.631,566.50
1511.514,536.00
1512.397,551.50
1513.281,528.50
1514.163,505.00
1515.047,510.00
1515.930,534.50
1516.812,540.00
1517.696,524.00
1518.578,529.00
1519.461,555.50
1520.343,533.00
1521.225,583.00
1522.108,547.00
1522.990,497.00
1523.873,521.50
1524.754,573.00
1525.635,497.50
1526.518,489.00
1527.399,535.00
1528.282,536.50
1529.163,532.50
1530.044,497.00
1530.926,474.00
1531.807,539.00
1532.689,527.50
1533.569,522.00
1534.450,494.50
1535.332,512.00
1536.212,567.00
1537.092,547.50
1537.974,489.50
1538.854,517.00
1539.735,536.50
1540.615,518.50
1541.495,485.50
1542.376,489.50
1543.255,532.50
1544.135,512.50
1545.016,523.50
1545.895,490.00
1546.774,451.50
1547.655,504.00
1548.534,491.00
1549.414,444.50
1550.293,500.50
1551.172,486.50
1552.052,521.50
1552.930,470.50
1553.809,527.50
1554.689,510.00
1555.567,534.50
1556.445,571.00
1557.325,444.00
1558.203,472.50
1559.080,516.50
1559.960,494.50
1560.838,478.50
1561.715,475.00
1562.594,479.00
1563.472,522.00
1564.349,513.50
1565.228,534.50
1566.105,537.50
1566.982,570.00
1567.861,549.50
1568.738,481.00
1569.615,456.00
1570.493,493.50
1571.370,518.50
1572.246,458.50
1573.124,502.00
1574.000,474.00
1574.877,544.00
1575.755,502.50
1576.631,508.00
1577.507,456.50
1578.384,533.50
1579.260,532.00
1580.136,469.00
1581.011,483.00
1581.889,472.50
1582.764,484.50
1583.639,470.00
1584.516,458.50
1585.391,479.50
1586.266,500.50
1587.143,524.00
1588.018,458.00
1588.893,424.50
1589.768,467.50
1590.644,495.00
1591.519,494.50
1592.393,507.00
1593.269,470.50
1594.143,462.00
1595.018,485.00
1595.892,511.50
1596.767,460.00
1597.641,473.50
1598.515,472.50
1599.391,428.50
1600.264,472.00
1601.138,510.50
1602.011,450.50
1602.886,491.00
1603.760,479.00
1604.633,428.00
1605.508,489.00
1606.381,486.50
1607.254,485.50
1608.127,486.50
1609.001,500.50
1609.874,495.50
1610.746,451.00
1611.619,491.00
1612.493,469.50
1613.365,516.50
1614.238,482.00
1615.110,481.00
1615.984,446.50
1616.855,501.00
1617.727,526.50
1618.599,466.50
1619.473,435.50
1620.344,505.00
1621.216,439.00
1622.087,465.50
1622.960,480.50
1623.832,464.50
1624.703,404.50
1625.574,490.50
1626.445,538.50
1627.317,394.50
1628.188,485.00
1629.059,503.00
1629.930,470.00
1630.802,462.50
1631.672,404.50
1632.543,467.00
1633.413,451.50
1634.283,478.00
1635.155,500.50
1636.025,448.50
1636.895,435.00
1637.765,429.00
1638.636,416.50
1639.506,424.50
1640.376,424.50
1641.245,466.00
1642.114,468.50
1642.985,468.50
1643.855,460.50
1644.724,476.00
1645.593,441.00
1646.462,451.00
1647.333,434.50
1648.201,454.50
1649.070,404.50
1649.939,502.50
1650.807,449.50
1651.676,408.50
1652.546,441.00
1653.414,450.00
1654.282,452.50
1655.150,441.50
1656.018,432.00
1656.888,409.00
1657.756,479.00
1658.623,489.00
1659.491,500.00
1660.359,453.50
1661.226,426.50
1662.095,406.50
1662.962,424.50
1663.830,440.00
1664.697,399.00
1665.564,477.00
1666.431,438.00
1667.297,468.00
1668.166,420.00
1669.033,400.50
1669.899,408.50
1670.766,416.50
1671.632,429.00
1672.499,431.00
1673.367,434.00
1674.233,406.00
1675.099,381.00
1675.965,406.50
1676.831,369.50
1677.696,391.00
1678.562,388.50
1679.430,468.50
1680.295,440.00
1681.161,484.50
1682.026,402.00
1682.891,434.50
1683.756,440.00
1684.621,395.50
1685.486,460.50
1686.353,471.00
1687.218,483.50
1688.083,442.50
1688.947,445.00
1689.812,455.50
1690.677,473.00
1691.541,426.50
1692.405,453.00
1693.269,490.00
1694.135,445.50
1694.999,411.00
1695.863,444.00
1696.727,417.50
1697.591,447.50
1698.455,467.50
1699.318,455.50
1700.182,422.00
1701.045,455.00
1701.909,399.50
1702.772,475.50
1703.637,433.00
1704.500,387.00
1705.363,425.50
1706.226,477.50
1707.089,391.50
1707.951,435.50
1708.814,414.00
1709.677,367.00
1710.539,399.50
1711.402,505.50
1712.264,378.00
1713.126,404.00
1713.988,398.50
1714.852,402.00
1715.714,426.50
1716.576,359.50
1717.438,422.00
1718.299,397.00
1719.161,451.00
1720.023,464.50
1720.884,438.50
1721.745,467.00
1722.607,401.50
1723.468,403.00
1724.329,430.50
1725.190,429.50
1726.051,410.00
1726.912,441.00
1727.772,440.00
1728.633,385.50
1729.494,400.50
1730.354,436.00
1731.214,448.50
1732.075,394.00
1732.935,385.50
1733.797,427.50
1734.657,460.00
1735.517,401.00
1736.377,402.50
1737.237,464.50
1738.096,418.50
1738.956,371.50
1739.816,413.50
1740.675,446.50
1741.534,375.00
1742.394,438.00
1743.253,445.50
1744.112,458.50
1744.971,431.00
1745.830,441.00
1746.689,398.00
1747.547,417.00
1748.406,396.00
1749.265,422.00
1750.123,419.50
1750.982,368.50
1751.840,452.00
1752.698,350.00
1753.556,405.50
1754.414,396.50
1755.272,398.50
1756.130,403.50
1756.988,411.50
1757.846,440.00
1758.703,451.00
1759.559,460.00
1760.417,419.50
1761.274,450.50
1762.131,383.50
1762.989,436.50
1763.846,373.50
1764.703,415.00
1765.560,428.00
1766.417,457.50
1767.273,458.00
1768.130,470.00
1768.987,445.50
1769.843,336.00
1770.700,358.00
1771.556,391.00
1772.412,375.50
1773.268,410.00
1774.125,387.00
1774.980,470.00
1775.836,423.50
1776.692,413.50
1777.546,391.50
1778.402,385.00
1779.257,413.50
1780.113,422.50
1780.968,439.00
1781.824,429.00
1782.679,412.00
1783.534,412.50
1784.389,370.50
1785.244,411.50
1786.099,408.50
1786.954,414.50
1787.808,379.00
1788.661,379.50
1789.516,361.50
1790.370,401.50
1791.225,422.50
1792.079,417.50
1792.933,433.50
1793.787,421.00
1794.641,390.50
1795.495,362.50
1796.349,419.00
1797.201,419.00
1798.055,413.00
1798.908,428.50
1799.762,438.00
1800.615,384.50
1801.469,444.00
1802.322,395.00
1803.175,394.50
1804.028,360.00
1804.880,472.50
1805.732,359.00
1806.585,421.50
1807.438,410.00
1808.291,386.50
1809.143,433.50
1809.996,383.50
1810.846,425.00
1811.699,336.00
1812.551,370.00
1813.403,384.50
1814.255,413.50
1815.107,415.00
1815.959,391.00
1816.809,379.00
1817.661,408.00
1818.512,396.00
1819.364,414.00
1820.215,413.50
1821.067,404.00
1821.918,388.50
1822.768,413.50
1823.619,447.00
1824.470,405.00
1825.321,383.50
1826.172,410.50
1827.021,364.00
1827.871,394.00
1828.722,430.50
1829.572,416.50
1830.423,373.50
1831.273,389.00
1832.122,345.50
1832.972,395.50
1833.822,385.00
1834.672,361.00
1835.522,381.00
1836.370,350.00
1837.220,396.00
1838.070,368.00
1838.919,390.00
1839.769,360.00
1840.616,420.00
1841.466,442.50
1842.315,394.00
1843.164,371.50
1844.013,400.00
1844.860,385.00
1845.709,381.50
1846.558,376.50
1847.407,356.50
1848.254,377.50
1849.102,362.50
1849.951,435.00
1850.799,358.00
1851.648,351.00
1852.494,410.00
1853.342,378.50
1854.190,360.50
1855.038,371.00
1855.884,381.50
1856.732,404.50
1857.580,371.00
1858.428,342.50
1859.273,375.50
1860.121,395.00
1860.968,350.50
1861.816,362.50
1862.661,384.50
1863.508,344.50
1864.355,412.00
1865.202,377.50
1866.047,406.50
1866.894,386.50
1867.741,389.00
1868.586,393.00
1869.432,364.00
1870.279,339.50
1871.125,330.00
1871.970,364.00
1872.816,426.50
1873.662,336.00
1874.506,366.50
1875.352,396.00
1876.198,401.00
1877.044,367.00
1877.888,356.50
1878.734,368.00
1879.579,381.50
1880.423,348.00
1881.268,421.00
1882.113,353.00
1882.959,411.50
1883.802,349.50
1884.647,411.50
1885.492,376.50
1886.335,385.00
1887.180,384.00
1888.025,379.00
1888.867,426.00
1889.712,355.00
1890.556,343.00
1891.399,396.50
1892.243,381.00
1893.087,323.00
1893.930,391.00
1894.774,389.00
1895.618,393.50
1896.460,361.00
1897.304,358.00
1898.147,372.50
1898.989,376.50
1899.833,354.00
1900.676,358.00
1901.518,381.50
1902.361,355.00
1903.202,407.00
1904.046,383.00
1904.889,409.50
1905.730,377.50
1906.573,354.50
1907.415,399.50
1908.256,386.50
1909.099,392.50
1909.941,374.50
1910.782,317.50
1911.624,381.50
1912.465,347.00
1913.307,402.50
1914.149,348.50
1914.989,402.00
1915.831,418.50
1916.671,313.00
1917.513,323.00
1918.355,362.50
1919.195,363.50
1920.036,350.50
1920.876,397.50
1921.717,438.50
1922.558,395.00
1923.398,345.50
1924.239,350.50
1925.078,354.00
1925.919,357.00
1926.760,391.00
1927.599,377.50
1928.440,355.50
1929.279,397.50
1930.119,393.00
1930.958,365.00
1931.798,428.00
1932.638,406.50
1933.477,376.00
1934.317,370.50
1935.155,342.00
1935.995,382.00
1936.833,351.00
1937.673,325.00
1938.512,353.00
1939.350,316.50
1940.190,378.50
1941.027,365.50
1941.867,389.00
1942.704,401.00
1943.543,368.50
1944.381,324.50
1945.220,336.50
1946.057,353.50
1946.896,350.50
1947.733,345.50
1948.572,343.00
1949.408,353.00
1950.247,390.00
1951.085,302.00
1951.922,360.00
1952.760,394.00
1953.597,377.50
1954.435,366.00
1955.271,378.50
1956.109,427.50
1956.945,376.00
1957.783,344.50
1958.619,386.50
1959.456,371.00
1960.292,371.00
1961.129,341.00
1961.965,368.50
1962.802,396.00
1963.638,398.00
1964.475,340.00
1965.310,411.50
1966.145,368.50
1966.982,363.50
1967.817,339.00
1968.654,367.00
1969.489,371.50
1970.325,364.00
1971.160,355.00
1971.996,392.50
1972.831,376.00
1973.667,351.00
1974.501,369.00
1975.337,316.00
1976.171,353.50
1977.006,380.50
1977.841,368.00
1978.675,436.00
1979.511,350.00
1980.345,379.00
1981.180,377.00
1982.014,359.00
1982.849,364.50
1983.682,361.00
1984.516,447.00
1985.351,374.50
1986.184,381.50
1987.019,386.50
1987.852,329.00
1988.687,370.50
1989.519,339.50
1990.352,364.50
1991.187,358.50
1992.019,352.50
1992.854,369.00
1993.686,410.50
1994.518,347.50
1995.352,374.00
1996.185,369.50
1997.019,439.00
1997.851,371.50
1998.682,362.50
1999.516,377.00
2000.348,365.50

<< BACKGROUND SPECTRUM >>
Wave[dcm-1],No38
96.716,2556.00
97.759,2366.00
98.802,2306.00
99.846,2922.00
100.886,2570.00
101.929,2753.00
102.972,2733.00
104.015,2624.00
105.057,2756.00
106.100,2197.00
107.142,2626.00
108.184,3030.00
109.226,2888.00
110.268,3041.00
111.310,3291.00
112.352,2897.00
113.393,2985.00
114.435,2833.00
115.476,3078.00
116.517,3110.00
117.558,2618.00
118.599,2938.00
119.640,3274.00
120.681,3228.00
121.722,3212.00
122.762,2897.00
123.803,2753.00
124.843,3117.00
125.883,3396.00
126.923,3580.00
127.963,3303.00
129.001,3594.00
130.041,3999.00
131.080,3288.00
132.120,3172.00
133.159,3542.00
134.199,3649.00
135.238,3155.00
136.277,3544.00
137.316,3701.00
138.355,3581.00
139.393,3238.00
140.432,3363.00
141.470,3428.00
142.509,3171.00
143.547,3754.00
144.585,2973.00
145.623,3426.00
146.661,3177.00
147.699,3530.00
148.736,3620.00
149.774,3211.00
150.811,3500.00
151.849,3971.00
152.886,3448.00
153.923,3656.00
154.960,3146.00
155.997,3904.00
157.034,4935.00
158.072,3633.00
159.109,4077.00
160.145,4253.00
161.182,3281.00
162.218,3506.00
163.254,3343.00
164.290,3271.00
165.326,3979.00
166.361,3907.00
167.397,3528.00
168.432,3755.00
169.468,3402.00
170.503,3710.00
171.538,3374.00
172.573,3756.00
173.608,3239.00
174.643,3733.00
175.677,3624.00
176.712,3840.00
177.746,3861.00
178.781,3403.00
179.815,2739.00
180.849,3796.00
181.883,3308.00
182.917,2819.00
183.951,3122.00
184.984,3822.00
186.020,3289.00
187.053,3632.00
188.087,3255.00
189.120,3529.00
190.153,3672.00
191.186,3663.00
192.219,3797.00
193.251,3687.00
194.284,3819.00
195.317,3840.00
196.349,10614.00
197.381,3450.00
198.413,3491.00
199.445,3306.00
200.477,3588.00
201.509,3544.00
202.543,3609.00
203.575,3946.00
204.606,3656.00
205.637,5249.00
206.669,3165.00
207.700,3711.00
208.731,3569.00
209.762,3244.00
210.792,3282.00
211.823,3703.00
212.854,3243.00
213.884,4466.00
214.914,3713.00
215.947,3600.00
216.977,3718.00
218.007,3595.00
219.037,3828.00
220.066,3362.00
221.096,3804.00
222.126,3169.00
223.155,3403.00
224.184,3824.00
225.214,4276.00
226.245,3904.00
227.274,3371.00
228.302,3682.00
229.331,3741.00
230.360,3436.00
231.388,3436.00
232.417,3239.00
233.445,3648.00
234.473,3398.00
235.501,3788.00
236.531,3741.00
237.559,3690.00
238.587,3392.00
239.614,3272.00
240.642,3604.00
241.669,3679.00
242.696,3721.00
243.724,3680.00
244.753,3992.00
245.780,3428.00
246.806,3219.00
247.833,3650.00
248.860,3492.00
249.886,3612.00
250.913,3245.00
251.939,3567.00
252.967,3520.00
253.993,3532.00
255.019,3981.00
256.045,3583.00
257.070,4071.00
258.096,3325.00
259.121,3712.00
260.147,3562.00
261.174,3490.00
262.199,3434.00
263.224,3591.00
264.249,3881.00
265.274,4129.00
266.298,3556.00
267.323,3637.00
268.349,3919.00
269.374,3239.00
270.398,3274.00
271.422,3720.00
272.446,3351.00
273.470,3111.00
274.496,3775.00
275.519,3756.00
276.543,3897.00
277.566,3951.00
278.589,3863.00
279.613,3782.00
280.636,3737.00
281.661,3859.00
282.684,3850.00
283.706,3899.00
284.729,4200.00
285.751,3023.00
286.774,4018.00
287.798,3401.00
288.820,3027.00
289.842,3308.00
290.864,3347.00
291.886,3668.00
292.910,3462.00
293.932,4127.00
294.953,3556.00
295.974,3527.00
296.996,3736.00
298.017,3488.00
299.040,3407.00
300.061,3676.00
301.082,3407.00
302.102,3293.00
303.123,3784.00
304.143,3575.00
305.166,3556.00
306.186,3742.00
307.206,3359.00
308.226,3757.00
309.246,3146.00
310.268,3876.00
311.288,3489.00
312.307,3231.00
313.327,3546.00
314.346,3789.00
315.368,3036.00
316.387,3634.00
317.406,3630.00
318.425,3557.00
319.443,3434.00
320.464,3181.00
321.483,4033.00
322.501,3353.00
323.520,3994.00
324.538,3465.00
325.558,4034.00
326.576,3650.00
327.594,3559.00
328.612,3381.00
329.629,3158.00
330.649,3784.00
331.666,3548.00
332.684,3134.00
333.701,3754.00
334.718,3205.00
335.737,3437.00
336.754,3756.00
337.771,3829.00
338.787,3220.00
339.806,3518.00
340.823,3474.00
341.839,3589.00
342.855,3503.00
343.871,3616.00
344.889,3340.00
345.905,3833.00
346.921,3778.00
347.937,4326.00
348.954,4180.00
349.970,3732.00
350.985,3551.00
352.000,3149.00
353.017,3780.00
354.032,3173.00
355.047,3904.00
356.062,3499.00
357.077,3426.00
358.093,3965.00
359.108,3730.00
360.122,3660.00
361.136,3503.00
362.152,3937.00
363.166,3254.00
364.180,3184.00
365.194,4040.00
366.210,3423.00
367.223,3286.00
368.237,3384.00
369.250,3588.00
370.265,3349.00
371.278,3954.00
372.291,3673.00
373.304,3056.00
374.319,3709.00
375.332,3790.00
376.344,4060.00
377.357,3371.00
378.371,3897.00
379.383,3354.00
380.395,4360.00
381.407,4049.00
382.421,3355.00
383.433,3414.00
384.445,3384.00
385.456,3520.00
386.470,3110.00
387.481,3942.00
388.492,3889.00
389.505,3249.00
390.516,4001.00
391.527,3481.00
392.538,3476.00
393.551,3762.00
394.561,4330.00
395.572,3714.00
396.582,3595.00
397.594,3776.00
398.604,3425.00
399.614,3613.00
400.624,3425.00
401.636,3434.00
402.646,3545.00
403.655,3147.00
404.667,3383.00
405.676,3374.00
406.685,4337.00
407.694,3931.00
408.705,3039.00
409.714,3118.00
410.723,3264.00
411.734,3322.00
412.742,3379.00
413.751,3650.00
414.759,3648.00
415.769,3593.00
416.777,3772.00
417.785,3491.00
418.795,3400.00
419.803,3589.00
420.811,3278.00
421.818,3980.00
422.828,3458.00
423.835,3472.00
424.842,3402.00
425.852,3252.00
426.859,3681.00
427.866,3708.00
428.874,3648.00
429.881,3509.00
430.888,3773.00
431.894,3578.00
432.902,3561.00
433.909,4541.00
434.915,3671.00
435.923,4290.00
436.929,3084.00
437.935,3491.00
438.942,3411.00
439.948,3563.00
440.953,4073.00
441.959,3192.00
442.966,3923.00
443.971,3710.00
444.976,3206.00
445.983,3630.00
446.988,3501.00
447.993,4047.00
448.999,3637.00
450.004,3528.00
451.008,3388.00
452.014,4067.00
453.019,3843.00
454.023,3259.00
455.029,3265.00
456.032,4013.00
457.036,3494.00
458.042,2915.00
459.045,3411.00
460.049,3726.00
461.052,4058.00
462.057,3808.00
463.060,3962.00
464.063,3434.00
465.068,3464.00
466.071,3292.00
467.073,3893.00
468.078,3160.00
469.080,3073.00
470.082,3588.00
471.087,3437.00
472.089,3575.00
473.091,3816.00
474.095,4063.00
475.096,3484.00
476.098,3391.00
477.101,3763.00
478.103,3292.00
479.104,4231.00
480.107,3461.00
481.108,3066.00
482.109,4202.00
483.112,4177.00
484.113,4594.00
485.114,3819.00
486.116,3600.00
487.117,3865.00
488.117,3610.00
489.119,3717.00
490.119,3738.00
491.121,3193.00
492.121,3091.00
493.121,2893.00
494.123,3639.00
495.122,3672.00
496.122,3559.00
497.123,4547.00
498.122,3379.00
499.121,3647.00
500.122,3552.00
501.121,3203.00
502.120,3167.00
503.121,3263.00
504.119,3263.00
505.118,3801.00
506.118,3278.00
507.117,3278.00
508.115,3747.00
509.115,3555.00
510.113,3110.00
511.112,3828.00
512.110,3509.00
513.108,3815.00
514.107,3914.00
515.105,3784.00
516.102,3985.00
517.101,3506.00
518.098,3586.00
519.095,4109.00
520.094,3389.00
521.091,3422.00
522.089,3733.00
523.086,3349.00
524.082,3678.00
525.081,3614.00
526.077,4729.00
527.073,4522.00
528.071,3534.00
529.067,3357.00
530.064,3424.00
531.060,3127.00
532.056,3380.00
533.053,3916.00
534.048,3763.00
535.044,3589.00
536.041,3703.00
537.036,3613.00
538.030,3701.00
539.027,3778.00
540.022,3110.00
541.019,3503.00
542.013,3799.00
543.007,3667.00
544.004,3505.00
544.998,3497.00
545.994,4094.00
546.988,3927.00
547.981,3455.00
548.977,4203.00
549.971,3682.00
550.964,3789.00
551.960,3642.00
552.953,3599.00
553.948,3783.00
554.941,3365.00
555.934,3187.00
556.929,3772.00
557.922,3338.00
558.916,3863.00
559.909,4082.00
560.901,3626.00
561.895,3629.00
562.888,3248.00
563.880,3743.00
564.874,3924.00
565.865,3816.00
566.859,3211.00
567.851,4056.00
568.842,3458.00
569.836,3629.00
570.827,3281.00
571.820,3626.00
572.811,3725.00
573.802,3637.00
574.795,3319.00
575.786,3863.00
576.779,3764.00
577.769,3219.00
578.760,3611.00
579.752,3202.00
580.742,3407.00
581.735,3696.00
582.725,3335.00
583.714,3871.00
584.706,3261.00
585.696,3546.00
586.688,3769.00
587.677,3498.00
588.667,3710.00
589.658,3522.00
590.647,3661.00
591.638,3586.00
592.627,3409.00
593.616,3136.00
594.607,3636.00
595.595,3615.00
596.586,3197.00
597.574,3890.00
598.562,3933.00
599.553,3157.00
600.541,3566.00
601.531,3654.00
602.519,3493.00
603.508,3634.00
604.496,3731.00
605.484,3677.00
606.473,3517.00
607.460,3415.00
608.450,3405.00
609.437,3743.00
610.424,3866.00
611.413,3123.00
612.400,3262.00
613.388,3631.00
614.375,3466.00
615.361,3500.00
616.350,3290.00
617.336,8392.00
618.324,3883.00
619.310,3369.00
620.298,3252.00
621.284,3693.00
622.270,3244.00
623.257,3570.00
624.243,3571.00
625.230,3757.00
626.216,3567.00
627.203,3921.00
628.188,3448.00
629.173,3471.00
630.160,3259.00
631.145,2666.00
632.131,3387.00
633.116,3173.00
634.102,3590.00
635.087,3750.00
636.071,3765.00
637.057,3327.00
638.041,3102.00
639.027,3236.00
640.011,3440.00
640.995,3235.00
641.980,3287.00
642.964,3392.00
643.949,3949.00
644.932,2784.00
645.918,3354.00
646.901,3522.00
647.886,3313.00
648.868,3370.00
649.851,3156.00
650.836,2945.00
651.818,3220.00
652.803,3743.00
653.785,3537.00
654.769,3648.00
655.751,3642.00
656.733,3909.00
657.717,3026.00
658.699,3547.00
659.683,3352.00
660.664,3176.00
661.648,3359.00
662.629,3309.00
663.611,3283.00
664.594,3108.00
665.575,3065.00
666.558,3415.00
667.539,3103.00
668.521,3371.00
669.502,3396.00
670.484,3334.00
671.465,3262.00
672.445,3442.00
673.427,3271.00
674.407,3177.00
675.390,3568.00
676.369,3316.00
677.351,2953.00
678.331,3610.00
679.312,3411.00
680.292,3288.00
681.271,2936.00
682.253,3562.00
683.232,3080.00
684.213,3263.00
685.192,3713.00
686.172,3988.00
687.151,3405.00
688.132,3437.00
689.110,3527.00
690.089,3699.00
691.069,2845.00
692.047,2835.00
693.027,2995.00
694.005,3434.00
694.985,3962.00
695.963,3486.00
696.943,3251.00
697.920,2998.00
698.898,3756.00
699.877,3632.00
700.854,3289.00
701.833,3242.00
702.810,3713.00
703.789,3485.00
704.766,4493.00
705.745,3898.00
706.721,3188.00
707.698,3682.00
708.676,3062.00
709.653,3222.00
710.631,3649.00
711.607,3328.00
712.585,3420.00
713.561,3113.00
714.539,3896.00
715.514,3294.00
716.492,3085.00
717.467,3820.00
718.443,3031.00
719.420,3692.00
720.395,3769.00
721.372,3511.00
722.347,3681.00
723.324,3194.00
724.298,3384.00
725.275,3135.00
726.250,3315.00
727.226,3178.00
728.200,2989.00
729.176,3249.00
730.151,3599.00
731.125,3790.00
732.100,2964.00
733.074,3350.00
734.050,3183.00
735.023,3026.00
735.999,3285.00
736.972,3196.00
737.947,3740.00
738.921,3446.00
739.896,3533.00
740.869,3478.00
741.841,3277.00
742.816,3773.00
743.789,3145.00
744.763,3079.00
745.736,3317.00
746.710,3163.00
747.682,3086.00
748.656,3322.00
749.628,3235.00
750.602,3322.00
751.574,3403.00
752.548,4233.00
753.519,3496.00
754.491,2963.00
755.464,3172.00
756.435,3983.00
757.408,3634.00
758.379,3472.00
759.352,2910.00
760.323,3004.00
761.296,3239.00
762.267,3369.00
763.239,3109.00
764.209,3537.00
765.182,4448.00
766.152,3647.00
767.124,3115.00
768.094,3142.00
769.064,3519.00
770.036,3029.00
771.005,3610.00
771.977,3178.00
772.947,3216.00
773.918,3746.00
774.887,3295.00
775.858,3124.00
776.827,3184.00
777.798,3260.00
778.767,3796.00
779.738,3239.00
780.707,3244.00
781.677,3353.00
782.646,3084.00
783.614,3649.00
784.584,3410.00
785.552,3484.00
786.522,2959.00
787.490,3304.00
788.460,3162.00
789.428,3180.00
790.397,3684.00
791.365,2986.00
792.334,3201.00
793.302,3364.00
794.271,3416.00
795.238,3200.00
796.207,3177.00
797.174,3583.00
798.143,3001.00
799.109,3713.00
800.076,3204.00
801.044,2858.00
802.011,3058.00
802.979,3095.00
803.945,3326.00
804.913,3941.00
805.879,3261.00
806.847,2905.00
807.813,3627.00
808.780,3260.00
809.746,3230.00
810.713,3699.00
811.678,2971.00
812.646,3191.00
813.611,3272.00
814.578,2972.00
815.543,3606.00
816.510,2862.00
817.474,3147.00
818.439,3237.00
819.405,3489.00
820.370,3089.00
821.336,3041.00
822.300,3371.00
823.266,3227.00
824.230,3446.00
825.196,3250.00
826.160,3658.00
827.126,3590.00
828.089,3991.00
829.055,3316.00
830.018,3340.00
830.983,4037.00
831.946,3060.00
832.911,3107.00
833.874,3908.00
834.837,3108.00
835.802,3191.00
836.765,3728.00
837.729,3139.00
838.691,3248.00
839.656,3565.00
840.618,3414.00
841.582,3476.00
842.544,3563.00
843.508,3708.00
844.470,3034.00
845.434,2869.00
846.395,2740.00
847.359,3166.00
848.320,2924.00
849.283,3025.00
850.245,3127.00
851.208,3513.00
852.169,3205.00
853.130,3016.00
854.092,3438.00
855.053,3171.00
856.016,3239.00
856.976,4330.00
857.938,3272.00
858.899,3304.00
859.861,2950.00
860.821,3159.00
861.783,2580.00
862.743,3273.00
863.704,3509.00
864.664,2749.00
865.626,3342.00
866.585,3077.00
867.546,3326.00
868.506,3315.00
869.467,2783.00
870.426,3337.00
871.387,3498.00
872.346,3560.00
873.304,3331.00
874.265,3442.00
875.223,3270.00
876.184,3369.00
877.142,3125.00
878.102,3207.00
879.060,3189.00
880.021,3329.00
880.978,2838.00
881.938,3218.00
882.896,3542.00
883.856,3447.00
884.813,3170.00
885.772,3125.00
886.730,3405.00
887.689,3404.00
888.646,3063.00
889.603,3632.00
890.562,3638.00
891.519,3350.00
892.477,3404.00
893.434,3262.00
894.392,2836.00
895.349,3245.00
896.307,3353.00
897.263,3488.00
898.221,3328.00
899.177,3080.00
900.135,3458.00
901.091,3174.00
902.048,3704.00
903.004,3136.00
903.961,3076.00
904.917,3193.00
905.874,3257.00
906.829,2937.00
907.784,3245.00
908.741,3292.00
909.696,3087.00
910.653,2787.00
911.607,3151.00
912.564,3107.00
913.518,3152.00
914.475,3254.00
915.429,5022.00
916.385,2931.00
917.339,3615.00
918.295,3401.00
919.249,3437.00
920.205,3281.00
921.158,3374.00
922.114,3202.00
923.067,3314.00
924.020,3323.00
924.976,3135.00
925.929,3401.00
926.884,3300.00
927.837,3572.00
928.791,3431.00
929.744,2954.00
930.699,3278.00
931.651,3245.00
932.606,2889.00
933.558,3130.00
934.512,3433.00
935.464,3333.00
936.418,3630.00
937.370,3398.00
938.322,3012.00
939.276,3147.00
940.227,3242.00
941.181,3276.00
942.132,3645.00
943.085,3840.00
944.036,2802.00
944.990,3580.00
945.941,3061.00
946.893,3095.00
947.844,2912.00
948.797,3401.00
949.747,3989.00
950.700,3155.00
951.650,2646.00
952.601,3345.00
953.553,2998.00
954.503,3471.00
955.455,3191.00
956.405,3228.00
957.356,2898.00
958.306,3513.00
959.258,3226.00
960.207,3683.00
961.158,3592.00
962.108,3257.00
963.059,2975.00
964.008,2885.00
964.959,3890.00
965.908,3161.00
966.856,2974.00
967.807,2791.00
968.756,3598.00
969.706,3276.00
970.654,3119.00
971.605,3193.00
972.553,3322.00
973.503,3193.00
974.451,3513.00
975.401,3247.00
976.348,3315.00
977.296,3136.00
978.246,3511.00
979.193,3643.00
980.142,2971.00
981.090,3282.00
982.039,3201.00
982.986,3318.00
983.935,3558.00
984.882,3302.00
985.830,3432.00
986.777,3394.00
987.725,3088.00
988.672,3041.00
989.618,3252.00
990.567,2981.00
991.513,3165.00
992.461,3057.00
993.407,3470.00
994.354,3345.00
995.300,3383.00
996.248,3327.00
997.193,3367.00
998.141,3145.00
999.086,3347.00
1000.031,3327.00
1000.978,2850.00
1001.924,3199.00
1002.870,3383.00
1003.815,2650.00
1004.762,3046.00
1005.707,3221.00
1006.653,3147.00
1007.598,3175.00
1008.542,2896.00
1009.488,2848.00
1010.432,3078.00
1011.378,2975.00
1012.322,3662.00
1013.268,2929.00
1014.212,3189.00
1015.157,3316.00
1016.101,3655.00
1017.046,2928.00
1017.990,2950.00
1018.933,3127.00
1019.878,2956.00
1020.821,3078.00
1021.766,2877.00
1022.709,3100.00
1023.654,3182.00
1024.596,3480.00
1025.541,3648.00
1026.483,3622.00
1027.425,3301.00
1028.370,3365.00
1029.312,3392.00
1030.256,3121.00
1031.198,3049.00
1032.141,3063.00
1033.083,3614.00
1034.027,3292.00
1034.968,3379.00
1035.910,2751.00
1036.853,3214.00
1037.794,3229.00
1038.738,2948.00
1039.679,3478.00
1040.621,3026.00
1041.562,3105.00
1042.503,3546.00
1043.446,2925.00
1044.386,3444.00
1045.329,3244.00
1046.269,3342.00
1047.211,3133.00
1048.151,3283.00
1049.093,2921.00
1050.033,4004.00
1050.973,3381.00
1051.915,3131.00
1052.854,3131.00
1053.796,3411.00
1054.735,3025.00
1055.677,3043.00
1056.616,3250.00
1057.555,3222.00
1058.496,2879.00
1059.435,3406.00
1060.376,3063.00
1061.315,3025.00
1062.255,2877.00
1063.194,3106.00
1064.132,2908.00
1065.073,3251.00
1066.011,3183.00
1066.951,3190.00
1067.889,2960.00
1068.829,3336.00
1069.767,3267.00
1070.705,2554.00
1071.644,3116.00
1072.582,2789.00
1073.521,3101.00
1074.459,3130.00
1075.398,3301.00
1076.335,3037.00
1077.272,3774.00
1078.211,3315.00
1079.148,3677.00
1080.087,3191.00
1081.023,3614.00
1081.962,3397.00
1082.898,2726.00
1083.835,3090.00
1084.773,2771.00
1085.709,2816.00
1086.647,3139.00
1087.583,3080.00
1088.519,3300.00
1089.457,3339.00
1090.392,2753.00
1091.330,3231.00
1092.266,3116.00
1093.203,3461.00
1094.138,2874.00
1095.073,3675.00
1096.010,3443.00
1096.945,3108.00
1097.882,2810.00
1098.817,2633.00
1099.752,4010.00
1100.688,3227.00
1101.623,3233.00
1102.559,3300.00
1103.493,3479.00
1104.430,2716.00
1105.364,2834.00
1106.298,3098.00
1107.234,3693.00
1108.167,2918.00
1109.094,3105.00
1110.019,3129.00
1110.945,3313.00
1111.869,3150.00
1112.795,3041.00
1113.720,3183.00
1114.646,3166.00
1115.571,2622.00
1116.495,3209.00
1117.420,3219.00
1118.345,2982.00
1119.270,3113.00
1120.195,3256.00
1121.118,3511.00
1122.042,3403.00
1122.967,3157.00
1123.891,3239.00
1124.816,3201.00
1125.738,3154.00
1126.663,2595.00
1127.587,3070.00
1128.511,3007.00
1129.435,3202.00
1130.357,3236.00
1131.280,4010.00
1132.204,2936.00
1133.128,2974.00
1134.051,3072.00
1134.972,3773.00
1135.896,3056.00
1136.819,3456.00
1137.742,2972.00
1138.665,3273.00
1139.586,3098.00
1140.509,2692.00
1141.431,2964.00
1142.354,3580.00
1143.276,3191.00
1144.197,3548.00
1145.119,3224.00
1146.041,2905.00
1146.964,3356.00
1147.885,3258.00
1148.806,3104.00
1149.727,3144.00
1150.649,2735.00
1151.571,3184.00
1152.492,3349.00
1153.412,3256.00
1154.333,3125.00
1155.254,2998.00
1156.175,3009.00
1157.095,3574.00
1158.016,3176.00
1158.936,3018.00
1159.857,3269.00
1160.778,3067.00
1161.697,2800.00
1162.617,3240.00
1163.537,3840.00
1164.458,3623.00
1165.376,2947.00
1166.296,3360.00
1167.216,3468.00
1168.136,2992.00
1169.056,2906.00
1169.974,3043.00
1170.893,3705.00
1171.813,3325.00
1172.732,3056.00
1173.650,3157.00
1174.569,3958.00
1175.488,3366.00
1176.407,2862.00
1177.326,2904.00
1178.243,3111.00
1179.161,3012.00
1180.080,3061.00
1180.999,3308.00
1181.915,3093.00
1182.834,2723.00
1183.752,3304.00
1184.670,3698.00
1185.586,2684.00
1186.504,3023.00
1187.422,3094.00
1188.340,2860.00
1189.258,3264.00
1190.173,3149.00
1191.091,3447.00
1192.008,2953.00
1192.926,2977.00
1193.841,3253.00
1194.758,3259.00
1195.675,2918.00
1196.592,3415.00
1197.507,2930.00
1198.424,3315.00
1199.340,3618.00
1200.257,3113.00
1201.172,3279.00
1202.088,2613.00
1203.004,3219.00
1203.920,3376.00
1204.835,3711.00
1205.750,3443.00
1206.666,3535.00
1207.582,2902.00
1208.496,2972.00
1209.412,3071.00
1210.327,2999.00
1211.243,3679.00
1212.156,2980.00
1213.071,2941.00
1213.986,3183.00
1214.901,2842.00
1215.814,2807.00
1216.729,2941.00
1217.644,2938.00
1218.559,2894.00
1219.471,3921.00
1220.386,3475.00
1221.300,2958.00
1222.213,3244.00
1223.127,3089.00
1224.041,3530.00
1224.955,2910.00
1225.867,3241.00
1226.781,3465.00
1227.694,3454.00
1228.608,3093.00
1229.520,3421.00
1230.433,3355.00
1231.346,2930.00
1232.260,3401.00
1233.171,2935.00
1234.084,3210.00
1234.997,3562.00
1235.908,3005.00
1236.821,3294.00
1237.733,4351.00
1238.646,3449.00
1239.556,3240.00
1240.469,3162.00
1241.381,2976.00
1242.293,2946.00
1243.203,3642.00
1244.115,3693.00
1245.027,3229.00
1245.937,3000.00
1246.849,3084.00
1247.761,3148.00
1248.672,2934.00
1249.582,3050.00
1250.493,3721.00
1251.404,3172.00
1252.313,3340.00
1253.225,3505.00
1254.135,4133.00
1255.046,3278.00
1255.955,3377.00
1256.866,3696.00
1257.777,3007.00
1258.685,2827.00
1259.596,2621.00
1260.506,3479.00
1261.416,3033.00
1262.324,3382.00
1263.234,3142.00
1264.144,3314.00
1265.052,3215.00
1265.962,3151.00
1266.872,3424.00
1267.779,3377.00
1268.689,2744.00
1269.598,2887.00
1270.507,3106.00
1271.415,3001.00
1272.324,3234.00
1273.233,3136.00
1274.140,3034.00
1275.048,2869.00
1275.957,2682.00
1276.864,2964.00
1277.772,2984.00
1278.681,2640.00
1279.587,2967.00
1280.496,3304.00
1281.404,3888.00
1282.312,3297.00
1283.218,2888.00
1284.126,2934.00
1285.033,3676.00
1285.939,3117.00
1286.847,3215.00
1287.754,3076.00
1288.660,2897.00
1289.567,3732.00
1290.474,3198.00
1291.380,3370.00
1292.286,2820.00
1293.193,3191.00
1294.098,3144.00
1295.005,3021.00
1295.912,3512.00
1296.816,3241.00
1297.723,3119.00
1298.629,2981.00
1299.534,3482.00
1300.440,3280.00
1301.346,2934.00
1302.250,2966.00
1303.156,2731.00
1304.062,3605.00
1304.966,3708.00
1305.871,3468.00
1306.777,2960.00
1307.680,3131.00
1308.586,3266.00
1309.491,3400.00
1310.394,3124.00
1311.299,3424.00
1312.204,3691.00
1313.107,3261.00
1314.012,3233.00
1314.917,2852.00
1315.819,3273.00
1316.724,3678.00
1317.628,3238.00
1318.531,3090.00
1319.435,3528.00
1320.339,5146.00
1321.241,3172.00
1322.145,3121.00
1323.049,3221.00
1323.951,2961.00
1324.854,2916.00
1325.756,3401.00
1326.659,3211.00
1327.563,2951.00
1328.464,3278.00
1329.367,3144.00
1330.271,3479.00
1331.172,2891.00
1332.074,3167.00
1332.977,2964.00
1333.878,3316.00
1334.781,3483.00
1335.683,2922.00
1336.584,3062.00
1337.486,2776.00
1338.387,3304.00
1339.289,2803.00
1340.191,2965.00
1341.091,3077.00
1341.993,2856.00
1342.895,3056.00
1343.794,3314.00
1344.696,3342.00
1345.596,3274.00
1346.497,2872.00
1347.398,3097.00
1348.298,2688.00
1349.199,3668.00
1350.100,3041.00
1350.999,3501.00
1351.900,3311.00
1352.799,3537.00
1353.699,3233.00
1354.600,3119.00
1355.499,3190.00
1356.399,2730.00
1357.297,3067.00
1358.198,3231.00
1359.098,2907.00
1359.996,2832.00
1360.896,3608.00
1361.796,3419.00
1362.694,3286.00
1363.593,3158.00
1364.491,3332.00
1365.391,3697.00
1366.290,3083.00
1367.187,2929.00
1368.086,3384.00
1368.984,3208.00
1369.883,2703.00
1370.782,3231.00
1371.679,3339.00
1372.577,3633.00
1373.474,3185.00
1374.373,3043.00
1375.269,3183.00
1376.168,3087.00
1377.066,3419.00
1377.962,3386.00
1378.860,3514.00
1379.756,3495.00
1380.654,3746.00
1381.552,3338.00
1382.448,3288.00
1383.346,3189.00
1384.241,3366.00
1385.139,3397.00
1386.036,3060.00
1386.931,2753.00
1387.829,3219.00
1388.724,3368.00
1389.621,3027.00
1390.516,3204.00
1391.413,3055.00
1392.309,2915.00
1393.204,3456.00
1394.101,3339.00
1394.995,3361.00
1395.891,3302.00
1396.786,2915.00
1397.682,3121.00
1398.578,3210.00
1399.472,3463.00
1400.368,3184.00
1401.262,3115.00
1402.158,3323.00
1403.051,3073.00
1403.947,3086.00
1404.840,3424.00
1405.736,3347.00
1406.631,2895.00
1407.524,3590.00
1408.419,3200.00
1409.312,3045.00
1410.207,3302.00
1411.100,3003.00
1411.995,2981.00
1412.888,3317.00
1413.782,2807.00
1414.675,3513.00
1415.569,2886.00
1416.463,3095.00
1417.355,3131.00
1418.249,2967.00
1419.141,3247.00
1420.035,3297.00
1420.927,3130.00
1421.821,3503.00
1422.713,3034.00
1423.606,3302.00
1424.498,3167.00
1425.391,3732.00
1426.282,2963.00
1427.175,3108.00
1428.068,2644.00
1428.960,3227.00
1429.852,3289.00
1430.743,2903.00
1431.636,3097.00
1432.527,3496.00
1433.419,3335.00
1434.310,3395.00
1435.202,2938.00
1436.092,3107.00
1436.984,3125.00
1437.875,3551.00
1438.767,3163.00
1439.657,2965.00
1440.548,3351.00
1441.438,3267.00
1442.330,3263.00
1443.219,3102.00
1444.111,3391.00
1445.000,2990.00
1445.891,2903.00
1446.781,2939.00
1447.672,3221.00
1448.561,3547.00
1449.452,3324.00
1450.340,2954.00
1451.231,2955.00
1452.120,2878.00
1453.010,3422.00
1453.899,3025.00
1454.789,3321.00
1455.677,3530.00
1456.568,3185.00
1457.456,3236.00
1458.346,3206.00
1459.234,3259.00
1460.123,3436.00
1461.011,3202.00
1461.901,3553.00
1462.788,3556.00
1463.678,3314.00
1464.565,3153.00
1465.454,3081.00
1466.342,3302.00
1467.231,2524.00
1468.118,3493.00
1469.006,3570.00
1469.893,2894.00
1470.782,3313.00
1471.669,3465.00
1472.557,3455.00
1473.444,3137.00
1474.330,3364.00
1475.218,3550.00
1476.105,3087.00
1476.993,3202.00
1477.879,3455.00
1478.767,3085.00
1479.652,2897.00
1480.540,3234.00
1481.426,3361.00
1482.313,3298.00
1483.199,3571.00
1484.086,3423.00
1484.972,2937.00
1485.857,2874.00
1486.744,3301.00
1487.629,2779.00
1488.516,3079.00
1489.401,3358.00
1490.287,3205.00
1491.172,2814.00
1492.058,3115.00
1492.943,2999.00
1493.828,3004.00
1494.714,3327.00
1495.598,3537.00
1496.484,4031.00
1497.368,2814.00
1498.254,3117.00
1499.138,3198.00
1500.022,3202.00
1500.907,3319.00
1501.791,3956.00
1502.676,3175.00
1503.560,3037.00
1504.445,3701.00
1505.328,3347.00
1506.211,3573.00
1507.096,3123.00
1507.979,3474.00
1508.864,3119.00
1509.747,3327.00
1510.631,3226.00
1511.514,3358.00
1512.397,3417.00
1513.281,3691.00
1514.163,3442.00
1515.047,3069.00
1515.930,2912.00
1516.812,3182.00
1517.696,3339.00
1518.578,3116.00
1519.461,3207.00
1520.343,3657.00
1521.225,2985.00
1522.108,3114.00
1522.990,3525.00
1523.873,3634.00
1524.754,2786.00
1525.635,2651.00
1526.518,3348.00
1527.399,3118.00
1528.282,3217.00
1529.163,3296.00
1530.044,3207.00
1530.926,2889.00
1531.807,2936.00
1532.689,3226.00
1533.569,2956.00
1534.450,4274.00
1535.332,3390.00
1536.212,3049.00
1537.092,3440.00
1537.974,2885.00
1538.854,3104.00
1539.735,3692.00
1540.615,3374.00
1541.495,2980.00
1542.376,3622.00
1543.255,2900.00
1544.135,3133.00
1545.016,3240.00
1545.895,2985.00
1546.774,3464.00
1547.655,2732.00
1548.534,3174.00
1549.414,3125.00
1550.293,2886.00
1551.172,3253.00
1552.052,3157.00
1552.930,3072.00
1553.809,3670.00
1554.689,3064.00
1555.567,3107.00
1556.445,3015.00
1557.325,3541.00
1558.203,2817.00
1559.080,3192.00
1559.960,3119.00
1560.838,3890.00
1561.715,3119.00
1562.594,3510.00
1563.472,3369.00
1564.349,3330.00
1565.228,2733.00
1566.105,2935.00
1566.982,3205.00
1567.861,3407.00
1568.738,3128.00
1569.615,2794.00
1570.493,3038.00
1571.370,3058.00
1572.246,2663.00
1573.124,3168.00
1574.000,3116.00
1574.877,3384.00
1575.755,3061.00
1576.631,2943.00
1577.507,3580.00
1578.384,3525.00
1579.260,3285.00
1580.136,3782.00
1581.011,3162.00
1581.889,3153.00
1582.764,3171.00
1583.639,3478.00
1584.516,3364.00
1585.391,3073.00
1586.266,3223.00
1587.143,3634.00
1588.018,3365.00
1588.893,3629.00
1589.768,3926.00
1590.644,3894.00
1591.519,2920.00
1592.393,3311.00
1593.269,3447.00
1594.143,3024.00
1595.018,3144.00
1595.892,3032.00
1596.767,2703.00
1597.641,2710.00
1598.515,2864.00
1599.391,3352.00
1600.264,3044.00
1601.138,2954.00
1602.011,2573.00
1602.886,3705.00
1603.760,3496.00
1604.633,3457.00
1605.508,3388.00
1606.381,3239.00
1607.254,3203.00
1608.127,3316.00
1609.001,2902.00
1609.874,3489.00
1610.746,3446.00
1611.619,3195.00
1612.493,3416.00
1613.365,2961.00
1614.238,3223.00
1615.110,3208.00
1615.984,3198.00
1616.855,2968.00
1617.727,3375.00
1618.599,3050.00
1619.473,3497.00
1620.344,2528.00
1621.216,3213.00
1622.087,3246.00
1622.960,3205.00
1623.832,3191.00
1624.703,3348.00
1625.574,3350.00
1626.445,3165.00
1627.317,3243.00
1628.188,3422.00
1629.059,3085.00
1629.930,3540.00
1630.802,3139.00
1631.672,3379.00
1632.543,3297.00
1633.413,3203.00
1634.283,3688.00
1635.155,3263.00
1636.025,3287.00
1636.895,3263.00
1637.765,2718.00
1638.636,3208.00
1639.506,3363.00
1640.376,3963.00
1641.245,3094.00
1642.114,3188.00
1642.985,2649.00
1643.855,2943.00
1644.724,3066.00
1645.593,3377.00
1646.462,3288.00
1647.333,3251.00
1648.201,3071.00
1649.070,3264.00
1649.939,3302.00
1650.807,2977.00
1651.676,3419.00
1652.546,3422.00
1653.414,3497.00
1654.282,3169.00
1655.150,3078.00
1656.018,3198.00
1656.888,3873.00
1657.756,3178.00
1658.623,2818.00
1659.491,2716.00
1660.359,3521.00
1661.226,3078.00
1662.095,3372.00
1662.962,3068.00
1663.830,3129.00
1664.697,3042.00
1665.564,3164.00
1666.431,3356.00
1667.297,2936.00
1668.166,2907.00
1669.033,2776.00
1669.899,3084.00
1670.766,2864.00
1671.632,3065.00
1672.499,3562.00
1673.367,3252.00
1674.233,3396.00
1675.099,3236.00
1675.965,2898.00
1676.831,3157.00
1677.696,3573.00
1678.562,4932.00
1679.430,2720.00
1680.295,2864.00
1681.161,2931.00
1682.026,2998.00
1682.891,3049.00
1683.756,3100.00
1684.621,3249.00
1685.486,3179.00
1686.353,3169.00
1687.218,3286.00
1688.083,3168.00
1688.947,3450.00
1689.812,3130.00
1690.677,3019.00
1691.541,3265.00
1692.405,2497.00
1693.269,3629.00
1694.135,3392.00
1694.999,3178.00
1695.863,3694.00
1696.727,3027.00
1697.591,3071.00
1698.455,3264.00
1699.318,3017.00
1700.182,4432.00
1701.045,3207.00
1701.909,3234.00
1702.772,3664.00
1703.637,3050.00
1704.500,2792.00
1705.363,3427.00
1706.226,3220.00
1707.089,3356.00
1707.951,3345.00
1708.814,3889.00
1709.677,3963.00
1710.539,3464.00
1711.402,3376.00
1712.264,3191.00
1713.126,3142.00
1713.988,3458.00
1714.852,3453.00
1715.714,2601.00
1716.576,2839.00
1717.438,3436.00
1718.299,2765.00
1719.161,3567.00
1720.023,3091.00
1720.884,3631.00
1721.745,3120.00
1722.607,3095.00
1723.468,2722.00
1724.329,3435.00
1725.190,3190.00
1726.051,3393.00
1726.912,3019.00
1727.772,3253.00
1728.633,3154.00
1729.494,3269.00
1730.354,3443.00
1731.214,2894.00
1732.075,3054.00
1732.935,3072.00
1733.797,3054.00
1734.657,3655.00
1735.517,3909.00
1736.377,3472.00
1737.237,3097.00
1738.096,3817.00
1738.956,3119.00
1739.816,3091.00
1740.675,3133.00
1741.534,2703.00
1742.394,3235.00
1743.253,2938.00
1744.112,3183.00
1744.971,3010.00
1745.830,3290.00
1746.689,3322.00
1747.547,3456.00
1748.406,2838.00
1749.265,3060.00
1750.123,3105.00
1750.982,3440.00
1751.840,3128.00
1752.698,3276.00
1753.556,3073.00
1754.414,3235.00
1755.272,3145.00
1756.130,3225.00
1756.988,3169.00
1757.846,3366.00
1758.703,2999.00
1759.559,3451.00
1760.417,2906.00
1761.274,3811.00
1762.131,3613.00
1762.989,3694.00
1763.846,3627.00
1764.703,3284.00
1765.560,3738.00
1766.417,3202.00
1767.273,2941.00
1768.130,3127.00
1768.987,3021.00
1769.843,3504.00
1770.700,3604.00
1771.556,3087.00
1772.412,3583.00
1773.268,3091.00
1774.125,3532.00
1774.980,3185.00
1775.836,3495.00
1776.692,3118.00
1777.546,3039.00
1778.402,3397.00
1779.257,3279.00
1780.113,2995.00
1780.968,3277.00
1781.824,3466.00
1782.679,2835.00
1783.534,3031.00
1784.389,3711.00
1785.244,3323.00
1786.099,3164.00
1786.954,3442.00
1787.808,3230.00
1788.661,3230.00
1789.516,3670.00
1790.370,3252.00
1791.225,3065.00
1792.079,2817.00
1792.933,3932.00
1793.787,3329.00
1794.641,3261.00
1795.495,3195.00
1796.349,3247.00
1797.201,3041.00
1798.055,2994.00
1798.908,3143.00
1799.762,3599.00
1800.615,3434.00
1801.469,3431.00
1802.322,3637.00
1803.175,3063.00
1804.028,2815.00
1804.880,3681.00
1805.732,3415.00
1806.585,3191.00
1807.438,3222.00
1808.291,2722.00
1809.143,2946.00
1809.996,2847.00
1810.846,3967.00
1811.699,3385.00
1812.551,3121.00
1813.403,3397.00
1814.255,3234.00
1815.107,3211.00
1815.959,3851.00
1816.809,3338.00
1817.661,3343.00
1818.512,3177.00
1819.364,3271.00
1820.215,3319.00
1821.067,2965.00
1821.918,3062.00
1822.768,3467.00
1823.619,3439.00
1824.470,3098.00
1825.321,3375.00
1826.172,3165.00
1827.021,3362.00
1827.871,3499.00
1828.722,3240.00
1829.572,3263.00
1830.423,3214.00
1831.273,3076.00
1832.122,3259.00
1832.972,3192.00
1833.822,2922.00
1834.672,3405.00
1835.522,3421.00
1836.370,3026.00
1837.220,3337.00
1838.070,2776.00
1838.919,2554.00
1839.769,3039.00
1840.616,3404.00
1841.466,3342.00
1842.315,2941.00
1843.164,3849.00
1844.013,3018.00
1844.860,2889.00
1845.709,2984.00
1846.558,3522.00
1847.407,2899.00
1848.254,3345.00
1849.102,3286.00
1849.951,2948.00
1850.799,2653.00
1851.648,3095.00
1852.494,3231.00
1853.342,3293.00
1854.190,3556.00
1855.038,3558.00
1855.884,3207.00
1856.732,4050.00
1857.580,3623.00
1858.428,3109.00
1859.273,2969.00
1860.121,2974.00
1860.968,4097.00
1861.816,3590.00
1862.661,3587.00
1863.508,3815.00
1864.355,3452.00
1865.202,3566.00
1866.047,3289.00
1866.894,3583.00
1867.741,3763.00
1868.586,3337.00
1869.432,3317.00
1870.279,3178.00
1871.125,3094.00
1871.970,3847.00
1872.816,3286.00
1873.662,2802.00
1874.506,3345.00
1875.352,3529.00
1876.198,3647.00
1877.044,3825.00
1877.888,3160.00
1878.734,3235.00
1879.579,3067.00
1880.423,2890.00
1881.268,3098.00
1882.113,3501.00
1882.959,3167.00
1883.802,3050.00
1884.647,3553.00
1885.492,3284.00
1886.335,3175.00
1887.180,3055.00
1888.025,3252.00
1888.867,2991.00
1889.712,3381.00
1890.556,3002.00
1891.399,3518.00
1892.243,3532.00
1893.087,3102.00
1893.930,3375.00
1894.774,3369.00
1895.618,3560.00
1896.460,2857.00
1897.304,3157.00
1898.147,3086.00
1898.989,2938.00
1899.833,3437.00
1900.676,3046.00
1901.518,3495.00
1902.361,3576.00
1903.202,3096.00
1904.046,3035.00
1904.889,3173.00
1905.730,3138.00
1906.573,2916.00
1907.415,3285.00
1908.256,3654.00
1909.099,3339.00
1909.941,3353.00
1910.782,3404.00
1911.624,3038.00
1912.465,3420.00
1913.307,3283.00
1914.149,2987.00
1914.989,3492.00
1915.831,3149.00
1916.671,3684.00
1917.513,3174.00
1918.355,3347.00
1919.195,3497.00
1920.036,3339.00
1920.876,3213.00
1921.717,3324.00
1922.558,3227.00
1923.398,3270.00
1924.239,3267.00
1925.078,3583.00
1925.919,2948.00
1926.760,3390.00
1927.599,3100.00
1928.440,3498.00
1929.279,3235.00
1930.119,3684.00
1930.958,3156.00
1931.798,3200.00
1932.638,3089.00
1933.477,3263.00
1934.317,3016.00
1935.155,3097.00
1935.995,3344.00
1936.833,3070.00
1937.673,3098.00
1938.512,3697.00
1939.350,2858.00
1940.190,3156.00
1941.027,3153.00
1941.867,3088.00
1942.704,3207.00
1943.543,3233.00
1944.381,3409.00
1945.220,3623.00
1946.057,3317.00
1946.896,3578.00
1947.733,3306.00
1948.572,3030.00
1949.408,3619.00
1950.247,3330.00
1951.085,3441.00
1951.922,3556.00
1952.760,3017.00
1953.597,3627.00
1954.435,2616.00
1955.271,3430.00
1956.109,3093.00
1956.945,2843.00
1957.783,3411.00
1958.619,3060.00
1959.456,3257.00
1960.292,3310.00
1961.129,3611.00
1961.965,3739.00
1962.802,3021.00
1963.638,2971.00
1964.475,3297.00
1965.310,3271.00
1966.145,3291.00
1966.982,3059.00
1967.817,2978.00
1968.654,3266.00
1969.489,3018.00
1970.325,3274.00
1971.160,2995.00
1971.996,3376.00
1972.831,3461.00
1973.667,3145.00
1974.501,3652.00
1975.337,3562.00
1976.171,3160.00
1977.006,3538.00
1977.841,3126.00
1978.675,3456.00
1979.511,3901.00
1980.345,3004.00
1981.180,3457.00
1982.014,3257.00
1982.849,2960.00
1983.682,3099.00
1984.516,3033.00
1985.351,2830.00
1986.184,2731.00
1987.019,2737.00
1987.852,2558.00
1988.687,2770.00
1989.519,3040.00
1990.352,3263.00
1991.187,2731.00
1992.019,3052.00
1992.854,3368.00
1993.686,2937.00
1994.518,3094.00
1995.352,2583.00
1996.185,2312.00
1997.019,2869.00
1997.851,2674.00
1998.682,2769.00
1999.516,2750.00
2000.348,2516.00
