RamanScope Measure Spectrum Data V3.72

<< MEASURE CONDITION >>
Exposure Type,Aver
Exposure Time [sec],20
Exposure Count,2
Measure Time,2024/02/15 21:17:32
Data Name,""
Data Comment,""
Rayleigh Wave[nm],532.0

<< SAMPLE SPECTRUM >>
Wave[dcm-1],No42
96.716,12.50
97.759,2.50
98.802,-1.00
99.846,19.50
100.886,25.50
101.929,37.50
102.972,9.50
104.015,-3.00
105.057,-0.50
106.100,30.50
107.142,-12.00
108.184,-17.50
109.226,70.00
110.268,-16.00
111.310,13.50
112.352,15.50
113.393,7.50
114.435,2.00
115.476,13.50
116.517,-7.00
117.558,41.50
118.599,-3.50
119.640,-1.50
120.681,41.50
121.722,-4.50
122.762,-9.00
123.803,-31.00
124.843,25.50
125.883,-10.50
126.923,-59.50
127.963,10.00
129.001,3.00
130.041,2.50
131.080,-0.50
132.120,-17.50
133.159,-1.50
134.199,47.00
135.238,33.50
136.277,4.50
137.316,-11.50
138.355,74.00
139.393,-4.00
140.432,26.50
141.470,-14.50
142.509,51.00
143.547,1.00
144.585,16.00
145.623,53.50
146.661,74.50
147.699,118.50
148.736,121.50
149.774,219.50
150.811,281.00
151.849,264.00
152.886,486.00
153.923,555.00
154.960,687.00
155.997,835.50
157.034,1008.50
158.072,1202.50
159.109,1408.00
160.145,1581.50
161.182,1793.00
162.218,1933.50
163.254,2133.00
164.290,2303.00
165.326,2462.50
166.361,2601.50
167.397,2720.50
168.432,2779.50
169.468,2866.50
170.503,2965.50
171.538,3027.00
172.573,3038.00
173.608,3086.00
174.643,3135.50
175.677,3219.50
176.712,3215.00
177.746,3311.50
178.781,3360.50
179.815,3430.00
180.849,3531.50
181.883,3535.00
182.917,3679.50
183.951,3769.00
184.984,3833.00
186.020,3819.00
187.053,3848.00
188.087,3789.50
189.120,3778.00
190.153,3645.00
191.186,3645.00
192.219,3560.50
193.251,3545.50
194.284,3520.50
195.317,3479.00
196.349,3519.00
197.381,3548.50
198.413,3521.00
199.445,3535.00
200.477,3575.00
201.509,3519.50
202.543,3608.00
203.575,3600.50
204.606,3751.00
205.637,3548.00
206.669,3740.00
207.700,3796.00
208.731,3785.50
209.762,3811.00
210.792,3889.00
211.823,3933.50
212.854,3985.00
213.884,4033.50
214.914,4066.50
215.947,4144.00
216.977,4216.50
218.007,4276.00
219.037,4312.50
220.066,4411.00
221.096,4483.00
222.126,4426.50
223.155,4502.50
224.184,4548.00
225.214,4603.50
226.245,4677.50
227.274,4609.50
228.302,4554.50
229.331,4620.00
230.360,4598.50
231.388,4608.50
232.417,4560.00
233.445,4524.50
234.473,4460.00
235.501,4425.00
236.531,4438.50
237.559,4366.50
238.587,4242.00
239.614,4272.00
240.642,4224.00
241.669,4216.00
242.696,4235.50
243.724,4192.00
244.753,4219.50
245.780,4093.50
246.806,4187.00
247.833,4215.00
248.860,4120.00
249.886,4087.00
250.913,4172.50
251.939,4208.50
252.967,4231.50
253.993,4249.00
255.019,4239.50
256.045,4218.00
257.070,4338.50
258.096,4255.50
259.121,4259.50
260.147,4253.50
261.174,4181.50
262.199,4233.00
263.224,4256.00
264.249,4307.50
265.274,4251.00
266.298,4214.00
267.323,4364.50
268.349,4331.50
269.374,4278.00
270.398,4390.00
271.422,4398.00
272.446,4455.00
273.470,4415.00
274.496,4484.00
275.519,4476.00
276.543,4448.50
277.566,4529.50
278.589,4456.50
279.613,4644.50
280.636,4610.00
281.661,4579.50
282.684,4588.00
283.706,4637.50
284.729,4616.00
285.751,4541.50
286.774,4541.00
287.798,4597.00
288.820,4554.50
289.842,4429.50
290.864,4452.00
291.886,4433.50
292.910,4405.00
293.932,4390.50
294.953,4384.50
295.974,4283.00
296.996,4216.50
298.017,4217.50
299.040,4188.00
300.061,4099.50
301.082,4074.50
302.102,4016.50
303.123,3947.00
304.143,3973.00
305.166,3877.00
306.186,3899.00
307.206,3905.50
308.226,3841.00
309.246,3803.50
310.268,3765.50
311.288,3717.50
312.307,3725.50
313.327,3690.50
314.346,3721.00
315.368,3632.00
316.387,3679.50
317.406,3596.50
318.425,3589.00
319.443,3587.00
320.464,3561.00
321.483,3526.00
322.501,3509.50
323.520,3539.50
324.538,3462.00
325.558,3489.00
326.576,3481.00
327.594,3451.50
328.612,3542.00
329.629,3510.00
330.649,3433.50
331.666,3485.00
332.684,3482.50
333.701,3467.50
334.718,3423.50
335.737,3384.00
336.754,3434.00
337.771,3418.00
338.787,3353.50
339.806,3429.00
340.823,3362.00
341.839,3346.00
342.855,3367.50
343.871,3369.00
344.889,3411.00
345.905,3315.50
346.921,3319.00
347.937,3350.50
348.954,3319.00
349.970,3393.00
350.985,3276.50
352.000,3350.00
353.017,3274.50
354.032,3334.50
355.047,3300.00
356.062,3396.00
357.077,3274.50
358.093,3294.50
359.108,3320.50
360.122,3279.00
361.136,3337.50
362.152,3280.50
363.166,3287.00
364.180,3295.00
365.194,3245.50
366.210,3367.00
367.223,3303.00
368.237,3272.00
369.250,3256.00
370.265,3308.00
371.278,3325.50
372.291,3277.00
373.304,3309.50
374.319,3263.50
375.332,3352.00
376.344,3435.00
377.357,3324.50
378.371,3305.50
379.383,3335.50
380.395,3378.50
381.407,3324.50
382.421,3292.00
383.433,3263.00
384.445,3355.00
385.456,3355.00
386.470,3339.50
387.481,3356.50
388.492,3348.00
389.505,3351.50
390.516,3366.00
391.527,3337.00
392.538,3337.50
393.551,3352.00
394.561,3295.00
395.572,3306.50
396.582,3338.50
397.594,3264.00
398.604,3291.00
399.614,3275.00
400.624,3272.00
401.636,3294.00
402.646,3243.50
403.655,3272.50
404.667,3315.50
405.676,3213.00
406.685,3240.00
407.694,3258.50
408.705,3320.00
409.714,3159.00
410.723,3212.50
411.734,3190.50
412.742,3202.50
413.751,3205.50
414.759,3177.00
415.769,3147.50
416.777,3131.50
417.785,3090.50
418.795,3122.50
419.803,3101.50
420.811,3097.00
421.818,3088.00
422.828,3063.50
423.835,3056.00
424.842,3087.00
425.852,3080.50
426.859,3040.00
427.866,3064.50
428.874,2998.00
429.881,3046.50
430.888,3043.50
431.894,3032.00
432.902,3056.00
433.909,3018.50
434.915,3011.00
435.923,2944.50
436.929,2995.00
437.935,2996.50
438.942,2936.00
439.948,3010.00
440.953,2991.00
441.959,3020.50
442.966,3017.50
443.971,3001.50
444.976,2957.00
445.983,2955.50
446.988,2929.50
447.993,2906.50
448.999,2932.50
450.004,2920.50
451.008,2953.00
452.014,2887.50
453.019,2915.00
454.023,2911.00
455.029,2935.00
456.032,2905.50
457.036,2923.00
458.042,2945.00
459.045,2919.00
460.049,2928.00
461.052,2907.50
462.057,2896.00
463.060,2934.50
464.063,2990.50
465.068,2922.00
466.071,2883.50
467.073,2880.00
468.078,2881.50
469.080,2903.00
470.082,2955.00
471.087,2897.00
472.089,2923.50
473.091,2869.50
474.095,2952.50
475.096,2904.00
476.098,2917.50
477.101,2929.00
478.103,2893.00
479.104,2925.50
480.107,2920.00
481.108,2884.50
482.109,2913.50
483.112,2925.00
484.113,2937.50
485.114,2911.50
486.116,2844.50
487.117,2912.50
488.117,2911.00
489.119,2925.00
490.119,2880.50
491.121,2922.50
492.121,2895.00
493.121,2865.00
494.123,2904.50
495.122,2888.00
496.122,2954.00
497.123,2932.00
498.122,2882.50
499.121,2927.50
500.122,2924.00
501.121,2921.00
502.120,2872.50
503.121,2901.00
504.119,2870.50
505.118,2918.50
506.118,2885.50
507.117,2908.00
508.115,2849.50
509.115,2812.00
510.113,2794.50
511.112,2899.00
512.110,2870.50
513.108,2871.50
514.107,2774.00
515.105,2802.00
516.102,2770.00
517.101,2819.00
518.098,2789.00
519.095,2755.50
520.094,2751.00
521.091,2769.00
522.089,2832.50
523.086,2730.50
524.082,2741.50
525.081,2756.50
526.077,2715.50
527.073,2724.00
528.071,2761.50
529.067,2773.00
530.064,2789.50
531.060,2706.00
532.056,2695.00
533.053,2731.00
534.048,2756.00
535.044,2760.50
536.041,2756.00
537.036,2678.50
538.030,2756.00
539.027,2788.00
540.022,2760.50
541.019,2690.00
542.013,2759.00
543.007,2723.50
544.004,2625.50
544.998,2704.00
545.994,2759.50
546.988,2756.00
547.981,2733.50
548.977,2718.00
549.971,2709.50
550.964,2671.00
551.960,2616.00
552.953,2637.00
553.948,2682.00
554.941,2726.50
555.934,2677.00
556.929,2771.00
557.922,2694.50
558.916,2767.00
559.909,2723.50
560.901,2691.50
561.895,2672.50
562.888,2686.50
563.880,2691.50
564.874,2689.00
565.865,2650.50
566.859,2660.50
567.851,2663.50
568.842,2706.00
569.836,2611.50
570.827,2682.00
571.820,2712.00
572.811,2721.00
573.802,2712.00
574.795,2659.50
575.786,2614.00
576.779,2680.00
577.769,2649.50
578.760,2722.00
579.752,2671.50
580.742,2705.50
581.735,2655.00
582.725,2671.00
583.714,2633.50
584.706,2687.50
585.696,2692.50
586.688,2711.00
587.677,2683.00
588.667,2761.00
589.658,2720.00
590.647,2699.50
591.638,2617.50
592.627,2688.50
593.616,2650.50
594.607,2673.00
595.595,2696.50
596.586,2646.50
597.574,2680.00
598.562,2668.50
599.553,2595.00
600.541,2632.00
601.531,2719.50
602.519,2638.50
603.508,2630.00
604.496,2688.00
605.484,2644.00
606.473,2637.00
607.460,2683.00
608.450,2692.50
609.437,2656.50
610.424,2659.50
611.413,2683.50
612.400,2619.50
613.388,2646.50
614.375,2604.50
615.361,2634.00
616.350,2601.00
617.336,2611.00
618.324,2616.50
619.310,2544.00
620.298,2562.50
621.284,2512.00
622.270,2594.00
623.257,2585.00
624.243,2561.00
625.230,2576.00
626.216,2467.50
627.203,2483.50
628.188,2476.00
629.173,2403.50
630.160,2452.50
631.145,2411.00
632.131,2442.50
633.116,2386.00
634.102,2471.50
635.087,2417.00
636.071,2413.50
637.057,2420.00
638.041,2373.50
639.027,2278.00
640.011,2374.00
640.995,2356.50
641.980,2299.00
642.964,2366.50
643.949,2339.50
644.932,2325.50
645.918,2330.50
646.901,2316.50
647.886,2259.50
648.868,2287.50
649.851,2259.50
650.836,2274.00
651.818,2287.00
652.803,2237.50
653.785,2215.50
654.769,2178.50
655.751,2214.50
656.733,2137.00
657.717,2132.50
658.699,2175.00
659.683,2144.00
660.664,2140.00
661.648,2179.00
662.629,2127.50
663.611,2188.00
664.594,2175.00
665.575,2151.00
666.558,2107.00
667.539,2145.50
668.521,2046.50
669.502,2124.50
670.484,2101.00
671.465,2067.00
672.445,2096.00
673.427,2050.50
674.407,2123.50
675.390,2074.00
676.369,2078.50
677.351,2053.00
678.331,2042.50
679.312,2080.00
680.292,2042.50
681.271,2065.50
682.253,2046.50
683.232,1993.50
684.213,1961.50
685.192,2007.50
686.172,1936.50
687.151,2005.00
688.132,1909.50
689.110,1967.50
690.089,1994.00
691.069,1918.50
692.047,1946.00
693.027,1893.50
694.005,1935.00
694.985,1981.00
695.963,1927.50
696.943,1887.00
697.920,1875.50
698.898,1919.00
699.877,1895.00
700.854,1886.00
701.833,1900.00
702.810,1816.50
703.789,1808.00
704.766,1852.50
705.745,1832.00
706.721,1855.50
707.698,1869.00
708.676,1818.50
709.653,1724.00
710.631,1791.50
711.607,1834.50
712.585,1839.50
713.561,1842.00
714.539,1803.50
715.514,1803.00
716.492,1778.00
717.467,1814.00
718.443,1820.00
719.420,1739.00
720.395,1769.50
721.372,1719.00
722.347,1716.50
723.324,1781.50
724.298,1752.00
725.275,1697.50
726.250,1755.50
727.226,1748.50
728.200,1696.50
729.176,1783.00
730.151,1705.50
731.125,1687.00
732.100,1746.00
733.074,1638.00
734.050,1711.00
735.023,1685.50
735.999,1667.50
736.972,1660.50
737.947,1651.50
738.921,1688.00
739.896,1621.50
740.869,1599.50
741.841,1738.00
742.816,1606.50
743.789,1616.50
744.763,1641.50
745.736,1668.50
746.710,1644.00
747.682,1647.00
748.656,1584.50
749.628,1617.50
750.602,1675.50
751.574,1574.00
752.548,1584.00
753.519,1558.50
754.491,1591.50
755.464,1601.00
756.435,1570.50
757.408,1588.50
758.379,1562.00
759.352,1626.00
760.323,1543.00
761.296,1533.50
762.267,1562.50
763.239,1587.00
764.209,1541.00
765.182,1538.00
766.152,1521.00
767.124,1526.50
768.094,1547.50
769.064,1540.50
770.036,1532.00
771.005,1493.50
771.977,1502.50
772.947,1550.50
773.918,1512.00
774.887,1498.00
775.858,1558.50
776.827,1464.00
777.798,1435.50
778.767,1502.00
779.738,1491.00
780.707,1450.00
781.677,1465.50
782.646,1495.00
783.614,1542.00
784.584,1390.50
785.552,1427.50
786.522,1430.50
787.490,1455.50
788.460,1405.50
789.428,1473.50
790.397,1442.50
791.365,1378.00
792.334,1407.00
793.302,1454.00
794.271,1418.00
795.238,1399.50
796.207,1408.50
797.174,1383.50
798.143,1391.50
799.109,1419.50
800.076,1374.00
801.044,1402.50
802.011,1361.00
802.979,1406.00
803.945,1365.50
804.913,1403.00
805.879,1415.50
806.847,1369.50
807.813,1389.00
808.780,1341.00
809.746,1330.00
810.713,1395.50
811.678,1338.50
812.646,1327.50
813.611,1371.00
814.578,1356.00
815.543,1284.50
816.510,1326.00
817.474,1288.00
818.439,1357.50
819.405,1365.50
820.370,1302.50
821.336,1344.00
822.300,1278.00
823.266,1318.00
824.230,1320.00
825.196,1320.50
826.160,1369.00
827.126,1358.00
828.089,1377.00
829.055,1320.00
830.018,1320.50
830.983,1330.50
831.946,1309.00
832.911,1289.50
833.874,1346.50
834.837,1278.50
835.802,1314.00
836.765,1312.00
837.729,1348.50
838.691,1332.00
839.656,1315.50
840.618,1318.50
841.582,1338.00
842.544,1330.00
843.508,1285.00
844.470,1263.50
845.434,1304.00
846.395,1323.00
847.359,1276.50
848.320,1282.00
849.283,1299.50
850.245,1271.50
851.208,1258.00
852.169,1306.50
853.130,1315.50
854.092,1270.50
855.053,1287.00
856.016,1324.50
856.976,1281.00
857.938,1264.50
858.899,1305.00
859.861,1295.00
860.821,1287.50
861.783,1290.50
862.743,1309.00
863.704,1259.00
864.664,1313.00
865.626,1307.00
866.585,1317.00
867.546,1286.00
868.506,1263.50
869.467,1295.00
870.426,1291.00
871.387,1287.00
872.346,1281.00
873.304,1307.50
874.265,1322.50
875.223,1357.00
876.184,1268.00
877.142,1331.00
878.102,1313.50
879.060,1263.00
880.021,1289.50
880.978,1266.50
881.938,1329.50
882.896,1251.50
883.856,1262.50
884.813,1315.00
885.772,1317.00
886.730,1277.50
887.689,1296.00
888.646,1268.00
889.603,1323.50
890.562,1307.00
891.519,1378.00
892.477,1226.00
893.434,1334.00
894.392,1287.00
895.349,1313.00
896.307,1317.00
897.263,1355.50
898.221,1299.50
899.177,1334.00
900.135,1334.50
901.091,1326.50
902.048,1309.50
903.004,1317.50
903.961,1341.00
904.917,1323.00
905.874,1349.00
906.829,1338.50
907.784,1343.50
908.741,1332.00
909.696,1323.50
910.653,1320.00
911.607,1358.00
912.564,1338.50
913.518,1355.50
914.475,1407.00
915.429,1332.50
916.385,1329.50
917.339,1263.00
918.295,1368.50
919.249,1302.50
920.205,1338.00
921.158,1385.00
922.114,1327.00
923.067,1386.00
924.020,1289.50
924.976,1375.50
925.929,1302.50
926.884,1360.00
927.837,1344.50
928.791,1339.50
929.744,1395.00
930.699,1351.00
931.651,1324.00
932.606,1327.00
933.558,1313.50
934.512,1412.00
935.464,1339.00
936.418,1315.00
937.370,1337.50
938.322,1360.00
939.276,1325.50
940.227,1368.00
941.181,1343.00
942.132,1382.00
943.085,1366.50
944.036,1367.00
944.990,1375.00
945.941,1325.50
946.893,1363.00
947.844,1399.50
948.797,1410.00
949.747,1388.50
950.700,1341.50
951.650,1352.50
952.601,1414.00
953.553,1373.50
954.503,1336.50
955.455,1344.00
956.405,1345.50
957.356,1328.00
958.306,1330.00
959.258,1323.50
960.207,1331.00
961.158,1306.50
962.108,1303.50
963.059,1337.50
964.008,1340.50
964.959,1327.50
965.908,1310.50
966.856,1295.00
967.807,1320.50
968.756,1350.50
969.706,1283.50
970.654,1328.50
971.605,1313.00
972.553,1327.50
973.503,1314.00
974.451,1296.50
975.401,1304.00
976.348,1318.00
977.296,1212.00
978.246,1319.50
979.193,1300.00
980.142,1302.50
981.090,1292.50
982.039,1300.00
982.986,1309.00
983.935,1244.50
984.882,1235.50
985.830,1274.50
986.777,1280.00
987.725,1298.00
988.672,1328.00
989.618,1267.50
990.567,1275.00
991.513,1271.50
992.461,1213.00
993.407,1262.50
994.354,1265.00
995.300,1254.00
996.248,1269.00
997.193,1273.00
998.141,1194.50
999.086,1233.00
1000.031,1245.00
1000.978,1255.50
1001.924,1189.50
1002.870,1259.00
1003.815,1239.00
1004.762,1223.00
1005.707,1199.00
1006.653,1224.00
1007.598,1167.50
1008.542,1180.50
1009.488,1210.50
1010.432,1216.50
1011.378,1223.50
1012.322,1191.50
1013.268,1225.00
1014.212,1232.50
1015.157,1189.00
1016.101,1150.00
1017.046,1216.00
1017.990,1222.00
1018.933,1190.00
1019.878,1241.00
1020.821,1201.00
1021.766,1176.50
1022.709,1214.00
1023.654,1210.00
1024.596,1188.00
1025.541,1188.50
1026.483,1167.00
1027.425,1187.00
1028.370,1215.50
1029.312,1166.00
1030.256,1155.00
1031.198,1178.00
1032.141,1141.50
1033.083,1154.50
1034.027,1120.50
1034.968,1204.00
1035.910,1121.00
1036.853,1231.50
1037.794,1140.50
1038.738,1170.00
1039.679,1173.50
1040.621,1148.50
1041.562,1156.00
1042.503,1179.50
1043.446,1189.50
1044.386,1151.00
1045.329,1165.00
1046.269,1154.50
1047.211,1137.00
1048.151,1195.00
1049.093,1120.00
1050.033,1198.00
1050.973,1162.00
1051.915,1099.50
1052.854,1170.00
1053.796,1161.00
1054.735,1119.50
1055.677,1080.50
1056.616,1160.50
1057.555,1102.00
1058.496,1182.50
1059.435,1123.50
1060.376,1184.50
1061.315,1125.00
1062.255,1138.50
1063.194,1118.00
1064.132,1152.50
1065.073,1088.50
1066.011,1148.50
1066.951,1148.00
1067.889,1198.50
1068.829,1141.50
1069.767,1177.50
1070.705,1150.50
1071.644,1149.50
1072.582,1191.50
1073.521,1136.50
1074.459,1147.50
1075.398,1059.00
1076.335,1167.50
1077.272,1117.50
1078.211,1155.50
1079.148,1087.00
1080.087,1145.00
1081.023,1170.50
1081.962,1143.50
1082.898,1174.50
1083.835,1166.00
1084.773,1189.50
1085.709,1181.00
1086.647,1186.00
1087.583,1158.00
1088.519,1144.50
1089.457,1161.50
1090.392,1180.00
1091.330,1146.00
1092.266,1089.00
1093.203,1163.50
1094.138,1162.50
1095.073,1155.50
1096.010,1156.00
1096.945,1126.00
1097.882,1147.00
1098.817,1147.00
1099.752,1149.50
1100.688,1175.50
1101.623,1203.50
1102.559,1168.50
1103.493,1118.50
1104.430,1123.00
1105.364,1145.00
1106.298,1117.00
1107.234,1059.00
1108.167,1166.50
1109.094,1148.00
1110.019,1135.00
1110.945,1101.50
1111.869,1126.50
1112.795,1143.50
1113.720,1147.50
1114.646,1108.50
1115.571,1173.50
1116.495,1139.00
1117.420,1113.00
1118.345,1065.00
1119.270,1069.00
1120.195,1099.00
1121.118,998.00
1122.042,1054.00
1122.967,1061.50
1123.891,1067.50
1124.816,1137.50
1125.738,1020.00
1126.663,1091.00
1127.587,1028.50
1128.511,1033.00
1129.435,1098.00
1130.357,1091.50
1131.280,1058.50
1132.204,1030.00
1133.128,1031.50
1134.051,1041.00
1134.972,1061.50
1135.896,1031.00
1136.819,1028.50
1137.742,1024.00
1138.665,983.50
1139.586,1030.50
1140.509,1051.00
1141.431,1065.50
1142.354,1022.50
1143.276,1026.00
1144.197,1005.50
1145.119,1054.50
1146.041,994.50
1146.964,1024.00
1147.885,1003.00
1148.806,957.50
1149.727,1025.00
1150.649,1035.50
1151.571,1047.50
1152.492,981.00
1153.412,1024.00
1154.333,1017.00
1155.254,1023.00
1156.175,975.50
1157.095,1042.00
1158.016,1026.50
1158.936,1009.50
1159.857,1020.50
1160.778,991.50
1161.697,938.00
1162.617,945.00
1163.537,984.50
1164.458,899.50
1165.376,968.50
1166.296,973.50
1167.216,1004.00
1168.136,957.00
1169.056,1000.00
1169.974,1000.00
1170.893,984.00
1171.813,1012.50
1172.732,981.00
1173.650,1022.50
1174.569,903.00
1175.488,908.00
1176.407,918.50
1177.326,990.00
1178.243,961.00
1179.161,955.00
1180.080,956.00
1180.999,982.50
1181.915,958.50
1182.834,972.50
1183.752,981.00
1184.670,948.50
1185.586,960.50
1186.504,977.50
1187.422,1004.00
1188.340,950.00
1189.258,993.00
1190.173,944.00
1191.091,915.00
1192.008,963.00
1192.926,946.00
1193.841,945.00
1194.758,957.50
1195.675,931.00
1196.592,915.50
1197.507,954.50
1198.424,965.00
1199.340,891.00
1200.257,914.50
1201.172,928.00
1202.088,918.00
1203.004,942.50
1203.920,963.50
1204.835,938.50
1205.750,900.00
1206.666,976.50
1207.582,974.00
1208.496,998.50
1209.412,872.00
1210.327,872.00
1211.243,950.50
1212.156,943.00
1213.071,956.00
1213.986,992.50
1214.901,916.00
1215.814,936.00
1216.729,901.50
1217.644,923.50
1218.559,919.00
1219.471,951.00
1220.386,915.00
1221.300,940.00
1222.213,906.00
1223.127,877.50
1224.041,918.00
1224.955,912.00
1225.867,955.00
1226.781,908.50
1227.694,947.50
1228.608,927.00
1229.520,933.00
1230.433,949.50
1231.346,959.50
1232.260,913.00
1233.171,904.50
1234.084,925.00
1234.997,914.00
1235.908,956.50
1236.821,959.50
1237.733,932.00
1238.646,947.50
1239.556,924.00
1240.469,935.50
1241.381,906.50
1242.293,921.00
1243.203,912.50
1244.115,924.50
1245.027,897.00
1245.937,939.00
1246.849,959.50
1247.761,869.00
1248.672,922.00
1249.582,937.00
1250.493,989.50
1251.404,981.00
1252.313,942.00
1253.225,951.00
1254.135,920.50
1255.046,883.00
1255.955,924.50
1256.866,993.50
1257.777,955.00
1258.685,967.00
1259.596,883.00
1260.506,939.00
1261.416,965.50
1262.324,913.00
1263.234,955.50
1264.144,938.00
1265.052,924.00
1265.962,940.00
1266.872,963.50
1267.779,977.00
1268.689,947.00
1269.598,952.00
1270.507,966.00
1271.415,937.00
1272.324,963.00
1273.233,958.50
1274.140,942.00
1275.048,905.00
1275.957,944.50
1276.864,915.50
1277.772,912.00
1278.681,915.00
1279.587,901.00
1280.496,913.00
1281.404,856.00
1282.312,984.00
1283.218,974.00
1284.126,865.50
1285.033,931.00
1285.939,955.50
1286.847,978.50
1287.754,927.00
1288.660,932.50
1289.567,942.00
1290.474,916.00
1291.380,970.50
1292.286,968.00
1293.193,922.00
1294.098,918.50
1295.005,919.00
1295.912,906.50
1296.816,967.50
1297.723,956.00
1298.629,953.00
1299.534,937.00
1300.440,910.00
1301.346,870.00
1302.250,910.00
1303.156,933.00
1304.062,948.00
1304.966,918.00
1305.871,935.00
1306.777,883.50
1307.680,903.00
1308.586,903.50
1309.491,888.00
1310.394,868.00
1311.299,949.00
1312.204,936.00
1313.107,810.00
1314.012,923.50
1314.917,906.00
1315.819,924.00
1316.724,910.00
1317.628,843.00
1318.531,879.50
1319.435,902.50
1320.339,965.00
1321.241,891.50
1322.145,912.50
1323.049,869.00
1323.951,877.50
1324.854,860.50
1325.756,834.00
1326.659,875.50
1327.563,874.50
1328.464,961.00
1329.367,895.00
1330.271,898.50
1331.172,862.50
1332.074,877.00
1332.977,856.50
1333.878,893.50
1334.781,881.00
1335.683,959.50
1336.584,873.00
1337.486,851.00
1338.387,866.50
1339.289,845.00
1340.191,900.00
1341.091,807.00
1341.993,873.50
1342.895,857.00
1343.794,828.50
1344.696,886.00
1345.596,850.00
1346.497,867.00
1347.398,839.50
1348.298,848.00
1349.199,840.50
1350.100,844.00
1350.999,857.00
1351.900,824.50
1352.799,819.50
1353.699,763.50
1354.600,857.50
1355.499,838.00
1356.399,876.00
1357.297,830.50
1358.198,778.50
1359.098,871.00
1359.996,860.50
1360.896,812.00
1361.796,846.00
1362.694,869.50
1363.593,813.00
1364.491,764.50
1365.391,809.50
1366.290,813.50
1367.187,815.50
1368.086,776.50
1368.984,798.50
1369.883,824.00
1370.782,778.50
1371.679,768.00
1372.577,748.00
1373.474,759.50
1374.373,812.50
1375.269,784.50
1376.168,780.00
1377.066,825.00
1377.962,761.50
1378.860,820.00
1379.756,787.50
1380.654,774.00
1381.552,827.00
1382.448,786.00
1383.346,856.00
1384.241,849.00
1385.139,730.50
1386.036,795.00
1386.931,777.50
1387.829,793.00
1388.724,785.50
1389.621,745.00
1390.516,777.50
1391.413,754.00
1392.309,753.00
1393.204,767.00
1394.101,770.00
1394.995,755.00
1395.891,764.50
1396.786,775.50
1397.682,695.50
1398.578,780.50
1399.472,762.50
1400.368,763.00
1401.262,780.50
1402.158,762.00
1403.051,751.00
1403.947,784.50
1404.840,712.00
1405.736,789.00
1406.631,791.50
1407.524,718.50
1408.419,746.00
1409.312,736.00
1410.207,773.50
1411.100,735.50
1411.995,757.00
1412.888,717.00
1413.782,716.50
1414.675,732.00
1415.569,782.00
1416.463,729.50
1417.355,725.00
1418.249,703.50
1419.141,713.00
1420.035,794.50
1420.927,716.00
1421.821,734.50
1422.713,696.50
1423.606,721.50
1424.498,745.50
1425.391,725.50
1426.282,725.00
1427.175,733.50
1428.068,729.50
1428.960,740.50
1429.852,777.00
1430.743,729.50
1431.636,704.50
1432.527,744.50
1433.419,724.00
1434.310,680.50
1435.202,696.50
1436.092,736.50
1436.984,692.50
1437.875,709.50
1438.767,722.00
1439.657,735.50
1440.548,740.00
1441.438,791.00
1442.330,701.00
1443.219,742.00
1444.111,697.50
1445.000,691.50
1445.891,694.50
1446.781,715.00
1447.672,700.00
1448.561,693.50
1449.452,679.50
1450.340,681.50
1451.231,702.00
1452.120,676.50
1453.010,690.00
1453.899,655.50
1454.789,743.00
1455.677,672.00
1456.568,693.00
1457.456,702.50
1458.346,688.50
1459.234,677.50
1460.123,711.00
1461.011,725.50
1461.901,622.00
1462.788,691.00
1463.678,698.50
1464.565,691.00
1465.454,673.00
1466.342,687.00
1467.231,646.50
1468.118,670.50
1469.006,702.00
1469.893,680.50
1470.782,690.00
1471.669,650.50
1472.557,624.00
1473.444,660.00
1474.330,701.00
1475.218,708.00
1476.105,667.50
1476.993,696.00
1477.879,632.00
1478.767,648.50
1479.652,648.50
1480.540,701.50
1481.426,689.00
1482.313,669.50
1483.199,642.00
1484.086,663.00
1484.972,634.50
1485.857,638.50
1486.744,690.00
1487.629,646.50
1488.516,629.50
1489.401,662.50
1490.287,629.00
1491.172,592.50
1492.058,674.00
1492.943,691.00
1493.828,658.00
1494.714,684.00
1495.598,635.00
1496.484,523.00
1497.368,634.00
1498.254,648.50
1499.138,639.00
1500.022,656.00
1500.907,646.00
1501.791,588.50
1502.676,610.50
1503.560,637.00
1504.445,592.00
1505.328,702.50
1506.211,616.00
1507.096,639.50
1507.979,635.00
1508.864,662.00
1509.747,605.00
1510.631,663.50
1511.514,726.50
1512.397,626.00
1513.281,695.00
1514.163,662.50
1515.047,633.00
1515.930,683.00
1516.812,665.50
1517.696,622.00
1518.578,640.00
1519.461,635.50
1520.343,603.50
1521.225,665.00
1522.108,600.50
1522.990,649.50
1523.873,595.50
1524.754,630.00
1525.635,632.50
1526.518,606.50
1527.399,628.50
1528.282,626.50
1529.163,620.00
1530.044,574.50
1530.926,626.50
1531.807,573.00
1532.689,602.00
1533.569,600.00
1534.450,663.00
1535.332,593.00
1536.212,690.50
1537.092,624.00
1537.974,608.00
1538.854,586.00
1539.735,646.00
1540.615,574.00
1541.495,630.50
1542.376,569.50
1543.255,655.00
1544.135,612.00
1545.016,614.00
1545.895,638.50
1546.774,606.00
1547.655,600.50
1548.534,597.00
1549.414,588.50
1550.293,634.00
1551.172,635.00
1552.052,595.00
1552.930,594.50
1553.809,586.00
1554.689,601.00
1555.567,576.50
1556.445,681.00
1557.325,662.00
1558.203,614.00
1559.080,607.00
1559.960,628.00
1560.838,568.00
1561.715,613.00
1562.594,590.00
1563.472,641.50
1564.349,602.50
1565.228,565.00
1566.105,591.50
1566.982,608.50
1567.861,617.50
1568.738,607.50
1569.615,610.00
1570.493,587.50
1571.370,630.00
1572.246,558.00
1573.124,592.50
1574.000,633.00
1574.877,612.50
1575.755,577.50
1576.631,596.00
1577.507,634.00
1578.384,629.50
1579.260,636.00
1580.136,616.00
1581.011,560.50
1581.889,564.00
1582.764,660.00
1583.639,611.50
1584.516,558.00
1585.391,604.50
1586.266,567.00
1587.143,591.00
1588.018,582.00
1588.893,589.50
1589.768,625.50
1590.644,570.50
1591.519,581.50
1592.393,520.00
1593.269,657.50
1594.143,557.50
1595.018,586.50
1595.892,624.50
1596.767,533.00
1597.641,618.00
1598.515,608.50
1599.391,623.00
1600.264,606.50
1601.138,555.50
1602.011,579.00
1602.886,591.00
1603.760,580.50
1604.633,605.00
1605.508,553.50
1606.381,639.50
1607.254,518.50
1608.127,540.50
1609.001,603.50
1609.874,599.50
1610.746,584.00
1611.619,601.00
1612.493,571.00
1613.365,536.50
1614.238,557.00
1615.110,584.50
1615.984,580.00
1616.855,600.50
1617.727,558.00
1618.599,521.00
1619.473,569.50
1620.344,570.50
1621.216,544.00
1622.087,566.00
1622.960,574.00
1623.832,557.00
1624.703,543.00
1625.574,585.50
1626.445,558.00
1627.317,568.50
1628.188,602.00
1629.059,556.50
1629.930,594.00
1630.802,567.50
1631.672,572.00
1632.543,566.00
1633.413,547.50
1634.283,565.00
1635.155,519.50
1636.025,585.50
1636.895,580.50
1637.765,582.50
1638.636,585.00
1639.506,594.50
1640.376,522.50
1641.245,544.50
1642.114,567.00
1642.985,567.50
1643.855,573.50
1644.724,585.00
1645.593,537.50
1646.462,532.50
1647.333,546.50
1648.201,591.50
1649.070,562.00
1649.939,594.50
1650.807,562.00
1651.676,516.00
1652.546,586.00
1653.414,584.00
1654.282,544.00
1655.150,590.50
1656.018,513.00
1656.888,596.50
1657.756,611.00
1658.623,612.50
1659.491,576.00
1660.359,528.00
1661.226,557.00
1662.095,566.50
1662.962,550.50
1663.830,602.00
1664.697,586.00
1665.564,514.00
1666.431,529.00
1667.297,576.50
1668.166,595.50
1669.033,579.50
1669.899,572.00
1670.766,547.50
1671.632,585.00
1672.499,538.00
1673.367,609.50
1674.233,557.00
1675.099,520.00
1675.965,526.50
1676.831,554.50
1677.696,551.00
1678.562,588.00
1679.430,541.50
1680.295,580.50
1681.161,556.00
1682.026,519.50
1682.891,610.50
1683.756,528.50
1684.621,535.00
1685.486,512.50
1686.353,515.50
1687.218,523.00
1688.083,529.50
1688.947,477.00
1689.812,525.50
1690.677,541.00
1691.541,507.00
1692.405,563.00
1693.269,602.00
1694.135,531.00
1694.999,557.50
1695.863,523.00
1696.727,535.00
1697.591,585.00
1698.455,541.50
1699.318,544.00
1700.182,603.00
1701.045,540.00
1701.909,554.50
1702.772,557.00
1703.637,503.50
1704.500,539.00
1705.363,555.50
1706.226,490.50
1707.089,564.50
1707.951,521.00
1708.814,558.50
1709.677,568.00
1710.539,562.00
1711.402,545.00
1712.264,483.00
1713.126,549.00
1713.988,572.00
1714.852,539.00
1715.714,550.00
1716.576,556.50
1717.438,536.00
1718.299,515.00
1719.161,535.50
1720.023,528.50
1720.884,499.00
1721.745,528.50
1722.607,568.50
1723.468,539.50
1724.329,523.50
1725.190,528.00
1726.051,501.50
1726.912,524.00
1727.772,515.50
1728.633,516.00
1729.494,549.00
1730.354,517.00
1731.214,520.00
1732.075,509.00
1732.935,548.00
1733.797,533.00
1734.657,536.00
1735.517,538.00
1736.377,502.00
1737.237,552.00
1738.096,499.50
1738.956,510.00
1739.816,579.00
1740.675,469.00
1741.534,536.50
1742.394,532.00
1743.253,548.50
1744.112,522.00
1744.971,568.50
1745.830,564.00
1746.689,484.00
1747.547,521.00
1748.406,482.00
1749.265,554.50
1750.123,559.00
1750.982,541.00
1751.840,527.50
1752.698,539.00
1753.556,532.00
1754.414,553.50
1755.272,500.00
1756.130,546.00
1756.988,504.50
1757.846,530.00
1758.703,576.00
1759.559,537.00
1760.417,526.00
1761.274,569.00
1762.131,528.00
1762.989,578.50
1763.846,557.00
1764.703,531.50
1765.560,526.50
1766.417,522.50
1767.273,502.50
1768.130,565.50
1768.987,485.50
1769.843,567.50
1770.700,507.00
1771.556,537.50
1772.412,530.50
1773.268,506.50
1774.125,509.50
1774.980,490.50
1775.836,495.00
1776.692,514.50
1777.546,534.50
1778.402,459.50
1779.257,540.50
1780.113,509.50
1780.968,560.50
1781.824,538.50
1782.679,514.50
1783.534,561.50
1784.389,514.00
1785.244,472.50
1786.099,580.00
1786.954,536.50
1787.808,486.00
1788.661,546.50
1789.516,506.00
1790.370,471.50
1791.225,536.00
1792.079,533.00
1792.933,493.00
1793.787,541.50
1794.641,502.50
1795.495,513.50
1796.349,504.00
1797.201,533.50
1798.055,555.00
1798.908,507.50
1799.762,488.00
1800.615,511.50
1801.469,456.00
1802.322,526.50
1803.175,503.00
1804.028,510.50
1804.880,530.00
1805.732,525.00
1806.585,541.00
1807.438,550.00
1808.291,513.50
1809.143,543.00
1809.996,483.50
1810.846,494.50
1811.699,523.50
1812.551,492.50
1813.403,520.50
1814.255,507.50
1815.107,513.00
1815.959,448.00
1816.809,493.00
1817.661,505.00
1818.512,505.50
1819.364,558.00
1820.215,557.50
1821.067,523.50
1821.918,512.50
1822.768,537.50
1823.619,513.00
1824.470,555.50
1825.321,560.00
1826.172,477.00
1827.021,490.50
1827.871,581.00
1828.722,507.00
1829.572,524.00
1830.423,558.00
1831.273,460.50
1832.122,505.50
1832.972,550.50
1833.822,545.00
1834.672,495.00
1835.522,469.00
1836.370,506.00
1837.220,509.00
1838.070,476.00
1838.919,489.00
1839.769,570.50
1840.616,500.00
1841.466,520.50
1842.315,481.00
1843.164,522.50
1844.013,525.00
1844.860,508.00
1845.709,551.00
1846.558,519.00
1847.407,559.00
1848.254,505.50
1849.102,516.00
1849.951,514.00
1850.799,490.50
1851.648,496.00
1852.494,515.50
1853.342,505.00
1854.190,480.50
1855.038,519.50
1855.884,490.00
1856.732,537.50
1857.580,462.50
1858.428,505.00
1859.273,530.50
1860.121,525.50
1860.968,523.50
1861.816,546.50
1862.661,508.00
1863.508,510.50
1864.355,543.00
1865.202,511.00
1866.047,500.50
1866.894,532.00
1867.741,496.00
1868.586,560.50
1869.432,526.50
1870.279,498.00
1871.125,509.50
1871.970,522.00
1872.816,476.00
1873.662,486.00
1874.506,509.00
1875.352,505.50
1876.198,459.50
1877.044,493.00
1877.888,509.00
1878.734,436.00
1879.579,496.00
1880.423,492.50
1881.268,490.50
1882.113,461.50
1882.959,495.00
1883.802,517.50
1884.647,501.00
1885.492,492.00
1886.335,483.50
1887.180,485.50
1888.025,492.00
1888.867,487.50
1889.712,518.00
1890.556,497.50
1891.399,520.50
1892.243,504.50
1893.087,563.50
1893.930,495.50
1894.774,474.50
1895.618,518.50
1896.460,499.00
1897.304,531.00
1898.147,451.50
1898.989,476.00
1899.833,555.00
1900.676,539.50
1901.518,492.50
1902.361,456.50
1903.202,539.00
1904.046,490.50
1904.889,505.00
1905.730,498.00
1906.573,508.50
1907.415,460.50
1908.256,452.50
1909.099,453.50
1909.941,537.00
1910.782,497.50
1911.624,520.00
1912.465,479.50
1913.307,508.00
1914.149,535.50
1914.989,459.00
1915.831,515.50
1916.671,537.00
1917.513,466.00
1918.355,506.50
1919.195,432.50
1920.036,474.00
1920.876,500.50
1921.717,553.00
1922.558,514.50
1923.398,473.00
1924.239,548.00
1925.078,467.00
1925.919,534.00
1926.760,528.00
1927.599,500.50
1928.440,479.50
1929.279,492.50
1930.119,499.00
1930.958,520.50
1931.798,474.00
1932.638,447.00
1933.477,481.00
1934.317,530.00
1935.155,512.50
1935.995,510.00
1936.833,493.50
1937.673,487.50
1938.512,500.00
1939.350,503.00
1940.190,485.00
1941.027,492.00
1941.867,531.50
1942.704,502.00
1943.543,503.50
1944.381,509.50
1945.220,498.00
1946.057,511.50
1946.896,548.50
1947.733,550.00
1948.572,493.00
1949.408,532.00
1950.247,499.50
1951.085,510.00
1951.922,483.50
1952.760,512.50
1953.597,521.00
1954.435,470.50
1955.271,466.50
1956.109,487.50
1956.945,455.50
1957.783,570.00
1958.619,482.00
1959.456,484.50
1960.292,533.00
1961.129,459.00
1961.965,469.50
1962.802,515.50
1963.638,531.00
1964.475,448.00
1965.310,522.00
1966.145,399.00
1966.982,491.50
1967.817,484.50
1968.654,473.00
1969.489,486.50
1970.325,533.50
1971.160,512.50
1971.996,508.50
1972.831,515.00
1973.667,473.00
1974.501,527.50
1975.337,536.50
1976.171,532.50
1977.006,496.00
1977.841,471.00
1978.675,503.50
1979.511,518.00
1980.345,503.50
1981.180,521.50
1982.014,527.00
1982.849,569.00
1983.682,462.00
1984.516,524.00
1985.351,469.00
1986.184,522.00
1987.019,469.00
1987.852,489.50
1988.687,484.50
1989.519,574.00
1990.352,472.00
1991.187,502.00
1992.019,549.50
1992.854,485.50
1993.686,539.00
1994.518,491.50
1995.352,505.00
1996.185,559.50
1997.019,533.00
1997.851,509.00
1998.682,530.50
1999.516,504.50
2000.348,507.00

<< BACKGROUND SPECTRUM >>
Wave[dcm-1],No42
96.716,2561.00
97.759,2366.00
98.802,2302.00
99.846,2911.00
100.886,2551.00
101.929,2762.00
102.972,2752.00
104.015,2649.00
105.057,2794.00
106.100,2207.00
107.142,2628.00
108.184,3033.00
109.226,2830.00
110.268,3080.00
111.310,3346.00
112.352,2905.00
113.393,2970.00
114.435,2845.00
115.476,3093.00
116.517,3124.00
117.558,2590.00
118.599,2949.00
119.640,3294.00
120.681,3234.00
121.722,3189.00
122.762,2904.00
123.803,2779.00
124.843,3104.00
125.883,3404.00
126.923,3615.00
127.963,3305.00
129.001,3599.00
130.041,4017.00
131.080,3296.00
132.120,3167.00
133.159,3566.00
134.199,3614.00
135.238,3150.00
136.277,3549.00
137.316,3707.00
138.355,3588.00
139.393,3224.00
140.432,3337.00
141.470,3462.00
142.509,3147.00
143.547,3768.00
144.585,3020.00
145.623,3402.00
146.661,3125.00
147.699,3526.00
148.736,3633.00
149.774,3221.00
150.811,3485.00
151.849,4018.00
152.886,3421.00
153.923,3703.00
154.960,3130.00
155.997,3963.00
157.034,4968.00
158.072,3558.00
159.109,4050.00
160.145,4233.00
161.182,3247.00
162.218,3496.00
163.254,3321.00
164.290,3292.00
165.326,4023.00
166.361,3883.00
167.397,3525.00
168.432,3731.00
169.468,3432.00
170.503,3722.00
171.538,3398.00
172.573,3754.00
173.608,3251.00
174.643,3752.00
175.677,3648.00
176.712,3821.00
177.746,3869.00
178.781,3358.00
179.815,2717.00
180.849,3792.00
181.883,3350.00
182.917,2810.00
183.951,3109.00
184.984,3835.00
186.020,3316.00
187.053,3657.00
188.087,3240.00
189.120,3482.00
190.153,3698.00
191.186,3712.00
192.219,3794.00
193.251,3692.00
194.284,3816.00
195.317,3877.00
196.349,10621.00
197.381,3445.00
198.413,3472.00
199.445,3297.00
200.477,3542.00
201.509,3611.00
202.543,3567.00
203.575,3956.00
204.606,3614.00
205.637,5321.00
206.669,3163.00
207.700,3703.00
208.731,3612.00
209.762,3233.00
210.792,3279.00
211.823,3703.00
212.854,3291.00
213.884,4376.00
214.914,3746.00
215.947,3578.00
216.977,3679.00
218.007,3599.00
219.037,3861.00
220.066,3376.00
221.096,3789.00
222.126,3219.00
223.155,3450.00
224.184,3742.00
225.214,4261.00
226.245,3915.00
227.274,3342.00
228.302,3717.00
229.331,3692.00
230.360,3447.00
231.388,3407.00
232.417,3208.00
233.445,3623.00
234.473,3452.00
235.501,3766.00
236.531,3727.00
237.559,3696.00
238.587,3398.00
239.614,3292.00
240.642,3621.00
241.669,3735.00
242.696,3648.00
243.724,3709.00
244.753,4037.00
245.780,3459.00
246.806,3243.00
247.833,3561.00
248.860,3502.00
249.886,3654.00
250.913,3259.00
251.939,3510.00
252.967,3523.00
253.993,3501.00
255.019,3933.00
256.045,3635.00
257.070,4041.00
258.096,3278.00
259.121,3731.00
260.147,3594.00
261.174,3503.00
262.199,3447.00
263.224,3569.00
264.249,3874.00
265.274,4060.00
266.298,3623.00
267.323,3626.00
268.349,3899.00
269.374,3245.00
270.398,3252.00
271.422,3679.00
272.446,3293.00
273.470,3150.00
274.496,3746.00
275.519,3688.00
276.543,3914.00
277.566,3911.00
278.589,3896.00
279.613,3760.00
280.636,3717.00
281.661,3852.00
282.684,3830.00
283.706,3932.00
284.729,4160.00
285.751,3039.00
286.774,4020.00
287.798,3388.00
288.820,2993.00
289.842,3357.00
290.864,3355.00
291.886,3641.00
292.910,3464.00
293.932,4087.00
294.953,3491.00
295.974,3567.00
296.996,3759.00
298.017,3565.00
299.040,3390.00
300.061,3702.00
301.082,3378.00
302.102,3219.00
303.123,3806.00
304.143,3553.00
305.166,3544.00
306.186,3768.00
307.206,3350.00
308.226,3737.00
309.246,3131.00
310.268,3853.00
311.288,3565.00
312.307,3200.00
313.327,3506.00
314.346,3771.00
315.368,3022.00
316.387,3614.00
317.406,3661.00
318.425,3585.00
319.443,3530.00
320.464,3169.00
321.483,4065.00
322.501,3394.00
323.520,3975.00
324.538,3528.00
325.558,4055.00
326.576,3614.00
327.594,3560.00
328.612,3378.00
329.629,3124.00
330.649,3815.00
331.666,3545.00
332.684,3105.00
333.701,3721.00
334.718,3225.00
335.737,3435.00
336.754,3703.00
337.771,3790.00
338.787,3222.00
339.806,3443.00
340.823,3467.00
341.839,3623.00
342.855,3469.00
343.871,3609.00
344.889,3330.00
345.905,3903.00
346.921,3815.00
347.937,4339.00
348.954,4151.00
349.970,3648.00
350.985,3615.00
352.000,3134.00
353.017,3807.00
354.032,3146.00
355.047,3877.00
356.062,3483.00
357.077,3444.00
358.093,3983.00
359.108,3725.00
360.122,3682.00
361.136,3495.00
362.152,3953.00
363.166,3315.00
364.180,3178.00
365.194,4037.00
366.210,3383.00
367.223,3298.00
368.237,3419.00
369.250,3609.00
370.265,3363.00
371.278,3903.00
372.291,3721.00
373.304,3023.00
374.319,3763.00
375.332,3798.00
376.344,4063.00
377.357,3434.00
378.371,3866.00
379.383,3314.00
380.395,4284.00
381.407,4106.00
382.421,3449.00
383.433,3452.00
384.445,3376.00
385.456,3528.00
386.470,3096.00
387.481,3954.00
388.492,3900.00
389.505,3225.00
390.516,3952.00
391.527,3484.00
392.538,3484.00
393.551,3720.00
394.561,4342.00
395.572,3748.00
396.582,3616.00
397.594,3800.00
398.604,3392.00
399.614,3640.00
400.624,3429.00
401.636,3432.00
402.646,3557.00
403.655,3176.00
404.667,3369.00
405.676,3398.00
406.685,4349.00
407.694,3911.00
408.705,2989.00
409.714,3150.00
410.723,3252.00
411.734,3322.00
412.742,3411.00
413.751,3615.00
414.759,3640.00
415.769,3624.00
416.777,3836.00
417.785,3551.00
418.795,3371.00
419.803,3613.00
420.811,3280.00
421.818,3952.00
422.828,3502.00
423.835,3395.00
424.842,3399.00
425.852,3296.00
426.859,3668.00
427.866,3693.00
428.874,3631.00
429.881,3482.00
430.888,3772.00
431.894,3605.00
432.902,3558.00
433.909,4526.00
434.915,3648.00
435.923,4297.00
436.929,3103.00
437.935,3476.00
438.942,3429.00
439.948,3560.00
440.953,4107.00
441.959,3174.00
442.966,3948.00
443.971,3711.00
444.976,3192.00
445.983,3595.00
446.988,3500.00
447.993,4045.00
448.999,3607.00
450.004,3556.00
451.008,3390.00
452.014,4100.00
453.019,3886.00
454.023,3306.00
455.029,3269.00
456.032,4021.00
457.036,3488.00
458.042,2916.00
459.045,3460.00
460.049,3783.00
461.052,4042.00
462.057,3804.00
463.060,4012.00
464.063,3376.00
465.068,3463.00
466.071,3336.00
467.073,3933.00
468.078,3188.00
469.080,3088.00
470.082,3542.00
471.087,3464.00
472.089,3595.00
473.091,3824.00
474.095,3988.00
475.096,3456.00
476.098,3409.00
477.101,3759.00
478.103,3313.00
479.104,4196.00
480.107,3445.00
481.108,3075.00
482.109,4219.00
483.112,4154.00
484.113,3728.00
485.114,3807.00
486.116,3599.00
487.117,3887.00
488.117,3616.00
489.119,3704.00
490.119,3807.00
491.121,3211.00
492.121,3062.00
493.121,2900.00
494.123,3592.00
495.122,3715.00
496.122,3555.00
497.123,4536.00
498.122,3396.00
499.121,3612.00
500.122,3575.00
501.121,3182.00
502.120,3140.00
503.121,3289.00
504.119,3229.00
505.118,3746.00
506.118,3273.00
507.117,3269.00
508.115,3719.00
509.115,3574.00
510.113,3185.00
511.112,3787.00
512.110,3474.00
513.108,3734.00
514.107,3924.00
515.105,3794.00
516.102,3978.00
517.101,3505.00
518.098,3585.00
519.095,4089.00
520.094,3421.00
521.091,3437.00
522.089,3682.00
523.086,3390.00
524.082,3714.00
525.081,3630.00
526.077,4787.00
527.073,4569.00
528.071,3500.00
529.067,3373.00
530.064,3440.00
531.060,3198.00
532.056,3447.00
533.053,3884.00
534.048,3783.00
535.044,3545.00
536.041,3684.00
537.036,3610.00
538.030,3716.00
539.027,3759.00
540.022,3159.00
541.019,3529.00
542.013,3809.00
543.007,3645.00
544.004,3583.00
544.998,3547.00
545.994,4103.00
546.988,3922.00
547.981,3454.00
548.977,4194.00
549.971,3731.00
550.964,3822.00
551.960,3688.00
552.953,3616.00
553.948,3836.00
554.941,3359.00
555.934,3265.00
556.929,3704.00
557.922,3316.00
558.916,3805.00
559.909,3998.00
560.901,3631.00
561.895,3672.00
562.888,3273.00
563.880,3735.00
564.874,3920.00
565.865,3803.00
566.859,3213.00
567.851,4062.00
568.842,3443.00
569.836,3589.00
570.827,3258.00
571.820,3598.00
572.811,3720.00
573.802,3523.00
574.795,3330.00
575.786,3837.00
576.779,3692.00
577.769,3249.00
578.760,3622.00
579.752,3224.00
580.742,3375.00
581.735,3713.00
582.725,3371.00
583.714,3825.00
584.706,3240.00
585.696,3551.00
586.688,3778.00
587.677,3502.00
588.667,3699.00
589.658,3489.00
590.647,3658.00
591.638,3653.00
592.627,3372.00
593.616,3142.00
594.607,3679.00
595.595,3565.00
596.586,3195.00
597.574,3868.00
598.562,3929.00
599.553,3178.00
600.541,3590.00
601.531,3686.00
602.519,3468.00
603.508,3707.00
604.496,3693.00
605.484,3644.00
606.473,3553.00
607.460,3385.00
608.450,3438.00
609.437,3746.00
610.424,3893.00
611.413,3131.00
612.400,3263.00
613.388,3557.00
614.375,3437.00
615.361,3478.00
616.350,3331.00
617.336,8430.00
618.324,3875.00
619.310,3375.00
620.298,3236.00
621.284,3663.00
622.270,3236.00
623.257,3574.00
624.243,3590.00
625.230,3725.00
626.216,3551.00
627.203,3933.00
628.188,3465.00
629.173,3465.00
630.160,3306.00
631.145,2731.00
632.131,3355.00
633.116,3223.00
634.102,3594.00
635.087,3805.00
636.071,3779.00
637.057,3294.00
638.041,3099.00
639.027,3313.00
640.011,3439.00
640.995,3259.00
641.980,3308.00
642.964,3375.00
643.949,3899.00
644.932,2787.00
645.918,3335.00
646.901,3520.00
647.886,3338.00
648.868,3438.00
649.851,3174.00
650.836,2926.00
651.818,3144.00
652.803,3740.00
653.785,3516.00
654.769,3729.00
655.751,3668.00
656.733,3956.00
657.717,3073.00
658.699,3557.00
659.683,3338.00
660.664,3201.00
661.648,3348.00
662.629,3338.00
663.611,3279.00
664.594,3076.00
665.575,3074.00
666.558,3424.00
667.539,3064.00
668.521,3366.00
669.502,3388.00
670.484,3396.00
671.465,3277.00
672.445,3461.00
673.427,3213.00
674.407,3172.00
675.390,3572.00
676.369,3346.00
677.351,2971.00
678.331,3615.00
679.312,3408.00
680.292,3280.00
681.271,2952.00
682.253,3554.00
683.232,3062.00
684.213,3317.00
685.192,3680.00
686.172,3981.00
687.151,3376.00
688.132,3468.00
689.110,3602.00
690.089,3709.00
691.069,2895.00
692.047,2829.00
693.027,3000.00
694.005,3428.00
694.985,3958.00
695.963,3474.00
696.943,3254.00
697.920,3028.00
698.898,3773.00
699.877,3629.00
700.854,3253.00
701.833,3221.00
702.810,3757.00
703.789,3486.00
704.766,4486.00
705.745,3962.00
706.721,3203.00
707.698,3715.00
708.676,3064.00
709.653,3324.00
710.631,3685.00
711.607,3339.00
712.585,3371.00
713.561,3100.00
714.539,3925.00
715.514,3259.00
716.492,3070.00
717.467,3806.00
718.443,3016.00
719.420,3703.00
720.395,3759.00
721.372,3541.00
722.347,3696.00
723.324,3185.00
724.298,3367.00
725.275,3158.00
726.250,3303.00
727.226,3177.00
728.200,2967.00
729.176,3282.00
730.151,3616.00
731.125,3819.00
732.100,2882.00
733.074,3367.00
734.050,3148.00
735.023,3024.00
735.999,3299.00
736.972,3196.00
737.947,3695.00
738.921,3405.00
739.896,3604.00
740.869,3470.00
741.841,3236.00
742.816,3803.00
743.789,3134.00
744.763,3092.00
745.736,3313.00
746.710,3177.00
747.682,3078.00
748.656,3357.00
749.628,3288.00
750.602,3262.00
751.574,3407.00
752.548,4196.00
753.519,3491.00
754.491,2944.00
755.464,3160.00
756.435,4010.00
757.408,3608.00
758.379,3483.00
759.352,2873.00
760.323,3008.00
761.296,3284.00
762.267,3341.00
763.239,3070.00
764.209,3579.00
765.182,4480.00
766.152,3673.00
767.124,3083.00
768.094,3105.00
769.064,3490.00
770.036,2977.00
771.005,3675.00
771.977,3151.00
772.947,3215.00
773.918,3724.00
774.887,3302.00
775.858,3103.00
776.827,3271.00
777.798,3278.00
778.767,3824.00
779.738,3224.00
780.707,3191.00
781.677,3355.00
782.646,3112.00
783.614,3669.00
784.584,3436.00
785.552,3531.00
786.522,2983.00
787.490,3273.00
788.460,3179.00
789.428,3180.00
790.397,3727.00
791.365,3027.00
792.334,3202.00
793.302,3378.00
794.271,3429.00
795.238,3206.00
796.207,3154.00
797.174,3633.00
798.143,3037.00
799.109,3671.00
800.076,3229.00
801.044,2881.00
802.011,3098.00
802.979,3066.00
803.945,3302.00
804.913,3938.00
805.879,3254.00
806.847,2949.00
807.813,3624.00
808.780,3269.00
809.746,3297.00
810.713,3632.00
811.678,2951.00
812.646,3233.00
813.611,3239.00
814.578,2967.00
815.543,3693.00
816.510,2870.00
817.474,3162.00
818.439,3195.00
819.405,3491.00
820.370,3115.00
821.336,2981.00
822.300,3425.00
823.266,3203.00
824.230,3455.00
825.196,3275.00
826.160,3594.00
827.126,3610.00
828.089,3958.00
829.055,3303.00
830.018,3327.00
830.983,4052.00
831.946,3084.00
832.911,3061.00
833.874,3862.00
834.837,3131.00
835.802,3153.00
836.765,3744.00
837.729,3083.00
838.691,3209.00
839.656,3550.00
840.618,3402.00
841.582,3448.00
842.544,3522.00
843.508,3726.00
844.470,3028.00
845.434,2848.00
846.395,2724.00
847.359,3168.00
848.320,2920.00
849.283,3036.00
850.245,3177.00
851.208,3541.00
852.169,3209.00
853.130,2989.00
854.092,3457.00
855.053,3210.00
856.016,3198.00
856.976,4339.00
857.938,3279.00
858.899,3298.00
859.861,2941.00
860.821,3152.00
861.783,2594.00
862.743,3219.00
863.704,3501.00
864.664,2747.00
865.626,3352.00
866.585,3036.00
867.546,3322.00
868.506,3347.00
869.467,2783.00
870.426,3337.00
871.387,3500.00
872.346,3544.00
873.304,3346.00
874.265,3430.00
875.223,3242.00
876.184,3364.00
877.142,3068.00
878.102,3220.00
879.060,3209.00
880.021,3293.00
880.978,2892.00
881.938,3169.00
882.896,3560.00
883.856,3418.00
884.813,3166.00
885.772,3125.00
886.730,3454.00
887.689,3392.00
888.646,3097.00
889.603,3625.00
890.562,3603.00
891.519,3324.00
892.477,3429.00
893.434,3307.00
894.392,2854.00
895.349,3286.00
896.307,3336.00
897.263,3435.00
898.221,3311.00
899.177,3093.00
900.135,3440.00
901.091,3200.00
902.048,3698.00
903.004,3182.00
903.961,3030.00
904.917,3225.00
905.874,3244.00
906.829,2949.00
907.784,3260.00
908.741,3269.00
909.696,3107.00
910.653,2765.00
911.607,3154.00
912.564,3149.00
913.518,3115.00
914.475,3258.00
915.429,4938.00
916.385,2961.00
917.339,3666.00
918.295,3363.00
919.249,3432.00
920.205,3277.00
921.158,3367.00
922.114,3144.00
923.067,3251.00
924.020,3336.00
924.976,3111.00
925.929,3434.00
926.884,3289.00
927.837,3542.00
928.791,3476.00
929.744,2914.00
930.699,3288.00
931.651,3263.00
932.606,2888.00
933.558,3172.00
934.512,3421.00
935.464,3369.00
936.418,3630.00
937.370,3401.00
938.322,3012.00
939.276,3159.00
940.227,3235.00
941.181,3313.00
942.132,3639.00
943.085,3864.00
944.036,2807.00
944.990,3551.00
945.941,3067.00
946.893,3111.00
947.844,2884.00
948.797,3359.00
949.747,3994.00
950.700,3134.00
951.650,2658.00
952.601,3321.00
953.553,3011.00
954.503,3457.00
955.455,3193.00
956.405,3252.00
957.356,2926.00
958.306,3491.00
959.258,3210.00
960.207,3635.00
961.158,3561.00
962.108,3277.00
963.059,2927.00
964.008,2845.00
964.959,3875.00
965.908,3175.00
966.856,3014.00
967.807,2807.00
968.756,3555.00
969.706,3270.00
970.654,3123.00
971.605,3244.00
972.553,3302.00
973.503,3222.00
974.451,3545.00
975.401,3279.00
976.348,3264.00
977.296,3197.00
978.246,3477.00
979.193,3610.00
980.142,3006.00
981.090,3324.00
982.039,3162.00
982.986,3311.00
983.935,3592.00
984.882,3348.00
985.830,3433.00
986.777,3392.00
987.725,3050.00
988.672,3009.00
989.618,3244.00
990.567,2999.00
991.513,3141.00
992.461,3040.00
993.407,3458.00
994.354,3317.00
995.300,3371.00
996.248,3295.00
997.193,3340.00
998.141,3165.00
999.086,3359.00
1000.031,3307.00
1000.978,2807.00
1001.924,3229.00
1002.870,3318.00
1003.815,2654.00
1004.762,3042.00
1005.707,3251.00
1006.653,3154.00
1007.598,3185.00
1008.542,2908.00
1009.488,2820.00
1010.432,3110.00
1011.378,2969.00
1012.322,3622.00
1013.268,2909.00
1014.212,3197.00
1015.157,3312.00
1016.101,3666.00
1017.046,2900.00
1017.990,2934.00
1018.933,3174.00
1019.878,2952.00
1020.821,3025.00
1021.766,2888.00
1022.709,3092.00
1023.654,3193.00
1024.596,3464.00
1025.541,3682.00
1026.483,3608.00
1027.425,3297.00
1028.370,3367.00
1029.312,3436.00
1030.256,3104.00
1031.198,3041.00
1032.141,3111.00
1033.083,3591.00
1034.027,3340.00
1034.968,3345.00
1035.910,2762.00
1036.853,3170.00
1037.794,3275.00
1038.738,2941.00
1039.679,3503.00
1040.621,3092.00
1041.562,3148.00
1042.503,3470.00
1043.446,2907.00
1044.386,3454.00
1045.329,3217.00
1046.269,3320.00
1047.211,3128.00
1048.151,3270.00
1049.093,2945.00
1050.033,3915.00
1050.973,3324.00
1051.915,3185.00
1052.854,3100.00
1053.796,3387.00
1054.735,3075.00
1055.677,3120.00
1056.616,3263.00
1057.555,3292.00
1058.496,2830.00
1059.435,3430.00
1060.376,3021.00
1061.315,3046.00
1062.255,2904.00
1063.194,3145.00
1064.132,2909.00
1065.073,3319.00
1066.011,3236.00
1066.951,3225.00
1067.889,2910.00
1068.829,3326.00
1069.767,3254.00
1070.705,2585.00
1071.644,3099.00
1072.582,2752.00
1073.521,3125.00
1074.459,3124.00
1075.398,3354.00
1076.335,3034.00
1077.272,3844.00
1078.211,3334.00
1079.148,3753.00
1080.087,3212.00
1081.023,3613.00
1081.962,3452.00
1082.898,2697.00
1083.835,3055.00
1084.773,2765.00
1085.709,2798.00
1086.647,3145.00
1087.583,3059.00
1088.519,3318.00
1089.457,3310.00
1090.392,2737.00
1091.330,3187.00
1092.266,3139.00
1093.203,3472.00
1094.138,2821.00
1095.073,3623.00
1096.010,3435.00
1096.945,3119.00
1097.882,2816.00
1098.817,2654.00
1099.752,3854.00
1100.688,3183.00
1101.623,3227.00
1102.559,3244.00
1103.493,3500.00
1104.430,2717.00
1105.364,2827.00
1106.298,3114.00
1107.234,3761.00
1108.167,2917.00
1109.094,3079.00
1110.019,3131.00
1110.945,3289.00
1111.869,3166.00
1112.795,3006.00
1113.720,3163.00
1114.646,3170.00
1115.571,2570.00
1116.495,3180.00
1117.420,3236.00
1118.345,3002.00
1119.270,3136.00
1120.195,3300.00
1121.118,3589.00
1122.042,3425.00
1122.967,3149.00
1123.891,3213.00
1124.816,3197.00
1125.738,3246.00
1126.663,2598.00
1127.587,3099.00
1128.511,3046.00
1129.435,3159.00
1130.357,3221.00
1131.280,4008.00
1132.204,2991.00
1133.128,3001.00
1134.051,3062.00
1134.972,3790.00
1135.896,3080.00
1136.819,3458.00
1137.742,3007.00
1138.665,3325.00
1139.586,3137.00
1140.509,2684.00
1141.431,2944.00
1142.354,3626.00
1143.276,3179.00
1144.197,3542.00
1145.119,3244.00
1146.041,2909.00
1146.964,3316.00
1147.885,3266.00
1148.806,3116.00
1149.727,3197.00
1150.649,2746.00
1151.571,3125.00
1152.492,3389.00
1153.412,3256.00
1154.333,3150.00
1155.254,3041.00
1156.175,3038.00
1157.095,3599.00
1158.016,3180.00
1158.936,2997.00
1159.857,3258.00
1160.778,3076.00
1161.697,2775.00
1162.617,3284.00
1163.537,3779.00
1164.458,3660.00
1165.376,2965.00
1166.296,3363.00
1167.216,3473.00
1168.136,3030.00
1169.056,2861.00
1169.974,3062.00
1170.893,3683.00
1171.813,3290.00
1172.732,3024.00
1173.650,3154.00
1174.569,4000.00
1175.488,3346.00
1176.407,2929.00
1177.326,2901.00
1178.243,3148.00
1179.161,3012.00
1180.080,3089.00
1180.999,3271.00
1181.915,3094.00
1182.834,2700.00
1183.752,3296.00
1184.670,3706.00
1185.586,2675.00
1186.504,2980.00
1187.422,3101.00
1188.340,2845.00
1189.258,3252.00
1190.173,3139.00
1191.091,3504.00
1192.008,2954.00
1192.926,2990.00
1193.841,3244.00
1194.758,3275.00
1195.675,2933.00
1196.592,3469.00
1197.507,2912.00
1198.424,3272.00
1199.340,3659.00
1200.257,3094.00
1201.172,3291.00
1202.088,2584.00
1203.004,3240.00
1203.920,3399.00
1204.835,3741.00
1205.750,3487.00
1206.666,3504.00
1207.582,2888.00
1208.496,2911.00
1209.412,3119.00
1210.327,3022.00
1211.243,3653.00
1212.156,2932.00
1213.071,2942.00
1213.986,3122.00
1214.901,2821.00
1215.814,2787.00
1216.729,2917.00
1217.644,2961.00
1218.559,2909.00
1219.471,3887.00
1220.386,3482.00
1221.300,2942.00
1222.213,3291.00
1223.127,3143.00
1224.041,3550.00
1224.955,2932.00
1225.867,3228.00
1226.781,3418.00
1227.694,3494.00
1228.608,3088.00
1229.520,3381.00
1230.433,3341.00
1231.346,2904.00
1232.260,3353.00
1233.171,2928.00
1234.084,3234.00
1234.997,3542.00
1235.908,2953.00
1236.821,3259.00
1237.733,4324.00
1238.646,3381.00
1239.556,3253.00
1240.469,3162.00
1241.381,2983.00
1242.293,2957.00
1243.203,3635.00
1244.115,3678.00
1245.027,3265.00
1245.937,3015.00
1246.849,3035.00
1247.761,3226.00
1248.672,2924.00
1249.582,3050.00
1250.493,3707.00
1251.404,3151.00
1252.313,3336.00
1253.225,3481.00
1254.135,4084.00
1255.046,3338.00
1255.955,3378.00
1256.866,3593.00
1257.777,3019.00
1258.685,2824.00
1259.596,2625.00
1260.506,3480.00
1261.416,3086.00
1262.324,3407.00
1263.234,3121.00
1264.144,3382.00
1265.052,3249.00
1265.962,3165.00
1266.872,3427.00
1267.779,3371.00
1268.689,2713.00
1269.598,2847.00
1270.507,3074.00
1271.415,3030.00
1272.324,3238.00
1273.233,3130.00
1274.140,3018.00
1275.048,2933.00
1275.957,2652.00
1276.864,2965.00
1277.772,2980.00
1278.681,2649.00
1279.587,2947.00
1280.496,3300.00
1281.404,3962.00
1282.312,3309.00
1283.218,2867.00
1284.126,2947.00
1285.033,3705.00
1285.939,3093.00
1286.847,3166.00
1287.754,3091.00
1288.660,2923.00
1289.567,3758.00
1290.474,3223.00
1291.380,3361.00
1292.286,2810.00
1293.193,3198.00
1294.098,3164.00
1295.005,2987.00
1295.912,3491.00
1296.816,3233.00
1297.723,3105.00
1298.629,2960.00
1299.534,3467.00
1300.440,3270.00
1301.346,2994.00
1302.250,2975.00
1303.156,2709.00
1304.062,3587.00
1304.966,3717.00
1305.871,3441.00
1306.777,2983.00
1307.680,3075.00
1308.586,3275.00
1309.491,3410.00
1310.394,3179.00
1311.299,3403.00
1312.204,3663.00
1313.107,3359.00
1314.012,3217.00
1314.917,2874.00
1315.819,3274.00
1316.724,3650.00
1317.628,3294.00
1318.531,3130.00
1319.435,3536.00
1320.339,5112.00
1321.241,3137.00
1322.145,3144.00
1323.049,3265.00
1323.951,2932.00
1324.854,2944.00
1325.756,3459.00
1326.659,3220.00
1327.563,2930.00
1328.464,3241.00
1329.367,3148.00
1330.271,3494.00
1331.172,2897.00
1332.074,3165.00
1332.977,2950.00
1333.878,3273.00
1334.781,3433.00
1335.683,2902.00
1336.584,3083.00
1337.486,2744.00
1338.387,3319.00
1339.289,2862.00
1340.191,2969.00
1341.091,3090.00
1341.993,2873.00
1342.895,2986.00
1343.794,3268.00
1344.696,3370.00
1345.596,3288.00
1346.497,2863.00
1347.398,3081.00
1348.298,2652.00
1349.199,3704.00
1350.100,3040.00
1350.999,3482.00
1351.900,3371.00
1352.799,3505.00
1353.699,3244.00
1354.600,3109.00
1355.499,3216.00
1356.399,2698.00
1357.297,3091.00
1358.198,3213.00
1359.098,2882.00
1359.996,2776.00
1360.896,3617.00
1361.796,3407.00
1362.694,3234.00
1363.593,3124.00
1364.491,3349.00
1365.391,3679.00
1366.290,3071.00
1367.187,2960.00
1368.086,3404.00
1368.984,3211.00
1369.883,2738.00
1370.782,3195.00
1371.679,3384.00
1372.577,3661.00
1373.474,3214.00
1374.373,3072.00
1375.269,3195.00
1376.168,3101.00
1377.066,3414.00
1377.962,3376.00
1378.860,3512.00
1379.756,3494.00
1380.654,3726.00
1381.552,3333.00
1382.448,3321.00
1383.346,3164.00
1384.241,3277.00
1385.139,3452.00
1386.036,3027.00
1386.931,2743.00
1387.829,3240.00
1388.724,3403.00
1389.621,3044.00
1390.516,3199.00
1391.413,3047.00
1392.309,2921.00
1393.204,3451.00
1394.101,3340.00
1394.995,3323.00
1395.891,3338.00
1396.786,2907.00
1397.682,3159.00
1398.578,3220.00
1399.472,3478.00
1400.368,3160.00
1401.262,3103.00
1402.158,3319.00
1403.051,3097.00
1403.947,3013.00
1404.840,3433.00
1405.736,3358.00
1406.631,2895.00
1407.524,3610.00
1408.419,3222.00
1409.312,3047.00
1410.207,3265.00
1411.100,3026.00
1411.995,2992.00
1412.888,3341.00
1413.782,2818.00
1414.675,3498.00
1415.569,2865.00
1416.463,3121.00
1417.355,3106.00
1418.249,2980.00
1419.141,3257.00
1420.035,3246.00
1420.927,3147.00
1421.821,3508.00
1422.713,3077.00
1423.606,3315.00
1424.498,3172.00
1425.391,3755.00
1426.282,2973.00
1427.175,3106.00
1428.068,2662.00
1428.960,3237.00
1429.852,3223.00
1430.743,2931.00
1431.636,3193.00
1432.527,3461.00
1433.419,3330.00
1434.310,3366.00
1435.202,2967.00
1436.092,3103.00
1436.984,3127.00
1437.875,3533.00
1438.767,3161.00
1439.657,2958.00
1440.548,3334.00
1441.438,3167.00
1442.330,3303.00
1443.219,3098.00
1444.111,3412.00
1445.000,3009.00
1445.891,2926.00
1446.781,2935.00
1447.672,3245.00
1448.561,3516.00
1449.452,3354.00
1450.340,2932.00
1451.231,2958.00
1452.120,2878.00
1453.010,3452.00
1453.899,3056.00
1454.789,3332.00
1455.677,3565.00
1456.568,3205.00
1457.456,3204.00
1458.346,3197.00
1459.234,3257.00
1460.123,3522.00
1461.011,3163.00
1461.901,3564.00
1462.788,3555.00
1463.678,3287.00
1464.565,3180.00
1465.454,3106.00
1466.342,3252.00
1467.231,2566.00
1468.118,3435.00
1469.006,3556.00
1469.893,2892.00
1470.782,3328.00
1471.669,3497.00
1472.557,3463.00
1473.444,3193.00
1474.330,3388.00
1475.218,3508.00
1476.105,3078.00
1476.993,3199.00
1477.879,3454.00
1478.767,3116.00
1479.652,2960.00
1480.540,3216.00
1481.426,3338.00
1482.313,3337.00
1483.199,3592.00
1484.086,3437.00
1484.972,2925.00
1485.857,2896.00
1486.744,3266.00
1487.629,2776.00
1488.516,3099.00
1489.401,3395.00
1490.287,3228.00
1491.172,2832.00
1492.058,3104.00
1492.943,2951.00
1493.828,3002.00
1494.714,3332.00
1495.598,3565.00
1496.484,4061.00
1497.368,2843.00
1498.254,3136.00
1499.138,3229.00
1500.022,3178.00
1500.907,3315.00
1501.791,3950.00
1502.676,3189.00
1503.560,3054.00
1504.445,3768.00
1505.328,3286.00
1506.211,3576.00
1507.096,3130.00
1507.979,3469.00
1508.864,3097.00
1509.747,3369.00
1510.631,3253.00
1511.514,3285.00
1512.397,3414.00
1513.281,3682.00
1514.163,3434.00
1515.047,3094.00
1515.930,2911.00
1516.812,3185.00
1517.696,3348.00
1518.578,3149.00
1519.461,3273.00
1520.343,3687.00
1521.225,2995.00
1522.108,3148.00
1522.990,3499.00
1523.873,3622.00
1524.754,2814.00
1525.635,2662.00
1526.518,3345.00
1527.399,3139.00
1528.282,3205.00
1529.163,3304.00
1530.044,3185.00
1530.926,2859.00
1531.807,3002.00
1532.689,3255.00
1533.569,2985.00
1534.450,4243.00
1535.332,3414.00
1536.212,3048.00
1537.092,3466.00
1537.974,2890.00
1538.854,3146.00
1539.735,3697.00
1540.615,3416.00
1541.495,2940.00
1542.376,3617.00
1543.255,2872.00
1544.135,3127.00
1545.016,3233.00
1545.895,2949.00
1546.774,3414.00
1547.655,2732.00
1548.534,3171.00
1549.414,3118.00
1550.293,2882.00
1551.172,3260.00
1552.052,3168.00
1552.930,3062.00
1553.809,3701.00
1554.689,3080.00
1555.567,3120.00
1556.445,3033.00
1557.325,3485.00
1558.203,2803.00
1559.080,3196.00
1559.960,3112.00
1560.838,3866.00
1561.715,3094.00
1562.594,3507.00
1563.472,3325.00
1564.349,3344.00
1565.228,2800.00
1566.105,2957.00
1566.982,3242.00
1567.861,3462.00
1568.738,3108.00
1569.615,2769.00
1570.493,3066.00
1571.370,3053.00
1572.246,2652.00
1573.124,3169.00
1574.000,3086.00
1574.877,3401.00
1575.755,3087.00
1576.631,2965.00
1577.507,3530.00
1578.384,3533.00
1579.260,3271.00
1580.136,3758.00
1581.011,3210.00
1581.889,3160.00
1582.764,3147.00
1583.639,3487.00
1584.516,3392.00
1585.391,3045.00
1586.266,3232.00
1587.143,3667.00
1588.018,3347.00
1588.893,3569.00
1589.768,3918.00
1590.644,3920.00
1591.519,2947.00
1592.393,3375.00
1593.269,3434.00
1594.143,3012.00
1595.018,3145.00
1595.892,3035.00
1596.767,2722.00
1597.641,2689.00
1598.515,2841.00
1599.391,3287.00
1600.264,3031.00
1601.138,2985.00
1602.011,2582.00
1602.886,3702.00
1603.760,3478.00
1604.633,3446.00
1605.508,3406.00
1606.381,3193.00
1607.254,3240.00
1608.127,3349.00
1609.001,2933.00
1609.874,3548.00
1610.746,3431.00
1611.619,3176.00
1612.493,3435.00
1613.365,3023.00
1614.238,3264.00
1615.110,3226.00
1615.984,3172.00
1616.855,3006.00
1617.727,3422.00
1618.599,3077.00
1619.473,3504.00
1620.344,2564.00
1621.216,3209.00
1622.087,3224.00
1622.960,3206.00
1623.832,3204.00
1624.703,3345.00
1625.574,3395.00
1626.445,3225.00
1627.317,3224.00
1628.188,3421.00
1629.059,3130.00
1629.930,3542.00
1630.802,3131.00
1631.672,3381.00
1632.543,3318.00
1633.413,3220.00
1634.283,3693.00
1635.155,3326.00
1636.025,3263.00
1636.895,3236.00
1637.765,2705.00
1638.636,3154.00
1639.506,3309.00
1640.376,3979.00
1641.245,3129.00
1642.114,3210.00
1642.985,2669.00
1643.855,2946.00
1644.724,3055.00
1645.593,3382.00
1646.462,3344.00
1647.333,3267.00
1648.201,3064.00
1649.070,3251.00
1649.939,3337.00
1650.807,2989.00
1651.676,3398.00
1652.546,3405.00
1653.414,3483.00
1654.282,3195.00
1655.150,3042.00
1656.018,3221.00
1656.888,3822.00
1657.756,3154.00
1658.623,2810.00
1659.491,2736.00
1660.359,3579.00
1661.226,3044.00
1662.095,3336.00
1662.962,3053.00
1663.830,3117.00
1664.697,2986.00
1665.564,3212.00
1666.431,3373.00
1667.297,2935.00
1668.166,2895.00
1669.033,2733.00
1669.899,3032.00
1670.766,2863.00
1671.632,3043.00
1672.499,3542.00
1673.367,3186.00
1674.233,3393.00
1675.099,3194.00
1675.965,2894.00
1676.831,3108.00
1677.696,3532.00
1678.562,5763.00
1679.430,2769.00
1680.295,2861.00
1681.161,2956.00
1682.026,2993.00
1682.891,3042.00
1683.756,3135.00
1684.621,3243.00
1685.486,3228.00
1686.353,3206.00
1687.218,3352.00
1688.083,3158.00
1688.947,3506.00
1689.812,3156.00
1690.677,3048.00
1691.541,3297.00
1692.405,2504.00
1693.269,3624.00
1694.135,3376.00
1694.999,3181.00
1695.863,3706.00
1696.727,3069.00
1697.591,3044.00
1698.455,3293.00
1699.318,3042.00
1700.182,4400.00
1701.045,3183.00
1701.909,3212.00
1702.772,3679.00
1703.637,3057.00
1704.500,2773.00
1705.363,3419.00
1706.226,3261.00
1707.089,3326.00
1707.951,3358.00
1708.814,3906.00
1709.677,3923.00
1710.539,3415.00
1711.402,3433.00
1712.264,3228.00
1713.126,3105.00
1713.988,3422.00
1714.852,3459.00
1715.714,2590.00
1716.576,2756.00
1717.438,3418.00
1718.299,2772.00
1719.161,3567.00
1720.023,3164.00
1720.884,3645.00
1721.745,3184.00
1722.607,3072.00
1723.468,2702.00
1724.329,3460.00
1725.190,3210.00
1726.051,3396.00
1726.912,3060.00
1727.772,3292.00
1728.633,3121.00
1729.494,3249.00
1730.354,3461.00
1731.214,2905.00
1732.075,3045.00
1732.935,3059.00
1733.797,3042.00
1734.657,3663.00
1735.517,3866.00
1736.377,3510.00
1737.237,3142.00
1738.096,3865.00
1738.956,3143.00
1739.816,3081.00
1740.675,3193.00
1741.534,2672.00
1742.394,3223.00
1743.253,2950.00
1744.112,3219.00
1744.971,3010.00
1745.830,3289.00
1746.689,3362.00
1747.547,3425.00
1748.406,2858.00
1749.265,3045.00
1750.123,3083.00
1750.982,3384.00
1751.840,3183.00
1752.698,3241.00
1753.556,3022.00
1754.414,3211.00
1755.272,3148.00
1756.130,3206.00
1756.988,3154.00
1757.846,3365.00
1758.703,2983.00
1759.559,3468.00
1760.417,2917.00
1761.274,3825.00
1762.131,3582.00
1762.989,3654.00
1763.846,3605.00
1764.703,3299.00
1765.560,3758.00
1766.417,3264.00
1767.273,2973.00
1768.130,3175.00
1768.987,3070.00
1769.843,3416.00
1770.700,3589.00
1771.556,3082.00
1772.412,3591.00
1773.268,3121.00
1774.125,3552.00
1774.980,3234.00
1775.836,3533.00
1776.692,3143.00
1777.546,3011.00
1778.402,3452.00
1779.257,3257.00
1780.113,3019.00
1780.968,3291.00
1781.824,3467.00
1782.679,2857.00
1783.534,3046.00
1784.389,3698.00
1785.244,3359.00
1786.099,3102.00
1786.954,3455.00
1787.808,3236.00
1788.661,3240.00
1789.516,3647.00
1790.370,3305.00
1791.225,3079.00
1792.079,2825.00
1792.933,3968.00
1793.787,3319.00
1794.641,3295.00
1795.495,3187.00
1796.349,3278.00
1797.201,3045.00
1798.055,2983.00
1798.908,3214.00
1799.762,3614.00
1800.615,3449.00
1801.469,3506.00
1802.322,3598.00
1803.175,3061.00
1804.028,2800.00
1804.880,3735.00
1805.732,3404.00
1806.585,3188.00
1807.438,3226.00
1808.291,2724.00
1809.143,2955.00
1809.996,2869.00
1810.846,3984.00
1811.699,3349.00
1812.551,3137.00
1813.403,3382.00
1814.255,3254.00
1815.107,3233.00
1815.959,3866.00
1816.809,3318.00
1817.661,3372.00
1818.512,3184.00
1819.364,3250.00
1820.215,3305.00
1821.067,2973.00
1821.918,3076.00
1822.768,3456.00
1823.619,3468.00
1824.470,3082.00
1825.321,3327.00
1826.172,3176.00
1827.021,3341.00
1827.871,3428.00
1828.722,3269.00
1829.572,3262.00
1830.423,3212.00
1831.273,3119.00
1832.122,3237.00
1832.972,3150.00
1833.822,2885.00
1834.672,3408.00
1835.522,3467.00
1836.370,3007.00
1837.220,3337.00
1838.070,2782.00
1838.919,2556.00
1839.769,3002.00
1840.616,3491.00
1841.466,3370.00
1842.315,2952.00
1843.164,3836.00
1844.013,3025.00
1844.860,2911.00
1845.709,2957.00
1846.558,3513.00
1847.407,2856.00
1848.254,3355.00
1849.102,3270.00
1849.951,2974.00
1850.799,2654.00
1851.648,3093.00
1852.494,3262.00
1853.342,3304.00
1854.190,3536.00
1855.038,3536.00
1855.884,3227.00
1856.732,4084.00
1857.580,3708.00
1858.428,3049.00
1859.273,2917.00
1860.121,2983.00
1860.968,4048.00
1861.816,3541.00
1862.661,3602.00
1863.508,3823.00
1864.355,3438.00
1865.202,3512.00
1866.047,3303.00
1866.894,3624.00
1867.741,3778.00
1868.586,3324.00
1869.432,3292.00
1870.279,3167.00
1871.125,3065.00
1871.970,3825.00
1872.816,3329.00
1873.662,2764.00
1874.506,3354.00
1875.352,3534.00
1876.198,3643.00
1877.044,3806.00
1877.888,3177.00
1878.734,3308.00
1879.579,3096.00
1880.423,2879.00
1881.268,3132.00
1882.113,3527.00
1882.959,3221.00
1883.802,3045.00
1884.647,3607.00
1885.492,3272.00
1886.335,3198.00
1887.180,3051.00
1888.025,3275.00
1888.867,2999.00
1889.712,3360.00
1890.556,3016.00
1891.399,3515.00
1892.243,3534.00
1893.087,3054.00
1893.930,3389.00
1894.774,3401.00
1895.618,3583.00
1896.460,2860.00
1897.304,3133.00
1898.147,3126.00
1898.989,2974.00
1899.833,3414.00
1900.676,3017.00
1901.518,3510.00
1902.361,3589.00
1903.202,3085.00
1904.046,3060.00
1904.889,3187.00
1905.730,3153.00
1906.573,2903.00
1907.415,3306.00
1908.256,3701.00
1909.099,3395.00
1909.941,3366.00
1910.782,3354.00
1911.624,3048.00
1912.465,3462.00
1913.307,3267.00
1914.149,2953.00
1914.989,3556.00
1915.831,3189.00
1916.671,3641.00
1917.513,3175.00
1918.355,3331.00
1919.195,3528.00
1920.036,3318.00
1920.876,3270.00
1921.717,3334.00
1922.558,3247.00
1923.398,3304.00
1924.239,3224.00
1925.078,3576.00
1925.919,2932.00
1926.760,3350.00
1927.599,3100.00
1928.440,3469.00
1929.279,3264.00
1930.119,3688.00
1930.958,3136.00
1931.798,3277.00
1932.638,3171.00
1933.477,3281.00
1934.317,3001.00
1935.155,3069.00
1935.995,3338.00
1936.833,3095.00
1937.673,3055.00
1938.512,3678.00
1939.350,2843.00
1940.190,3144.00
1941.027,3175.00
1941.867,3090.00
1942.704,3217.00
1943.543,3183.00
1944.381,3401.00
1945.220,3610.00
1946.057,3328.00
1946.896,3522.00
1947.733,3227.00
1948.572,3003.00
1949.408,3584.00
1950.247,3352.00
1951.085,3392.00
1951.922,3607.00
1952.760,3050.00
1953.597,3616.00
1954.435,2637.00
1955.271,3420.00
1956.109,3142.00
1956.945,2876.00
1957.783,3352.00
1958.619,3058.00
1959.456,3245.00
1960.292,3296.00
1961.129,3637.00
1961.965,3801.00
1962.802,3021.00
1963.638,2979.00
1964.475,3309.00
1965.310,3255.00
1966.145,3322.00
1966.982,3086.00
1967.817,2978.00
1968.654,3250.00
1969.489,3046.00
1970.325,3245.00
1971.160,2981.00
1971.996,3409.00
1972.831,3453.00
1973.667,3172.00
1974.501,3622.00
1975.337,3519.00
1976.171,3111.00
1977.006,3543.00
1977.841,3172.00
1978.675,3484.00
1979.511,3886.00
1980.345,3034.00
1981.180,3443.00
1982.014,3240.00
1982.849,2916.00
1983.682,3101.00
1984.516,3092.00
1985.351,2886.00
1986.184,2733.00
1987.019,2769.00
1987.852,2559.00
1988.687,2780.00
1989.519,2972.00
1990.352,3294.00
1991.187,2734.00
1992.019,2982.00
1992.854,3428.00
1993.686,2952.00
1994.518,3077.00
1995.352,2561.00
1996.185,2284.00
1997.019,2901.00
1997.851,2697.00
1998.682,2739.00
1999.516,2766.00
2000.348,2472.00
