RamanScope Measure Spectrum Data V3.72

<< MEASURE CONDITION >>
Exposure Type,Aver
Exposure Time [sec],20
Exposure Count,2
Measure Time,2024/02/15 21:22:19
Data Name,""
Data Comment,""
Rayleigh Wave[nm],532.0

<< SAMPLE SPECTRUM >>
Wave[dcm-1],No46
96.716,-12.00
97.759,6.00
98.802,-24.00
99.846,34.00
100.886,5.00
101.929,27.00
102.972,18.00
104.015,17.00
105.057,-19.00
106.100,44.00
107.142,1.50
108.184,0.50
109.226,4.00
110.268,11.50
111.310,40.00
112.352,16.50
113.393,-13.00
114.435,-10.50
115.476,-1.50
116.517,-40.50
117.558,14.50
118.599,-28.50
119.640,-11.00
120.681,3.50
121.722,-16.00
122.762,63.00
123.803,2.50
124.843,4.00
125.883,-1.00
126.923,34.50
127.963,-27.00
129.001,-31.00
130.041,-35.50
131.080,2.00
132.120,47.00
133.159,71.00
134.199,34.50
135.238,1.00
136.277,36.50
137.316,11.50
138.355,28.50
139.393,37.50
140.432,-10.00
141.470,-8.00
142.509,43.00
143.547,50.50
144.585,11.50
145.623,0.00
146.661,79.00
147.699,71.50
148.736,93.00
149.774,237.50
150.811,195.50
151.849,252.00
152.886,378.00
153.923,525.50
154.960,589.00
155.997,741.50
157.034,919.50
158.072,1050.00
159.109,1152.50
160.145,1297.00
161.182,1481.00
162.218,1671.00
163.254,1846.50
164.290,1980.50
165.326,2105.50
166.361,2200.50
167.397,2256.50
168.432,2427.50
169.468,2478.00
170.503,2527.00
171.538,2608.50
172.573,2621.00
173.608,2676.50
174.643,2630.50
175.677,2684.50
176.712,2743.00
177.746,2771.50
178.781,2849.50
179.815,2926.50
180.849,3015.50
181.883,2968.00
182.917,3093.00
183.951,3175.50
184.984,3236.50
186.020,3260.00
187.053,3255.50
188.087,3212.50
189.120,3178.50
190.153,3161.00
191.186,3036.00
192.219,3042.00
193.251,2997.50
194.284,2978.50
195.317,2982.00
196.349,2862.50
197.381,2994.00
198.413,3029.00
199.445,2992.00
200.477,2988.50
201.509,3067.50
202.543,3025.00
203.575,3022.00
204.606,3097.00
205.637,3087.50
206.669,3140.50
207.700,3129.00
208.731,3200.50
209.762,3312.00
210.792,3226.50
211.823,3366.50
212.854,3376.50
213.884,3354.00
214.914,3355.00
215.947,3439.50
216.977,3428.00
218.007,3585.00
219.037,3605.00
220.066,3639.50
221.096,3675.00
222.126,3736.50
223.155,3745.50
224.184,3816.00
225.214,3866.50
226.245,3829.00
227.274,3960.50
228.302,4045.50
229.331,3957.00
230.360,3956.50
231.388,3968.00
232.417,4020.50
233.445,3924.50
234.473,3942.50
235.501,3865.50
236.531,3809.00
237.559,3786.00
238.587,3692.00
239.614,3649.00
240.642,3641.00
241.669,3730.50
242.696,3581.00
243.724,3586.00
244.753,3594.50
245.780,3540.50
246.806,3581.00
247.833,3490.00
248.860,3497.00
249.886,3493.00
250.913,3576.50
251.939,3618.00
252.967,3591.50
253.993,3683.00
255.019,3643.00
256.045,3718.00
257.070,3709.00
258.096,3714.50
259.121,3687.50
260.147,3615.50
261.174,3647.00
262.199,3659.50
263.224,3675.50
264.249,3647.00
265.274,3559.50
266.298,3723.50
267.323,3686.50
268.349,3672.50
269.374,3649.50
270.398,3586.00
271.422,3726.00
272.446,3705.50
273.470,3692.00
274.496,3743.00
275.519,3696.50
276.543,3672.50
277.566,3767.00
278.589,3862.00
279.613,3861.50
280.636,3906.00
281.661,3912.00
282.684,4002.50
283.706,3997.50
284.729,3963.50
285.751,3899.00
286.774,3928.50
287.798,4019.00
288.820,3968.50
289.842,3942.50
290.864,3933.50
291.886,3908.00
292.910,3835.00
293.932,3844.00
294.953,3796.50
295.974,3729.00
296.996,3708.00
298.017,3701.00
299.040,3629.00
300.061,3627.00
301.082,3511.50
302.102,3462.50
303.123,3480.00
304.143,3462.50
305.166,3392.00
306.186,3412.00
307.206,3332.50
308.226,3305.50
309.246,3309.50
310.268,3266.00
311.288,3198.50
312.307,3151.00
313.327,3161.00
314.346,3095.00
315.368,3109.50
316.387,3122.50
317.406,3031.00
318.425,3059.50
319.443,3033.50
320.464,3021.50
321.483,2955.50
322.501,2936.50
323.520,2904.50
324.538,2907.50
325.558,2932.50
326.576,2873.00
327.594,2824.00
328.612,2891.50
329.629,2927.50
330.649,2862.00
331.666,2909.50
332.684,2875.00
333.701,2857.50
334.718,2769.00
335.737,2773.00
336.754,2775.00
337.771,2716.00
338.787,2802.00
339.806,2760.00
340.823,2786.50
341.839,2731.50
342.855,2769.00
343.871,2739.00
344.889,2744.00
345.905,2747.50
346.921,2698.50
347.937,2700.50
348.954,2740.00
349.970,2712.00
350.985,2663.00
352.000,2709.00
353.017,2676.00
354.032,2687.50
355.047,2731.50
356.062,2662.00
357.077,2679.00
358.093,2606.50
359.108,2635.50
360.122,2658.00
361.136,2606.50
362.152,2648.50
363.166,2680.00
364.180,2685.50
365.194,2665.50
366.210,2635.50
367.223,2732.00
368.237,2659.50
369.250,2596.50
370.265,2562.00
371.278,2678.00
372.291,2656.00
373.304,2678.50
374.319,2614.00
375.332,2688.00
376.344,2676.50
377.357,2681.00
378.371,2646.00
379.383,2689.00
380.395,2672.50
381.407,2700.00
382.421,2668.00
383.433,2622.00
384.445,2734.50
385.456,2692.00
386.470,2728.50
387.481,2749.00
388.492,2772.00
389.505,2766.00
390.516,2681.50
391.527,2707.50
392.538,2750.00
393.551,2692.00
394.561,2711.00
395.572,2762.00
396.582,2776.00
397.594,2767.00
398.604,2745.50
399.614,2748.00
400.624,2779.00
401.636,2631.00
402.646,2755.00
403.655,2747.00
404.667,2768.00
405.676,2710.50
406.685,2719.00
407.694,2748.00
408.705,2690.50
409.714,2648.50
410.723,2638.00
411.734,2732.00
412.742,2656.50
413.751,2708.00
414.759,2640.00
415.769,2646.00
416.777,2661.50
417.785,2660.00
418.795,2574.00
419.803,2542.50
420.811,2630.00
421.818,2604.00
422.828,2601.50
423.835,2520.50
424.842,2550.00
425.852,2565.50
426.859,2571.50
427.866,2523.00
428.874,2502.50
429.881,2451.50
430.888,2478.50
431.894,2558.50
432.902,2534.50
433.909,2489.00
434.915,2522.00
435.923,2462.50
436.929,2503.00
437.935,2470.50
438.942,2442.50
439.948,2489.00
440.953,2443.50
441.959,2494.00
442.966,2531.00
443.971,2446.50
444.976,2483.50
445.983,2447.00
446.988,2457.50
447.993,2489.00
448.999,2428.50
450.004,2447.50
451.008,2505.50
452.014,2430.00
453.019,2485.50
454.023,2464.00
455.029,2502.50
456.032,2431.00
457.036,2453.50
458.042,2452.00
459.045,2500.00
460.049,2439.50
461.052,2394.50
462.057,2457.00
463.060,2547.00
464.063,2474.00
465.068,2458.00
466.071,2474.50
467.073,2456.00
468.078,2433.00
469.080,2495.00
470.082,2558.50
471.087,2514.00
472.089,2441.50
473.091,2526.50
474.095,2481.50
475.096,2475.00
476.098,2462.00
477.101,2488.50
478.103,2493.50
479.104,2496.00
480.107,2458.00
481.108,2528.50
482.109,2455.50
483.112,2462.00
484.113,2509.50
485.114,2482.00
486.116,2520.50
487.117,2472.50
488.117,2511.00
489.119,2536.50
490.119,2550.50
491.121,2505.50
492.121,2473.50
493.121,2495.50
494.123,2479.50
495.122,2513.00
496.122,2484.50
497.123,2456.00
498.122,2507.50
499.121,2545.00
500.122,2553.00
501.121,2496.50
502.120,2511.50
503.121,2475.50
504.119,2544.50
505.118,2499.50
506.118,2478.00
507.117,2492.00
508.115,2439.50
509.115,2432.50
510.113,2462.00
511.112,2485.00
512.110,2507.00
513.108,2455.00
514.107,2415.50
515.105,2462.50
516.102,2433.50
517.101,2435.00
518.098,2384.00
519.095,2362.00
520.094,2360.00
521.091,2429.50
522.089,2394.00
523.086,2434.50
524.082,2328.50
525.081,2405.00
526.077,2424.00
527.073,2365.00
528.071,2429.50
529.067,2344.50
530.064,2498.50
531.060,2366.50
532.056,2433.50
533.053,2395.00
534.048,2391.00
535.044,2370.50
536.041,2376.00
537.036,2432.00
538.030,2384.50
539.027,2423.50
540.022,2456.50
541.019,2409.00
542.013,2411.50
543.007,2425.50
544.004,2391.00
544.998,2424.50
545.994,2420.00
546.988,2501.00
547.981,2421.00
548.977,2444.50
549.971,2404.00
550.964,2327.00
551.960,2381.50
552.953,2372.50
553.948,2386.50
554.941,2435.00
555.934,2436.00
556.929,2431.00
557.922,2444.00
558.916,2401.00
559.909,2427.50
560.901,2420.00
561.895,2469.00
562.888,2384.00
563.880,2397.50
564.874,2412.50
565.865,2425.00
566.859,2449.00
567.851,2355.00
568.842,2472.00
569.836,2396.50
570.827,2389.00
571.820,2431.00
572.811,2446.50
573.802,2425.50
574.795,2395.00
575.786,2434.50
576.779,2366.00
577.769,2431.50
578.760,2421.00
579.752,2377.00
580.742,2421.50
581.735,2392.00
582.725,2381.00
583.714,2443.50
584.706,2402.50
585.696,2397.00
586.688,2357.50
587.677,2519.50
588.667,2426.50
589.658,2463.00
590.647,2455.50
591.638,2426.50
592.627,2432.00
593.616,2486.50
594.607,2442.00
595.595,2501.00
596.586,2452.50
597.574,2512.50
598.562,2520.50
599.553,2455.50
600.541,2485.00
601.531,2484.50
602.519,2578.00
603.508,2450.00
604.496,2457.50
605.484,2507.50
606.473,2466.00
607.460,2476.50
608.450,2509.00
609.437,2497.50
610.424,2501.50
611.413,2533.50
612.400,2492.00
613.388,2499.00
614.375,2432.50
615.361,2483.50
616.350,2519.50
617.336,2456.50
618.324,2520.00
619.310,2561.50
620.298,2515.50
621.284,2509.50
622.270,2422.00
623.257,2440.00
624.243,2431.00
625.230,2497.00
626.216,2449.50
627.203,2411.00
628.188,2395.00
629.173,2367.00
630.160,2325.50
631.145,2315.00
632.131,2330.50
633.116,2327.50
634.102,2311.50
635.087,2292.00
636.071,2331.00
637.057,2299.50
638.041,2191.00
639.027,2250.50
640.011,2262.00
640.995,2217.50
641.980,2167.00
642.964,2132.00
643.949,2213.00
644.932,2179.50
645.918,2052.50
646.901,2137.00
647.886,2086.50
648.868,2114.50
649.851,2018.00
650.836,2071.00
651.818,2092.50
652.803,2031.00
653.785,2046.00
654.769,2018.00
655.751,2028.00
656.733,2043.50
657.717,1978.50
658.699,2072.50
659.683,1946.50
660.664,1984.50
661.648,1996.00
662.629,2018.50
663.611,1926.00
664.594,1954.00
665.575,1959.00
666.558,1907.00
667.539,1908.00
668.521,1910.00
669.502,1897.50
670.484,1892.50
671.465,1929.00
672.445,1893.00
673.427,1955.00
674.407,1945.00
675.390,1918.00
676.369,1974.50
677.351,1910.00
678.331,1838.00
679.312,1839.50
680.292,1846.00
681.271,1840.50
682.253,1898.00
683.232,1822.50
684.213,1900.00
685.192,1797.50
686.172,1827.50
687.151,1768.50
688.132,1779.50
689.110,1764.50
690.089,1725.50
691.069,1759.50
692.047,1734.50
693.027,1698.50
694.005,1703.00
694.985,1727.00
695.963,1668.50
696.943,1712.00
697.920,1728.00
698.898,1650.50
699.877,1646.00
700.854,1666.50
701.833,1591.50
702.810,1618.00
703.789,1624.00
704.766,1627.50
705.745,1590.50
706.721,1662.00
707.698,1646.00
708.676,1630.50
709.653,1605.50
710.631,1494.50
711.607,1575.00
712.585,1606.00
713.561,1544.00
714.539,1629.50
715.514,1591.50
716.492,1554.50
717.467,1543.00
718.443,1575.50
719.420,1522.50
720.395,1579.50
721.372,1518.50
722.347,1498.50
723.324,1590.00
724.298,1477.50
725.275,1487.00
726.250,1482.50
727.226,1489.50
728.200,1483.00
729.176,1434.00
730.151,1509.00
731.125,1487.00
732.100,1440.00
733.074,1379.50
734.050,1488.50
735.023,1466.50
735.999,1439.50
736.972,1404.50
737.947,1478.50
738.921,1479.00
739.896,1382.00
740.869,1406.00
741.841,1400.00
742.816,1400.50
743.789,1402.50
744.763,1418.50
745.736,1354.00
746.710,1358.00
747.682,1391.50
748.656,1389.50
749.628,1365.00
750.602,1362.00
751.574,1400.00
752.548,1380.00
753.519,1346.00
754.491,1355.00
755.464,1375.00
756.435,1336.00
757.408,1312.50
758.379,1394.50
759.352,1370.50
760.323,1352.00
761.296,1335.00
762.267,1370.00
763.239,1363.00
764.209,1297.00
765.182,1236.00
766.152,1317.00
767.124,1299.50
768.094,1266.50
769.064,1302.50
770.036,1337.50
771.005,1306.50
771.977,1253.00
772.947,1327.00
773.918,1294.50
774.887,1283.00
775.858,1289.00
776.827,1277.50
777.798,1229.00
778.767,1260.00
779.738,1255.50
780.707,1221.00
781.677,1157.50
782.646,1206.00
783.614,1280.50
784.584,1258.50
785.552,1235.00
786.522,1210.50
787.490,1239.50
788.460,1186.00
789.428,1240.50
790.397,1161.50
791.365,1197.50
792.334,1222.00
793.302,1207.00
794.271,1272.00
795.238,1156.50
796.207,1220.00
797.174,1161.00
798.143,1163.00
799.109,1143.00
800.076,1200.00
801.044,1157.50
802.011,1156.00
802.979,1150.00
803.945,1260.00
804.913,1161.00
805.879,1146.50
806.847,1180.00
807.813,1114.50
808.780,1144.00
809.746,1205.00
810.713,1095.00
811.678,1111.50
812.646,1175.00
813.611,1156.50
814.578,1145.00
815.543,1107.50
816.510,1120.50
817.474,1110.00
818.439,1069.50
819.405,1125.00
820.370,1090.00
821.336,1105.50
822.300,1066.00
823.266,1111.00
824.230,1145.50
825.196,1135.50
826.160,1089.00
827.126,1074.50
828.089,1071.50
829.055,1078.00
830.018,1074.00
830.983,1088.50
831.946,1061.50
832.911,1080.00
833.874,1042.50
834.837,1097.50
835.802,1047.50
836.765,1074.50
837.729,1055.00
838.691,1059.50
839.656,1086.00
840.618,1109.50
841.582,1062.50
842.544,1088.50
843.508,1079.50
844.470,1049.50
845.434,1107.00
846.395,1065.50
847.359,1078.50
848.320,1088.50
849.283,1085.00
850.245,1089.50
851.208,1015.00
852.169,1065.50
853.130,1068.50
854.092,1091.00
855.053,1065.00
856.016,1040.00
856.976,1051.00
857.938,1093.50
858.899,1046.50
859.861,1049.50
860.821,1080.00
861.783,1081.50
862.743,1036.00
863.704,1030.00
864.664,1035.00
865.626,1040.50
866.585,1072.50
867.546,1035.50
868.506,1064.00
869.467,1071.50
870.426,1055.00
871.387,1071.50
872.346,1107.00
873.304,1010.00
874.265,1065.00
875.223,1040.00
876.184,985.50
877.142,1064.50
878.102,1109.00
879.060,1078.50
880.021,1011.50
880.978,1034.00
881.938,1076.00
882.896,1036.00
883.856,1052.50
884.813,1072.00
885.772,1046.50
886.730,1088.50
887.689,1062.00
888.646,1006.50
889.603,1044.00
890.562,1092.50
891.519,1030.00
892.477,1058.00
893.434,1043.00
894.392,1115.00
895.349,1060.50
896.307,1098.00
897.263,1033.00
898.221,1080.50
899.177,1062.00
900.135,1076.50
901.091,1063.00
902.048,1025.00
903.004,1050.00
903.961,1065.50
904.917,1095.00
905.874,1086.00
906.829,998.50
907.784,1067.50
908.741,1100.00
909.696,1088.00
910.653,1099.00
911.607,1094.00
912.564,1070.50
913.518,1125.00
914.475,1097.50
915.429,1067.50
916.385,1073.00
917.339,1012.50
918.295,1120.50
919.249,1164.50
920.205,1114.50
921.158,1063.50
922.114,1088.00
923.067,1119.50
924.020,1048.00
924.976,1043.00
925.929,1059.50
926.884,1096.00
927.837,1059.50
928.791,1094.50
929.744,1076.00
930.699,1095.00
931.651,1099.00
932.606,1084.00
933.558,1089.00
934.512,1094.00
935.464,1098.00
936.418,1077.50
937.370,1071.00
938.322,1123.50
939.276,1061.00
940.227,1122.00
941.181,1099.00
942.132,1104.50
943.085,1113.50
944.036,1055.50
944.990,1066.00
945.941,1051.50
946.893,1057.00
947.844,1068.00
948.797,1123.50
949.747,1047.50
950.700,1080.00
951.650,1100.00
952.601,1054.00
953.553,1082.00
954.503,1043.00
955.455,1093.00
956.405,1080.00
957.356,1074.00
958.306,1099.00
959.258,1018.00
960.207,1073.50
961.158,1058.00
962.108,1097.50
963.059,1029.50
964.008,1044.00
964.959,1056.50
965.908,1072.00
966.856,1089.50
967.807,1021.00
968.756,1054.00
969.706,1066.00
970.654,1036.00
971.605,1056.00
972.553,1081.50
973.503,1030.50
974.451,1016.00
975.401,1011.50
976.348,1047.50
977.296,1064.00
978.246,1002.50
979.193,993.50
980.142,1010.00
981.090,1046.50
982.039,1031.50
982.986,1034.00
983.935,1006.00
984.882,1028.50
985.830,1067.50
986.777,1028.50
987.725,1070.50
988.672,1009.00
989.618,1031.50
990.567,1014.00
991.513,996.00
992.461,993.50
993.407,988.00
994.354,1066.00
995.300,1003.50
996.248,1028.50
997.193,1011.50
998.141,1038.50
999.086,986.00
1000.031,1014.00
1000.978,1054.50
1001.924,1011.50
1002.870,1065.50
1003.815,992.50
1004.762,1032.00
1005.707,973.00
1006.653,1034.50
1007.598,976.00
1008.542,970.50
1009.488,1024.00
1010.432,1060.50
1011.378,1021.00
1012.322,1033.00
1013.268,1002.00
1014.212,1041.00
1015.157,979.00
1016.101,974.50
1017.046,951.00
1017.990,933.00
1018.933,1024.00
1019.878,982.50
1020.821,1024.50
1021.766,1031.50
1022.709,1011.50
1023.654,972.50
1024.596,982.00
1025.541,1062.00
1026.483,1006.00
1027.425,1051.50
1028.370,1092.00
1029.312,973.00
1030.256,1016.00
1031.198,984.00
1032.141,1063.50
1033.083,982.00
1034.027,1027.50
1034.968,1017.50
1035.910,995.00
1036.853,1014.50
1037.794,1058.50
1038.738,1002.00
1039.679,1008.00
1040.621,970.50
1041.562,1025.00
1042.503,994.00
1043.446,1027.00
1044.386,1037.50
1045.329,994.50
1046.269,1001.50
1047.211,1055.00
1048.151,983.50
1049.093,979.50
1050.033,1043.00
1050.973,1064.00
1051.915,1002.50
1052.854,1028.00
1053.796,992.00
1054.735,1027.50
1055.677,1030.50
1056.616,1066.00
1057.555,1012.00
1058.496,1039.00
1059.435,1029.00
1060.376,1074.50
1061.315,1035.50
1062.255,1033.00
1063.194,1050.50
1064.132,1044.00
1065.073,1074.00
1066.011,1045.50
1066.951,1049.00
1067.889,1071.50
1068.829,1034.00
1069.767,1062.50
1070.705,1080.50
1071.644,1050.50
1072.582,1089.00
1073.521,1084.50
1074.459,1068.50
1075.398,1049.50
1076.335,1073.50
1077.272,1051.50
1078.211,1013.00
1079.148,1032.00
1080.087,1114.50
1081.023,1009.00
1081.962,1105.00
1082.898,1045.50
1083.835,1048.50
1084.773,1053.50
1085.709,1094.50
1086.647,1109.00
1087.583,1118.50
1088.519,1068.50
1089.457,1053.50
1090.392,1089.50
1091.330,1127.00
1092.266,1120.50
1093.203,1093.00
1094.138,1119.50
1095.073,1145.00
1096.010,1060.00
1096.945,1106.00
1097.882,1114.50
1098.817,1059.50
1099.752,1064.50
1100.688,1065.00
1101.623,1079.50
1102.559,1075.50
1103.493,1047.50
1104.430,1065.50
1105.364,1079.50
1106.298,1102.00
1107.234,1040.00
1108.167,1103.00
1109.094,1088.50
1110.019,1061.00
1110.945,1046.50
1111.869,1056.00
1112.795,1044.50
1113.720,1062.00
1114.646,1065.00
1115.571,1063.00
1116.495,1079.00
1117.420,1046.50
1118.345,1072.00
1119.270,1061.00
1120.195,1019.50
1121.118,1012.50
1122.042,995.50
1122.967,1001.00
1123.891,1013.50
1124.816,962.00
1125.738,996.50
1126.663,989.00
1127.587,987.50
1128.511,994.00
1129.435,975.00
1130.357,950.50
1131.280,999.00
1132.204,988.50
1133.128,927.50
1134.051,983.50
1134.972,934.50
1135.896,942.00
1136.819,966.50
1137.742,961.50
1138.665,991.00
1139.586,936.50
1140.509,920.00
1141.431,893.00
1142.354,940.50
1143.276,904.50
1144.197,939.50
1145.119,923.00
1146.041,899.50
1146.964,932.00
1147.885,867.00
1148.806,875.00
1149.727,923.00
1150.649,858.50
1151.571,851.00
1152.492,898.00
1153.412,925.00
1154.333,844.00
1155.254,874.50
1156.175,877.50
1157.095,924.50
1158.016,828.00
1158.936,886.50
1159.857,848.00
1160.778,885.50
1161.697,835.50
1162.617,798.50
1163.537,892.50
1164.458,834.50
1165.376,877.00
1166.296,870.00
1167.216,849.00
1168.136,800.00
1169.056,845.50
1169.974,857.00
1170.893,789.00
1171.813,816.50
1172.732,836.00
1173.650,832.50
1174.569,818.50
1175.488,844.00
1176.407,794.50
1177.326,883.50
1178.243,859.50
1179.161,779.00
1180.080,840.00
1180.999,807.50
1181.915,841.50
1182.834,792.00
1183.752,817.00
1184.670,804.00
1185.586,847.50
1186.504,830.50
1187.422,838.50
1188.340,841.50
1189.258,814.50
1190.173,835.50
1191.091,804.50
1192.008,798.00
1192.926,814.50
1193.841,786.50
1194.758,861.50
1195.675,819.50
1196.592,751.00
1197.507,847.00
1198.424,834.50
1199.340,842.50
1200.257,826.50
1201.172,768.00
1202.088,843.50
1203.004,793.50
1203.920,774.50
1204.835,780.00
1205.750,780.50
1206.666,786.50
1207.582,858.00
1208.496,764.00
1209.412,841.00
1210.327,778.50
1211.243,828.50
1212.156,830.50
1213.071,773.00
1213.986,732.00
1214.901,801.50
1215.814,759.50
1216.729,824.50
1217.644,794.00
1218.559,791.00
1219.471,718.50
1220.386,763.00
1221.300,780.50
1222.213,784.00
1223.127,813.50
1224.041,751.50
1224.955,773.50
1225.867,809.00
1226.781,799.00
1227.694,803.50
1228.608,778.50
1229.520,781.50
1230.433,775.50
1231.346,755.50
1232.260,827.50
1233.171,777.00
1234.084,832.00
1234.997,796.00
1235.908,822.00
1236.821,804.00
1237.733,734.50
1238.646,753.50
1239.556,767.50
1240.469,772.50
1241.381,819.50
1242.293,791.00
1243.203,727.50
1244.115,831.00
1245.027,835.00
1245.937,804.00
1246.849,816.50
1247.761,796.50
1248.672,825.00
1249.582,783.50
1250.493,813.00
1251.404,786.50
1252.313,849.00
1253.225,760.50
1254.135,793.00
1255.046,819.50
1255.955,805.50
1256.866,779.00
1257.777,826.50
1258.685,813.50
1259.596,813.00
1260.506,781.00
1261.416,776.00
1262.324,802.50
1263.234,820.50
1264.144,755.50
1265.052,787.50
1265.962,800.00
1266.872,826.50
1267.779,798.50
1268.689,820.00
1269.598,763.00
1270.507,820.00
1271.415,791.00
1272.324,851.50
1273.233,819.00
1274.140,861.50
1275.048,821.50
1275.957,735.50
1276.864,788.50
1277.772,781.00
1278.681,816.00
1279.587,824.50
1280.496,810.50
1281.404,823.50
1282.312,843.50
1283.218,792.50
1284.126,831.50
1285.033,775.00
1285.939,772.00
1286.847,853.00
1287.754,834.50
1288.660,784.00
1289.567,872.50
1290.474,818.00
1291.380,830.00
1292.286,836.50
1293.193,784.00
1294.098,851.00
1295.005,761.00
1295.912,809.00
1296.816,786.50
1297.723,842.50
1298.629,820.50
1299.534,782.00
1300.440,802.50
1301.346,772.50
1302.250,782.50
1303.156,794.00
1304.062,799.00
1304.966,747.00
1305.871,770.50
1306.777,798.50
1307.680,810.00
1308.586,762.50
1309.491,788.50
1310.394,808.50
1311.299,851.50
1312.204,831.00
1313.107,788.50
1314.012,827.50
1314.917,782.50
1315.819,762.50
1316.724,798.50
1317.628,751.50
1318.531,801.50
1319.435,810.00
1320.339,729.00
1321.241,753.00
1322.145,782.00
1323.049,747.50
1323.951,773.50
1324.854,792.50
1325.756,745.50
1326.659,778.50
1327.563,819.50
1328.464,762.00
1329.367,756.00
1330.271,773.50
1331.172,807.50
1332.074,806.50
1332.977,781.00
1333.878,778.00
1334.781,778.50
1335.683,771.50
1336.584,781.50
1337.486,728.00
1338.387,767.00
1339.289,751.00
1340.191,703.50
1341.091,726.50
1341.993,771.00
1342.895,790.50
1343.794,727.50
1344.696,695.00
1345.596,708.00
1346.497,760.00
1347.398,719.50
1348.298,688.50
1349.199,752.50
1350.100,750.00
1350.999,731.50
1351.900,748.50
1352.799,721.50
1353.699,712.00
1354.600,713.00
1355.499,740.50
1356.399,684.00
1357.297,700.50
1358.198,681.00
1359.098,667.50
1359.996,666.50
1360.896,776.00
1361.796,706.50
1362.694,720.00
1363.593,762.50
1364.491,689.50
1365.391,647.50
1366.290,691.00
1367.187,706.50
1368.086,682.50
1368.984,727.00
1369.883,722.00
1370.782,684.00
1371.679,699.50
1372.577,700.00
1373.474,657.50
1374.373,667.00
1375.269,658.50
1376.168,717.50
1377.066,676.00
1377.962,735.00
1378.860,655.50
1379.756,647.50
1380.654,638.00
1381.552,668.00
1382.448,668.00
1383.346,672.00
1384.241,684.50
1385.139,626.00
1386.036,683.50
1386.931,669.00
1387.829,675.50
1388.724,658.50
1389.621,587.50
1390.516,600.00
1391.413,613.50
1392.309,652.50
1393.204,616.00
1394.101,619.00
1394.995,609.50
1395.891,648.50
1396.786,646.00
1397.682,649.00
1398.578,548.00
1399.472,578.00
1400.368,610.00
1401.262,660.50
1402.158,611.50
1403.051,620.00
1403.947,630.50
1404.840,610.50
1405.736,618.00
1406.631,625.00
1407.524,654.50
1408.419,646.50
1409.312,624.00
1410.207,621.00
1411.100,623.00
1411.995,622.50
1412.888,609.00
1413.782,605.50
1414.675,660.00
1415.569,615.00
1416.463,585.50
1417.355,591.50
1418.249,599.50
1419.141,610.50
1420.035,622.50
1420.927,680.50
1421.821,584.50
1422.713,591.50
1423.606,593.00
1424.498,593.00
1425.391,617.50
1426.282,544.50
1427.175,637.50
1428.068,594.50
1428.960,586.50
1429.852,571.00
1430.743,581.00
1431.636,591.50
1432.527,604.00
1433.419,636.00
1434.310,590.00
1435.202,603.00
1436.092,581.50
1436.984,612.00
1437.875,560.00
1438.767,593.00
1439.657,590.50
1440.548,580.50
1441.438,618.50
1442.330,563.00
1443.219,554.00
1444.111,585.00
1445.000,585.50
1445.891,599.00
1446.781,588.00
1447.672,649.00
1448.561,584.50
1449.452,594.50
1450.340,572.50
1451.231,536.00
1452.120,567.50
1453.010,550.50
1453.899,591.50
1454.789,537.50
1455.677,620.50
1456.568,632.50
1457.456,561.50
1458.346,624.00
1459.234,567.50
1460.123,608.50
1461.011,581.00
1461.901,528.00
1462.788,551.00
1463.678,563.50
1464.565,541.00
1465.454,587.00
1466.342,593.50
1467.231,580.50
1468.118,538.00
1469.006,556.50
1469.893,574.50
1470.782,568.50
1471.669,611.00
1472.557,550.00
1473.444,548.50
1474.330,533.50
1475.218,532.50
1476.105,552.00
1476.993,627.00
1477.879,594.00
1478.767,561.50
1479.652,553.50
1480.540,560.00
1481.426,574.00
1482.313,535.00
1483.199,545.00
1484.086,556.00
1484.972,552.00
1485.857,553.50
1486.744,555.00
1487.629,537.00
1488.516,554.00
1489.401,570.50
1490.287,519.00
1491.172,516.50
1492.058,518.00
1492.943,509.50
1493.828,484.50
1494.714,510.00
1495.598,543.00
1496.484,532.00
1497.368,524.50
1498.254,483.00
1499.138,585.00
1500.022,548.50
1500.907,545.50
1501.791,522.50
1502.676,543.50
1503.560,549.50
1504.445,477.50
1505.328,545.50
1506.211,506.50
1507.096,570.50
1507.979,541.00
1508.864,568.50
1509.747,495.50
1510.631,489.00
1511.514,474.00
1512.397,544.50
1513.281,456.50
1514.163,496.00
1515.047,478.00
1515.930,546.00
1516.812,490.00
1517.696,541.00
1518.578,524.00
1519.461,504.50
1520.343,546.00
1521.225,527.00
1522.108,498.00
1522.990,485.50
1523.873,510.50
1524.754,531.50
1525.635,504.00
1526.518,496.00
1527.399,469.00
1528.282,484.50
1529.163,515.50
1530.044,496.00
1530.926,481.00
1531.807,485.00
1532.689,521.00
1533.569,543.00
1534.450,504.50
1535.332,512.50
1536.212,529.00
1537.092,477.50
1537.974,488.50
1538.854,481.00
1539.735,481.50
1540.615,519.50
1541.495,538.50
1542.376,459.50
1543.255,471.50
1544.135,496.50
1545.016,470.00
1545.895,515.00
1546.774,463.00
1547.655,480.00
1548.534,467.00
1549.414,482.00
1550.293,462.50
1551.172,499.50
1552.052,472.00
1552.930,500.50
1553.809,501.50
1554.689,555.00
1555.567,488.50
1556.445,431.00
1557.325,437.50
1558.203,448.50
1559.080,498.50
1559.960,469.00
1560.838,460.50
1561.715,410.00
1562.594,520.50
1563.472,439.00
1564.349,474.50
1565.228,452.00
1566.105,470.50
1566.982,534.50
1567.861,445.00
1568.738,449.50
1569.615,450.50
1570.493,432.00
1571.370,472.50
1572.246,518.00
1573.124,491.50
1574.000,487.50
1574.877,416.50
1575.755,507.00
1576.631,538.50
1577.507,441.00
1578.384,418.00
1579.260,485.00
1580.136,472.50
1581.011,441.50
1581.889,452.00
1582.764,470.00
1583.639,530.50
1584.516,464.50
1585.391,471.00
1586.266,472.00
1587.143,473.50
1588.018,454.50
1588.893,494.50
1589.768,461.50
1590.644,452.00
1591.519,488.00
1592.393,507.50
1593.269,437.50
1594.143,446.00
1595.018,425.00
1595.892,470.00
1596.767,490.50
1597.641,466.00
1598.515,458.50
1599.391,482.50
1600.264,448.00
1601.138,467.50
1602.011,440.00
1602.886,482.50
1603.760,443.50
1604.633,488.00
1605.508,430.00
1606.381,462.00
1607.254,433.00
1608.127,472.00
1609.001,422.50
1609.874,496.50
1610.746,520.50
1611.619,461.00
1612.493,449.50
1613.365,458.50
1614.238,444.50
1615.110,449.00
1615.984,506.50
1616.855,430.50
1617.727,447.00
1618.599,433.00
1619.473,480.50
1620.344,440.50
1621.216,432.50
1622.087,443.50
1622.960,446.00
1623.832,466.50
1624.703,458.00
1625.574,444.50
1626.445,468.50
1627.317,480.00
1628.188,461.50
1629.059,488.50
1629.930,484.00
1630.802,440.00
1631.672,446.00
1632.543,401.50
1633.413,435.00
1634.283,409.50
1635.155,482.00
1636.025,492.50
1636.895,417.50
1637.765,429.50
1638.636,472.00
1639.506,445.50
1640.376,427.50
1641.245,466.50
1642.114,475.00
1642.985,448.00
1643.855,410.00
1644.724,415.00
1645.593,411.50
1646.462,432.00
1647.333,466.50
1648.201,474.00
1649.070,506.00
1649.939,411.00
1650.807,483.50
1651.676,454.00
1652.546,497.00
1653.414,421.50
1654.282,395.50
1655.150,420.00
1656.018,450.00
1656.888,412.50
1657.756,424.50
1658.623,443.50
1659.491,476.00
1660.359,458.50
1661.226,417.00
1662.095,440.50
1662.962,454.00
1663.830,458.00
1664.697,403.50
1665.564,450.00
1666.431,443.00
1667.297,444.00
1668.166,398.00
1669.033,383.50
1669.899,454.00
1670.766,422.00
1671.632,434.50
1672.499,378.50
1673.367,430.00
1674.233,490.50
1675.099,430.00
1675.965,445.50
1676.831,406.50
1677.696,404.00
1678.562,390.00
1679.430,477.00
1680.295,432.50
1681.161,420.00
1682.026,398.50
1682.891,458.50
1683.756,384.50
1684.621,444.50
1685.486,403.50
1686.353,416.00
1687.218,397.50
1688.083,436.50
1688.947,406.00
1689.812,386.50
1690.677,400.00
1691.541,406.00
1692.405,412.50
1693.269,371.50
1694.135,440.50
1694.999,390.50
1695.863,373.00
1696.727,431.50
1697.591,421.00
1698.455,413.50
1699.318,432.50
1700.182,383.00
1701.045,377.50
1701.909,407.00
1702.772,425.00
1703.637,402.00
1704.500,400.50
1705.363,444.50
1706.226,401.50
1707.089,413.00
1707.951,457.50
1708.814,400.00
1709.677,387.50
1710.539,384.50
1711.402,392.50
1712.264,430.50
1713.126,374.50
1713.988,418.00
1714.852,454.00
1715.714,404.00
1716.576,400.50
1717.438,465.00
1718.299,461.50
1719.161,411.50
1720.023,387.50
1720.884,438.00
1721.745,425.50
1722.607,388.00
1723.468,429.00
1724.329,413.50
1725.190,414.00
1726.051,445.50
1726.912,436.00
1727.772,320.50
1728.633,422.50
1729.494,416.50
1730.354,474.50
1731.214,427.00
1732.075,368.00
1732.935,472.00
1733.797,395.50
1734.657,414.50
1735.517,352.00
1736.377,398.50
1737.237,382.50
1738.096,434.50
1738.956,392.50
1739.816,426.00
1740.675,393.00
1741.534,393.00
1742.394,430.00
1743.253,386.50
1744.112,373.00
1744.971,371.00
1745.830,432.00
1746.689,393.00
1747.547,394.50
1748.406,352.00
1749.265,372.50
1750.123,464.00
1750.982,416.50
1751.840,365.00
1752.698,425.00
1753.556,392.50
1754.414,455.00
1755.272,382.50
1756.130,396.00
1756.988,411.00
1757.846,401.00
1758.703,438.50
1759.559,410.50
1760.417,378.50
1761.274,463.50
1762.131,431.50
1762.989,409.50
1763.846,347.50
1764.703,401.00
1765.560,442.50
1766.417,386.50
1767.273,405.00
1768.130,426.50
1768.987,408.00
1769.843,385.00
1770.700,380.00
1771.556,414.00
1772.412,400.50
1773.268,415.00
1774.125,339.00
1774.980,391.00
1775.836,352.00
1776.692,447.50
1777.546,379.00
1778.402,473.00
1779.257,471.50
1780.113,400.50
1780.968,368.50
1781.824,381.00
1782.679,343.00
1783.534,406.00
1784.389,366.50
1785.244,370.50
1786.099,367.00
1786.954,424.00
1787.808,366.00
1788.661,394.00
1789.516,356.50
1790.370,362.00
1791.225,407.00
1792.079,410.50
1792.933,400.00
1793.787,372.50
1794.641,420.50
1795.495,421.00
1796.349,424.50
1797.201,360.50
1798.055,358.50
1798.908,386.50
1799.762,434.50
1800.615,374.00
1801.469,409.00
1802.322,383.00
1803.175,401.00
1804.028,390.00
1804.880,425.00
1805.732,346.50
1806.585,377.50
1807.438,412.00
1808.291,412.50
1809.143,403.50
1809.996,350.00
1810.846,374.00
1811.699,351.50
1812.551,387.00
1813.403,394.50
1814.255,395.50
1815.107,397.50
1815.959,413.00
1816.809,402.50
1817.661,342.00
1818.512,410.50
1819.364,366.00
1820.215,337.50
1821.067,318.00
1821.918,350.00
1822.768,379.50
1823.619,385.00
1824.470,409.00
1825.321,426.50
1826.172,366.00
1827.021,357.50
1827.871,374.00
1828.722,390.00
1829.572,353.00
1830.423,368.50
1831.273,388.00
1832.122,347.00
1832.972,334.00
1833.822,347.00
1834.672,379.50
1835.522,324.50
1836.370,429.50
1837.220,393.50
1838.070,359.00
1838.919,372.50
1839.769,400.00
1840.616,389.00
1841.466,420.00
1842.315,346.00
1843.164,379.00
1844.013,366.50
1844.860,357.00
1845.709,386.00
1846.558,392.00
1847.407,401.00
1848.254,393.50
1849.102,334.00
1849.951,343.00
1850.799,376.50
1851.648,371.50
1852.494,415.00
1853.342,425.50
1854.190,374.50
1855.038,370.00
1855.884,344.00
1856.732,390.00
1857.580,360.50
1858.428,405.50
1859.273,347.00
1860.121,394.00
1860.968,366.50
1861.816,384.00
1862.661,324.00
1863.508,419.50
1864.355,353.00
1865.202,355.50
1866.047,384.50
1866.894,345.00
1867.741,359.50
1868.586,374.50
1869.432,382.50
1870.279,386.50
1871.125,392.50
1871.970,352.00
1872.816,390.00
1873.662,343.50
1874.506,391.50
1875.352,395.50
1876.198,380.50
1877.044,391.50
1877.888,423.50
1878.734,348.00
1879.579,399.00
1880.423,365.50
1881.268,338.00
1882.113,334.50
1882.959,425.50
1883.802,348.00
1884.647,373.00
1885.492,416.50
1886.335,364.50
1887.180,375.50
1888.025,365.50
1888.867,356.00
1889.712,304.00
1890.556,422.00
1891.399,401.50
1892.243,375.50
1893.087,354.00
1893.930,360.50
1894.774,409.00
1895.618,376.50
1896.460,374.00
1897.304,324.50
1898.147,382.00
1898.989,352.50
1899.833,366.50
1900.676,357.00
1901.518,339.00
1902.361,378.50
1903.202,373.50
1904.046,360.50
1904.889,413.50
1905.730,384.50
1906.573,392.00
1907.415,334.00
1908.256,375.00
1909.099,385.50
1909.941,348.00
1910.782,377.00
1911.624,380.50
1912.465,369.50
1913.307,379.50
1914.149,329.50
1914.989,346.00
1915.831,321.50
1916.671,391.00
1917.513,392.00
1918.355,392.00
1919.195,439.00
1920.036,396.50
1920.876,359.50
1921.717,382.00
1922.558,345.50
1923.398,336.00
1924.239,398.50
1925.078,331.00
1925.919,320.50
1926.760,371.00
1927.599,339.00
1928.440,319.50
1929.279,364.00
1930.119,348.50
1930.958,353.50
1931.798,369.00
1932.638,393.00
1933.477,308.00
1934.317,356.50
1935.155,365.50
1935.995,388.00
1936.833,396.00
1937.673,370.50
1938.512,398.00
1939.350,350.00
1940.190,374.50
1941.027,379.50
1941.867,393.50
1942.704,379.50
1943.543,367.00
1944.381,340.50
1945.220,389.00
1946.057,342.00
1946.896,324.00
1947.733,330.00
1948.572,369.00
1949.408,401.50
1950.247,356.00
1951.085,348.50
1951.922,376.00
1952.760,353.00
1953.597,354.50
1954.435,398.00
1955.271,347.50
1956.109,384.00
1956.945,372.00
1957.783,404.50
1958.619,371.50
1959.456,450.00
1960.292,342.50
1961.129,347.00
1961.965,347.50
1962.802,355.00
1963.638,356.50
1964.475,369.50
1965.310,381.50
1966.145,353.50
1966.982,346.50
1967.817,383.50
1968.654,380.50
1969.489,326.50
1970.325,397.00
1971.160,382.50
1971.996,355.00
1972.831,289.00
1973.667,415.50
1974.501,356.50
1975.337,397.00
1976.171,364.00
1977.006,369.50
1977.841,355.00
1978.675,330.50
1979.511,356.00
1980.345,361.00
1981.180,390.00
1982.014,331.00
1982.849,374.50
1983.682,317.00
1984.516,341.50
1985.351,374.00
1986.184,340.50
1987.019,330.00
1987.852,365.50
1988.687,347.00
1989.519,388.50
1990.352,365.00
1991.187,402.00
1992.019,348.00
1992.854,362.00
1993.686,345.00
1994.518,363.50
1995.352,383.50
1996.185,316.00
1997.019,375.50
1997.851,370.00
1998.682,391.00
1999.516,356.00
2000.348,374.00

<< BACKGROUND SPECTRUM >>
Wave[dcm-1],No46
96.716,2587.00
97.759,2378.00
98.802,2330.00
99.846,2913.00
100.886,2572.00
101.929,2731.00
102.972,2749.00
104.015,2637.00
105.057,2783.00
106.100,2212.00
107.142,2627.00
108.184,3026.00
109.226,2875.00
110.268,3055.00
111.310,3300.00
112.352,2883.00
113.393,3001.00
114.435,2839.00
115.476,3091.00
116.517,3145.00
117.558,2599.00
118.599,2967.00
119.640,3283.00
120.681,3250.00
121.722,3214.00
122.762,2875.00
123.803,2759.00
124.843,3115.00
125.883,3397.00
126.923,3568.00
127.963,3323.00
129.001,3623.00
130.041,3990.00
131.080,3263.00
132.120,3140.00
133.159,3538.00
134.199,3606.00
135.238,3196.00
136.277,3502.00
137.316,3725.00
138.355,3604.00
139.393,3200.00
140.432,3345.00
141.470,3484.00
142.509,3182.00
143.547,3749.00
144.585,2980.00
145.623,3434.00
146.661,3140.00
147.699,3529.00
148.736,3650.00
149.774,3196.00
150.811,3529.00
151.849,4000.00
152.886,3439.00
153.923,3645.00
154.960,3144.00
155.997,3918.00
157.034,4893.00
158.072,3559.00
159.109,4091.00
160.145,4268.00
161.182,3260.00
162.218,3502.00
163.254,3334.00
164.290,3295.00
165.326,4029.00
166.361,3932.00
167.397,3516.00
168.432,3712.00
169.468,3410.00
170.503,3679.00
171.538,3385.00
172.573,3733.00
173.608,3209.00
174.643,3792.00
175.677,3634.00
176.712,3807.00
177.746,3863.00
178.781,3398.00
179.815,2693.00
180.849,3808.00
181.883,3367.00
182.917,2819.00
183.951,3116.00
184.984,3827.00
186.020,3284.00
187.053,3643.00
188.087,3258.00
189.120,3517.00
190.153,3663.00
191.186,3744.00
192.219,3798.00
193.251,3696.00
194.284,3795.00
195.317,3851.00
196.349,10668.00
197.381,3453.00
198.413,3477.00
199.445,3286.00
200.477,3578.00
201.509,3544.00
202.543,3574.00
203.575,3962.00
204.606,3637.00
205.637,5224.00
206.669,3177.00
207.700,3733.00
208.731,3580.00
209.762,3178.00
210.792,3289.00
211.823,3659.00
212.854,3230.00
213.884,4372.00
214.914,3689.00
215.947,3590.00
216.977,3711.00
218.007,3580.00
219.037,3873.00
220.066,3355.00
221.096,3856.00
222.126,3174.00
223.155,3429.00
224.184,3814.00
225.214,3339.00
226.245,3956.00
227.274,3357.00
228.302,3650.00
229.331,3717.00
230.360,3415.00
231.388,3425.00
232.417,3215.00
233.445,3657.00
234.473,3410.00
235.501,3770.00
236.531,3743.00
237.559,3706.00
238.587,3347.00
239.614,3292.00
240.642,3624.00
241.669,3658.00
242.696,3712.00
243.724,3667.00
244.753,4016.00
245.780,3428.00
246.806,3232.00
247.833,3637.00
248.860,3490.00
249.886,3609.00
250.913,3189.00
251.939,3541.00
252.967,3539.00
253.993,3504.00
255.019,3975.00
256.045,3631.00
257.070,4062.00
258.096,3279.00
259.121,3689.00
260.147,3595.00
261.174,3486.00
262.199,3421.00
263.224,3578.00
264.249,3890.00
265.274,4118.00
266.298,3537.00
267.323,3635.00
268.349,3881.00
269.374,3253.00
270.398,3312.00
271.422,3706.00
272.446,3350.00
273.470,3174.00
274.496,3763.00
275.519,3756.00
276.543,3908.00
277.566,3897.00
278.589,3844.00
279.613,3751.00
280.636,3697.00
281.661,3860.00
282.684,3810.00
283.706,3893.00
284.729,4150.00
285.751,2998.00
286.774,4048.00
287.798,3360.00
288.820,3007.00
289.842,3337.00
290.864,3341.00
291.886,3677.00
292.910,3481.00
293.932,4079.00
294.953,3559.00
295.974,3582.00
296.996,3738.00
298.017,3562.00
299.040,3415.00
300.061,3662.00
301.082,3401.00
302.102,3244.00
303.123,3804.00
304.143,3562.00
305.166,3496.00
306.186,3742.00
307.206,3357.00
308.226,3749.00
309.246,3092.00
310.268,3860.00
311.288,3512.00
312.307,3231.00
313.327,3531.00
314.346,3800.00
315.368,3017.00
316.387,3629.00
317.406,3666.00
318.425,3559.00
319.443,3473.00
320.464,3170.00
321.483,4062.00
322.501,3372.00
323.520,3987.00
324.538,3490.00
325.558,4033.00
326.576,3641.00
327.594,3553.00
328.612,3394.00
329.629,3132.00
330.649,3834.00
331.666,3547.00
332.684,3130.00
333.701,3716.00
334.718,3244.00
335.737,3449.00
336.754,3727.00
337.771,3824.00
338.787,3185.00
339.806,3476.00
340.823,3450.00
341.839,3591.00
342.855,3449.00
343.871,3646.00
344.889,3357.00
345.905,3836.00
346.921,3771.00
347.937,4362.00
348.954,4112.00
349.970,3694.00
350.985,3620.00
352.000,3122.00
353.017,3764.00
354.032,3153.00
355.047,3825.00
356.062,3501.00
357.077,3433.00
358.093,4012.00
359.108,3746.00
360.122,3658.00
361.136,3534.00
362.152,3958.00
363.166,3233.00
364.180,3132.00
365.194,3993.00
366.210,3404.00
367.223,3288.00
368.237,3399.00
369.250,3629.00
370.265,3418.00
371.278,3904.00
372.291,3721.00
373.304,3039.00
374.319,3779.00
375.332,3804.00
376.344,4084.00
377.357,3414.00
378.371,3871.00
379.383,3362.00
380.395,4344.00
381.407,4069.00
382.421,3444.00
383.433,3455.00
384.445,3364.00
385.456,3541.00
386.470,3094.00
387.481,3957.00
388.492,3859.00
389.505,3237.00
390.516,3987.00
391.527,3500.00
392.538,3486.00
393.551,3747.00
394.561,4370.00
395.572,3679.00
396.582,3612.00
397.594,3756.00
398.604,3407.00
399.614,3616.00
400.624,3407.00
401.636,3496.00
402.646,3513.00
403.655,3155.00
404.667,3369.00
405.676,3398.00
406.685,4333.00
407.694,3890.00
408.705,3014.00
409.714,3118.00
410.723,3296.00
411.734,3275.00
412.742,3416.00
413.751,3600.00
414.759,3633.00
415.769,3588.00
416.777,3803.00
417.785,3560.00
418.795,3412.00
419.803,3614.00
420.811,3280.00
421.818,3959.00
422.828,3457.00
423.835,3452.00
424.842,3440.00
425.852,3317.00
426.859,3663.00
427.866,3762.00
428.874,3649.00
429.881,3513.00
430.888,3823.00
431.894,3615.00
432.902,3544.00
433.909,4550.00
434.915,3650.00
435.923,4299.00
436.929,3078.00
437.935,3549.00
438.942,3424.00
439.948,3572.00
440.953,4118.00
441.959,3212.00
442.966,3931.00
443.971,3785.00
444.976,3205.00
445.983,3648.00
446.988,3477.00
447.993,4011.00
448.999,3671.00
450.004,3574.00
451.008,3393.00
452.014,4107.00
453.019,3847.00
454.023,3287.00
455.029,3229.00
456.032,4027.00
457.036,3491.00
458.042,2926.00
459.045,3426.00
460.049,3778.00
461.052,4094.00
462.057,3795.00
463.060,3988.00
464.063,3425.00
465.068,3480.00
466.071,3313.00
467.073,3906.00
468.078,3184.00
469.080,3095.00
470.082,3552.00
471.087,3451.00
472.089,3625.00
473.091,3800.00
474.095,4007.00
475.096,3468.00
476.098,3390.00
477.101,3763.00
478.103,3292.00
479.104,4202.00
480.107,3497.00
481.108,3052.00
482.109,4202.00
483.112,4204.00
484.113,3737.00
485.114,3779.00
486.116,3577.00
487.117,3869.00
488.117,3644.00
489.119,3727.00
490.119,3738.00
491.121,3190.00
492.121,3078.00
493.121,2917.00
494.123,3622.00
495.122,3661.00
496.122,3585.00
497.123,4568.00
498.122,3394.00
499.121,3641.00
500.122,3563.00
501.121,3167.00
502.120,3161.00
503.121,3244.00
504.119,3230.00
505.118,3791.00
506.118,3327.00
507.117,3287.00
508.115,3748.00
509.115,3601.00
510.113,3135.00
511.112,3830.00
512.110,3459.00
513.108,3828.00
514.107,3926.00
515.105,3814.00
516.102,3945.00
517.101,3507.00
518.098,3620.00
519.095,4112.00
520.094,3449.00
521.091,3414.00
522.089,3771.00
523.086,3328.00
524.082,3748.00
525.081,3647.00
526.077,4768.00
527.073,4590.00
528.071,3496.00
529.067,3397.00
530.064,3366.00
531.060,3208.00
532.056,3429.00
533.053,3869.00
534.048,3770.00
535.044,3541.00
536.041,3684.00
537.036,3566.00
538.030,3722.00
539.027,3829.00
540.022,3135.00
541.019,3516.00
542.013,3801.00
543.007,3640.00
544.004,3495.00
544.998,3527.00
545.994,4121.00
546.988,3915.00
547.981,3444.00
548.977,4146.00
549.971,3679.00
550.964,3875.00
551.960,3659.00
552.953,3608.00
553.948,3821.00
554.941,3390.00
555.934,3243.00
556.929,3731.00
557.922,3276.00
558.916,3870.00
559.909,4053.00
560.901,3627.00
561.895,3575.00
562.888,3268.00
563.880,3777.00
564.874,3895.00
565.865,3767.00
566.859,3183.00
567.851,4136.00
568.842,3427.00
569.836,3555.00
570.827,3290.00
571.820,3635.00
572.811,3728.00
573.802,3559.00
574.795,3303.00
575.786,3852.00
576.779,3731.00
577.769,3216.00
578.760,3658.00
579.752,3242.00
580.742,3364.00
581.735,3722.00
582.725,3393.00
583.714,3789.00
584.706,3288.00
585.696,3505.00
586.688,3853.00
587.677,3463.00
588.667,3735.00
589.658,3497.00
590.647,3679.00
591.638,3615.00
592.627,3398.00
593.616,3111.00
594.607,3691.00
595.595,3543.00
596.586,3207.00
597.574,3868.00
598.562,3899.00
599.553,3187.00
600.541,3579.00
601.531,3707.00
602.519,3440.00
603.508,3718.00
604.496,3714.00
605.484,3647.00
606.473,3551.00
607.460,3392.00
608.450,3449.00
609.437,3772.00
610.424,3910.00
611.413,3143.00
612.400,3272.00
613.388,3602.00
614.375,3497.00
615.361,3476.00
616.350,3310.00
617.336,8468.00
618.324,3900.00
619.310,3322.00
620.298,3192.00
621.284,3628.00
622.270,3281.00
623.257,3608.00
624.243,3588.00
625.230,3753.00
626.216,3532.00
627.203,3943.00
628.188,3480.00
629.173,3413.00
630.160,3307.00
631.145,2732.00
632.131,3354.00
633.116,3181.00
634.102,3671.00
635.087,3803.00
636.071,3789.00
637.057,3308.00
638.041,3122.00
639.027,3259.00
640.011,3419.00
640.995,3251.00
641.980,3300.00
642.964,3448.00
643.949,3894.00
644.932,2791.00
645.918,3407.00
646.901,3492.00
647.886,3328.00
648.868,3388.00
649.851,3218.00
650.836,2935.00
651.818,3176.00
652.803,3745.00
653.785,3509.00
654.769,3704.00
655.751,3662.00
656.733,3940.00
657.717,3066.00
658.699,3534.00
659.683,3320.00
660.664,3156.00
661.648,3389.00
662.629,3313.00
663.611,3304.00
664.594,3081.00
665.575,3105.00
666.558,3431.00
667.539,3086.00
668.521,3388.00
669.502,3387.00
670.484,3378.00
671.465,3259.00
672.445,3436.00
673.427,3193.00
674.407,3170.00
675.390,3520.00
676.369,3290.00
677.351,2968.00
678.331,3662.00
679.312,3413.00
680.292,3269.00
681.271,2957.00
682.253,3500.00
683.232,3108.00
684.213,3194.00
685.192,3719.00
686.172,3954.00
687.151,3376.00
688.132,3436.00
689.110,3596.00
690.089,3766.00
691.069,2864.00
692.047,2833.00
693.027,2989.00
694.005,3448.00
694.985,3984.00
695.963,3553.00
696.943,3231.00
697.920,2990.00
698.898,3804.00
699.877,3636.00
700.854,3251.00
701.833,3279.00
702.810,3753.00
703.789,3477.00
704.766,4449.00
705.745,3927.00
706.721,3146.00
707.698,3698.00
708.676,3054.00
709.653,3254.00
710.631,3723.00
711.607,3373.00
712.585,3389.00
713.561,3136.00
714.539,3848.00
715.514,3282.00
716.492,3086.00
717.467,3794.00
718.443,3033.00
719.420,3705.00
720.395,3748.00
721.372,3505.00
722.347,3652.00
723.324,3171.00
724.298,3406.00
725.275,3096.00
726.250,3319.00
727.226,3196.00
728.200,2962.00
729.176,3309.00
730.151,3576.00
731.125,3803.00
732.100,2984.00
733.074,3381.00
734.050,3174.00
735.023,3028.00
735.999,3287.00
736.972,3236.00
737.947,3695.00
738.921,3412.00
739.896,3593.00
740.869,3454.00
741.841,3293.00
742.816,3775.00
743.789,3116.00
744.763,3078.00
745.736,3357.00
746.710,3223.00
747.682,3090.00
748.656,3300.00
749.628,3272.00
750.602,3302.00
751.574,3379.00
752.548,4205.00
753.519,3496.00
754.491,2940.00
755.464,3149.00
756.435,3979.00
757.408,3626.00
758.379,3440.00
759.352,2864.00
760.323,2990.00
761.296,3263.00
762.267,3328.00
763.239,3061.00
764.209,3569.00
765.182,4501.00
766.152,3639.00
767.124,3097.00
768.094,3138.00
769.064,3514.00
770.036,2955.00
771.005,3614.00
771.977,3191.00
772.947,3248.00
773.918,3701.00
774.887,3274.00
775.858,3084.00
776.827,3227.00
777.798,3261.00
778.767,3823.00
779.738,3265.00
780.707,3193.00
781.677,3414.00
782.646,3126.00
783.614,3658.00
784.584,3379.00
785.552,3510.00
786.522,2981.00
787.490,3301.00
788.460,3200.00
789.428,3159.00
790.397,3721.00
791.365,3002.00
792.334,3182.00
793.302,3416.00
794.271,3374.00
795.238,3195.00
796.207,3168.00
797.174,3609.00
798.143,3029.00
799.109,3685.00
800.076,3174.00
801.044,2881.00
802.011,3071.00
802.979,3122.00
803.945,3207.00
804.913,3941.00
805.879,3235.00
806.847,2930.00
807.813,3628.00
808.780,3223.00
809.746,3215.00
810.713,3694.00
811.678,2977.00
812.646,3172.00
813.611,3214.00
814.578,2975.00
815.543,3649.00
816.510,2875.00
817.474,3144.00
818.439,3232.00
819.405,3503.00
820.370,3103.00
821.336,3006.00
822.300,3421.00
823.266,3185.00
824.230,3399.00
825.196,3243.00
826.160,3649.00
827.126,3634.00
828.089,4019.00
829.055,3315.00
830.018,3370.00
830.983,4042.00
831.946,3096.00
832.911,3086.00
833.874,3894.00
834.837,3117.00
835.802,3204.00
836.765,3773.00
837.729,3104.00
838.691,3208.00
839.656,3547.00
840.618,3420.00
841.582,3491.00
842.544,3520.00
843.508,3712.00
844.470,3007.00
845.434,2841.00
846.395,2770.00
847.359,3157.00
848.320,2889.00
849.283,3022.00
850.245,3131.00
851.208,3512.00
852.169,3190.00
853.130,3003.00
854.092,3421.00
855.053,3191.00
856.016,3224.00
856.976,4320.00
857.938,3238.00
858.899,3318.00
859.861,2927.00
860.821,3136.00
861.783,2581.00
862.743,3244.00
863.704,3556.00
864.664,2774.00
865.626,3388.00
866.585,3043.00
867.546,3349.00
868.506,3352.00
869.467,2753.00
870.426,3308.00
871.387,3490.00
872.346,3519.00
873.304,3357.00
874.265,3438.00
875.223,3316.00
876.184,3392.00
877.142,3094.00
878.102,3170.00
879.060,3188.00
880.021,3365.00
880.978,2853.00
881.938,3193.00
882.896,3580.00
883.856,3429.00
884.813,3162.00
885.772,3186.00
886.730,3438.00
887.689,3405.00
888.646,3087.00
889.603,3589.00
890.562,3617.00
891.519,3393.00
892.477,3378.00
893.434,3299.00
894.392,2798.00
895.349,3259.00
896.307,3347.00
897.263,3512.00
898.221,3314.00
899.177,3084.00
900.135,3431.00
901.091,3211.00
902.048,3693.00
903.004,3208.00
903.961,3045.00
904.917,3175.00
905.874,3242.00
906.829,2986.00
907.784,3289.00
908.741,3247.00
909.696,3131.00
910.653,2744.00
911.607,3141.00
912.564,3127.00
913.518,3110.00
914.475,3259.00
915.429,4925.00
916.385,2951.00
917.339,3611.00
918.295,3304.00
919.249,3395.00
920.205,3231.00
921.158,3367.00
922.114,3150.00
923.067,3260.00
924.020,3331.00
924.976,3158.00
925.929,3422.00
926.884,3288.00
927.837,3540.00
928.791,3462.00
929.744,2957.00
930.699,3257.00
931.651,3252.00
932.606,2893.00
933.558,3073.00
934.512,3419.00
935.464,3315.00
936.418,3605.00
937.370,3402.00
938.322,2971.00
939.276,3159.00
940.227,3206.00
941.181,3315.00
942.132,3636.00
943.085,3798.00
944.036,2795.00
944.990,3568.00
945.941,3063.00
946.893,3144.00
947.844,2896.00
948.797,3330.00
949.747,4037.00
950.700,3135.00
951.650,2645.00
952.601,3368.00
953.553,2993.00
954.503,3479.00
955.455,3195.00
956.405,3239.00
957.356,2901.00
958.306,3487.00
959.258,3255.00
960.207,3615.00
961.158,3558.00
962.108,3227.00
963.059,2947.00
964.008,2891.00
964.959,3851.00
965.908,3172.00
966.856,2958.00
967.807,2823.00
968.756,3551.00
969.706,3266.00
970.654,3184.00
971.605,3228.00
972.553,3303.00
973.503,3230.00
974.451,3524.00
975.401,3273.00
976.348,3265.00
977.296,3114.00
978.246,3497.00
979.193,3693.00
980.142,3010.00
981.090,3299.00
982.039,3205.00
982.986,3302.00
983.935,3583.00
984.882,3276.00
985.830,3390.00
986.777,3359.00
987.725,3036.00
988.672,3038.00
989.618,3232.00
990.567,2989.00
991.513,3166.00
992.461,3052.00
993.407,3464.00
994.354,3297.00
995.300,3375.00
996.248,3292.00
997.193,3388.00
998.141,3116.00
999.086,3366.00
1000.031,3306.00
1000.978,2785.00
1001.924,3204.00
1002.870,3324.00
1003.815,2680.00
1004.762,3012.00
1005.707,3254.00
1006.653,3129.00
1007.598,3196.00
1008.542,2897.00
1009.488,2840.00
1010.432,3076.00
1011.378,2958.00
1012.322,3565.00
1013.268,2895.00
1014.212,3192.00
1015.157,3324.00
1016.101,3656.00
1017.046,2943.00
1017.990,2994.00
1018.933,3164.00
1019.878,2988.00
1020.821,3013.00
1021.766,2839.00
1022.709,3113.00
1023.654,3180.00
1024.596,3485.00
1025.541,3614.00
1026.483,3611.00
1027.425,3274.00
1028.370,3337.00
1029.312,3430.00
1030.256,3104.00
1031.198,3058.00
1032.141,3056.00
1033.083,3627.00
1034.027,3317.00
1034.968,3345.00
1035.910,2745.00
1036.853,3221.00
1037.794,3250.00
1038.738,2942.00
1039.679,3494.00
1040.621,3078.00
1041.562,3119.00
1042.503,3517.00
1043.446,2929.00
1044.386,3437.00
1045.329,3225.00
1046.269,3323.00
1047.211,3102.00
1048.151,3295.00
1049.093,2942.00
1050.033,3938.00
1050.973,3302.00
1051.915,3140.00
1052.854,3115.00
1053.796,3437.00
1054.735,3037.00
1055.677,3060.00
1056.616,3253.00
1057.555,3287.00
1058.496,2874.00
1059.435,3395.00
1060.376,3009.00
1061.315,3051.00
1062.255,2902.00
1063.194,3112.00
1064.132,2886.00
1065.073,3238.00
1066.011,3206.00
1066.951,3212.00
1067.889,2940.00
1068.829,3336.00
1069.767,3256.00
1070.705,2553.00
1071.644,3104.00
1072.582,2741.00
1073.521,3076.00
1074.459,3157.00
1075.398,3306.00
1076.335,3040.00
1077.272,3851.00
1078.211,3328.00
1079.148,3703.00
1080.087,3165.00
1081.023,3644.00
1081.962,3430.00
1082.898,2741.00
1083.835,3098.00
1084.773,2798.00
1085.709,2832.00
1086.647,3137.00
1087.583,3063.00
1088.519,3329.00
1089.457,3336.00
1090.392,2752.00
1091.330,3182.00
1092.266,3099.00
1093.203,3471.00
1094.138,2776.00
1095.073,3644.00
1096.010,3457.00
1096.945,3103.00
1097.882,2774.00
1098.817,2644.00
1099.752,3888.00
1100.688,3186.00
1101.623,3267.00
1102.559,3256.00
1103.493,3492.00
1104.430,2728.00
1105.364,2825.00
1106.298,3090.00
1107.234,3753.00
1108.167,2896.00
1109.094,3065.00
1110.019,3115.00
1110.945,3296.00
1111.869,3183.00
1112.795,3056.00
1113.720,3171.00
1114.646,3154.00
1115.571,2612.00
1116.495,3207.00
1117.420,3221.00
1118.345,2923.00
1119.270,3101.00
1120.195,3285.00
1121.118,3542.00
1122.042,3434.00
1122.967,3162.00
1123.891,3215.00
1124.816,3234.00
1125.738,3185.00
1126.663,2584.00
1127.587,3061.00
1128.511,3007.00
1129.435,3157.00
1130.357,3251.00
1131.280,3960.00
1132.204,2911.00
1133.128,3015.00
1134.051,3023.00
1134.972,3799.00
1135.896,3060.00
1136.819,3451.00
1137.742,2978.00
1138.665,3279.00
1139.586,3135.00
1140.509,2696.00
1141.431,2999.00
1142.354,3573.00
1143.276,3174.00
1144.197,3526.00
1145.119,3224.00
1146.041,2899.00
1146.964,3294.00
1147.885,3249.00
1148.806,3085.00
1149.727,3141.00
1150.649,2795.00
1151.571,3197.00
1152.492,3367.00
1153.412,3235.00
1154.333,3174.00
1155.254,3035.00
1156.175,3047.00
1157.095,3586.00
1158.016,3219.00
1158.936,2972.00
1159.857,3302.00
1160.778,3030.00
1161.697,2760.00
1162.617,3282.00
1163.537,3765.00
1164.458,3588.00
1165.376,2952.00
1166.296,3360.00
1167.216,3477.00
1168.136,3027.00
1169.056,2904.00
1169.974,3084.00
1170.893,3721.00
1171.813,3306.00
1172.732,3062.00
1173.650,3197.00
1174.569,3944.00
1175.488,3358.00
1176.407,2885.00
1177.326,2881.00
1178.243,3134.00
1179.161,3017.00
1180.080,3088.00
1180.999,3262.00
1181.915,3090.00
1182.834,2729.00
1183.752,3319.00
1184.670,3749.00
1185.586,2660.00
1186.504,3013.00
1187.422,3078.00
1188.340,2811.00
1189.258,3286.00
1190.173,3124.00
1191.091,3475.00
1192.008,2965.00
1192.926,2963.00
1193.841,3281.00
1194.758,3208.00
1195.675,2878.00
1196.592,3459.00
1197.507,2883.00
1198.424,3287.00
1199.340,3565.00
1200.257,3061.00
1201.172,3290.00
1202.088,2571.00
1203.004,3210.00
1203.920,3403.00
1204.835,3758.00
1205.750,3480.00
1206.666,3551.00
1207.582,2868.00
1208.496,2979.00
1209.412,3045.00
1210.327,3013.00
1211.243,3639.00
1212.156,2916.00
1213.071,2942.00
1213.986,3203.00
1214.901,2810.00
1215.814,2802.00
1216.729,2897.00
1217.644,2937.00
1218.559,2911.00
1219.471,3989.00
1220.386,3509.00
1221.300,2959.00
1222.213,3291.00
1223.127,3103.00
1224.041,3546.00
1224.955,2919.00
1225.867,3238.00
1226.781,3398.00
1227.694,3538.00
1228.608,3093.00
1229.520,3370.00
1230.433,3365.00
1231.346,2921.00
1232.260,3312.00
1233.171,2907.00
1234.084,3209.00
1234.997,3583.00
1235.908,2962.00
1236.821,3269.00
1237.733,4366.00
1238.646,3415.00
1239.556,3251.00
1240.469,3136.00
1241.381,2939.00
1242.293,2933.00
1243.203,3670.00
1244.115,3675.00
1245.027,3193.00
1245.937,3042.00
1246.849,3066.00
1247.761,3169.00
1248.672,2927.00
1249.582,3067.00
1250.493,3740.00
1251.404,3177.00
1252.313,3314.00
1253.225,3498.00
1254.135,4123.00
1255.046,3269.00
1255.955,3402.00
1256.866,3677.00
1257.777,3025.00
1258.685,2803.00
1259.596,2639.00
1260.506,3516.00
1261.416,3119.00
1262.324,3387.00
1263.234,3131.00
1264.144,3399.00
1265.052,3265.00
1265.962,3186.00
1266.872,3435.00
1267.779,3375.00
1268.689,2751.00
1269.598,2914.00
1270.507,3085.00
1271.415,3027.00
1272.324,3214.00
1273.233,3146.00
1274.140,2981.00
1275.048,2891.00
1275.957,2703.00
1276.864,2973.00
1277.772,2997.00
1278.681,2638.00
1279.587,2931.00
1280.496,3279.00
1281.404,3866.00
1282.312,3295.00
1283.218,2904.00
1284.126,2890.00
1285.033,3683.00
1285.939,3136.00
1286.847,3202.00
1287.754,3061.00
1288.660,2949.00
1289.567,3730.00
1290.474,3221.00
1291.380,3401.00
1292.286,2811.00
1293.193,3227.00
1294.098,3149.00
1295.005,3006.00
1295.912,3486.00
1296.816,3239.00
1297.723,3114.00
1298.629,2974.00
1299.534,3513.00
1300.440,3280.00
1301.346,2959.00
1302.250,3005.00
1303.156,2716.00
1304.062,3590.00
1304.966,3749.00
1305.871,3443.00
1306.777,2987.00
1307.680,3089.00
1308.586,3272.00
1309.491,3382.00
1310.394,3147.00
1311.299,3394.00
1312.204,3619.00
1313.107,3313.00
1314.012,3196.00
1314.917,2883.00
1315.819,3293.00
1316.724,3662.00
1317.628,3258.00
1318.531,3076.00
1319.435,3514.00
1320.339,5207.00
1321.241,3165.00
1322.145,3164.00
1323.049,3248.00
1323.951,2909.00
1324.854,2910.00
1325.756,3423.00
1326.659,3212.00
1327.563,2916.00
1328.464,3267.00
1329.367,3124.00
1330.271,3494.00
1331.172,2852.00
1332.074,3105.00
1332.977,2926.00
1333.878,3285.00
1334.781,3437.00
1335.683,2928.00
1336.584,3094.00
1337.486,2749.00
1338.387,3290.00
1339.289,2855.00
1340.191,3040.00
1341.091,3101.00
1341.993,2854.00
1342.895,2960.00
1343.794,3251.00
1344.696,3389.00
1345.596,3291.00
1346.497,2873.00
1347.398,3124.00
1348.298,2695.00
1349.199,3694.00
1350.100,3007.00
1350.999,3511.00
1351.900,3349.00
1352.799,3458.00
1353.699,3248.00
1354.600,3115.00
1355.499,3211.00
1356.399,2742.00
1357.297,3109.00
1358.198,3180.00
1359.098,2971.00
1359.996,2847.00
1360.896,3561.00
1361.796,3439.00
1362.694,3264.00
1363.593,3063.00
1364.491,3326.00
1365.391,3719.00
1366.290,3075.00
1367.187,2940.00
1368.086,3347.00
1368.984,3201.00
1369.883,2707.00
1370.782,3175.00
1371.679,3336.00
1372.577,3611.00
1373.474,3199.00
1374.373,3090.00
1375.269,3186.00
1376.168,3092.00
1377.066,3422.00
1377.962,3334.00
1378.860,3497.00
1379.756,3500.00
1380.654,3757.00
1381.552,3365.00
1382.448,3316.00
1383.346,3203.00
1384.241,3321.00
1385.139,3431.00
1386.036,3039.00
1386.931,2744.00
1387.829,3203.00
1388.724,3383.00
1389.621,3071.00
1390.516,3219.00
1391.413,3033.00
1392.309,2903.00
1393.204,3459.00
1394.101,3378.00
1394.995,3343.00
1395.891,3299.00
1396.786,2911.00
1397.682,3098.00
1398.578,3300.00
1399.472,3502.00
1400.368,3167.00
1401.262,3138.00
1402.158,3329.00
1403.051,3125.00
1403.947,3044.00
1404.840,3430.00
1405.736,3393.00
1406.631,2910.00
1407.524,3586.00
1408.419,3185.00
1409.312,3033.00
1410.207,3294.00
1411.100,3017.00
1411.995,3009.00
1412.888,3374.00
1413.782,2823.00
1414.675,3489.00
1415.569,2898.00
1416.463,3134.00
1417.355,3117.00
1418.249,2962.00
1419.141,3246.00
1420.035,3260.00
1420.927,3069.00
1421.821,3503.00
1422.713,3036.00
1423.606,3304.00
1424.498,3177.00
1425.391,3722.00
1426.282,2999.00
1427.175,3100.00
1428.068,2668.00
1428.960,3218.00
1429.852,3261.00
1430.743,2930.00
1431.636,3172.00
1432.527,3444.00
1433.419,3308.00
1434.310,3346.00
1435.202,2953.00
1436.092,3120.00
1436.984,3112.00
1437.875,3580.00
1438.767,3177.00
1439.657,2986.00
1440.548,3345.00
1441.438,3236.00
1442.330,3289.00
1443.219,3151.00
1444.111,3408.00
1445.000,2982.00
1445.891,2904.00
1446.781,2938.00
1447.672,3191.00
1448.561,3532.00
1449.452,3337.00
1450.340,2944.00
1451.231,2993.00
1452.120,2903.00
1453.010,3437.00
1453.899,3006.00
1454.789,3364.00
1455.677,3550.00
1456.568,3151.00
1457.456,3178.00
1458.346,3137.00
1459.234,3260.00
1460.123,3465.00
1461.011,3175.00
1461.901,3565.00
1462.788,3571.00
1463.678,3324.00
1464.565,3223.00
1465.454,3083.00
1466.342,3227.00
1467.231,2506.00
1468.118,3452.00
1469.006,3590.00
1469.893,2870.00
1470.782,3291.00
1471.669,3424.00
1472.557,3445.00
1473.444,3153.00
1474.330,3392.00
1475.218,3551.00
1476.105,3096.00
1476.993,3147.00
1477.879,3398.00
1478.767,3096.00
1479.652,2938.00
1480.540,3200.00
1481.426,3359.00
1482.313,3328.00
1483.199,3552.00
1484.086,3397.00
1484.972,2908.00
1485.857,2891.00
1486.744,3265.00
1487.629,2768.00
1488.516,3031.00
1489.401,3360.00
1490.287,3195.00
1491.172,2806.00
1492.058,3117.00
1492.943,2987.00
1493.828,3005.00
1494.714,3375.00
1495.598,3541.00
1496.484,4022.00
1497.368,2839.00
1498.254,3146.00
1499.138,3154.00
1500.022,3182.00
1500.907,3293.00
1501.791,3919.00
1502.676,3169.00
1503.560,3025.00
1504.445,3764.00
1505.328,3306.00
1506.211,3591.00
1507.096,3111.00
1507.979,3454.00
1508.864,3109.00
1509.747,3336.00
1510.631,3270.00
1511.514,3366.00
1512.397,3424.00
1513.281,3739.00
1514.163,3452.00
1515.047,3100.00
1515.930,2897.00
1516.812,3212.00
1517.696,3350.00
1518.578,3108.00
1519.461,3260.00
1520.343,3643.00
1521.225,3029.00
1522.108,3133.00
1522.990,3509.00
1523.873,3617.00
1524.754,2803.00
1525.635,2663.00
1526.518,3326.00
1527.399,3146.00
1528.282,3243.00
1529.163,3318.00
1530.044,3191.00
1530.926,2869.00
1531.807,2965.00
1532.689,3250.00
1533.569,2976.00
1534.450,4214.00
1535.332,3390.00
1536.212,3091.00
1537.092,3505.00
1537.974,2876.00
1538.854,3136.00
1539.735,3736.00
1540.615,3367.00
1541.495,2955.00
1542.376,3628.00
1543.255,2933.00
1544.135,3125.00
1545.016,3266.00
1545.895,2963.00
1546.774,3437.00
1547.655,2758.00
1548.534,3222.00
1549.414,3112.00
1550.293,2906.00
1551.172,3255.00
1552.052,3200.00
1552.930,3044.00
1553.809,3717.00
1554.689,3045.00
1555.567,3099.00
1556.445,3092.00
1557.325,3560.00
1558.203,2803.00
1559.080,3182.00
1559.960,3139.00
1560.838,3864.00
1561.715,3153.00
1562.594,3471.00
1563.472,3388.00
1564.349,3346.00
1565.228,2781.00
1566.105,2958.00
1566.982,3215.00
1567.861,3485.00
1568.738,3120.00
1569.615,2786.00
1570.493,3056.00
1571.370,3075.00
1572.246,2595.00
1573.124,3160.00
1574.000,3096.00
1574.877,3444.00
1575.755,3042.00
1576.631,2918.00
1577.507,3580.00
1578.384,3593.00
1579.260,3285.00
1580.136,3756.00
1581.011,3200.00
1581.889,3149.00
1582.764,3175.00
1583.639,3474.00
1584.516,3333.00
1585.391,3048.00
1586.266,3219.00
1587.143,3643.00
1588.018,3325.00
1588.893,3567.00
1589.768,3961.00
1590.644,3922.00
1591.519,2918.00
1592.393,3306.00
1593.269,3454.00
1594.143,3010.00
1595.018,3161.00
1595.892,3053.00
1596.767,2689.00
1597.641,2716.00
1598.515,2864.00
1599.391,3294.00
1600.264,3038.00
1601.138,2978.00
1602.011,2565.00
1602.886,3709.00
1603.760,3512.00
1604.633,3421.00
1605.508,3436.00
1606.381,3246.00
1607.254,3202.00
1608.127,3296.00
1609.001,2942.00
1609.874,3492.00
1610.746,3408.00
1611.619,3200.00
1612.493,3437.00
1613.365,2989.00
1614.238,3229.00
1615.110,3220.00
1615.984,3164.00
1616.855,3035.00
1617.727,3402.00
1618.599,3058.00
1619.473,3504.00
1620.344,2565.00
1621.216,3223.00
1622.087,3237.00
1622.960,3208.00
1623.832,3137.00
1624.703,3299.00
1625.574,3411.00
1626.445,3211.00
1627.317,3184.00
1628.188,3402.00
1629.059,3102.00
1629.930,3535.00
1630.802,3147.00
1631.672,3357.00
1632.543,3344.00
1633.413,3188.00
1634.283,3715.00
1635.155,3262.00
1636.025,3286.00
1636.895,3260.00
1637.765,2713.00
1638.636,3126.00
1639.506,3337.00
1640.376,3976.00
1641.245,3077.00
1642.114,3207.00
1642.985,2660.00
1643.855,2963.00
1644.724,3108.00
1645.593,3374.00
1646.462,3315.00
1647.333,3228.00
1648.201,3038.00
1649.070,3216.00
1649.939,3389.00
1650.807,2975.00
1651.676,3380.00
1652.546,3397.00
1653.414,3533.00
1654.282,3215.00
1655.150,3066.00
1656.018,3161.00
1656.888,3834.00
1657.756,3211.00
1658.623,2838.00
1659.491,2736.00
1660.359,3566.00
1661.226,3060.00
1662.095,3355.00
1662.962,3040.00
1663.830,3132.00
1664.697,3004.00
1665.564,3184.00
1666.431,3355.00
1667.297,2917.00
1668.166,2932.00
1669.033,2780.00
1669.899,3052.00
1670.766,2831.00
1671.632,3054.00
1672.499,3572.00
1673.367,3236.00
1674.233,3376.00
1675.099,3198.00
1675.965,2864.00
1676.831,3089.00
1677.696,3560.00
1678.562,5221.00
1679.430,2729.00
1680.295,2845.00
1681.161,2954.00
1682.026,3000.00
1682.891,3018.00
1683.756,3126.00
1684.621,3227.00
1685.486,3229.00
1686.353,3173.00
1687.218,3364.00
1688.083,3141.00
1688.947,3467.00
1689.812,3147.00
1690.677,3086.00
1691.541,3268.00
1692.405,2491.00
1693.269,3683.00
1694.135,3359.00
1694.999,3212.00
1695.863,3704.00
1696.727,3022.00
1697.591,3051.00
1698.455,3278.00
1699.318,3029.00
1700.182,4461.00
1701.045,3228.00
1701.909,3219.00
1702.772,3672.00
1703.637,3063.00
1704.500,2774.00
1705.363,3413.00
1706.226,3251.00
1707.089,3344.00
1707.951,3339.00
1708.814,3920.00
1709.677,3954.00
1710.539,3443.00
1711.402,3448.00
1712.264,3143.00
1713.126,3136.00
1713.988,3452.00
1714.852,3431.00
1715.714,2616.00
1716.576,2783.00
1717.438,3392.00
1718.299,2713.00
1719.161,3579.00
1720.023,3173.00
1720.884,3599.00
1721.745,3153.00
1722.607,3102.00
1723.468,2707.00
1724.329,3454.00
1725.190,3194.00
1726.051,3362.00
1726.912,3028.00
1727.772,3310.00
1728.633,3141.00
1729.494,3280.00
1730.354,3421.00
1731.214,2892.00
1732.075,3084.00
1732.935,3010.00
1733.797,3068.00
1734.657,3687.00
1735.517,3901.00
1736.377,3468.00
1737.237,3168.00
1738.096,3833.00
1738.956,3143.00
1739.816,3070.00
1740.675,3173.00
1741.534,2653.00
1742.394,3218.00
1743.253,2947.00
1744.112,3252.00
1744.971,3054.00
1745.830,3298.00
1746.689,3341.00
1747.547,3439.00
1748.406,2813.00
1749.265,3056.00
1750.123,3081.00
1750.982,3394.00
1751.840,3182.00
1752.698,3258.00
1753.556,3009.00
1754.414,3163.00
1755.272,3133.00
1756.130,3229.00
1756.988,3153.00
1757.846,3374.00
1758.703,3018.00
1759.559,3487.00
1760.417,2926.00
1761.274,3771.00
1762.131,3561.00
1762.989,3664.00
1763.846,3654.00
1764.703,3281.00
1765.560,3719.00
1766.417,3247.00
1767.273,2992.00
1768.130,3169.00
1768.987,3055.00
1769.843,3462.00
1770.700,3566.00
1771.556,3061.00
1772.412,3523.00
1773.268,3099.00
1774.125,3556.00
1774.980,3241.00
1775.836,3559.00
1776.692,3090.00
1777.546,3027.00
1778.402,3349.00
1779.257,3215.00
1780.113,3002.00
1780.968,3341.00
1781.824,3454.00
1782.679,2862.00
1783.534,3047.00
1784.389,3681.00
1785.244,3331.00
1786.099,3177.00
1786.954,3421.00
1787.808,3247.00
1788.661,3254.00
1789.516,3659.00
1790.370,3251.00
1791.225,3063.00
1792.079,2818.00
1792.933,3965.00
1793.787,3335.00
1794.641,3254.00
1795.495,3170.00
1796.349,3265.00
1797.201,3098.00
1798.055,3011.00
1798.908,3193.00
1799.762,3576.00
1800.615,3423.00
1801.469,3436.00
1802.322,3622.00
1803.175,3058.00
1804.028,2813.00
1804.880,3702.00
1805.732,3412.00
1806.585,3205.00
1807.438,3224.00
1808.291,2710.00
1809.143,2961.00
1809.996,2873.00
1810.846,3982.00
1811.699,3341.00
1812.551,3101.00
1813.403,3391.00
1814.255,3223.00
1815.107,3229.00
1815.959,3842.00
1816.809,3310.00
1817.661,3359.00
1818.512,3187.00
1819.364,3286.00
1820.215,3369.00
1821.067,3012.00
1821.918,3074.00
1822.768,3466.00
1823.619,3469.00
1824.470,3103.00
1825.321,3336.00
1826.172,3184.00
1827.021,3328.00
1827.871,3498.00
1828.722,3275.00
1829.572,3289.00
1830.423,3244.00
1831.273,3073.00
1832.122,3256.00
1832.972,3210.00
1833.822,2939.00
1834.672,3388.00
1835.522,3486.00
1836.370,2989.00
1837.220,3349.00
1838.070,2779.00
1838.919,2589.00
1839.769,3029.00
1840.616,3434.00
1841.466,3351.00
1842.315,2982.00
1843.164,3855.00
1844.013,3058.00
1844.860,2900.00
1845.709,2975.00
1846.558,3513.00
1847.407,2859.00
1848.254,3328.00
1849.102,3304.00
1849.951,2995.00
1850.799,2626.00
1851.648,3075.00
1852.494,3241.00
1853.342,3269.00
1854.190,3546.00
1855.038,3565.00
1855.884,3226.00
1856.732,4079.00
1857.580,3647.00
1858.428,3040.00
1859.273,2959.00
1860.121,2997.00
1860.968,4086.00
1861.816,3590.00
1862.661,3617.00
1863.508,3795.00
1864.355,3490.00
1865.202,3540.00
1866.047,3300.00
1866.894,3614.00
1867.741,3790.00
1868.586,3308.00
1869.432,3325.00
1870.279,3169.00
1871.125,3032.00
1871.970,3876.00
1872.816,3309.00
1873.662,2758.00
1874.506,3334.00
1875.352,3540.00
1876.198,3644.00
1877.044,3787.00
1877.888,3128.00
1878.734,3276.00
1879.579,3036.00
1880.423,2908.00
1881.268,3126.00
1882.113,3541.00
1882.959,3165.00
1883.802,3036.00
1884.647,3589.00
1885.492,3272.00
1886.335,3171.00
1887.180,3062.00
1888.025,3277.00
1888.867,3022.00
1889.712,3409.00
1890.556,2955.00
1891.399,3516.00
1892.243,3542.00
1893.087,3076.00
1893.930,3386.00
1894.774,3351.00
1895.618,3545.00
1896.460,2849.00
1897.304,3184.00
1898.147,3097.00
1898.989,2954.00
1899.833,3427.00
1900.676,3058.00
1901.518,3553.00
1902.361,3562.00
1903.202,3116.00
1904.046,3067.00
1904.889,3137.00
1905.730,3134.00
1906.573,2880.00
1907.415,3341.00
1908.256,3691.00
1909.099,3350.00
1909.941,3392.00
1910.782,3349.00
1911.624,3046.00
1912.465,3431.00
1913.307,3280.00
1914.149,3005.00
1914.989,3514.00
1915.831,3188.00
1916.671,3639.00
1917.513,3128.00
1918.355,3287.00
1919.195,3449.00
1920.036,3273.00
1920.876,3247.00
1921.717,3404.00
1922.558,3275.00
1923.398,3274.00
1924.239,3223.00
1925.078,3611.00
1925.919,2956.00
1926.760,3390.00
1927.599,3116.00
1928.440,3506.00
1929.279,3254.00
1930.119,3689.00
1930.958,3149.00
1931.798,3248.00
1932.638,3132.00
1933.477,3313.00
1934.317,3039.00
1935.155,3078.00
1935.995,3312.00
1936.833,3064.00
1937.673,3034.00
1938.512,3671.00
1939.350,2848.00
1940.190,3160.00
1941.027,3153.00
1941.867,3088.00
1942.704,3223.00
1943.543,3225.00
1944.381,3405.00
1945.220,3575.00
1946.057,3349.00
1946.896,3554.00
1947.733,3282.00
1948.572,3002.00
1949.408,3559.00
1950.247,3319.00
1951.085,3432.00
1951.922,3597.00
1952.760,3048.00
1953.597,3615.00
1954.435,2603.00
1955.271,3388.00
1956.109,3114.00
1956.945,2840.00
1957.783,3367.00
1958.619,3063.00
1959.456,3172.00
1960.292,3332.00
1961.129,3580.00
1961.965,3770.00
1962.802,3039.00
1963.638,3016.00
1964.475,3260.00
1965.310,3249.00
1966.145,3296.00
1966.982,3090.00
1967.817,2916.00
1968.654,3241.00
1969.489,3043.00
1970.325,3240.00
1971.160,2981.00
1971.996,3404.00
1972.831,3502.00
1973.667,3118.00
1974.501,3680.00
1975.337,3510.00
1976.171,3133.00
1977.006,3505.00
1977.841,3161.00
1978.675,3509.00
1979.511,3865.00
1980.345,3014.00
1981.180,3430.00
1982.014,3278.00
1982.849,2951.00
1983.682,3138.00
1984.516,3105.00
1985.351,2844.00
1986.184,2736.00
1987.019,2766.00
1987.852,2549.00
1988.687,2775.00
1989.519,2976.00
1990.352,3249.00
1991.187,2712.00
1992.019,3030.00
1992.854,3402.00
1993.686,2977.00
1994.518,3047.00
1995.352,2569.00
1996.185,2332.00
1997.019,2897.00
1997.851,2695.00
1998.682,2750.00
1999.516,2779.00
2000.348,2485.00
