RamanScope Measure Spectrum Data V3.72

<< MEASURE CONDITION >>
Exposure Type,Aver
Exposure Time [sec],20
Exposure Count,2
Measure Time,2024/02/15 21:20:03
Data Name,""
Data Comment,""
Rayleigh Wave[nm],532.0

<< SAMPLE SPECTRUM >>
Wave[dcm-1],No44
96.716,16.00
97.759,18.50
98.802,42.00
99.846,-19.00
100.886,28.00
101.929,0.50
102.972,1.00
104.015,1.50
105.057,34.00
106.100,23.50
107.142,-19.00
108.184,22.00
109.226,-19.00
110.268,45.50
111.310,40.00
112.352,30.00
113.393,11.50
114.435,-24.50
115.476,49.50
116.517,-36.50
117.558,24.50
118.599,-8.50
119.640,42.50
120.681,41.00
121.722,-9.00
122.762,9.50
123.803,17.50
124.843,43.00
125.883,48.50
126.923,15.50
127.963,5.50
129.001,-25.50
130.041,10.00
131.080,41.50
132.120,57.00
133.159,3.00
134.199,0.50
135.238,28.00
136.277,-24.50
137.316,29.50
138.355,42.00
139.393,-12.00
140.432,-8.00
141.470,-43.50
142.509,53.50
143.547,38.50
144.585,40.00
145.623,31.00
146.661,107.50
147.699,93.00
148.736,154.50
149.774,255.00
150.811,208.00
151.849,370.00
152.886,463.50
153.923,527.50
154.960,686.50
155.997,857.50
157.034,972.00
158.072,1105.50
159.109,1295.50
160.145,1476.50
161.182,1672.50
162.218,1818.00
163.254,1912.00
164.290,2163.50
165.326,2292.00
166.361,2372.00
167.397,2428.00
168.432,2507.50
169.468,2591.50
170.503,2720.00
171.538,2740.50
172.573,2763.00
173.608,2827.00
174.643,2803.00
175.677,2826.00
176.712,2915.00
177.746,2953.00
178.781,3059.50
179.815,3094.50
180.849,3174.50
181.883,3208.00
182.917,3240.50
183.951,3270.00
184.984,3323.50
186.020,3377.00
187.053,3375.50
188.087,3341.50
189.120,3297.00
190.153,3228.00
191.186,3239.50
192.219,3199.00
193.251,3200.00
194.284,3111.00
195.317,3131.50
196.349,3220.00
197.381,3148.50
198.413,3117.50
199.445,3099.00
200.477,3150.50
201.509,3151.50
202.543,3174.00
203.575,3176.50
204.606,3175.00
205.637,3307.50
206.669,3256.00
207.700,3265.00
208.731,3292.00
209.762,3364.00
210.792,3333.50
211.823,3283.00
212.854,3336.50
213.884,3353.00
214.914,3406.00
215.947,3434.50
216.977,3363.50
218.007,3477.00
219.037,3515.50
220.066,3517.50
221.096,3513.50
222.126,3560.50
223.155,3515.00
224.184,3638.00
225.214,3622.50
226.245,3623.50
227.274,3697.50
228.302,3679.50
229.331,3664.00
230.360,3687.50
231.388,3735.00
232.417,3604.00
233.445,3651.50
234.473,3577.00
235.501,3610.00
236.531,3555.00
237.559,3564.00
238.587,3530.50
239.614,3510.00
240.642,3458.00
241.669,3488.00
242.696,3461.50
243.724,3443.00
244.753,3375.50
245.780,3395.00
246.806,3371.50
247.833,3384.00
248.860,3344.00
249.886,3359.50
250.913,3313.50
251.939,3346.50
252.967,3319.00
253.993,3346.00
255.019,3347.50
256.045,3413.50
257.070,3407.00
258.096,3396.50
259.121,3380.00
260.147,3428.00
261.174,3366.50
262.199,3419.00
263.224,3334.00
264.249,3378.00
265.274,3341.00
266.298,3400.00
267.323,3430.00
268.349,3395.50
269.374,3405.00
270.398,3379.50
271.422,3439.50
272.446,3410.50
273.470,3442.50
274.496,3342.50
275.519,3399.00
276.543,3433.00
277.566,3390.00
278.589,3510.00
279.613,3501.00
280.636,3513.50
281.661,3528.50
282.684,3474.00
283.706,3580.00
284.729,3532.50
285.751,3560.00
286.774,3431.50
287.798,3534.50
288.820,3576.00
289.842,3589.50
290.864,3516.50
291.886,3584.00
292.910,3527.50
293.932,3480.00
294.953,3533.00
295.974,3480.00
296.996,3476.50
298.017,3405.50
299.040,3322.50
300.061,3360.00
301.082,3262.50
302.102,3329.50
303.123,3256.00
304.143,3251.50
305.166,3228.50
306.186,3213.50
307.206,3252.00
308.226,3161.50
309.246,3118.50
310.268,3085.50
311.288,3003.50
312.307,3026.00
313.327,2991.00
314.346,3022.50
315.368,2968.50
316.387,2981.50
317.406,2932.50
318.425,2944.00
319.443,2972.50
320.464,2933.50
321.483,2910.00
322.501,2874.00
323.520,2813.00
324.538,2859.50
325.558,2860.00
326.576,2806.50
327.594,2815.00
328.612,2864.00
329.629,2879.00
330.649,2790.50
331.666,2791.50
332.684,2791.00
333.701,2829.00
334.718,2752.00
335.737,2741.50
336.754,2746.50
337.771,2728.00
338.787,2738.50
339.806,2715.00
340.823,2762.50
341.839,2713.00
342.855,2698.50
343.871,2767.50
344.889,2771.50
345.905,2696.00
346.921,2646.50
347.937,2645.50
348.954,2687.00
349.970,2656.00
350.985,2735.50
352.000,2649.50
353.017,2669.00
354.032,2715.50
355.047,2734.50
356.062,2711.50
357.077,2641.00
358.093,2586.50
359.108,2650.50
360.122,2643.00
361.136,2611.00
362.152,2564.00
363.166,2599.00
364.180,2627.50
365.194,2685.00
366.210,2583.50
367.223,2600.50
368.237,2590.50
369.250,2637.00
370.265,2634.00
371.278,2581.50
372.291,2598.50
373.304,2652.50
374.319,2640.50
375.332,2625.50
376.344,2730.00
377.357,2638.00
378.371,2600.50
379.383,2636.50
380.395,2607.50
381.407,2586.00
382.421,2654.50
383.433,2635.00
384.445,2689.50
385.456,2667.50
386.470,2640.00
387.481,2661.50
388.492,2666.50
389.505,2643.50
390.516,2663.50
391.527,2661.00
392.538,2673.00
393.551,2688.00
394.561,2730.00
395.572,2719.00
396.582,2692.50
397.594,2735.50
398.604,2672.50
399.614,2679.00
400.624,2688.00
401.636,2711.50
402.646,2703.00
403.655,2710.50
404.667,2745.00
405.676,2698.50
406.685,2785.50
407.694,2715.50
408.705,2653.50
409.714,2619.00
410.723,2686.00
411.734,2715.50
412.742,2663.50
413.751,2716.50
414.759,2622.00
415.769,2642.00
416.777,2619.50
417.785,2661.00
418.795,2646.00
419.803,2588.50
420.811,2558.00
421.818,2593.50
422.828,2572.00
423.835,2613.50
424.842,2579.50
425.852,2548.00
426.859,2502.00
427.866,2544.50
428.874,2579.50
429.881,2545.00
430.888,2573.00
431.894,2532.00
432.902,2578.50
433.909,2641.50
434.915,2509.00
435.923,2532.50
436.929,2533.00
437.935,2483.50
438.942,2506.00
439.948,2531.00
440.953,2529.50
441.959,2533.50
442.966,2526.00
443.971,2550.50
444.976,2548.00
445.983,2484.00
446.988,2459.00
447.993,2508.00
448.999,2455.50
450.004,2488.50
451.008,2478.00
452.014,2551.50
453.019,2566.00
454.023,2516.50
455.029,2542.50
456.032,2475.00
457.036,2500.50
458.042,2485.00
459.045,2517.50
460.049,2428.50
461.052,2536.50
462.057,2515.50
463.060,2490.00
464.063,2510.50
465.068,2517.50
466.071,2552.50
467.073,2534.00
468.078,2506.50
469.080,2510.00
470.082,2518.00
471.087,2516.50
472.089,2569.00
473.091,2554.00
474.095,2500.00
475.096,2479.50
476.098,2490.00
477.101,2518.50
478.103,2577.50
479.104,2523.50
480.107,2513.00
481.108,2533.50
482.109,2578.00
483.112,2550.00
484.113,2512.00
485.114,2537.50
486.116,2546.50
487.117,2525.50
488.117,2550.50
489.119,2548.00
490.119,2553.00
491.121,2538.00
492.121,2494.00
493.121,2472.50
494.123,2484.00
495.122,2550.00
496.122,2541.00
497.123,2529.00
498.122,2564.00
499.121,2511.00
500.122,2526.50
501.121,2532.00
502.120,2489.50
503.121,2505.00
504.119,2505.50
505.118,2467.50
506.118,2454.50
507.117,2554.50
508.115,2485.50
509.115,2506.50
510.113,2519.00
511.112,2459.00
512.110,2456.00
513.108,2539.50
514.107,2483.00
515.105,2489.00
516.102,2387.50
517.101,2473.00
518.098,2441.50
519.095,2445.50
520.094,2399.00
521.091,2455.50
522.089,2374.50
523.086,2409.00
524.082,2412.50
525.081,2407.00
526.077,2467.00
527.073,2427.00
528.071,2448.00
529.067,2409.50
530.064,2518.50
531.060,2473.50
532.056,2477.00
533.053,2383.00
534.048,2410.00
535.044,2422.00
536.041,2424.00
537.036,2422.00
538.030,2409.50
539.027,2427.00
540.022,2501.00
541.019,2476.00
542.013,2448.00
543.007,2410.50
544.004,2395.50
544.998,2427.00
545.994,2574.00
546.988,2447.00
547.981,2404.00
548.977,2441.50
549.971,2470.00
550.964,2423.00
551.960,2420.50
552.953,2448.00
553.948,2415.50
554.941,2438.00
555.934,2449.50
556.929,2406.50
557.922,2413.00
558.916,2472.50
559.909,2382.50
560.901,2413.00
561.895,2404.50
562.888,2489.00
563.880,2464.00
564.874,2437.50
565.865,2409.00
566.859,2420.00
567.851,2389.00
568.842,2424.50
569.836,2371.00
570.827,2439.00
571.820,2413.50
572.811,2327.00
573.802,2419.50
574.795,2342.50
575.786,2354.00
576.779,2370.00
577.769,2434.50
578.760,2308.50
579.752,2344.00
580.742,2391.00
581.735,2393.00
582.725,2377.00
583.714,2307.50
584.706,2356.50
585.696,2386.00
586.688,2385.00
587.677,2353.50
588.667,2354.00
589.658,2312.50
590.647,2352.50
591.638,2350.00
592.627,2345.50
593.616,2349.00
594.607,2295.00
595.595,2407.50
596.586,2329.50
597.574,2354.00
598.562,2342.00
599.553,2337.00
600.541,2318.00
601.531,2358.00
602.519,2351.50
603.508,2327.50
604.496,2278.00
605.484,2284.50
606.473,2289.50
607.460,2289.00
608.450,2258.00
609.437,2283.00
610.424,2315.00
611.413,2317.00
612.400,2272.50
613.388,2259.00
614.375,2328.50
615.361,2286.00
616.350,2223.00
617.336,2204.00
618.324,2209.00
619.310,2238.00
620.298,2202.50
621.284,2213.50
622.270,2222.00
623.257,2220.50
624.243,2250.50
625.230,2234.00
626.216,2197.50
627.203,2202.00
628.188,2197.50
629.173,2133.50
630.160,2149.50
631.145,2127.00
632.131,2103.50
633.116,2148.50
634.102,2112.00
635.087,2174.50
636.071,2092.50
637.057,2107.50
638.041,2094.50
639.027,2079.00
640.011,2049.50
640.995,2060.50
641.980,1989.00
642.964,2025.50
643.949,2013.50
644.932,1971.50
645.918,2081.00
646.901,1994.50
647.886,2019.00
648.868,2060.50
649.851,1956.50
650.836,2026.50
651.818,1897.50
652.803,1943.00
653.785,1935.00
654.769,2006.00
655.751,1948.00
656.733,1924.50
657.717,1856.50
658.699,1934.00
659.683,1906.00
660.664,1837.00
661.648,1887.50
662.629,1888.50
663.611,1848.00
664.594,1790.00
665.575,1837.00
666.558,1895.00
667.539,1797.50
668.521,1859.50
669.502,1808.50
670.484,1863.50
671.465,1807.00
672.445,1809.50
673.427,1834.00
674.407,1829.50
675.390,1772.00
676.369,1760.50
677.351,1738.50
678.331,1755.00
679.312,1796.50
680.292,1769.50
681.271,1800.50
682.253,1738.00
683.232,1701.50
684.213,1732.50
685.192,1721.00
686.172,1793.00
687.151,1720.00
688.132,1737.00
689.110,1747.00
690.089,1721.00
691.069,1704.00
692.047,1695.50
693.027,1699.50
694.005,1739.50
694.985,1644.00
695.963,1684.50
696.943,1591.00
697.920,1648.00
698.898,1626.00
699.877,1565.00
700.854,1585.50
701.833,1591.50
702.810,1628.00
703.789,1554.00
704.766,1612.00
705.745,1637.50
706.721,1544.00
707.698,1557.50
708.676,1518.00
709.653,1617.00
710.631,1547.50
711.607,1572.00
712.585,1512.00
713.561,1565.50
714.539,1497.00
715.514,1574.00
716.492,1487.00
717.467,1494.50
718.443,1521.50
719.420,1499.00
720.395,1496.00
721.372,1469.50
722.347,1511.00
723.324,1498.00
724.298,1480.50
725.275,1430.50
726.250,1466.50
727.226,1455.50
728.200,1477.50
729.176,1452.50
730.151,1473.00
731.125,1482.50
732.100,1464.00
733.074,1429.00
734.050,1383.50
735.023,1380.50
735.999,1445.00
736.972,1416.50
737.947,1367.00
738.921,1396.00
739.896,1386.50
740.869,1420.00
741.841,1397.50
742.816,1395.00
743.789,1407.00
744.763,1403.50
745.736,1396.50
746.710,1408.00
747.682,1428.50
748.656,1368.00
749.628,1366.50
750.602,1357.00
751.574,1369.50
752.548,1366.00
753.519,1328.50
754.491,1321.50
755.464,1313.50
756.435,1337.50
757.408,1352.50
758.379,1413.00
759.352,1374.00
760.323,1298.50
761.296,1324.50
762.267,1309.00
763.239,1309.50
764.209,1321.00
765.182,1315.00
766.152,1260.00
767.124,1322.00
768.094,1314.00
769.064,1349.50
770.036,1267.50
771.005,1240.00
771.977,1280.00
772.947,1273.50
773.918,1268.50
774.887,1313.00
775.858,1260.00
776.827,1253.50
777.798,1257.50
778.767,1223.50
779.738,1264.00
780.707,1231.00
781.677,1213.00
782.646,1237.00
783.614,1195.00
784.584,1263.50
785.552,1256.50
786.522,1194.00
787.490,1237.00
788.460,1188.50
789.428,1237.00
790.397,1265.00
791.365,1151.50
792.334,1221.00
793.302,1189.50
794.271,1184.00
795.238,1129.00
796.207,1152.50
797.174,1147.50
798.143,1238.50
799.109,1197.50
800.076,1165.50
801.044,1203.00
802.011,1155.00
802.979,1141.00
803.945,1157.00
804.913,1140.00
805.879,1138.00
806.847,1122.00
807.813,1191.00
808.780,1180.50
809.746,1129.50
810.713,1099.00
811.678,1142.50
812.646,1125.00
813.611,1114.00
814.578,1112.50
815.543,1096.50
816.510,1085.00
817.474,1160.00
818.439,1120.50
819.405,1108.00
820.370,1131.50
821.336,1125.00
822.300,1044.50
823.266,1155.00
824.230,1132.50
825.196,1119.50
826.160,1138.00
827.126,1044.50
828.089,1062.50
829.055,1104.00
830.018,1127.50
830.983,1121.50
831.946,1155.00
832.911,1088.00
833.874,1088.00
834.837,1088.00
835.802,1143.50
836.765,1143.00
837.729,1102.00
838.691,1087.00
839.656,1151.50
840.618,1077.00
841.582,1139.00
842.544,1123.00
843.508,1145.00
844.470,1143.50
845.434,1134.00
846.395,1139.50
847.359,1059.50
848.320,1112.50
849.283,1154.00
850.245,1141.50
851.208,1161.00
852.169,1092.50
853.130,1121.50
854.092,1131.50
855.053,1190.00
856.016,1164.50
856.976,1152.50
857.938,1170.00
858.899,1135.50
859.861,1166.00
860.821,1191.00
861.783,1174.50
862.743,1207.00
863.704,1141.50
864.664,1231.50
865.626,1204.00
866.585,1182.50
867.546,1214.50
868.506,1155.50
869.467,1136.50
870.426,1177.00
871.387,1171.00
872.346,1153.00
873.304,1213.00
874.265,1185.50
875.223,1180.00
876.184,1143.50
877.142,1163.00
878.102,1195.50
879.060,1192.50
880.021,1280.50
880.978,1172.00
881.938,1193.50
882.896,1215.00
883.856,1230.00
884.813,1205.50
885.772,1187.50
886.730,1197.00
887.689,1176.00
888.646,1218.00
889.603,1175.00
890.562,1176.50
891.519,1244.50
892.477,1229.50
893.434,1202.00
894.392,1219.50
895.349,1241.50
896.307,1201.00
897.263,1166.50
898.221,1284.00
899.177,1201.00
900.135,1229.00
901.091,1255.00
902.048,1203.50
903.004,1167.50
903.961,1186.50
904.917,1212.50
905.874,1153.00
906.829,1203.50
907.784,1222.50
908.741,1165.50
909.696,1200.00
910.653,1216.50
911.607,1149.50
912.564,1256.00
913.518,1198.50
914.475,1264.00
915.429,1228.50
916.385,1204.00
917.339,1160.00
918.295,1183.00
919.249,1202.50
920.205,1181.00
921.158,1197.50
922.114,1204.50
923.067,1194.00
924.020,1212.50
924.976,1192.50
925.929,1278.50
926.884,1174.00
927.837,1151.00
928.791,1166.00
929.744,1231.00
930.699,1193.50
931.651,1204.50
932.606,1236.50
933.558,1191.50
934.512,1177.00
935.464,1195.00
936.418,1215.50
937.370,1162.50
938.322,1185.00
939.276,1222.00
940.227,1129.50
941.181,1159.00
942.132,1175.00
943.085,1188.00
944.036,1152.00
944.990,1177.50
945.941,1191.50
946.893,1200.00
947.844,1190.00
948.797,1169.00
949.747,1171.50
950.700,1190.00
951.650,1222.00
952.601,1173.50
953.553,1161.00
954.503,1172.50
955.455,1218.00
956.405,1149.50
957.356,1192.00
958.306,1149.00
959.258,1198.50
960.207,1090.50
961.158,1153.50
962.108,1176.50
963.059,1131.50
964.008,1243.00
964.959,1115.50
965.908,1191.50
966.856,1157.00
967.807,1113.50
968.756,1153.00
969.706,1160.50
970.654,1162.50
971.605,1083.00
972.553,1159.50
973.503,1169.00
974.451,1125.00
975.401,1140.50
976.348,1134.50
977.296,1108.00
978.246,1172.00
979.193,1065.50
980.142,1097.50
981.090,1134.00
982.039,1116.50
982.986,1167.00
983.935,1163.50
984.882,1152.00
985.830,1149.50
986.777,1096.00
987.725,1149.00
988.672,1076.00
989.618,1127.50
990.567,1116.00
991.513,1097.50
992.461,1151.50
993.407,1124.50
994.354,1146.00
995.300,1114.50
996.248,1115.00
997.193,1151.00
998.141,1147.50
999.086,1101.50
1000.031,1164.50
1000.978,1125.50
1001.924,1161.50
1002.870,1057.00
1003.815,1105.00
1004.762,1108.50
1005.707,1067.50
1006.653,1144.00
1007.598,1073.00
1008.542,1104.50
1009.488,1052.50
1010.432,1093.00
1011.378,1087.50
1012.322,1020.50
1013.268,1078.50
1014.212,1087.50
1015.157,1092.00
1016.101,1080.00
1017.046,1106.00
1017.990,1130.00
1018.933,1059.50
1019.878,1131.00
1020.821,1099.00
1021.766,1085.00
1022.709,1053.50
1023.654,1086.50
1024.596,1039.50
1025.541,1103.00
1026.483,1087.50
1027.425,1117.50
1028.370,1040.50
1029.312,1111.00
1030.256,1084.50
1031.198,1059.50
1032.141,1054.50
1033.083,1088.00
1034.027,1132.50
1034.968,1084.00
1035.910,1126.50
1036.853,1082.00
1037.794,1030.50
1038.738,1107.50
1039.679,1108.00
1040.621,1145.50
1041.562,1133.50
1042.503,1064.50
1043.446,1061.50
1044.386,1069.50
1045.329,1100.50
1046.269,1124.00
1047.211,1087.00
1048.151,1091.00
1049.093,1055.00
1050.033,1104.50
1050.973,1076.50
1051.915,1092.50
1052.854,1120.50
1053.796,1097.00
1054.735,1072.00
1055.677,1116.00
1056.616,1103.00
1057.555,1065.50
1058.496,1096.00
1059.435,1126.50
1060.376,1081.50
1061.315,1099.50
1062.255,1141.00
1063.194,1110.50
1064.132,1100.00
1065.073,1132.50
1066.011,1069.00
1066.951,1097.50
1067.889,1182.00
1068.829,1132.50
1069.767,1115.50
1070.705,1109.00
1071.644,1111.50
1072.582,1119.50
1073.521,1150.50
1074.459,1081.00
1075.398,1104.00
1076.335,1108.00
1077.272,1086.00
1078.211,1088.00
1079.148,1108.00
1080.087,1137.00
1081.023,1087.50
1081.962,1146.00
1082.898,1119.50
1083.835,1132.00
1084.773,1106.50
1085.709,1142.50
1086.647,1196.50
1087.583,1116.50
1088.519,1144.00
1089.457,1082.50
1090.392,1097.00
1091.330,1114.00
1092.266,1122.00
1093.203,1138.50
1094.138,1089.00
1095.073,1117.50
1096.010,1142.00
1096.945,1155.50
1097.882,1112.50
1098.817,1112.00
1099.752,1155.50
1100.688,1093.50
1101.623,1138.00
1102.559,1103.50
1103.493,1112.50
1104.430,1085.50
1105.364,1110.50
1106.298,1072.00
1107.234,1121.50
1108.167,1125.00
1109.094,1117.50
1110.019,1064.00
1110.945,1096.50
1111.869,1063.50
1112.795,1079.50
1113.720,1059.50
1114.646,1078.50
1115.571,1043.50
1116.495,980.00
1117.420,1063.50
1118.345,1013.00
1119.270,1044.00
1120.195,1028.00
1121.118,990.50
1122.042,1016.00
1122.967,939.50
1123.891,917.00
1124.816,1048.00
1125.738,1012.00
1126.663,1005.50
1127.587,981.50
1128.511,950.50
1129.435,980.50
1130.357,986.00
1131.280,948.50
1132.204,982.00
1133.128,960.00
1134.051,909.00
1134.972,950.50
1135.896,904.50
1136.819,929.50
1137.742,946.00
1138.665,924.00
1139.586,934.50
1140.509,933.50
1141.431,905.00
1142.354,894.50
1143.276,905.50
1144.197,857.50
1145.119,896.50
1146.041,868.00
1146.964,852.50
1147.885,900.50
1148.806,832.00
1149.727,849.00
1150.649,900.00
1151.571,832.50
1152.492,885.50
1153.412,816.00
1154.333,837.00
1155.254,850.50
1156.175,882.00
1157.095,864.00
1158.016,841.00
1158.936,788.50
1159.857,801.50
1160.778,821.00
1161.697,861.50
1162.617,840.00
1163.537,873.50
1164.458,798.50
1165.376,819.50
1166.296,845.00
1167.216,839.00
1168.136,856.00
1169.056,839.00
1169.974,839.50
1170.893,795.50
1171.813,773.00
1172.732,786.50
1173.650,816.50
1174.569,770.50
1175.488,800.00
1176.407,821.50
1177.326,806.50
1178.243,827.50
1179.161,811.50
1180.080,776.50
1180.999,751.50
1181.915,783.00
1182.834,812.00
1183.752,801.50
1184.670,736.50
1185.586,776.00
1186.504,781.00
1187.422,796.00
1188.340,801.50
1189.258,768.00
1190.173,775.00
1191.091,792.50
1192.008,731.00
1192.926,780.50
1193.841,732.00
1194.758,794.00
1195.675,752.00
1196.592,743.50
1197.507,778.50
1198.424,758.00
1199.340,752.00
1200.257,793.00
1201.172,750.50
1202.088,761.50
1203.004,734.50
1203.920,733.00
1204.835,794.50
1205.750,725.50
1206.666,788.50
1207.582,777.00
1208.496,723.50
1209.412,742.50
1210.327,785.00
1211.243,761.00
1212.156,724.50
1213.071,740.00
1213.986,720.50
1214.901,752.50
1215.814,731.50
1216.729,755.50
1217.644,752.50
1218.559,767.50
1219.471,721.00
1220.386,750.00
1221.300,730.50
1222.213,757.00
1223.127,759.00
1224.041,764.00
1224.955,717.50
1225.867,736.50
1226.781,747.00
1227.694,748.00
1228.608,749.00
1229.520,739.50
1230.433,693.00
1231.346,714.50
1232.260,718.00
1233.171,698.00
1234.084,702.50
1234.997,729.50
1235.908,698.00
1236.821,756.00
1237.733,705.00
1238.646,735.50
1239.556,765.50
1240.469,753.50
1241.381,766.00
1242.293,715.50
1243.203,739.50
1244.115,704.50
1245.027,779.50
1245.937,797.50
1246.849,758.50
1247.761,770.00
1248.672,725.00
1249.582,767.50
1250.493,728.00
1251.404,772.00
1252.313,797.00
1253.225,799.00
1254.135,676.50
1255.046,733.00
1255.955,751.00
1256.866,769.00
1257.777,774.50
1258.685,759.00
1259.596,759.00
1260.506,735.50
1261.416,808.50
1262.324,777.50
1263.234,748.00
1264.144,732.50
1265.052,772.00
1265.962,737.50
1266.872,779.00
1267.779,781.50
1268.689,719.00
1269.598,768.50
1270.507,743.50
1271.415,758.00
1272.324,734.00
1273.233,734.50
1274.140,772.00
1275.048,733.00
1275.957,762.50
1276.864,769.50
1277.772,800.00
1278.681,807.50
1279.587,767.50
1280.496,728.50
1281.404,742.50
1282.312,815.50
1283.218,815.00
1284.126,783.00
1285.033,794.00
1285.939,791.00
1286.847,808.50
1287.754,812.00
1288.660,756.50
1289.567,726.50
1290.474,789.50
1291.380,734.50
1292.286,776.00
1293.193,764.00
1294.098,797.50
1295.005,764.00
1295.912,776.50
1296.816,798.50
1297.723,777.00
1298.629,805.00
1299.534,776.00
1300.440,771.00
1301.346,743.50
1302.250,760.50
1303.156,780.50
1304.062,740.00
1304.966,783.00
1305.871,713.50
1306.777,761.00
1307.680,749.00
1308.586,732.50
1309.491,805.50
1310.394,791.00
1311.299,773.00
1312.204,732.00
1313.107,750.50
1314.012,788.50
1314.917,760.00
1315.819,778.50
1316.724,795.00
1317.628,772.00
1318.531,745.00
1319.435,757.50
1320.339,721.00
1321.241,766.00
1322.145,728.50
1323.049,742.00
1323.951,745.50
1324.854,718.00
1325.756,754.50
1326.659,736.50
1327.563,765.00
1328.464,729.00
1329.367,719.50
1330.271,776.00
1331.172,737.50
1332.074,720.00
1332.977,759.00
1333.878,677.50
1334.781,678.00
1335.683,727.50
1336.584,651.00
1337.486,708.00
1338.387,683.00
1339.289,722.00
1340.191,694.00
1341.091,712.00
1341.993,763.50
1342.895,677.00
1343.794,732.00
1344.696,676.00
1345.596,705.00
1346.497,744.50
1347.398,734.00
1348.298,708.50
1349.199,680.00
1350.100,687.00
1350.999,727.50
1351.900,679.50
1352.799,659.00
1353.699,687.00
1354.600,689.50
1355.499,688.00
1356.399,683.50
1357.297,678.50
1358.198,692.50
1359.098,668.50
1359.996,692.50
1360.896,673.50
1361.796,698.50
1362.694,646.50
1363.593,660.50
1364.491,685.00
1365.391,674.50
1366.290,671.50
1367.187,709.00
1368.086,648.50
1368.984,620.00
1369.883,659.00
1370.782,670.00
1371.679,662.00
1372.577,656.00
1373.474,661.50
1374.373,668.50
1375.269,617.00
1376.168,667.50
1377.066,646.00
1377.962,671.00
1378.860,630.00
1379.756,625.50
1380.654,664.50
1381.552,652.50
1382.448,578.00
1383.346,630.00
1384.241,642.00
1385.139,655.50
1386.036,621.50
1386.931,621.00
1387.829,603.00
1388.724,594.00
1389.621,634.00
1390.516,693.50
1391.413,636.00
1392.309,661.00
1393.204,653.50
1394.101,634.00
1394.995,637.00
1395.891,678.00
1396.786,692.50
1397.682,650.00
1398.578,681.50
1399.472,647.50
1400.368,621.00
1401.262,621.50
1402.158,644.00
1403.051,648.50
1403.947,545.00
1404.840,596.00
1405.736,605.50
1406.631,607.00
1407.524,602.50
1408.419,617.00
1409.312,632.00
1410.207,645.50
1411.100,613.00
1411.995,584.00
1412.888,594.00
1413.782,639.00
1414.675,605.00
1415.569,649.50
1416.463,555.00
1417.355,558.00
1418.249,607.50
1419.141,623.50
1420.035,620.00
1420.927,585.00
1421.821,589.00
1422.713,651.00
1423.606,599.50
1424.498,617.00
1425.391,612.50
1426.282,624.50
1427.175,629.00
1428.068,599.00
1428.960,625.50
1429.852,555.50
1430.743,594.00
1431.636,599.50
1432.527,522.00
1433.419,605.00
1434.310,586.50
1435.202,548.00
1436.092,578.00
1436.984,595.50
1437.875,587.50
1438.767,585.00
1439.657,633.50
1440.548,562.00
1441.438,562.50
1442.330,569.50
1443.219,599.00
1444.111,606.50
1445.000,567.50
1445.891,589.50
1446.781,652.50
1447.672,622.00
1448.561,612.00
1449.452,605.50
1450.340,583.00
1451.231,568.50
1452.120,560.00
1453.010,575.00
1453.899,576.00
1454.789,612.00
1455.677,576.00
1456.568,579.50
1457.456,602.00
1458.346,580.00
1459.234,635.00
1460.123,593.50
1461.011,589.00
1461.901,499.50
1462.788,589.50
1463.678,575.50
1464.565,551.00
1465.454,555.50
1466.342,570.00
1467.231,591.50
1468.118,624.00
1469.006,571.50
1469.893,590.50
1470.782,542.00
1471.669,583.00
1472.557,564.50
1473.444,549.50
1474.330,547.00
1475.218,591.50
1476.105,552.50
1476.993,577.00
1477.879,573.50
1478.767,536.00
1479.652,589.00
1480.540,579.50
1481.426,601.00
1482.313,569.50
1483.199,566.50
1484.086,560.50
1484.972,581.00
1485.857,594.00
1486.744,518.50
1487.629,599.50
1488.516,524.00
1489.401,585.00
1490.287,551.50
1491.172,573.50
1492.058,595.50
1492.943,584.50
1493.828,613.50
1494.714,550.00
1495.598,536.00
1496.484,593.50
1497.368,570.50
1498.254,571.50
1499.138,559.50
1500.022,570.00
1500.907,502.50
1501.791,551.50
1502.676,532.50
1503.560,569.50
1504.445,552.00
1505.328,517.00
1506.211,488.00
1507.096,527.00
1507.979,575.00
1508.864,557.50
1509.747,551.50
1510.631,595.00
1511.514,514.50
1512.397,499.00
1513.281,534.50
1514.163,483.00
1515.047,582.50
1515.930,532.00
1516.812,543.00
1517.696,537.50
1518.578,550.50
1519.461,532.50
1520.343,461.00
1521.225,573.00
1522.108,555.50
1522.990,532.50
1523.873,480.50
1524.754,547.00
1525.635,526.00
1526.518,536.50
1527.399,592.00
1528.282,506.00
1529.163,494.50
1530.044,517.00
1530.926,537.50
1531.807,522.00
1532.689,518.00
1533.569,511.00
1534.450,569.00
1535.332,477.50
1536.212,574.00
1537.092,533.50
1537.974,568.50
1538.854,553.00
1539.735,547.00
1540.615,509.00
1541.495,588.50
1542.376,542.00
1543.255,530.00
1544.135,559.00
1545.016,550.50
1545.895,471.50
1546.774,526.00
1547.655,551.50
1548.534,534.00
1549.414,546.00
1550.293,559.50
1551.172,527.50
1552.052,535.00
1552.930,541.00
1553.809,524.50
1554.689,513.00
1555.567,512.00
1556.445,555.50
1557.325,545.50
1558.203,506.00
1559.080,536.00
1559.960,521.00
1560.838,461.00
1561.715,539.00
1562.594,514.00
1563.472,571.50
1564.349,489.00
1565.228,492.00
1566.105,532.50
1566.982,528.50
1567.861,493.50
1568.738,538.50
1569.615,507.00
1570.493,538.50
1571.370,563.50
1572.246,528.50
1573.124,591.00
1574.000,482.50
1574.877,528.50
1575.755,535.50
1576.631,510.50
1577.507,475.50
1578.384,506.00
1579.260,542.00
1580.136,540.50
1581.011,524.00
1581.889,511.00
1582.764,481.50
1583.639,495.00
1584.516,553.00
1585.391,524.00
1586.266,496.00
1587.143,513.00
1588.018,516.50
1588.893,540.50
1589.768,522.50
1590.644,538.00
1591.519,523.50
1592.393,521.00
1593.269,513.50
1594.143,481.00
1595.018,490.00
1595.892,573.00
1596.767,489.50
1597.641,542.50
1598.515,563.50
1599.391,475.00
1600.264,556.50
1601.138,510.50
1602.011,546.50
1602.886,548.50
1603.760,476.50
1604.633,542.00
1605.508,512.50
1606.381,487.50
1607.254,516.00
1608.127,516.50
1609.001,548.50
1609.874,559.50
1610.746,503.00
1611.619,538.00
1612.493,497.50
1613.365,495.50
1614.238,489.00
1615.110,496.00
1615.984,582.50
1616.855,571.00
1617.727,511.00
1618.599,545.00
1619.473,493.50
1620.344,486.50
1621.216,548.00
1622.087,531.00
1622.960,505.00
1623.832,485.50
1624.703,515.50
1625.574,468.50
1626.445,528.50
1627.317,498.00
1628.188,506.00
1629.059,529.50
1629.930,467.50
1630.802,511.50
1631.672,513.00
1632.543,511.50
1633.413,473.50
1634.283,527.50
1635.155,526.00
1636.025,525.50
1636.895,571.50
1637.765,494.50
1638.636,442.50
1639.506,550.50
1640.376,531.50
1641.245,534.00
1642.114,570.00
1642.985,490.50
1643.855,511.00
1644.724,483.00
1645.593,512.00
1646.462,545.50
1647.333,490.50
1648.201,525.50
1649.070,540.50
1649.939,505.50
1650.807,482.00
1651.676,485.00
1652.546,470.00
1653.414,517.00
1654.282,570.50
1655.150,447.50
1656.018,501.50
1656.888,494.50
1657.756,529.00
1658.623,523.00
1659.491,502.00
1660.359,448.50
1661.226,522.50
1662.095,473.50
1662.962,449.50
1663.830,492.50
1664.697,498.00
1665.564,553.50
1666.431,566.50
1667.297,552.00
1668.166,523.00
1669.033,448.00
1669.899,485.50
1670.766,486.50
1671.632,509.50
1672.499,479.50
1673.367,497.50
1674.233,489.50
1675.099,485.50
1675.965,515.00
1676.831,478.00
1677.696,532.00
1678.562,541.50
1679.430,493.00
1680.295,441.00
1681.161,499.50
1682.026,466.50
1682.891,524.50
1683.756,490.00
1684.621,529.00
1685.486,463.00
1686.353,488.00
1687.218,450.50
1688.083,556.50
1688.947,492.00
1689.812,480.50
1690.677,488.50
1691.541,428.50
1692.405,458.00
1693.269,483.00
1694.135,472.00
1694.999,491.50
1695.863,454.50
1696.727,512.50
1697.591,474.50
1698.455,526.50
1699.318,506.50
1700.182,455.00
1701.045,460.50
1701.909,484.50
1702.772,498.50
1703.637,458.00
1704.500,505.00
1705.363,442.50
1706.226,469.00
1707.089,522.00
1707.951,477.50
1708.814,533.50
1709.677,472.50
1710.539,514.50
1711.402,520.00
1712.264,502.00
1713.126,473.00
1713.988,468.00
1714.852,435.00
1715.714,481.00
1716.576,436.50
1717.438,481.50
1718.299,505.50
1719.161,485.00
1720.023,537.00
1720.884,501.00
1721.745,512.00
1722.607,469.50
1723.468,487.50
1724.329,499.50
1725.190,457.50
1726.051,531.50
1726.912,506.00
1727.772,466.50
1728.633,515.50
1729.494,538.50
1730.354,470.00
1731.214,476.00
1732.075,450.00
1732.935,468.00
1733.797,500.00
1734.657,469.00
1735.517,462.00
1736.377,497.00
1737.237,494.00
1738.096,497.50
1738.956,489.50
1739.816,494.50
1740.675,497.50
1741.534,458.50
1742.394,445.50
1743.253,458.50
1744.112,485.00
1744.971,394.00
1745.830,510.00
1746.689,450.50
1747.547,455.50
1748.406,458.00
1749.265,460.00
1750.123,518.00
1750.982,504.50
1751.840,460.00
1752.698,474.00
1753.556,458.50
1754.414,460.00
1755.272,498.00
1756.130,486.50
1756.988,448.00
1757.846,427.00
1758.703,493.50
1759.559,469.50
1760.417,439.50
1761.274,452.00
1762.131,425.00
1762.989,452.00
1763.846,398.50
1764.703,476.50
1765.560,451.00
1766.417,456.50
1767.273,433.50
1768.130,478.50
1768.987,493.00
1769.843,467.50
1770.700,440.50
1771.556,419.00
1772.412,463.00
1773.268,485.50
1774.125,445.00
1774.980,435.50
1775.836,446.50
1776.692,507.00
1777.546,482.00
1778.402,464.50
1779.257,452.00
1780.113,412.50
1780.968,476.00
1781.824,445.50
1782.679,465.50
1783.534,495.00
1784.389,422.50
1785.244,459.00
1786.099,493.50
1786.954,474.50
1787.808,509.50
1788.661,533.00
1789.516,470.00
1790.370,504.50
1791.225,477.50
1792.079,442.50
1792.933,507.50
1793.787,480.50
1794.641,486.00
1795.495,481.50
1796.349,512.00
1797.201,453.50
1798.055,483.50
1798.908,472.00
1799.762,488.00
1800.615,465.50
1801.469,478.50
1802.322,468.00
1803.175,449.00
1804.028,506.00
1804.880,431.00
1805.732,430.50
1806.585,461.00
1807.438,504.50
1808.291,496.00
1809.143,483.50
1809.996,484.50
1810.846,426.00
1811.699,444.00
1812.551,426.00
1813.403,478.50
1814.255,402.50
1815.107,475.50
1815.959,427.50
1816.809,499.00
1817.661,490.50
1818.512,442.00
1819.364,476.50
1820.215,432.50
1821.067,432.00
1821.918,481.00
1822.768,472.00
1823.619,470.00
1824.470,470.00
1825.321,492.00
1826.172,461.00
1827.021,415.50
1827.871,497.00
1828.722,392.50
1829.572,487.50
1830.423,434.50
1831.273,462.00
1832.122,477.50
1832.972,471.50
1833.822,428.00
1834.672,424.00
1835.522,438.00
1836.370,444.50
1837.220,444.50
1838.070,441.00
1838.919,460.00
1839.769,426.50
1840.616,456.50
1841.466,492.50
1842.315,435.50
1843.164,429.50
1844.013,458.50
1844.860,410.50
1845.709,464.50
1846.558,451.50
1847.407,464.50
1848.254,451.00
1849.102,514.50
1849.951,484.00
1850.799,470.50
1851.648,433.00
1852.494,484.00
1853.342,413.00
1854.190,475.50
1855.038,498.00
1855.884,463.00
1856.732,394.50
1857.580,447.50
1858.428,452.50
1859.273,464.50
1860.121,497.50
1860.968,437.00
1861.816,452.00
1862.661,462.00
1863.508,427.50
1864.355,449.50
1865.202,463.50
1866.047,445.00
1866.894,464.00
1867.741,426.00
1868.586,397.50
1869.432,459.00
1870.279,456.50
1871.125,439.50
1871.970,404.50
1872.816,466.50
1873.662,489.50
1874.506,471.50
1875.352,451.00
1876.198,452.50
1877.044,437.50
1877.888,451.50
1878.734,446.00
1879.579,487.00
1880.423,518.00
1881.268,448.50
1882.113,494.00
1882.959,476.00
1883.802,461.50
1884.647,438.50
1885.492,418.50
1886.335,384.00
1887.180,465.50
1888.025,433.50
1888.867,436.00
1889.712,458.00
1890.556,485.50
1891.399,434.50
1892.243,403.50
1893.087,482.00
1893.930,443.00
1894.774,450.00
1895.618,416.50
1896.460,408.00
1897.304,460.50
1898.147,505.00
1898.989,444.50
1899.833,417.50
1900.676,460.00
1901.518,429.50
1902.361,446.00
1903.202,500.00
1904.046,474.50
1904.889,434.50
1905.730,467.50
1906.573,447.00
1907.415,460.50
1908.256,447.00
1909.099,437.50
1909.941,440.50
1910.782,473.00
1911.624,506.00
1912.465,447.00
1913.307,387.50
1914.149,446.00
1914.989,484.00
1915.831,479.50
1916.671,417.50
1917.513,422.00
1918.355,499.00
1919.195,422.50
1920.036,459.50
1920.876,478.50
1921.717,438.50
1922.558,456.00
1923.398,423.50
1924.239,443.50
1925.078,424.50
1925.919,457.00
1926.760,457.00
1927.599,448.50
1928.440,451.50
1929.279,404.00
1930.119,427.00
1930.958,421.00
1931.798,523.00
1932.638,357.00
1933.477,388.00
1934.317,421.50
1935.155,417.00
1935.995,474.00
1936.833,437.00
1937.673,433.50
1938.512,444.00
1939.350,370.00
1940.190,472.00
1941.027,447.50
1941.867,455.50
1942.704,449.50
1943.543,407.50
1944.381,460.00
1945.220,428.00
1946.057,390.00
1946.896,349.00
1947.733,477.00
1948.572,439.50
1949.408,434.50
1950.247,439.00
1951.085,456.50
1951.922,409.50
1952.760,474.00
1953.597,407.50
1954.435,410.50
1955.271,427.50
1956.109,437.50
1956.945,471.50
1957.783,435.50
1958.619,418.00
1959.456,451.50
1960.292,426.50
1961.129,458.00
1961.965,415.00
1962.802,486.00
1963.638,468.50
1964.475,455.50
1965.310,430.00
1966.145,418.50
1966.982,430.50
1967.817,475.00
1968.654,388.50
1969.489,438.00
1970.325,472.50
1971.160,414.50
1971.996,455.50
1972.831,428.00
1973.667,482.50
1974.501,501.00
1975.337,461.50
1976.171,462.00
1977.006,425.50
1977.841,468.00
1978.675,432.50
1979.511,481.50
1980.345,439.50
1981.180,430.00
1982.014,436.50
1982.849,495.50
1983.682,412.00
1984.516,467.00
1985.351,441.00
1986.184,438.00
1987.019,400.50
1987.852,450.50
1988.687,437.00
1989.519,458.00
1990.352,467.50
1991.187,418.50
1992.019,446.50
1992.854,470.00
1993.686,465.50
1994.518,484.00
1995.352,449.00
1996.185,449.00
1997.019,468.00
1997.851,491.50
1998.682,441.00
1999.516,483.50
2000.348,461.00

<< BACKGROUND SPECTRUM >>
Wave[dcm-1],No44
96.716,2580.00
97.759,2382.00
98.802,2270.00
99.846,2957.00
100.886,2558.00
101.929,2756.00
102.972,2744.00
104.015,2649.00
105.057,2763.00
106.100,2225.00
107.142,2632.00
108.184,3016.00
109.226,2894.00
110.268,3027.00
111.310,3315.00
112.352,2905.00
113.393,2957.00
114.435,2853.00
115.476,3034.00
116.517,3119.00
117.558,2602.00
118.599,2946.00
119.640,3231.00
120.681,3237.00
121.722,3202.00
122.762,2900.00
123.803,2744.00
124.843,3111.00
125.883,3366.00
126.923,3585.00
127.963,3316.00
129.001,3625.00
130.041,4007.00
131.080,3280.00
132.120,3135.00
133.159,3552.00
134.199,3619.00
135.238,3154.00
136.277,3568.00
137.316,3699.00
138.355,3592.00
139.393,3222.00
140.432,3369.00
141.470,3473.00
142.509,3170.00
143.547,3752.00
144.585,2980.00
145.623,3422.00
146.661,3114.00
147.699,3529.00
148.736,3589.00
149.774,3157.00
150.811,3529.00
151.849,3916.00
152.886,3411.00
153.923,3666.00
154.960,3118.00
155.997,3907.00
157.034,4925.00
158.072,3610.00
159.109,4096.00
160.145,4225.00
161.182,3239.00
162.218,3539.00
163.254,3389.00
164.290,3256.00
165.326,3970.00
166.361,3891.00
167.397,3550.00
168.432,3747.00
169.468,3440.00
170.503,3677.00
171.538,3378.00
172.573,3749.00
173.608,3219.00
174.643,3784.00
175.677,3687.00
176.712,3793.00
177.746,3807.00
178.781,3311.00
179.815,2700.00
180.849,3766.00
181.883,3295.00
182.917,2834.00
183.951,3151.00
184.984,3864.00
186.020,3312.00
187.053,3655.00
188.087,3244.00
189.120,3494.00
190.153,3752.00
191.186,3709.00
192.219,3782.00
193.251,3677.00
194.284,3817.00
195.317,3837.00
196.349,10619.00
197.381,3440.00
198.413,3511.00
199.445,3311.00
200.477,3551.00
201.509,3595.00
202.543,3537.00
203.575,3955.00
204.606,3687.00
205.637,5266.00
206.669,3150.00
207.700,3707.00
208.731,3579.00
209.762,3194.00
210.792,3280.00
211.823,3720.00
212.854,3254.00
213.884,4383.00
214.914,3689.00
215.947,3561.00
216.977,3709.00
218.007,3584.00
219.037,3835.00
220.066,3387.00
221.096,3842.00
222.126,3195.00
223.155,3436.00
224.184,3730.00
225.214,4259.00
226.245,3928.00
227.274,3306.00
228.302,3705.00
229.331,3712.00
230.360,3426.00
231.388,3404.00
232.417,3241.00
233.445,3642.00
234.473,3448.00
235.501,3772.00
236.531,3753.00
237.559,3715.00
238.587,3333.00
239.614,3289.00
240.642,3653.00
241.669,3699.00
242.696,3703.00
243.724,3674.00
244.753,4055.00
245.780,3427.00
246.806,3239.00
247.833,3615.00
248.860,3476.00
249.886,3598.00
250.913,3295.00
251.939,3539.00
252.967,3523.00
253.993,3549.00
255.019,3912.00
256.045,3602.00
257.070,4038.00
258.096,3306.00
259.121,3711.00
260.147,3545.00
261.174,3501.00
262.199,3413.00
263.224,3605.00
264.249,3871.00
265.274,4107.00
266.298,3531.00
267.323,3655.00
268.349,3879.00
269.374,3258.00
270.398,3271.00
271.422,3667.00
272.446,3310.00
273.470,3175.00
274.496,3804.00
275.519,3755.00
276.543,3859.00
277.566,3956.00
278.589,3855.00
279.613,3749.00
280.636,3723.00
281.661,3854.00
282.684,3900.00
283.706,3918.00
284.729,4166.00
285.751,3006.00
286.774,4088.00
287.798,3440.00
288.820,3024.00
289.842,3320.00
290.864,3396.00
291.886,3652.00
292.910,3484.00
293.932,4104.00
294.953,3517.00
295.974,3548.00
296.996,3704.00
298.017,3552.00
299.040,3428.00
300.061,3651.00
301.082,3396.00
302.102,3240.00
303.123,3844.00
304.143,3568.00
305.166,3510.00
306.186,3804.00
307.206,3353.00
308.226,3717.00
309.246,3145.00
310.268,3900.00
311.288,3568.00
312.307,3234.00
313.327,3547.00
314.346,3803.00
315.368,3077.00
316.387,3656.00
317.406,3664.00
318.425,3594.00
319.443,3463.00
320.464,3162.00
321.483,4045.00
322.501,3388.00
323.520,4005.00
324.538,3462.00
325.558,4024.00
326.576,3654.00
327.594,3545.00
328.612,3411.00
329.629,3129.00
330.649,3836.00
331.666,3568.00
332.684,3159.00
333.701,3726.00
334.718,3226.00
335.737,3432.00
336.754,3709.00
337.771,3811.00
338.787,3200.00
339.806,3501.00
340.823,3441.00
341.839,3591.00
342.855,3486.00
343.871,3592.00
344.889,3323.00
345.905,3855.00
346.921,3762.00
347.937,4376.00
348.954,4145.00
349.970,3691.00
350.985,3571.00
352.000,3124.00
353.017,3781.00
354.032,3119.00
355.047,3826.00
356.062,3482.00
357.077,3440.00
358.093,4026.00
359.108,3727.00
360.122,3665.00
361.136,3509.00
362.152,3977.00
363.166,3285.00
364.180,3162.00
365.194,3959.00
366.210,3423.00
367.223,3358.00
368.237,3446.00
369.250,3564.00
370.265,3378.00
371.278,3946.00
372.291,3725.00
373.304,3029.00
374.319,3760.00
375.332,3833.00
376.344,4033.00
377.357,3455.00
378.371,3863.00
379.383,3345.00
380.395,4350.00
381.407,4130.00
382.421,3418.00
383.433,3423.00
384.445,3374.00
385.456,3536.00
386.470,3133.00
387.481,3968.00
388.492,3902.00
389.505,3284.00
390.516,3968.00
391.527,3510.00
392.538,3497.00
393.551,3725.00
394.561,4329.00
395.572,3716.00
396.582,3596.00
397.594,3759.00
398.604,3426.00
399.614,3643.00
400.624,3409.00
401.636,3456.00
402.646,3543.00
403.655,3213.00
404.667,3374.00
405.676,3374.00
406.685,4300.00
407.694,3887.00
408.705,3062.00
409.714,3173.00
410.723,3300.00
411.734,3316.00
412.742,3398.00
413.751,3585.00
414.759,3707.00
415.769,3585.00
416.777,3816.00
417.785,3525.00
418.795,3387.00
419.803,3618.00
420.811,3334.00
421.818,4000.00
422.828,3498.00
423.835,3431.00
424.842,3444.00
425.852,3320.00
426.859,3720.00
427.866,3776.00
428.874,3598.00
429.881,3473.00
430.888,3809.00
431.894,3629.00
432.902,3569.00
433.909,4516.00
434.915,3651.00
435.923,4266.00
436.929,3107.00
437.935,3542.00
438.942,3428.00
439.948,3563.00
440.953,4096.00
441.959,3175.00
442.966,3985.00
443.971,3708.00
444.976,3162.00
445.983,3648.00
446.988,3495.00
447.993,3991.00
448.999,3652.00
450.004,3552.00
451.008,3408.00
452.014,4059.00
453.019,3815.00
454.023,3237.00
455.029,3233.00
456.032,4041.00
457.036,3503.00
458.042,2927.00
459.045,3430.00
460.049,3807.00
461.052,4086.00
462.057,3738.00
463.060,4022.00
464.063,3417.00
465.068,3462.00
466.071,3289.00
467.073,3897.00
468.078,3184.00
469.080,3102.00
470.082,3552.00
471.087,3447.00
472.089,3586.00
473.091,3792.00
474.095,4032.00
475.096,3485.00
476.098,3411.00
477.101,3780.00
478.103,3293.00
479.104,4221.00
480.107,3470.00
481.108,3043.00
482.109,4161.00
483.112,4166.00
484.113,3750.00
485.114,3781.00
486.116,3563.00
487.117,3867.00
488.117,3588.00
489.119,3697.00
490.119,3738.00
491.121,3222.00
492.121,3075.00
493.121,2945.00
494.123,3615.00
495.122,3636.00
496.122,3557.00
497.123,4510.00
498.122,3355.00
499.121,3642.00
500.122,3580.00
501.121,3171.00
502.120,3181.00
503.121,3274.00
504.119,3269.00
505.118,3824.00
506.118,3298.00
507.117,3287.00
508.115,3725.00
509.115,3539.00
510.113,3105.00
511.112,3833.00
512.110,3487.00
513.108,3766.00
514.107,3887.00
515.105,3798.00
516.102,3999.00
517.101,3499.00
518.098,3600.00
519.095,4075.00
520.094,3456.00
521.091,3430.00
522.089,3794.00
523.086,3380.00
524.082,3743.00
525.081,3649.00
526.077,4764.00
527.073,4581.00
528.071,3536.00
529.067,3414.00
530.064,3402.00
531.060,3141.00
532.056,3426.00
533.053,3892.00
534.048,3825.00
535.044,3552.00
536.041,3722.00
537.036,3597.00
538.030,3725.00
539.027,3846.00
540.022,3160.00
541.019,3493.00
542.013,3802.00
543.007,3655.00
544.004,3505.00
544.998,3549.00
545.994,4062.00
546.988,3964.00
547.981,3426.00
548.977,4218.00
549.971,3698.00
550.964,3813.00
551.960,3672.00
552.953,3597.00
553.948,3840.00
554.941,3409.00
555.934,3231.00
556.929,3793.00
557.922,3346.00
558.916,3821.00
559.909,4078.00
560.901,3631.00
561.895,3623.00
562.888,3252.00
563.880,3726.00
564.874,3912.00
565.865,3810.00
566.859,3203.00
567.851,4056.00
568.842,3464.00
569.836,3577.00
570.827,3249.00
571.820,3619.00
572.811,3760.00
573.802,3544.00
574.795,3322.00
575.786,3870.00
576.779,3727.00
577.769,3212.00
578.760,3701.00
579.752,3261.00
580.742,3400.00
581.735,3687.00
582.725,3332.00
583.714,3830.00
584.706,3262.00
585.696,3512.00
586.688,3778.00
587.677,3477.00
588.667,3737.00
589.658,3509.00
590.647,3640.00
591.638,3605.00
592.627,3386.00
593.616,3103.00
594.607,3703.00
595.595,3512.00
596.586,3211.00
597.574,3856.00
598.562,3927.00
599.553,3186.00
600.541,3581.00
601.531,3663.00
602.519,3433.00
603.508,3663.00
604.496,3741.00
605.484,3622.00
606.473,3535.00
607.460,3430.00
608.450,3475.00
609.437,3762.00
610.424,3881.00
611.413,3118.00
612.400,3280.00
613.388,3603.00
614.375,3416.00
615.361,3435.00
616.350,3313.00
617.336,8493.00
618.324,3903.00
619.310,3353.00
620.298,3210.00
621.284,3679.00
622.270,3254.00
623.257,3598.00
624.243,3574.00
625.230,3760.00
626.216,3566.00
627.203,3888.00
628.188,3428.00
629.173,3408.00
630.160,3281.00
631.145,2720.00
632.131,3377.00
633.116,3161.00
634.102,3645.00
635.087,3783.00
636.071,3792.00
637.057,3330.00
638.041,3123.00
639.027,3231.00
640.011,3418.00
640.995,3237.00
641.980,3329.00
642.964,3406.00
643.949,3931.00
644.932,2812.00
645.918,3306.00
646.901,3518.00
647.886,3329.00
648.868,3379.00
649.851,3205.00
650.836,2916.00
651.818,3240.00
652.803,3734.00
653.785,3507.00
654.769,3654.00
655.751,3649.00
656.733,3905.00
657.717,3068.00
658.699,3551.00
659.683,3313.00
660.664,3191.00
661.648,3370.00
662.629,3345.00
663.611,3347.00
664.594,3147.00
665.575,3095.00
666.558,3441.00
667.539,3150.00
668.521,3367.00
669.502,3398.00
670.484,3351.00
671.465,3274.00
672.445,3472.00
673.427,3215.00
674.407,3168.00
675.390,3555.00
676.369,3368.00
677.351,2985.00
678.331,3647.00
679.312,3405.00
680.292,3263.00
681.271,2957.00
682.253,3554.00
683.232,3079.00
684.213,3239.00
685.192,3682.00
686.172,3930.00
687.151,3341.00
688.132,3426.00
689.110,3542.00
690.089,3705.00
691.069,2888.00
692.047,2807.00
693.027,2957.00
694.005,3413.00
694.985,4035.00
695.963,3504.00
696.943,3250.00
697.920,2999.00
698.898,3795.00
699.877,3650.00
700.854,3296.00
701.833,3253.00
702.810,3734.00
703.789,3478.00
704.766,4445.00
705.745,3876.00
706.721,3199.00
707.698,3765.00
708.676,3084.00
709.653,3242.00
710.631,3712.00
711.607,3362.00
712.585,3403.00
713.561,3085.00
714.539,3960.00
715.514,3244.00
716.492,3093.00
717.467,3810.00
718.443,3018.00
719.420,3709.00
720.395,3781.00
721.372,3539.00
722.347,3629.00
723.324,3209.00
724.298,3382.00
725.275,3154.00
726.250,3291.00
727.226,3179.00
728.200,2971.00
729.176,3281.00
730.151,3616.00
731.125,3779.00
732.100,2947.00
733.074,3347.00
734.050,3242.00
735.023,3056.00
735.999,3226.00
736.972,3198.00
737.947,3738.00
738.921,3405.00
739.896,3569.00
740.869,3432.00
741.841,3276.00
742.816,3800.00
743.789,3078.00
744.763,3114.00
745.736,3308.00
746.710,3188.00
747.682,3052.00
748.656,3305.00
749.628,3269.00
750.602,3300.00
751.574,3393.00
752.548,4213.00
753.519,3486.00
754.491,2926.00
755.464,3177.00
756.435,4006.00
757.408,3578.00
758.379,3400.00
759.352,2861.00
760.323,3039.00
761.296,3269.00
762.267,3348.00
763.239,3069.00
764.209,3575.00
765.182,4459.00
766.152,3674.00
767.124,3096.00
768.094,3082.00
769.064,3467.00
770.036,2999.00
771.005,3677.00
771.977,3144.00
772.947,3257.00
773.918,3715.00
774.887,3259.00
775.858,3123.00
776.827,3217.00
777.798,3254.00
778.767,3830.00
779.738,3235.00
780.707,3219.00
781.677,3351.00
782.646,3112.00
783.614,3725.00
784.584,3383.00
785.552,3466.00
786.522,2974.00
787.490,3277.00
788.460,3146.00
789.428,3162.00
790.397,3680.00
791.365,2981.00
792.334,3195.00
793.302,3404.00
794.271,3433.00
795.238,3221.00
796.207,3175.00
797.174,3591.00
798.143,2981.00
799.109,3687.00
800.076,3215.00
801.044,2867.00
802.011,3054.00
802.979,3098.00
803.945,3311.00
804.913,3930.00
805.879,3266.00
806.847,2976.00
807.813,3588.00
808.780,3194.00
809.746,3253.00
810.713,3685.00
811.678,2932.00
812.646,3208.00
813.611,3256.00
814.578,2983.00
815.543,3646.00
816.510,2896.00
817.474,3160.00
818.439,3220.00
819.405,3530.00
820.370,3096.00
821.336,2992.00
822.300,3440.00
823.266,3172.00
824.230,3436.00
825.196,3276.00
826.160,3613.00
827.126,3657.00
828.089,4028.00
829.055,3292.00
830.018,3348.00
830.983,4099.00
831.946,3083.00
832.911,3093.00
833.874,3893.00
834.837,3117.00
835.802,3170.00
836.765,3734.00
837.729,3166.00
838.691,3206.00
839.656,3567.00
840.618,3449.00
841.582,3477.00
842.544,3556.00
843.508,3720.00
844.470,2982.00
845.434,2867.00
846.395,2751.00
847.359,3201.00
848.320,2936.00
849.283,3044.00
850.245,3143.00
851.208,3482.00
852.169,3255.00
853.130,3008.00
854.092,3445.00
855.053,3127.00
856.016,3212.00
856.976,4331.00
857.938,3237.00
858.899,3314.00
859.861,2918.00
860.821,3152.00
861.783,2579.00
862.743,3255.00
863.704,3560.00
864.664,2705.00
865.626,3329.00
866.585,3059.00
867.546,3294.00
868.506,3308.00
869.467,2783.00
870.426,3314.00
871.387,3514.00
872.346,3580.00
873.304,3353.00
874.265,3430.00
875.223,3317.00
876.184,3405.00
877.142,3117.00
878.102,3203.00
879.060,3229.00
880.021,3258.00
880.978,2875.00
881.938,3215.00
882.896,3563.00
883.856,3402.00
884.813,3140.00
885.772,3155.00
886.730,3442.00
887.689,3415.00
888.646,3061.00
889.603,3620.00
890.562,3635.00
891.519,3344.00
892.477,3367.00
893.434,3311.00
894.392,2829.00
895.349,3258.00
896.307,3360.00
897.263,3519.00
898.221,3275.00
899.177,3106.00
900.135,3425.00
901.091,3201.00
902.048,3710.00
903.004,3231.00
903.961,3060.00
904.917,3214.00
905.874,3259.00
906.829,2936.00
907.784,3247.00
908.741,3288.00
909.696,3160.00
910.653,2758.00
911.607,3196.00
912.564,3118.00
913.518,3157.00
914.475,3276.00
915.429,4937.00
916.385,2945.00
917.339,3652.00
918.295,3387.00
919.249,3440.00
920.205,3291.00
921.158,3383.00
922.114,3140.00
923.067,3282.00
924.020,3309.00
924.976,3134.00
925.929,3327.00
926.884,3321.00
927.837,3545.00
928.791,3486.00
929.744,2917.00
930.699,3278.00
931.651,3278.00
932.606,2822.00
933.558,3129.00
934.512,3471.00
935.464,3333.00
936.418,3572.00
937.370,3433.00
938.322,3034.00
939.276,3150.00
940.227,3303.00
941.181,3337.00
942.132,3654.00
943.085,3864.00
944.036,2829.00
944.990,3586.00
945.941,3023.00
946.893,3084.00
947.844,2908.00
948.797,3346.00
949.747,4000.00
950.700,3146.00
951.650,2632.00
952.601,3357.00
953.553,3028.00
954.503,3441.00
955.455,3160.00
956.405,3233.00
957.356,2907.00
958.306,3500.00
959.258,3195.00
960.207,3660.00
961.158,3554.00
962.108,3226.00
963.059,2957.00
964.008,2818.00
964.959,3896.00
965.908,3136.00
966.856,2965.00
967.807,2806.00
968.756,3569.00
969.706,3257.00
970.654,3149.00
971.605,3246.00
972.553,3308.00
973.503,3202.00
974.451,3523.00
975.401,3291.00
976.348,3248.00
977.296,3156.00
978.246,3453.00
979.193,3663.00
980.142,3002.00
981.090,3301.00
982.039,3196.00
982.986,3294.00
983.935,3510.00
984.882,3285.00
985.830,3407.00
986.777,3372.00
987.725,3072.00
988.672,3036.00
989.618,3227.00
990.567,2962.00
991.513,3145.00
992.461,2993.00
993.407,3440.00
994.354,3295.00
995.300,3376.00
996.248,3307.00
997.193,3342.00
998.141,3136.00
999.086,3367.00
1000.031,3285.00
1000.978,2819.00
1001.924,3173.00
1002.870,3369.00
1003.815,2650.00
1004.762,3011.00
1005.707,3254.00
1006.653,3119.00
1007.598,3214.00
1008.542,2864.00
1009.488,2871.00
1010.432,3097.00
1011.378,2983.00
1012.322,3620.00
1013.268,2917.00
1014.212,3210.00
1015.157,3290.00
1016.101,3659.00
1017.046,2897.00
1017.990,2918.00
1018.933,3192.00
1019.878,2945.00
1020.821,2987.00
1021.766,2871.00
1022.709,3137.00
1023.654,3165.00
1024.596,3535.00
1025.541,3667.00
1026.483,3623.00
1027.425,3298.00
1028.370,3415.00
1029.312,3374.00
1030.256,3090.00
1031.198,3082.00
1032.141,3093.00
1033.083,3606.00
1034.027,3312.00
1034.968,3369.00
1035.910,2709.00
1036.853,3186.00
1037.794,3320.00
1038.738,2908.00
1039.679,3498.00
1040.621,3014.00
1041.562,3101.00
1042.503,3493.00
1043.446,2924.00
1044.386,3429.00
1045.329,3185.00
1046.269,3314.00
1047.211,3135.00
1048.151,3245.00
1049.093,2938.00
1050.033,3975.00
1050.973,3356.00
1051.915,3118.00
1052.854,3070.00
1053.796,3417.00
1054.735,3079.00
1055.677,3056.00
1056.616,3276.00
1057.555,3296.00
1058.496,2874.00
1059.435,3406.00
1060.376,3061.00
1061.315,3045.00
1062.255,2861.00
1063.194,3116.00
1064.132,2896.00
1065.073,3231.00
1066.011,3246.00
1066.951,3207.00
1067.889,2893.00
1068.829,3320.00
1069.767,3246.00
1070.705,2565.00
1071.644,3070.00
1072.582,2743.00
1073.521,3077.00
1074.459,3145.00
1075.398,3322.00
1076.335,3052.00
1077.272,3851.00
1078.211,3322.00
1079.148,3691.00
1080.087,3188.00
1081.023,3617.00
1081.962,3422.00
1082.898,2721.00
1083.835,3059.00
1084.773,2796.00
1085.709,2815.00
1086.647,3136.00
1087.583,3051.00
1088.519,3279.00
1089.457,3345.00
1090.392,2767.00
1091.330,3209.00
1092.266,3110.00
1093.203,3466.00
1094.138,2855.00
1095.073,3647.00
1096.010,3430.00
1096.945,3113.00
1097.882,2829.00
1098.817,2659.00
1099.752,3790.00
1100.688,3185.00
1101.623,3234.00
1102.559,3270.00
1103.493,3462.00
1104.430,2704.00
1105.364,2815.00
1106.298,3116.00
1107.234,3696.00
1108.167,2904.00
1109.094,3048.00
1110.019,3131.00
1110.945,3292.00
1111.869,3172.00
1112.795,3013.00
1113.720,3160.00
1114.646,3142.00
1115.571,2608.00
1116.495,3249.00
1117.420,3234.00
1118.345,3000.00
1119.270,3128.00
1120.195,3260.00
1121.118,3574.00
1122.042,3424.00
1122.967,3185.00
1123.891,3292.00
1124.816,3185.00
1125.738,3164.00
1126.663,2577.00
1127.587,3054.00
1128.511,3036.00
1129.435,3158.00
1130.357,3221.00
1131.280,4003.00
1132.204,2917.00
1133.128,2981.00
1134.051,3072.00
1134.972,3766.00
1135.896,3095.00
1136.819,3443.00
1137.742,2967.00
1138.665,3300.00
1139.586,3149.00
1140.509,2686.00
1141.431,2967.00
1142.354,3598.00
1143.276,3169.00
1144.197,3562.00
1145.119,3241.00
1146.041,2907.00
1146.964,3381.00
1147.885,3255.00
1148.806,3112.00
1149.727,3171.00
1150.649,2750.00
1151.571,3159.00
1152.492,3342.00
1153.412,3288.00
1154.333,3159.00
1155.254,3020.00
1156.175,3018.00
1157.095,3600.00
1158.016,3185.00
1158.936,3010.00
1159.857,3316.00
1160.778,3065.00
1161.697,2757.00
1162.617,3234.00
1163.537,3780.00
1164.458,3617.00
1165.376,2959.00
1166.296,3342.00
1167.216,3472.00
1168.136,2969.00
1169.056,2874.00
1169.974,3050.00
1170.893,3693.00
1171.813,3333.00
1172.732,3078.00
1173.650,3212.00
1174.569,4013.00
1175.488,3315.00
1176.407,2847.00
1177.326,2897.00
1178.243,3132.00
1179.161,2998.00
1180.080,3078.00
1180.999,3278.00
1181.915,3127.00
1182.834,2685.00
1183.752,3316.00
1184.670,3741.00
1185.586,2668.00
1186.504,2999.00
1187.422,3059.00
1188.340,2796.00
1189.258,3278.00
1190.173,3148.00
1191.091,3442.00
1192.008,2987.00
1192.926,3017.00
1193.841,3276.00
1194.758,3249.00
1195.675,2920.00
1196.592,3411.00
1197.507,2907.00
1198.424,3316.00
1199.340,3643.00
1200.257,3069.00
1201.172,3275.00
1202.088,2562.00
1203.004,3236.00
1203.920,3438.00
1204.835,3722.00
1205.750,3502.00
1206.666,3505.00
1207.582,2880.00
1208.496,2965.00
1209.412,3085.00
1210.327,2984.00
1211.243,3658.00
1212.156,2968.00
1213.071,2935.00
1213.986,3175.00
1214.901,2800.00
1215.814,2801.00
1216.729,2904.00
1217.644,2962.00
1218.559,2882.00
1219.471,3944.00
1220.386,3498.00
1221.300,2965.00
1222.213,3280.00
1223.127,3116.00
1224.041,3489.00
1224.955,2913.00
1225.867,3219.00
1226.781,3408.00
1227.694,3528.00
1228.608,3082.00
1229.520,3374.00
1230.433,3403.00
1231.346,2932.00
1232.260,3332.00
1233.171,2944.00
1234.084,3249.00
1234.997,3575.00
1235.908,3012.00
1236.821,3285.00
1237.733,4364.00
1238.646,3442.00
1239.556,3234.00
1240.469,3105.00
1241.381,2963.00
1242.293,2929.00
1243.203,3616.00
1244.115,3737.00
1245.027,3210.00
1245.937,3007.00
1246.849,3067.00
1247.761,3152.00
1248.672,2935.00
1249.582,3048.00
1250.493,3767.00
1251.404,3166.00
1252.313,3325.00
1253.225,3447.00
1254.135,4141.00
1255.046,3306.00
1255.955,3376.00
1256.866,3655.00
1257.777,3010.00
1258.685,2843.00
1259.596,2589.00
1260.506,3517.00
1261.416,3074.00
1262.324,3364.00
1263.234,3139.00
1264.144,3374.00
1265.052,3246.00
1265.962,3176.00
1266.872,3440.00
1267.779,3375.00
1268.689,2736.00
1269.598,2840.00
1270.507,3072.00
1271.415,3044.00
1272.324,3243.00
1273.233,3156.00
1274.140,3001.00
1275.048,2905.00
1275.957,2644.00
1276.864,2987.00
1277.772,2976.00
1278.681,2615.00
1279.587,2923.00
1280.496,3317.00
1281.404,3907.00
1282.312,3301.00
1283.218,2859.00
1284.126,2878.00
1285.033,3678.00
1285.939,3091.00
1286.847,3199.00
1287.754,3055.00
1288.660,2928.00
1289.567,3764.00
1290.474,3199.00
1291.380,3435.00
1292.286,2819.00
1293.193,3200.00
1294.098,3136.00
1295.005,2991.00
1295.912,3491.00
1296.816,3226.00
1297.723,3109.00
1298.629,2956.00
1299.534,3510.00
1300.440,3266.00
1301.346,2992.00
1302.250,3022.00
1303.156,2708.00
1304.062,3600.00
1304.966,3684.00
1305.871,3492.00
1306.777,3013.00
1307.680,3105.00
1308.586,3292.00
1309.491,3353.00
1310.394,3089.00
1311.299,3399.00
1312.204,3698.00
1313.107,3321.00
1314.012,3199.00
1314.917,2882.00
1315.819,3290.00
1316.724,3624.00
1317.628,3250.00
1318.531,3118.00
1319.435,3509.00
1320.339,5200.00
1321.241,3113.00
1322.145,3192.00
1323.049,3229.00
1323.951,2926.00
1324.854,2921.00
1325.756,3406.00
1326.659,3241.00
1327.563,2934.00
1328.464,3281.00
1329.367,3143.00
1330.271,3484.00
1331.172,2898.00
1332.074,3165.00
1332.977,2938.00
1333.878,3342.00
1334.781,3508.00
1335.683,2924.00
1336.584,3150.00
1337.486,2777.00
1338.387,3369.00
1339.289,2845.00
1340.191,3000.00
1341.091,3084.00
1341.993,2831.00
1342.895,3035.00
1343.794,3250.00
1344.696,3384.00
1345.596,3285.00
1346.497,2879.00
1347.398,3098.00
1348.298,2688.00
1349.199,3725.00
1350.100,3055.00
1350.999,3502.00
1351.900,3357.00
1352.799,3472.00
1353.699,3235.00
1354.600,3119.00
1355.499,3241.00
1356.399,2710.00
1357.297,3120.00
1358.198,3178.00
1359.098,2923.00
1359.996,2862.00
1360.896,3588.00
1361.796,3385.00
1362.694,3293.00
1363.593,3135.00
1364.491,3305.00
1365.391,3685.00
1366.290,3114.00
1367.187,2890.00
1368.086,3391.00
1368.984,3282.00
1369.883,2735.00
1370.782,3184.00
1371.679,3332.00
1372.577,3663.00
1373.474,3153.00
1374.373,3082.00
1375.269,3208.00
1376.168,3101.00
1377.066,3434.00
1377.962,3362.00
1378.860,3524.00
1379.756,3513.00
1380.654,3763.00
1381.552,3384.00
1382.448,3336.00
1383.346,3212.00
1384.241,3346.00
1385.139,3406.00
1386.036,3076.00
1386.931,2756.00
1387.829,3232.00
1388.724,3437.00
1389.621,3009.00
1390.516,3148.00
1391.413,3040.00
1392.309,2889.00
1393.204,3423.00
1394.101,3367.00
1394.995,3325.00
1395.891,3277.00
1396.786,2866.00
1397.682,3102.00
1398.578,3235.00
1399.472,3439.00
1400.368,3139.00
1401.262,3128.00
1402.158,3313.00
1403.051,3071.00
1403.947,3091.00
1404.840,3414.00
1405.736,3384.00
1406.631,2946.00
1407.524,3599.00
1408.419,3227.00
1409.312,3037.00
1410.207,3292.00
1411.100,3029.00
1411.995,3019.00
1412.888,3367.00
1413.782,2806.00
1414.675,3509.00
1415.569,2875.00
1416.463,3178.00
1417.355,3151.00
1418.249,2961.00
1419.141,3231.00
1420.035,3278.00
1420.927,3141.00
1421.821,3507.00
1422.713,2998.00
1423.606,3306.00
1424.498,3197.00
1425.391,3738.00
1426.282,2978.00
1427.175,3084.00
1428.068,2645.00
1428.960,3179.00
1429.852,3304.00
1430.743,2937.00
1431.636,3161.00
1432.527,3531.00
1433.419,3311.00
1434.310,3369.00
1435.202,2999.00
1436.092,3110.00
1436.984,3107.00
1437.875,3535.00
1438.767,3167.00
1439.657,2967.00
1440.548,3345.00
1441.438,3255.00
1442.330,3306.00
1443.219,3135.00
1444.111,3419.00
1445.000,3003.00
1445.891,2918.00
1446.781,2909.00
1447.672,3238.00
1448.561,3495.00
1449.452,3318.00
1450.340,2940.00
1451.231,2999.00
1452.120,2917.00
1453.010,3414.00
1453.899,3057.00
1454.789,3317.00
1455.677,3550.00
1456.568,3199.00
1457.456,3173.00
1458.346,3171.00
1459.234,3219.00
1460.123,3509.00
1461.011,3175.00
1461.901,3571.00
1462.788,3559.00
1463.678,3315.00
1464.565,3186.00
1465.454,3131.00
1466.342,3259.00
1467.231,2526.00
1468.118,3410.00
1469.006,3609.00
1469.893,2863.00
1470.782,3346.00
1471.669,3496.00
1472.557,3448.00
1473.444,3202.00
1474.330,3374.00
1475.218,3517.00
1476.105,3128.00
1476.993,3204.00
1477.879,3420.00
1478.767,3128.00
1479.652,2926.00
1480.540,3240.00
1481.426,3340.00
1482.313,3308.00
1483.199,3584.00
1484.086,3412.00
1484.972,2896.00
1485.857,2872.00
1486.744,3285.00
1487.629,2736.00
1488.516,3084.00
1489.401,3380.00
1490.287,3209.00
1491.172,2790.00
1492.058,3100.00
1492.943,2964.00
1493.828,2941.00
1494.714,3371.00
1495.598,3577.00
1496.484,4008.00
1497.368,2817.00
1498.254,3134.00
1499.138,3175.00
1500.022,3170.00
1500.907,3353.00
1501.791,3926.00
1502.676,3213.00
1503.560,3034.00
1504.445,3697.00
1505.328,3346.00
1506.211,3633.00
1507.096,3142.00
1507.979,3449.00
1508.864,3103.00
1509.747,3349.00
1510.631,3226.00
1511.514,3372.00
1512.397,3451.00
1513.281,3703.00
1514.163,3475.00
1515.047,3060.00
1515.930,2925.00
1516.812,3195.00
1517.696,3334.00
1518.578,3142.00
1519.461,3265.00
1520.343,3735.00
1521.225,3014.00
1522.108,3108.00
1522.990,3481.00
1523.873,3663.00
1524.754,2806.00
1525.635,2680.00
1526.518,3329.00
1527.399,3103.00
1528.282,3226.00
1529.163,3324.00
1530.044,3197.00
1530.926,2870.00
1531.807,2942.00
1532.689,3256.00
1533.569,3017.00
1534.450,4250.00
1535.332,3444.00
1536.212,3073.00
1537.092,3501.00
1537.974,2850.00
1538.854,3101.00
1539.735,3716.00
1540.615,3387.00
1541.495,2935.00
1542.376,3600.00
1543.255,2922.00
1544.135,3112.00
1545.016,3218.00
1545.895,3018.00
1546.774,3413.00
1547.655,2713.00
1548.534,3188.00
1549.414,3121.00
1550.293,2856.00
1551.172,3271.00
1552.052,3155.00
1552.930,3057.00
1553.809,3678.00
1554.689,3096.00
1555.567,3131.00
1556.445,3059.00
1557.325,3487.00
1558.203,2809.00
1559.080,3173.00
1559.960,3130.00
1560.838,3895.00
1561.715,3094.00
1562.594,3494.00
1563.472,3343.00
1564.349,3365.00
1565.228,2783.00
1566.105,2948.00
1566.982,3236.00
1567.861,3474.00
1568.738,3102.00
1569.615,2778.00
1570.493,3045.00
1571.370,3028.00
1572.246,2641.00
1573.124,3117.00
1574.000,3156.00
1574.877,3439.00
1575.755,3104.00
1576.631,2959.00
1577.507,3579.00
1578.384,3572.00
1579.260,3259.00
1580.136,3757.00
1581.011,3146.00
1581.889,3158.00
1582.764,3193.00
1583.639,3507.00
1584.516,3303.00
1585.391,3053.00
1586.266,3257.00
1587.143,3647.00
1588.018,3346.00
1588.893,3546.00
1589.768,3966.00
1590.644,3903.00
1591.519,2927.00
1592.393,3344.00
1593.269,3420.00
1594.143,3025.00
1595.018,3166.00
1595.892,3039.00
1596.767,2709.00
1597.641,2697.00
1598.515,2835.00
1599.391,3349.00
1600.264,2982.00
1601.138,2995.00
1602.011,2543.00
1602.886,3687.00
1603.760,3502.00
1604.633,3433.00
1605.508,3375.00
1606.381,3282.00
1607.254,3191.00
1608.127,3309.00
1609.001,2906.00
1609.874,3506.00
1610.746,3448.00
1611.619,3183.00
1612.493,3414.00
1613.365,2996.00
1614.238,3240.00
1615.110,3241.00
1615.984,3130.00
1616.855,2989.00
1617.727,3429.00
1618.599,3024.00
1619.473,3515.00
1620.344,2581.00
1621.216,3162.00
1622.087,3234.00
1622.960,3221.00
1623.832,3202.00
1624.703,3302.00
1625.574,3432.00
1626.445,3188.00
1627.317,3238.00
1628.188,3421.00
1629.059,3088.00
1629.930,3552.00
1630.802,3120.00
1631.672,3373.00
1632.543,3323.00
1633.413,3196.00
1634.283,3656.00
1635.155,3248.00
1636.025,3295.00
1636.895,3218.00
1637.765,2729.00
1638.636,3185.00
1639.506,3308.00
1640.376,3942.00
1641.245,3097.00
1642.114,3174.00
1642.985,2687.00
1643.855,2936.00
1644.724,3080.00
1645.593,3354.00
1646.462,3309.00
1647.333,3247.00
1648.201,3053.00
1649.070,3240.00
1649.939,3389.00
1650.807,2978.00
1651.676,3399.00
1652.546,3426.00
1653.414,3512.00
1654.282,3167.00
1655.150,3089.00
1656.018,3179.00
1656.888,3840.00
1657.756,3197.00
1658.623,2834.00
1659.491,2782.00
1660.359,3587.00
1661.226,3041.00
1662.095,3347.00
1662.962,3113.00
1663.830,3164.00
1664.697,2995.00
1665.564,3174.00
1666.431,3323.00
1667.297,2898.00
1668.166,2912.00
1669.033,2799.00
1669.899,3064.00
1670.766,2867.00
1671.632,3049.00
1672.499,3517.00
1673.367,3259.00
1674.233,3400.00
1675.099,3198.00
1675.965,2883.00
1676.831,3134.00
1677.696,3494.00
1678.562,4928.00
1679.430,2748.00
1680.295,2891.00
1681.161,2953.00
1682.026,2980.00
1682.891,3033.00
1683.756,3109.00
1684.621,3214.00
1685.486,3254.00
1686.353,3169.00
1687.218,3347.00
1688.083,3130.00
1688.947,3472.00
1689.812,3148.00
1690.677,3066.00
1691.541,3315.00
1692.405,2544.00
1693.269,3676.00
1694.135,3405.00
1694.999,3180.00
1695.863,3703.00
1696.727,3028.00
1697.591,3072.00
1698.455,3266.00
1699.318,3033.00
1700.182,4451.00
1701.045,3233.00
1701.909,3229.00
1702.772,3697.00
1703.637,3070.00
1704.500,2767.00
1705.363,3459.00
1706.226,3247.00
1707.089,3286.00
1707.951,3369.00
1708.814,3883.00
1709.677,3951.00
1710.539,3414.00
1711.402,3412.00
1712.264,3170.00
1713.126,3090.00
1713.988,3439.00
1714.852,3481.00
1715.714,2604.00
1716.576,2788.00
1717.438,3433.00
1718.299,2735.00
1719.161,3603.00
1720.023,3116.00
1720.884,3629.00
1721.745,3163.00
1722.607,3102.00
1723.468,2715.00
1724.329,3461.00
1725.190,3231.00
1726.051,3351.00
1726.912,3065.00
1727.772,3267.00
1728.633,3110.00
1729.494,3223.00
1730.354,3463.00
1731.214,2894.00
1732.075,3074.00
1732.935,3052.00
1733.797,3055.00
1734.657,3687.00
1735.517,3876.00
1736.377,3445.00
1737.237,3132.00
1738.096,3815.00
1738.956,3099.00
1739.816,3084.00
1740.675,3115.00
1741.534,2692.00
1742.394,3246.00
1743.253,2975.00
1744.112,3205.00
1744.971,3078.00
1745.830,3301.00
1746.689,3345.00
1747.547,3438.00
1748.406,2827.00
1749.265,3069.00
1750.123,3091.00
1750.982,3371.00
1751.840,3185.00
1752.698,3238.00
1753.556,3042.00
1754.414,3198.00
1755.272,3114.00
1756.130,3202.00
1756.988,3185.00
1757.846,3412.00
1758.703,3025.00
1759.559,3493.00
1760.417,2924.00
1761.274,3850.00
1762.131,3617.00
1762.989,3723.00
1763.846,3667.00
1764.703,3289.00
1765.560,3765.00
1766.417,3234.00
1767.273,2995.00
1768.130,3175.00
1768.987,3043.00
1769.843,3459.00
1770.700,3581.00
1771.556,3091.00
1772.412,3563.00
1773.268,3091.00
1774.125,3534.00
1774.980,3262.00
1775.836,3510.00
1776.692,3091.00
1777.546,3027.00
1778.402,3408.00
1779.257,3276.00
1780.113,3065.00
1780.968,3302.00
1781.824,3499.00
1782.679,2832.00
1783.534,3028.00
1784.389,3711.00
1785.244,3336.00
1786.099,3126.00
1786.954,3453.00
1787.808,3181.00
1788.661,3190.00
1789.516,3601.00
1790.370,3221.00
1791.225,3086.00
1792.079,2867.00
1792.933,3961.00
1793.787,3314.00
1794.641,3267.00
1795.495,3188.00
1796.349,3255.00
1797.201,3054.00
1798.055,2964.00
1798.908,3203.00
1799.762,3581.00
1800.615,3447.00
1801.469,3449.00
1802.322,3600.00
1803.175,3051.00
1804.028,2754.00
1804.880,3799.00
1805.732,3419.00
1806.585,3197.00
1807.438,3214.00
1808.291,2729.00
1809.143,2955.00
1809.996,2847.00
1810.846,4007.00
1811.699,3341.00
1812.551,3134.00
1813.403,3363.00
1814.255,3295.00
1815.107,3231.00
1815.959,3839.00
1816.809,3288.00
1817.661,3331.00
1818.512,3214.00
1819.364,3271.00
1820.215,3327.00
1821.067,3008.00
1821.918,3003.00
1822.768,3489.00
1823.619,3443.00
1824.470,3091.00
1825.321,3356.00
1826.172,3131.00
1827.021,3391.00
1827.871,3474.00
1828.722,3330.00
1829.572,3241.00
1830.423,3254.00
1831.273,3066.00
1832.122,3201.00
1832.972,3172.00
1833.822,2911.00
1834.672,3393.00
1835.522,3420.00
1836.370,3015.00
1837.220,3341.00
1838.070,2767.00
1838.919,2547.00
1839.769,3060.00
1840.616,3467.00
1841.466,3339.00
1842.315,2963.00
1843.164,3863.00
1844.013,3025.00
1844.860,2927.00
1845.709,2975.00
1846.558,3498.00
1847.407,2863.00
1848.254,3339.00
1849.102,3231.00
1849.951,2974.00
1850.799,2645.00
1851.648,3122.00
1852.494,3267.00
1853.342,3363.00
1854.190,3569.00
1855.038,3503.00
1855.884,3241.00
1856.732,4130.00
1857.580,3647.00
1858.428,3071.00
1859.273,2938.00
1860.121,2955.00
1860.968,4080.00
1861.816,3570.00
1862.661,3579.00
1863.508,3852.00
1864.355,3446.00
1865.202,3541.00
1866.047,3312.00
1866.894,3602.00
1867.741,3792.00
1868.586,3372.00
1869.432,3326.00
1870.279,3160.00
1871.125,3041.00
1871.970,3892.00
1872.816,3325.00
1873.662,2725.00
1874.506,3348.00
1875.352,3511.00
1876.198,3661.00
1877.044,3818.00
1877.888,3166.00
1878.734,3237.00
1879.579,3070.00
1880.423,2831.00
1881.268,3109.00
1882.113,3457.00
1882.959,3166.00
1883.802,3033.00
1884.647,3594.00
1885.492,3303.00
1886.335,3227.00
1887.180,3049.00
1888.025,3290.00
1888.867,3016.00
1889.712,3378.00
1890.556,2971.00
1891.399,3543.00
1892.243,3572.00
1893.087,3044.00
1893.930,3397.00
1894.774,3394.00
1895.618,3591.00
1896.460,2869.00
1897.304,3136.00
1898.147,3042.00
1898.989,2972.00
1899.833,3406.00
1900.676,3039.00
1901.518,3520.00
1902.361,3580.00
1903.202,3105.00
1904.046,3013.00
1904.889,3214.00
1905.730,3140.00
1906.573,2917.00
1907.415,3282.00
1908.256,3666.00
1909.099,3328.00
1909.941,3381.00
1910.782,3347.00
1911.624,3040.00
1912.465,3425.00
1913.307,3332.00
1914.149,2983.00
1914.989,3495.00
1915.831,3177.00
1916.671,3695.00
1917.513,3169.00
1918.355,3298.00
1919.195,3502.00
1920.036,3310.00
1920.876,3227.00
1921.717,3382.00
1922.558,3277.00
1923.398,3272.00
1924.239,3240.00
1925.078,3607.00
1925.919,2933.00
1926.760,3371.00
1927.599,3105.00
1928.440,3476.00
1929.279,3270.00
1930.119,3730.00
1930.958,3174.00
1931.798,3202.00
1932.638,3185.00
1933.477,3312.00
1934.317,3021.00
1935.155,3093.00
1935.995,3336.00
1936.833,3083.00
1937.673,3033.00
1938.512,3702.00
1939.350,2882.00
1940.190,3140.00
1941.027,3131.00
1941.867,3102.00
1942.704,3201.00
1943.543,3277.00
1944.381,3429.00
1945.220,3626.00
1946.057,3361.00
1946.896,3603.00
1947.733,3234.00
1948.572,3007.00
1949.408,3612.00
1950.247,3331.00
1951.085,3414.00
1951.922,3589.00
1952.760,2974.00
1953.597,3664.00
1954.435,2634.00
1955.271,3400.00
1956.109,3118.00
1956.945,2825.00
1957.783,3396.00
1958.619,3056.00
1959.456,3216.00
1960.292,3333.00
1961.129,3563.00
1961.965,3776.00
1962.802,3020.00
1963.638,2977.00
1964.475,3290.00
1965.310,3266.00
1966.145,3300.00
1966.982,3100.00
1967.817,2922.00
1968.654,3289.00
1969.489,3044.00
1970.325,3269.00
1971.160,3017.00
1971.996,3405.00
1972.831,3459.00
1973.667,3104.00
1974.501,3650.00
1975.337,3510.00
1976.171,3139.00
1977.006,3547.00
1977.841,3120.00
1978.675,3528.00
1979.511,3848.00
1980.345,3007.00
1981.180,3430.00
1982.014,3252.00
1982.849,2952.00
1983.682,3105.00
1984.516,3082.00
1985.351,2849.00
1986.184,2752.00
1987.019,2789.00
1987.852,2562.00
1988.687,2773.00
1989.519,2983.00
1990.352,3209.00
1991.187,2739.00
1992.019,3037.00
1992.854,3383.00
1993.686,2963.00
1994.518,3038.00
1995.352,2610.00
1996.185,2334.00
1997.019,2886.00
1997.851,2662.00
1998.682,2761.00
1999.516,2781.00
2000.348,2497.00
