RamanScope Measure Spectrum Data V3.72

<< MEASURE CONDITION >>
Exposure Type,Aver
Exposure Time [sec],20
Exposure Count,2
Measure Time,2024/02/15 20:16:13
Data Name,""
Data Comment,""
Rayleigh Wave[nm],532.0

<< SAMPLE SPECTRUM >>
Wave[dcm-1],No5
96.716,-4.50
97.759,30.00
98.802,9.50
99.846,14.50
100.886,-27.00
101.929,-15.00
102.972,-2.00
104.015,0.50
105.057,-42.00
106.100,48.50
107.142,22.50
108.184,-50.50
109.226,38.00
110.268,57.00
111.310,25.50
112.352,7.50
113.393,26.00
114.435,33.00
115.476,31.50
116.517,5.00
117.558,20.00
118.599,0.00
119.640,-8.50
120.681,-22.00
121.722,15.00
122.762,11.00
123.803,18.00
124.843,22.50
125.883,8.50
126.923,5.00
127.963,-4.50
129.001,4.50
130.041,5.50
131.080,-15.50
132.120,0.00
133.159,-5.00
134.199,-10.00
135.238,26.00
136.277,40.00
137.316,56.50
138.355,-6.50
139.393,-40.00
140.432,-12.50
141.470,47.00
142.509,45.00
143.547,10.50
144.585,45.00
145.623,110.50
146.661,69.50
147.699,58.00
148.736,170.50
149.774,198.50
150.811,259.50
151.849,422.00
152.886,431.50
153.923,577.00
154.960,686.50
155.997,816.00
157.034,994.50
158.072,1162.50
159.109,1331.00
160.145,1515.50
161.182,1718.50
162.218,1961.00
163.254,2078.00
164.290,2223.00
165.326,2387.00
166.361,2498.50
167.397,2614.00
168.432,2758.00
169.468,2820.00
170.503,2865.00
171.538,2868.50
172.573,2907.50
173.608,3021.00
174.643,3001.00
175.677,3010.00
176.712,3177.50
177.746,3147.00
178.781,3230.50
179.815,3307.50
180.849,3414.50
181.883,3412.50
182.917,3572.00
183.951,3655.00
184.984,3653.50
186.020,3814.50
187.053,3822.50
188.087,3771.50
189.120,3701.50
190.153,3563.50
191.186,3516.50
192.219,3433.00
193.251,3376.50
194.284,3376.50
195.317,3335.00
196.349,3323.50
197.381,3290.00
198.413,3396.50
199.445,3339.50
200.477,3381.00
201.509,3417.50
202.543,3467.00
203.575,3404.00
204.606,3484.00
205.637,3563.50
206.669,3542.50
207.700,3625.50
208.731,3626.50
209.762,3708.50
210.792,3709.00
211.823,3827.00
212.854,3865.00
213.884,3907.50
214.914,3985.50
215.947,4143.50
216.977,4206.00
218.007,4246.50
219.037,4351.00
220.066,4425.50
221.096,4533.50
222.126,4632.50
223.155,4707.50
224.184,4747.00
225.214,4762.00
226.245,4907.50
227.274,4874.50
228.302,4861.00
229.331,4771.50
230.360,4733.50
231.388,4802.50
232.417,4719.00
233.445,4687.00
234.473,4653.00
235.501,4539.50
236.531,4494.00
237.559,4436.00
238.587,4341.50
239.614,4263.50
240.642,4243.50
241.669,4231.00
242.696,4138.50
243.724,4167.00
244.753,4084.00
245.780,4148.00
246.806,4032.50
247.833,4047.50
248.860,4134.50
249.886,4099.50
250.913,4098.50
251.939,4103.00
252.967,4088.00
253.993,4169.50
255.019,4172.50
256.045,4228.50
257.070,4251.00
258.096,4293.50
259.121,4148.50
260.147,4166.00
261.174,4205.00
262.199,4114.50
263.224,4176.00
264.249,4245.50
265.274,4123.00
266.298,4184.50
267.323,4267.50
268.349,4243.50
269.374,4225.50
270.398,4306.50
271.422,4258.50
272.446,4322.00
273.470,4350.00
274.496,4405.00
275.519,4380.50
276.543,4377.50
277.566,4492.00
278.589,4433.50
279.613,4579.00
280.636,4531.50
281.661,4550.00
282.684,4564.00
283.706,4657.00
284.729,4631.50
285.751,4558.00
286.774,4528.00
287.798,4638.00
288.820,4622.00
289.842,4537.50
290.864,4591.00
291.886,4551.50
292.910,4495.00
293.932,4355.50
294.953,4341.00
295.974,4362.50
296.996,4289.00
298.017,4281.00
299.040,4163.50
300.061,4180.00
301.082,4067.50
302.102,3969.00
303.123,3958.00
304.143,3981.00
305.166,3904.00
306.186,3785.50
307.206,3875.00
308.226,3718.00
309.246,3759.50
310.268,3684.50
311.288,3680.00
312.307,3655.50
313.327,3619.50
314.346,3562.00
315.368,3523.00
316.387,3489.50
317.406,3475.50
318.425,3482.00
319.443,3457.00
320.464,3449.50
321.483,3352.50
322.501,3340.00
323.520,3310.50
324.538,3326.00
325.558,3258.00
326.576,3275.00
327.594,3233.00
328.612,3278.00
329.629,3268.00
330.649,3257.00
331.666,3217.50
332.684,3151.00
333.701,3189.00
334.718,3217.00
335.737,3112.50
336.754,3179.00
337.771,3157.50
338.787,3159.00
339.806,3119.00
340.823,3147.50
341.839,3154.50
342.855,3106.50
343.871,3067.50
344.889,3114.50
345.905,3088.00
346.921,3097.00
347.937,3073.50
348.954,3063.50
349.970,3037.00
350.985,3071.50
352.000,3028.50
353.017,2962.00
354.032,3029.50
355.047,3073.50
356.062,3037.00
357.077,3041.00
358.093,3081.50
359.108,3036.00
360.122,3070.00
361.136,2979.00
362.152,3043.00
363.166,3031.50
364.180,3014.00
365.194,3006.00
366.210,3033.00
367.223,2996.50
368.237,3020.50
369.250,3031.50
370.265,3029.00
371.278,3051.50
372.291,3020.50
373.304,3027.50
374.319,3073.00
375.332,2982.50
376.344,3069.00
377.357,3080.50
378.371,3093.50
379.383,3131.50
380.395,3061.00
381.407,3075.50
382.421,3105.50
383.433,3088.50
384.445,3161.50
385.456,3117.50
386.470,3135.50
387.481,3172.50
388.492,3101.00
389.505,3079.50
390.516,3144.50
391.527,3064.00
392.538,3176.00
393.551,3161.00
394.561,3117.50
395.572,3107.00
396.582,3119.50
397.594,3105.00
398.604,3134.50
399.614,3083.50
400.624,3083.50
401.636,3110.50
402.646,3135.00
403.655,3105.00
404.667,3078.00
405.676,3052.00
406.685,3103.50
407.694,3034.50
408.705,3030.50
409.714,2953.00
410.723,3024.00
411.734,3047.00
412.742,3002.50
413.751,2919.00
414.759,2946.50
415.769,2963.00
416.777,2937.00
417.785,2933.50
418.795,2896.00
419.803,2974.50
420.811,2878.50
421.818,2867.50
422.828,2889.50
423.835,2853.00
424.842,2869.00
425.852,2925.00
426.859,2880.50
427.866,2868.00
428.874,2804.00
429.881,2781.50
430.888,2822.00
431.894,2809.50
432.902,2816.00
433.909,2799.50
434.915,2749.50
435.923,2760.00
436.929,2760.50
437.935,2788.00
438.942,2727.00
439.948,2729.00
440.953,2729.00
441.959,2756.00
442.966,2707.50
443.971,2779.00
444.976,2752.50
445.983,2774.00
446.988,2816.50
447.993,2755.00
448.999,2745.00
450.004,2672.50
451.008,2792.00
452.014,2717.50
453.019,2775.50
454.023,2770.00
455.029,2747.00
456.032,2646.50
457.036,2798.50
458.042,2677.00
459.045,2741.00
460.049,2699.00
461.052,2705.00
462.057,2765.50
463.060,2797.00
464.063,2754.00
465.068,2697.50
466.071,2760.00
467.073,2774.00
468.078,2772.00
469.080,2723.00
470.082,2768.50
471.087,2754.00
472.089,2748.50
473.091,2809.50
474.095,2799.00
475.096,2800.00
476.098,2766.50
477.101,2711.50
478.103,2813.50
479.104,2801.50
480.107,2745.50
481.108,2760.00
482.109,2748.00
483.112,2762.50
484.113,2775.00
485.114,2715.00
486.116,2759.50
487.117,2701.50
488.117,2732.00
489.119,2785.50
490.119,2770.00
491.121,2826.00
492.121,2755.50
493.121,2746.00
494.123,2727.00
495.122,2813.00
496.122,2752.00
497.123,2805.50
498.122,2798.50
499.121,2781.00
500.122,2787.50
501.121,2759.00
502.120,2748.50
503.121,2733.00
504.119,2791.50
505.118,2792.00
506.118,2693.00
507.117,2800.50
508.115,2665.50
509.115,2764.00
510.113,2744.50
511.112,2741.00
512.110,2698.50
513.108,2706.50
514.107,2705.50
515.105,2660.50
516.102,2689.50
517.101,2653.00
518.098,2648.50
519.095,2534.50
520.094,2578.00
521.091,2677.50
522.089,2642.00
523.086,2637.50
524.082,2606.50
525.081,2550.50
526.077,2635.50
527.073,2623.00
528.071,2626.50
529.067,2593.00
530.064,2633.00
531.060,2605.50
532.056,2536.50
533.053,2650.50
534.048,2592.50
535.044,2598.00
536.041,2624.50
537.036,2583.00
538.030,2616.50
539.027,2610.00
540.022,2658.50
541.019,2552.00
542.013,2647.00
543.007,2623.00
544.004,2633.50
544.998,2593.00
545.994,2649.50
546.988,2640.50
547.981,2663.50
548.977,2704.00
549.971,2686.00
550.964,2636.00
551.960,2597.00
552.953,2632.50
553.948,2631.00
554.941,2628.00
555.934,2599.00
556.929,2614.50
557.922,2664.50
558.916,2587.50
559.909,2610.50
560.901,2561.00
561.895,2615.50
562.888,2663.00
563.880,2625.00
564.874,2640.00
565.865,2619.00
566.859,2694.00
567.851,2619.00
568.842,2566.50
569.836,2637.00
570.827,2660.50
571.820,2661.00
572.811,2643.50
573.802,2643.50
574.795,2649.00
575.786,2627.50
576.779,2654.50
577.769,2710.50
578.760,2669.50
579.752,2694.50
580.742,2639.50
581.735,2681.00
582.725,2641.00
583.714,2678.00
584.706,2783.50
585.696,2670.00
586.688,2713.50
587.677,2719.50
588.667,2729.00
589.658,2694.50
590.647,2702.50
591.638,2733.00
592.627,2807.50
593.616,2776.00
594.607,2672.00
595.595,2766.00
596.586,2753.00
597.574,2758.50
598.562,2678.50
599.553,2738.00
600.541,2814.00
601.531,2769.00
602.519,2798.50
603.508,2780.50
604.496,2716.50
605.484,2773.00
606.473,2737.50
607.460,2734.50
608.450,2727.00
609.437,2711.00
610.424,2824.50
611.413,2714.50
612.400,2739.50
613.388,2717.50
614.375,2759.00
615.361,2726.00
616.350,2774.50
617.336,2671.50
618.324,2752.00
619.310,2723.50
620.298,2698.50
621.284,2691.00
622.270,2686.00
623.257,2705.00
624.243,2677.00
625.230,2592.00
626.216,2680.00
627.203,2621.50
628.188,2596.50
629.173,2680.50
630.160,2532.50
631.145,2537.00
632.131,2527.00
633.116,2553.50
634.102,2530.00
635.087,2494.50
636.071,2510.00
637.057,2494.50
638.041,2476.00
639.027,2563.00
640.011,2481.50
640.995,2447.50
641.980,2482.50
642.964,2420.50
643.949,2380.00
644.932,2355.00
645.918,2327.50
646.901,2404.00
647.886,2336.00
648.868,2314.50
649.851,2326.00
650.836,2340.00
651.818,2318.00
652.803,2255.50
653.785,2268.50
654.769,2241.50
655.751,2232.50
656.733,2224.50
657.717,2197.00
658.699,2241.50
659.683,2153.00
660.664,2237.00
661.648,2183.00
662.629,2169.00
663.611,2188.00
664.594,2164.50
665.575,2148.50
666.558,2168.50
667.539,2157.00
668.521,2086.50
669.502,2096.50
670.484,2131.50
671.465,2097.50
672.445,2102.50
673.427,2078.00
674.407,2072.50
675.390,2104.50
676.369,2074.00
677.351,2070.00
678.331,2039.00
679.312,2025.50
680.292,2083.50
681.271,2030.50
682.253,2011.50
683.232,1986.00
684.213,2036.50
685.192,2044.50
686.172,1975.00
687.151,1995.50
688.132,1930.50
689.110,1997.50
690.089,1958.00
691.069,1905.00
692.047,1937.50
693.027,1915.50
694.005,1938.50
694.985,1987.00
695.963,1890.00
696.943,1863.00
697.920,1815.00
698.898,1876.50
699.877,1872.50
700.854,1841.00
701.833,1783.50
702.810,1784.50
703.789,1770.50
704.766,1819.00
705.745,1815.00
706.721,1864.00
707.698,1745.00
708.676,1770.50
709.653,1713.50
710.631,1766.00
711.607,1824.00
712.585,1722.00
713.561,1742.50
714.539,1712.00
715.514,1743.00
716.492,1721.00
717.467,1765.50
718.443,1699.50
719.420,1670.00
720.395,1667.50
721.372,1689.50
722.347,1673.00
723.324,1654.00
724.298,1652.00
725.275,1674.00
726.250,1680.50
727.226,1633.50
728.200,1605.50
729.176,1628.50
730.151,1649.50
731.125,1704.50
732.100,1594.50
733.074,1592.00
734.050,1627.00
735.023,1607.50
735.999,1650.00
736.972,1593.00
737.947,1634.00
738.921,1592.00
739.896,1614.00
740.869,1549.00
741.841,1551.50
742.816,1616.50
743.789,1605.00
744.763,1580.00
745.736,1597.00
746.710,1582.00
747.682,1572.00
748.656,1563.00
749.628,1504.00
750.602,1539.50
751.574,1539.50
752.548,1525.50
753.519,1535.00
754.491,1530.00
755.464,1500.00
756.435,1555.50
757.408,1434.00
758.379,1507.00
759.352,1525.00
760.323,1484.00
761.296,1544.00
762.267,1485.00
763.239,1478.00
764.209,1492.00
765.182,1490.00
766.152,1434.50
767.124,1497.50
768.094,1423.00
769.064,1426.50
770.036,1450.50
771.005,1413.00
771.977,1441.50
772.947,1460.50
773.918,1445.00
774.887,1406.00
775.858,1417.00
776.827,1364.50
777.798,1417.00
778.767,1403.00
779.738,1457.50
780.707,1340.50
781.677,1389.00
782.646,1383.50
783.614,1344.50
784.584,1445.00
785.552,1379.50
786.522,1355.50
787.490,1439.00
788.460,1352.50
789.428,1376.50
790.397,1312.50
791.365,1369.00
792.334,1362.50
793.302,1365.00
794.271,1297.50
795.238,1339.50
796.207,1313.50
797.174,1304.00
798.143,1314.50
799.109,1365.50
800.076,1305.00
801.044,1254.00
802.011,1338.50
802.979,1268.00
803.945,1341.50
804.913,1360.00
805.879,1271.00
806.847,1315.00
807.813,1284.50
808.780,1310.00
809.746,1257.50
810.713,1255.00
811.678,1301.00
812.646,1279.00
813.611,1293.50
814.578,1252.50
815.543,1234.00
816.510,1264.00
817.474,1296.50
818.439,1269.50
819.405,1250.50
820.370,1240.00
821.336,1274.50
822.300,1251.00
823.266,1202.50
824.230,1224.50
825.196,1241.00
826.160,1235.00
827.126,1247.50
828.089,1171.50
829.055,1287.00
830.018,1242.50
830.983,1159.50
831.946,1216.50
832.911,1196.50
833.874,1262.00
834.837,1195.50
835.802,1202.50
836.765,1187.00
837.729,1232.00
838.691,1222.00
839.656,1213.00
840.618,1186.00
841.582,1178.50
842.544,1170.50
843.508,1195.50
844.470,1191.50
845.434,1193.00
846.395,1199.50
847.359,1162.00
848.320,1176.50
849.283,1205.50
850.245,1119.00
851.208,1151.00
852.169,1204.00
853.130,1146.00
854.092,1107.50
855.053,1167.50
856.016,1129.50
856.976,1127.00
857.938,1173.50
858.899,1103.00
859.861,1169.50
860.821,1160.50
861.783,1117.00
862.743,1115.50
863.704,1121.50
864.664,1101.00
865.626,1182.00
866.585,1183.00
867.546,1186.50
868.506,1202.50
869.467,1168.00
870.426,1150.00
871.387,1143.50
872.346,1195.50
873.304,1190.50
874.265,1130.50
875.223,1124.50
876.184,1098.50
877.142,1121.50
878.102,1164.00
879.060,1111.00
880.021,1126.00
880.978,1123.00
881.938,1106.50
882.896,1115.00
883.856,1163.50
884.813,1110.00
885.772,1132.00
886.730,1141.00
887.689,1173.50
888.646,1137.00
889.603,1121.00
890.562,1092.50
891.519,1101.50
892.477,1135.50
893.434,1097.50
894.392,1090.50
895.349,1161.00
896.307,1129.00
897.263,1132.00
898.221,1152.50
899.177,1148.50
900.135,1114.50
901.091,1167.00
902.048,1125.50
903.004,1091.50
903.961,1097.00
904.917,1155.50
905.874,1091.00
906.829,1136.00
907.784,1118.00
908.741,1141.00
909.696,1192.00
910.653,1129.00
911.607,1128.50
912.564,1093.00
913.518,1108.00
914.475,1176.00
915.429,1157.50
916.385,1162.50
917.339,1081.50
918.295,1161.00
919.249,1168.50
920.205,1155.50
921.158,1095.00
922.114,1094.00
923.067,1160.00
924.020,1075.50
924.976,1163.00
925.929,1186.50
926.884,1148.00
927.837,1136.00
928.791,1213.00
929.744,1129.00
930.699,1140.00
931.651,1213.00
932.606,1176.00
933.558,1194.00
934.512,1212.00
935.464,1156.50
936.418,1169.00
937.370,1140.00
938.322,1226.50
939.276,1189.50
940.227,1220.50
941.181,1088.00
942.132,1138.50
943.085,1171.00
944.036,1186.50
944.990,1125.50
945.941,1219.00
946.893,1191.50
947.844,1207.00
948.797,1238.00
949.747,1116.00
950.700,1183.00
951.650,1242.00
952.601,1131.00
953.553,1204.00
954.503,1122.00
955.455,1176.00
956.405,1190.00
957.356,1144.00
958.306,1198.00
959.258,1151.50
960.207,1191.00
961.158,1140.00
962.108,1196.00
963.059,1131.50
964.008,1186.50
964.959,1196.00
965.908,1148.00
966.856,1134.50
967.807,1214.50
968.756,1166.50
969.706,1182.50
970.654,1230.00
971.605,1176.50
972.553,1123.50
973.503,1138.00
974.451,1128.50
975.401,1202.50
976.348,1147.00
977.296,1139.50
978.246,1098.50
979.193,1159.00
980.142,1138.50
981.090,1124.50
982.039,1153.00
982.986,1132.00
983.935,1118.50
984.882,1095.00
985.830,1096.00
986.777,1176.00
987.725,1127.50
988.672,1108.00
989.618,1100.00
990.567,1134.00
991.513,1088.50
992.461,1150.50
993.407,1093.50
994.354,1147.50
995.300,1129.00
996.248,1094.00
997.193,1103.50
998.141,1100.50
999.086,1126.50
1000.031,1089.50
1000.978,1119.00
1001.924,1090.00
1002.870,1130.50
1003.815,1143.50
1004.762,1106.50
1005.707,1103.50
1006.653,1086.50
1007.598,1095.00
1008.542,1164.50
1009.488,1102.50
1010.432,1085.00
1011.378,1072.00
1012.322,1076.50
1013.268,1125.00
1014.212,1062.00
1015.157,1090.00
1016.101,1079.50
1017.046,1085.50
1017.990,1115.50
1018.933,1065.50
1019.878,1103.50
1020.821,1074.00
1021.766,1103.00
1022.709,1108.00
1023.654,1119.50
1024.596,1054.00
1025.541,1064.00
1026.483,1095.00
1027.425,1109.50
1028.370,1093.50
1029.312,1080.50
1030.256,1100.00
1031.198,1111.50
1032.141,1098.00
1033.083,1081.50
1034.027,1096.50
1034.968,1140.00
1035.910,1112.00
1036.853,1089.50
1037.794,1060.00
1038.738,1120.00
1039.679,1074.00
1040.621,1110.50
1041.562,1128.50
1042.503,1093.50
1043.446,1054.00
1044.386,1068.50
1045.329,1096.50
1046.269,1096.00
1047.211,1137.00
1048.151,1070.50
1049.093,1112.00
1050.033,1132.00
1050.973,1116.00
1051.915,1100.50
1052.854,1096.50
1053.796,1090.00
1054.735,1117.00
1055.677,1142.50
1056.616,1077.50
1057.555,1067.50
1058.496,1117.50
1059.435,1122.50
1060.376,1096.00
1061.315,1100.50
1062.255,1123.50
1063.194,1148.00
1064.132,1149.00
1065.073,1130.00
1066.011,1079.50
1066.951,1099.00
1067.889,1121.50
1068.829,1153.00
1069.767,1113.00
1070.705,1134.50
1071.644,1125.50
1072.582,1177.00
1073.521,1136.50
1074.459,1128.50
1075.398,1116.50
1076.335,1203.00
1077.272,1148.50
1078.211,1139.50
1079.148,1110.50
1080.087,1161.00
1081.023,1149.00
1081.962,1171.00
1082.898,1177.50
1083.835,1125.00
1084.773,1137.50
1085.709,1115.00
1086.647,1117.00
1087.583,1123.50
1088.519,1161.00
1089.457,1155.50
1090.392,1210.50
1091.330,1150.50
1092.266,1134.50
1093.203,1199.50
1094.138,1188.00
1095.073,1158.00
1096.010,1147.50
1096.945,1132.50
1097.882,1161.50
1098.817,1183.00
1099.752,1174.50
1100.688,1150.00
1101.623,1176.50
1102.559,1173.00
1103.493,1169.00
1104.430,1206.50
1105.364,1238.00
1106.298,1189.50
1107.234,1172.50
1108.167,1160.50
1109.094,1189.50
1110.019,1162.50
1110.945,1113.00
1111.869,1118.50
1112.795,1087.00
1113.720,1169.50
1114.646,1157.00
1115.571,1147.50
1116.495,1144.00
1117.420,1149.00
1118.345,1110.50
1119.270,1119.50
1120.195,1106.50
1121.118,1149.00
1122.042,1084.50
1122.967,1080.00
1123.891,1139.00
1124.816,1086.00
1125.738,1109.00
1126.663,1076.00
1127.587,1042.50
1128.511,1115.00
1129.435,1053.50
1130.357,1053.00
1131.280,1043.50
1132.204,1045.00
1133.128,1098.50
1134.051,1046.50
1134.972,1034.50
1135.896,1015.50
1136.819,1021.00
1137.742,1022.50
1138.665,1051.00
1139.586,1053.00
1140.509,1084.50
1141.431,1042.50
1142.354,1012.50
1143.276,1003.00
1144.197,1031.50
1145.119,952.00
1146.041,1035.00
1146.964,1013.50
1147.885,960.00
1148.806,1004.00
1149.727,1037.50
1150.649,1064.50
1151.571,1033.00
1152.492,1029.00
1153.412,986.50
1154.333,984.50
1155.254,992.00
1156.175,988.00
1157.095,1004.00
1158.016,972.50
1158.936,1009.50
1159.857,971.00
1160.778,953.00
1161.697,999.50
1162.617,930.00
1163.537,972.50
1164.458,1037.00
1165.376,946.50
1166.296,950.50
1167.216,950.50
1168.136,980.50
1169.056,954.50
1169.974,930.00
1170.893,956.50
1171.813,940.50
1172.732,992.50
1173.650,865.00
1174.569,975.50
1175.488,970.50
1176.407,952.50
1177.326,936.00
1178.243,964.50
1179.161,904.50
1180.080,948.00
1180.999,929.00
1181.915,946.00
1182.834,933.00
1183.752,936.00
1184.670,892.50
1185.586,927.00
1186.504,912.50
1187.422,965.50
1188.340,958.50
1189.258,951.00
1190.173,896.00
1191.091,881.00
1192.008,932.50
1192.926,928.00
1193.841,946.50
1194.758,915.00
1195.675,894.50
1196.592,914.50
1197.507,941.50
1198.424,917.00
1199.340,923.00
1200.257,894.50
1201.172,864.50
1202.088,922.50
1203.004,895.50
1203.920,976.50
1204.835,869.50
1205.750,915.50
1206.666,934.50
1207.582,888.00
1208.496,923.50
1209.412,934.00
1210.327,912.50
1211.243,967.00
1212.156,875.00
1213.071,899.50
1213.986,898.00
1214.901,910.50
1215.814,915.50
1216.729,855.50
1217.644,910.50
1218.559,942.00
1219.471,907.00
1220.386,927.00
1221.300,901.00
1222.213,908.00
1223.127,879.50
1224.041,933.50
1224.955,919.50
1225.867,889.00
1226.781,924.00
1227.694,954.00
1228.608,965.50
1229.520,889.50
1230.433,928.00
1231.346,916.00
1232.260,935.50
1233.171,889.50
1234.084,893.00
1234.997,941.50
1235.908,910.00
1236.821,957.00
1237.733,943.00
1238.646,933.50
1239.556,869.50
1240.469,929.50
1241.381,938.50
1242.293,916.50
1243.203,886.50
1244.115,907.50
1245.027,985.50
1245.937,932.00
1246.849,920.00
1247.761,915.00
1248.672,929.00
1249.582,904.00
1250.493,949.00
1251.404,922.50
1252.313,908.50
1253.225,929.00
1254.135,926.50
1255.046,936.00
1255.955,960.50
1256.866,891.50
1257.777,868.50
1258.685,918.50
1259.596,895.50
1260.506,961.50
1261.416,999.00
1262.324,945.00
1263.234,972.00
1264.144,907.50
1265.052,944.50
1265.962,932.50
1266.872,940.00
1267.779,875.00
1268.689,915.50
1269.598,896.00
1270.507,890.00
1271.415,932.50
1272.324,912.00
1273.233,905.00
1274.140,887.00
1275.048,921.50
1275.957,964.00
1276.864,950.50
1277.772,864.50
1278.681,930.50
1279.587,930.00
1280.496,887.00
1281.404,878.00
1282.312,912.50
1283.218,977.50
1284.126,905.00
1285.033,912.50
1285.939,875.50
1286.847,946.50
1287.754,960.00
1288.660,916.00
1289.567,866.50
1290.474,935.00
1291.380,894.50
1292.286,906.50
1293.193,949.00
1294.098,947.00
1295.005,913.50
1295.912,926.00
1296.816,964.00
1297.723,913.00
1298.629,890.00
1299.534,888.50
1300.440,928.50
1301.346,961.50
1302.250,907.50
1303.156,892.50
1304.062,899.50
1304.966,901.00
1305.871,929.00
1306.777,870.50
1307.680,891.50
1308.586,906.50
1309.491,896.00
1310.394,907.50
1311.299,889.50
1312.204,950.50
1313.107,910.50
1314.012,887.00
1314.917,936.00
1315.819,874.50
1316.724,876.00
1317.628,935.50
1318.531,847.50
1319.435,858.00
1320.339,933.50
1321.241,908.50
1322.145,907.50
1323.049,851.00
1323.951,871.00
1324.854,888.00
1325.756,881.50
1326.659,858.50
1327.563,839.00
1328.464,868.50
1329.367,846.00
1330.271,820.50
1331.172,872.00
1332.074,870.00
1332.977,827.00
1333.878,845.50
1334.781,830.50
1335.683,869.50
1336.584,842.50
1337.486,878.50
1338.387,838.00
1339.289,851.50
1340.191,858.00
1341.091,832.50
1341.993,804.50
1342.895,784.50
1343.794,816.00
1344.696,829.00
1345.596,785.50
1346.497,839.00
1347.398,837.00
1348.298,802.00
1349.199,875.50
1350.100,822.00
1350.999,778.50
1351.900,845.50
1352.799,824.50
1353.699,830.50
1354.600,841.50
1355.499,789.50
1356.399,828.00
1357.297,787.00
1358.198,806.00
1359.098,767.50
1359.996,751.50
1360.896,768.00
1361.796,804.00
1362.694,814.50
1363.593,829.50
1364.491,798.50
1365.391,758.00
1366.290,783.50
1367.187,781.50
1368.086,727.50
1368.984,726.50
1369.883,764.50
1370.782,823.50
1371.679,760.00
1372.577,744.50
1373.474,765.00
1374.373,712.50
1375.269,759.00
1376.168,731.50
1377.066,736.00
1377.962,757.50
1378.860,776.50
1379.756,739.00
1380.654,749.50
1381.552,758.00
1382.448,735.50
1383.346,718.50
1384.241,752.00
1385.139,729.00
1386.036,695.00
1386.931,703.50
1387.829,779.00
1388.724,718.50
1389.621,701.00
1390.516,714.50
1391.413,748.00
1392.309,720.50
1393.204,695.00
1394.101,688.00
1394.995,715.00
1395.891,720.00
1396.786,713.50
1397.682,698.00
1398.578,675.50
1399.472,670.50
1400.368,715.50
1401.262,688.00
1402.158,734.50
1403.051,736.00
1403.947,638.00
1404.840,684.00
1405.736,702.50
1406.631,736.00
1407.524,659.00
1408.419,711.50
1409.312,722.50
1410.207,712.00
1411.100,719.00
1411.995,682.50
1412.888,709.50
1413.782,713.00
1414.675,678.00
1415.569,718.50
1416.463,691.00
1417.355,683.00
1418.249,680.50
1419.141,651.50
1420.035,659.00
1420.927,702.00
1421.821,593.00
1422.713,659.50
1423.606,676.00
1424.498,677.50
1425.391,677.50
1426.282,652.00
1427.175,680.50
1428.068,643.00
1428.960,674.00
1429.852,662.50
1430.743,640.50
1431.636,683.50
1432.527,647.50
1433.419,629.50
1434.310,665.00
1435.202,625.00
1436.092,652.50
1436.984,643.00
1437.875,614.50
1438.767,644.50
1439.657,668.00
1440.548,665.00
1441.438,592.00
1442.330,709.00
1443.219,657.00
1444.111,629.00
1445.000,674.50
1445.891,637.00
1446.781,681.50
1447.672,629.00
1448.561,641.00
1449.452,659.00
1450.340,626.00
1451.231,629.00
1452.120,689.50
1453.010,616.50
1453.899,583.50
1454.789,603.00
1455.677,649.00
1456.568,612.50
1457.456,634.00
1458.346,647.50
1459.234,609.50
1460.123,580.50
1461.011,622.00
1461.901,604.50
1462.788,646.50
1463.678,626.00
1464.565,595.50
1465.454,623.50
1466.342,601.00
1467.231,629.00
1468.118,618.50
1469.006,625.50
1469.893,634.00
1470.782,617.50
1471.669,640.50
1472.557,618.00
1473.444,595.50
1474.330,623.00
1475.218,612.50
1476.105,575.00
1476.993,630.00
1477.879,599.50
1478.767,528.50
1479.652,600.00
1480.540,610.00
1481.426,598.00
1482.313,631.50
1483.199,570.00
1484.086,637.50
1484.972,611.00
1485.857,594.00
1486.744,593.00
1487.629,626.50
1488.516,589.00
1489.401,592.00
1490.287,604.00
1491.172,568.50
1492.058,668.00
1492.943,605.50
1493.828,598.00
1494.714,628.00
1495.598,569.00
1496.484,601.00
1497.368,567.50
1498.254,528.00
1499.138,641.00
1500.022,605.00
1500.907,524.50
1501.791,571.00
1502.676,623.00
1503.560,537.50
1504.445,556.50
1505.328,569.00
1506.211,580.00
1507.096,545.50
1507.979,627.00
1508.864,585.00
1509.747,577.00
1510.631,526.00
1511.514,593.00
1512.397,553.00
1513.281,573.50
1514.163,531.00
1515.047,572.50
1515.930,561.50
1516.812,573.00
1517.696,578.50
1518.578,508.50
1519.461,548.50
1520.343,564.50
1521.225,604.50
1522.108,612.50
1522.990,584.00
1523.873,555.50
1524.754,568.50
1525.635,571.50
1526.518,509.00
1527.399,573.50
1528.282,579.50
1529.163,604.50
1530.044,553.50
1530.926,533.50
1531.807,609.50
1532.689,528.50
1533.569,502.50
1534.450,574.50
1535.332,590.00
1536.212,600.50
1537.092,516.00
1537.974,530.50
1538.854,547.50
1539.735,510.50
1540.615,493.00
1541.495,547.00
1542.376,526.00
1543.255,512.50
1544.135,511.50
1545.016,532.00
1545.895,526.00
1546.774,518.00
1547.655,505.50
1548.534,517.00
1549.414,528.50
1550.293,508.00
1551.172,532.50
1552.052,559.00
1552.930,543.50
1553.809,512.00
1554.689,539.50
1555.567,539.00
1556.445,499.50
1557.325,492.50
1558.203,527.50
1559.080,553.50
1559.960,527.00
1560.838,552.00
1561.715,525.00
1562.594,576.00
1563.472,549.00
1564.349,513.00
1565.228,466.50
1566.105,530.50
1566.982,555.00
1567.861,465.50
1568.738,507.50
1569.615,526.50
1570.493,487.50
1571.370,500.00
1572.246,528.50
1573.124,523.00
1574.000,587.00
1574.877,560.00
1575.755,563.00
1576.631,445.50
1577.507,481.00
1578.384,541.50
1579.260,557.00
1580.136,517.50
1581.011,511.00
1581.889,524.00
1582.764,487.50
1583.639,506.00
1584.516,522.00
1585.391,534.50
1586.266,501.00
1587.143,529.50
1588.018,478.00
1588.893,500.00
1589.768,486.00
1590.644,501.50
1591.519,533.50
1592.393,487.50
1593.269,506.50
1594.143,488.00
1595.018,508.50
1595.892,492.50
1596.767,480.00
1597.641,496.50
1598.515,518.00
1599.391,513.00
1600.264,483.00
1601.138,557.00
1602.011,493.50
1602.886,492.00
1603.760,503.00
1604.633,471.00
1605.508,496.00
1606.381,541.00
1607.254,514.50
1608.127,535.00
1609.001,523.50
1609.874,482.50
1610.746,481.00
1611.619,471.50
1612.493,479.00
1613.365,484.50
1614.238,510.00
1615.110,471.50
1615.984,495.50
1616.855,484.50
1617.727,510.00
1618.599,501.50
1619.473,477.00
1620.344,482.00
1621.216,579.50
1622.087,482.00
1622.960,455.00
1623.832,507.00
1624.703,492.00
1625.574,464.00
1626.445,470.00
1627.317,508.00
1628.188,507.00
1629.059,498.50
1629.930,491.00
1630.802,474.50
1631.672,458.00
1632.543,508.00
1633.413,501.00
1634.283,525.00
1635.155,509.50
1636.025,499.00
1636.895,526.50
1637.765,490.00
1638.636,461.50
1639.506,525.50
1640.376,455.50
1641.245,469.50
1642.114,465.50
1642.985,477.00
1643.855,446.50
1644.724,467.50
1645.593,472.00
1646.462,470.50
1647.333,520.50
1648.201,460.00
1649.070,424.50
1649.939,495.50
1650.807,482.50
1651.676,540.50
1652.546,480.00
1653.414,518.50
1654.282,447.50
1655.150,469.00
1656.018,469.50
1656.888,469.00
1657.756,472.00
1658.623,478.00
1659.491,435.00
1660.359,446.50
1661.226,482.50
1662.095,479.50
1662.962,489.00
1663.830,462.00
1664.697,493.50
1665.564,463.50
1666.431,452.50
1667.297,465.50
1668.166,423.00
1669.033,510.00
1669.899,477.50
1670.766,475.50
1671.632,473.50
1672.499,495.00
1673.367,472.00
1674.233,466.50
1675.099,415.50
1675.965,458.50
1676.831,468.50
1677.696,442.00
1678.562,436.50
1679.430,499.50
1680.295,464.00
1681.161,480.50
1682.026,490.00
1682.891,449.50
1683.756,462.00
1684.621,481.00
1685.486,464.50
1686.353,416.50
1687.218,493.50
1688.083,437.00
1688.947,458.00
1689.812,396.50
1690.677,469.00
1691.541,496.50
1692.405,440.00
1693.269,485.50
1694.135,447.50
1694.999,460.00
1695.863,447.00
1696.727,481.00
1697.591,468.50
1698.455,473.50
1699.318,425.00
1700.182,441.00
1701.045,395.00
1701.909,445.00
1702.772,456.50
1703.637,447.00
1704.500,412.50
1705.363,479.50
1706.226,442.00
1707.089,471.00
1707.951,482.00
1708.814,434.50
1709.677,400.00
1710.539,478.00
1711.402,547.00
1712.264,481.00
1713.126,470.50
1713.988,411.00
1714.852,461.50
1715.714,453.00
1716.576,479.00
1717.438,426.50
1718.299,372.00
1719.161,461.50
1720.023,461.00
1720.884,451.00
1721.745,453.50
1722.607,428.00
1723.468,432.00
1724.329,437.00
1725.190,493.00
1726.051,460.50
1726.912,432.50
1727.772,443.00
1728.633,420.50
1729.494,441.50
1730.354,431.50
1731.214,424.50
1732.075,457.50
1732.935,435.50
1733.797,424.50
1734.657,395.00
1735.517,454.50
1736.377,447.00
1737.237,420.00
1738.096,439.50
1738.956,419.50
1739.816,412.00
1740.675,406.00
1741.534,398.50
1742.394,479.00
1743.253,441.50
1744.112,409.50
1744.971,463.00
1745.830,492.50
1746.689,399.50
1747.547,428.50
1748.406,477.00
1749.265,444.50
1750.123,418.00
1750.982,453.50
1751.840,386.00
1752.698,414.50
1753.556,427.00
1754.414,398.50
1755.272,417.00
1756.130,402.00
1756.988,413.00
1757.846,426.00
1758.703,382.00
1759.559,449.50
1760.417,432.50
1761.274,460.00
1762.131,407.50
1762.989,423.00
1763.846,423.00
1764.703,436.00
1765.560,411.50
1766.417,474.00
1767.273,428.50
1768.130,430.00
1768.987,414.50
1769.843,462.50
1770.700,384.50
1771.556,454.50
1772.412,457.00
1773.268,415.50
1774.125,420.00
1774.980,420.00
1775.836,399.00
1776.692,437.00
1777.546,440.00
1778.402,442.00
1779.257,441.00
1780.113,432.00
1780.968,430.50
1781.824,397.50
1782.679,398.00
1783.534,406.00
1784.389,439.50
1785.244,417.00
1786.099,436.00
1786.954,396.00
1787.808,397.00
1788.661,435.50
1789.516,406.00
1790.370,451.50
1791.225,453.00
1792.079,472.50
1792.933,475.00
1793.787,474.00
1794.641,398.00
1795.495,469.00
1796.349,472.00
1797.201,381.00
1798.055,394.00
1798.908,440.00
1799.762,419.00
1800.615,447.00
1801.469,420.00
1802.322,419.50
1803.175,395.50
1804.028,440.00
1804.880,394.50
1805.732,374.00
1806.585,383.00
1807.438,411.50
1808.291,444.00
1809.143,450.00
1809.996,384.00
1810.846,368.00
1811.699,404.50
1812.551,435.00
1813.403,442.50
1814.255,395.50
1815.107,401.00
1815.959,405.50
1816.809,446.50
1817.661,365.00
1818.512,387.50
1819.364,431.50
1820.215,451.00
1821.067,428.50
1821.918,383.50
1822.768,435.00
1823.619,411.00
1824.470,418.00
1825.321,395.00
1826.172,431.50
1827.021,422.00
1827.871,414.00
1828.722,389.00
1829.572,424.00
1830.423,374.00
1831.273,441.00
1832.122,362.00
1832.972,397.50
1833.822,386.00
1834.672,384.50
1835.522,401.00
1836.370,437.00
1837.220,426.00
1838.070,362.50
1838.919,396.00
1839.769,422.50
1840.616,379.00
1841.466,451.00
1842.315,411.00
1843.164,434.50
1844.013,402.00
1844.860,376.00
1845.709,374.50
1846.558,409.00
1847.407,422.50
1848.254,404.50
1849.102,411.00
1849.951,378.50
1850.799,418.50
1851.648,403.00
1852.494,386.50
1853.342,422.50
1854.190,378.50
1855.038,397.50
1855.884,424.00
1856.732,352.50
1857.580,389.50
1858.428,444.00
1859.273,401.00
1860.121,447.50
1860.968,397.50
1861.816,400.00
1862.661,380.50
1863.508,453.50
1864.355,349.50
1865.202,378.50
1866.047,428.50
1866.894,420.00
1867.741,354.50
1868.586,368.00
1869.432,387.50
1870.279,414.50
1871.125,392.50
1871.970,340.00
1872.816,417.50
1873.662,411.00
1874.506,423.50
1875.352,382.00
1876.198,411.50
1877.044,429.50
1877.888,383.50
1878.734,416.00
1879.579,380.50
1880.423,451.50
1881.268,351.50
1882.113,417.00
1882.959,386.50
1883.802,439.00
1884.647,410.50
1885.492,433.00
1886.335,421.50
1887.180,441.00
1888.025,411.00
1888.867,370.00
1889.712,435.00
1890.556,357.50
1891.399,403.50
1892.243,428.50
1893.087,404.50
1893.930,357.00
1894.774,444.50
1895.618,419.00
1896.460,387.00
1897.304,400.00
1898.147,466.50
1898.989,408.50
1899.833,394.00
1900.676,453.00
1901.518,364.00
1902.361,406.50
1903.202,368.00
1904.046,405.50
1904.889,425.50
1905.730,401.50
1906.573,350.50
1907.415,397.00
1908.256,417.50
1909.099,370.50
1909.941,459.00
1910.782,395.50
1911.624,414.00
1912.465,390.50
1913.307,391.00
1914.149,367.50
1914.989,398.50
1915.831,375.50
1916.671,380.50
1917.513,387.50
1918.355,378.50
1919.195,407.00
1920.036,390.00
1920.876,437.50
1921.717,418.00
1922.558,414.00
1923.398,371.00
1924.239,374.00
1925.078,405.50
1925.919,404.50
1926.760,408.50
1927.599,407.00
1928.440,360.50
1929.279,347.00
1930.119,383.50
1930.958,333.50
1931.798,418.50
1932.638,452.50
1933.477,364.00
1934.317,425.50
1935.155,357.00
1935.995,377.50
1936.833,385.00
1937.673,333.50
1938.512,393.00
1939.350,394.50
1940.190,423.50
1941.027,403.00
1941.867,399.00
1942.704,339.50
1943.543,411.00
1944.381,350.00
1945.220,360.50
1946.057,432.50
1946.896,336.50
1947.733,407.00
1948.572,385.50
1949.408,347.00
1950.247,356.00
1951.085,395.00
1951.922,365.50
1952.760,393.50
1953.597,348.50
1954.435,356.50
1955.271,371.00
1956.109,387.50
1956.945,344.00
1957.783,362.00
1958.619,425.00
1959.456,389.00
1960.292,366.50
1961.129,381.50
1961.965,382.00
1962.802,389.50
1963.638,417.00
1964.475,411.00
1965.310,311.50
1966.145,392.50
1966.982,411.50
1967.817,385.00
1968.654,346.50
1969.489,308.00
1970.325,404.00
1971.160,401.50
1971.996,401.00
1972.831,392.50
1973.667,424.00
1974.501,390.50
1975.337,382.00
1976.171,421.00
1977.006,382.00
1977.841,414.00
1978.675,361.00
1979.511,383.00
1980.345,407.00
1981.180,402.50
1982.014,392.50
1982.849,377.00
1983.682,342.00
1984.516,438.50
1985.351,404.00
1986.184,396.50
1987.019,408.00
1987.852,362.50
1988.687,383.50
1989.519,378.50
1990.352,370.50
1991.187,430.50
1992.019,384.00
1992.854,386.50
1993.686,381.00
1994.518,432.00
1995.352,382.00
1996.185,403.00
1997.019,365.00
1997.851,370.00
1998.682,443.00
1999.516,448.00
2000.348,383.00

<< BACKGROUND SPECTRUM >>
Wave[dcm-1],No5
96.716,2553.00
97.759,2366.00
98.802,2272.00
99.846,2906.00
100.886,2585.00
101.929,2779.00
102.972,2741.00
104.015,2629.00
105.057,2789.00
106.100,2198.00
107.142,2594.00
108.184,3035.00
109.226,2818.00
110.268,3019.00
111.310,3300.00
112.352,2900.00
113.393,2950.00
114.435,2792.00
115.476,3051.00
116.517,3080.00
117.558,2577.00
118.599,2921.00
119.640,3273.00
120.681,3255.00
121.722,3148.00
122.762,2875.00
123.803,2750.00
124.843,3083.00
125.883,3366.00
126.923,3552.00
127.963,3303.00
129.001,3556.00
130.041,3998.00
131.080,3277.00
132.120,3145.00
133.159,3551.00
134.199,3649.00
135.238,3144.00
136.277,3519.00
137.316,3662.00
138.355,3607.00
139.393,3246.00
140.432,3337.00
141.470,3415.00
142.509,3153.00
143.547,3783.00
144.585,2965.00
145.623,3359.00
146.661,3123.00
147.699,3534.00
148.736,3539.00
149.774,3218.00
150.811,3494.00
151.849,3890.00
152.886,3433.00
153.923,3650.00
154.960,3129.00
155.997,3952.00
157.034,4900.00
158.072,3587.00
159.109,4056.00
160.145,4226.00
161.182,3220.00
162.218,3464.00
163.254,3327.00
164.290,3284.00
165.326,4037.00
166.361,3877.00
167.397,3520.00
168.432,3715.00
169.468,3389.00
170.503,3646.00
171.538,3363.00
172.573,3753.00
173.608,3191.00
174.643,3755.00
175.677,3636.00
176.712,3778.00
177.746,3834.00
178.781,3354.00
179.815,2695.00
180.849,3764.00
181.883,3337.00
182.917,2792.00
183.951,3092.00
184.984,3862.00
186.020,3277.00
187.053,3595.00
188.087,3225.00
189.120,3473.00
190.153,3688.00
191.186,3691.00
192.219,3811.00
193.251,3691.00
194.284,3763.00
195.317,3853.00
196.349,6098.00
197.381,3475.00
198.413,3447.00
199.445,3246.00
200.477,3591.00
201.509,3524.00
202.543,3539.00
203.575,3918.00
204.606,3641.00
205.637,5207.00
206.669,3157.00
207.700,3691.00
208.731,3540.00
209.762,3202.00
210.792,3250.00
211.823,3658.00
212.854,3246.00
213.884,4392.00
214.914,3640.00
215.947,3533.00
216.977,3648.00
218.007,3560.00
219.037,3833.00
220.066,3356.00
221.096,3810.00
222.126,3136.00
223.155,3372.00
224.184,3742.00
225.214,4249.00
226.245,3900.00
227.274,3281.00
228.302,3637.00
229.331,3717.00
230.360,3443.00
231.388,3413.00
232.417,3187.00
233.445,3603.00
234.473,3382.00
235.501,3726.00
236.531,3730.00
237.559,3679.00
238.587,3303.00
239.614,3293.00
240.642,3620.00
241.669,3665.00
242.696,3722.00
243.724,3631.00
244.753,4043.00
245.780,3369.00
246.806,3206.00
247.833,3644.00
248.860,3454.00
249.886,3555.00
250.913,3190.00
251.939,3541.00
252.967,3505.00
253.993,3500.00
255.019,3943.00
256.045,3565.00
257.070,4038.00
258.096,3243.00
259.121,3717.00
260.147,3547.00
261.174,3462.00
262.199,3460.00
263.224,3599.00
264.249,3834.00
265.274,4118.00
266.298,3532.00
267.323,3596.00
268.349,3879.00
269.374,3220.00
270.398,3200.00
271.422,3709.00
272.446,3277.00
273.470,3119.00
274.496,3708.00
275.519,3713.00
276.543,3870.00
277.566,3866.00
278.589,3879.00
279.613,3685.00
280.636,3698.00
281.661,3849.00
282.684,3880.00
283.706,3930.00
284.729,4135.00
285.751,3024.00
286.774,4051.00
287.798,3400.00
288.820,2972.00
289.842,3294.00
290.864,3317.00
291.886,3623.00
292.910,3437.00
293.932,4085.00
294.953,3560.00
295.974,3502.00
296.996,3703.00
298.017,3510.00
299.040,3394.00
300.061,3608.00
301.082,3380.00
302.102,3271.00
303.123,3797.00
304.143,3564.00
305.166,3505.00
306.186,3812.00
307.206,3326.00
308.226,3794.00
309.246,3081.00
310.268,3866.00
311.288,3485.00
312.307,3185.00
313.327,3485.00
314.346,3766.00
315.368,2992.00
316.387,3619.00
317.406,3634.00
318.425,3554.00
319.443,3465.00
320.464,3137.00
321.483,4051.00
322.501,3369.00
323.520,3948.00
324.538,3450.00
325.558,4038.00
326.576,3635.00
327.594,3514.00
328.612,3376.00
329.629,3128.00
330.649,3784.00
331.666,3543.00
332.684,3145.00
333.701,3709.00
334.718,3185.00
335.737,3412.00
336.754,3687.00
337.771,3795.00
338.787,3190.00
339.806,3494.00
340.823,3412.00
341.839,3514.00
342.855,3435.00
343.871,3625.00
344.889,3284.00
345.905,3821.00
346.921,3769.00
347.937,4370.00
348.954,4130.00
349.970,3676.00
350.985,3599.00
352.000,3118.00
353.017,3789.00
354.032,3128.00
355.047,3829.00
356.062,3466.00
357.077,3416.00
358.093,3927.00
359.108,3704.00
360.122,3594.00
361.136,3544.00
362.152,3916.00
363.166,3262.00
364.180,3117.00
365.194,3969.00
366.210,3409.00
367.223,3304.00
368.237,3333.00
369.250,3587.00
370.265,3343.00
371.278,3879.00
372.291,3701.00
373.304,3038.00
374.319,3718.00
375.332,3838.00
376.344,4046.00
377.357,3427.00
378.371,3816.00
379.383,3321.00
380.395,4341.00
381.407,4113.00
382.421,3410.00
383.433,3397.00
384.445,3334.00
385.456,3487.00
386.470,3074.00
387.481,3937.00
388.492,3898.00
389.505,3236.00
390.516,3907.00
391.527,3524.00
392.538,3435.00
393.551,3677.00
394.561,4336.00
395.572,3723.00
396.582,3581.00
397.594,3774.00
398.604,3386.00
399.614,3604.00
400.624,3435.00
401.636,3427.00
402.646,3516.00
403.655,3148.00
404.667,3357.00
405.676,3402.00
406.685,4310.00
407.694,3908.00
408.705,3040.00
409.714,3139.00
410.723,3248.00
411.734,3253.00
412.742,3377.00
413.751,3653.00
414.759,3650.00
415.769,3541.00
416.777,3778.00
417.785,3522.00
418.795,3371.00
419.803,3561.00
420.811,3286.00
421.818,3945.00
422.828,3468.00
423.835,3395.00
424.842,3410.00
425.852,3256.00
426.859,3639.00
427.866,3705.00
428.874,3623.00
429.881,3497.00
430.888,3792.00
431.894,3602.00
432.902,3558.00
433.909,4515.00
434.915,3666.00
435.923,4249.00
436.929,3093.00
437.935,3540.00
438.942,3423.00
439.948,3568.00
440.953,4106.00
441.959,3178.00
442.966,3973.00
443.971,3718.00
444.976,3160.00
445.983,3548.00
446.988,3424.00
447.993,4011.00
448.999,3624.00
450.004,3581.00
451.008,3344.00
452.014,4060.00
453.019,3831.00
454.023,3220.00
455.029,3206.00
456.032,4052.00
457.036,3433.00
458.042,2935.00
459.045,3424.00
460.049,3772.00
461.052,4057.00
462.057,3750.00
463.060,3927.00
464.063,3389.00
465.068,3533.00
466.071,3318.00
467.073,3876.00
468.078,3151.00
469.080,3079.00
470.082,3555.00
471.087,3428.00
472.089,3560.00
473.091,3771.00
474.095,3963.00
475.096,3406.00
476.098,3364.00
477.101,3788.00
478.103,3258.00
479.104,4175.00
480.107,3493.00
481.108,3033.00
482.109,4221.00
483.112,4169.00
484.113,4566.00
485.114,3802.00
486.116,3591.00
487.117,3911.00
488.117,3590.00
489.119,3689.00
490.119,3741.00
491.121,3203.00
492.121,3030.00
493.121,2909.00
494.123,3623.00
495.122,3670.00
496.122,3574.00
497.123,4496.00
498.122,3322.00
499.121,3614.00
500.122,3585.00
501.121,3177.00
502.120,3145.00
503.121,3268.00
504.119,3181.00
505.118,3739.00
506.118,3306.00
507.117,3263.00
508.115,3757.00
509.115,3539.00
510.113,3082.00
511.112,3805.00
512.110,3475.00
513.108,3787.00
514.107,3895.00
515.105,3777.00
516.102,3927.00
517.101,3494.00
518.098,3551.00
519.095,4115.00
520.094,3455.00
521.091,3394.00
522.089,3732.00
523.086,3350.00
524.082,3723.00
525.081,3658.00
526.077,4720.00
527.073,4525.00
528.071,3517.00
529.067,3374.00
530.064,3417.00
531.060,3148.00
532.056,3474.00
533.053,3835.00
534.048,3788.00
535.044,3539.00
536.041,3673.00
537.036,3584.00
538.030,3719.00
539.027,3765.00
540.022,3122.00
541.019,3511.00
542.013,3780.00
543.007,3638.00
544.004,3467.00
544.998,3528.00
545.994,4115.00
546.988,3960.00
547.981,3433.00
548.977,4115.00
549.971,3637.00
550.964,3794.00
551.960,3621.00
552.953,3555.00
553.948,3791.00
554.941,3387.00
555.934,3228.00
556.929,3758.00
557.922,3279.00
558.916,3847.00
559.909,4074.00
560.901,3649.00
561.895,3628.00
562.888,3282.00
563.880,3751.00
564.874,3913.00
565.865,3830.00
566.859,3176.00
567.851,4084.00
568.842,3506.00
569.836,3531.00
570.827,3244.00
571.820,3605.00
572.811,3725.00
573.802,3556.00
574.795,3303.00
575.786,3812.00
576.779,3678.00
577.769,3155.00
578.760,3628.00
579.752,3202.00
580.742,3396.00
581.735,3689.00
582.725,3362.00
583.714,3812.00
584.706,3228.00
585.696,3560.00
586.688,3779.00
587.677,3473.00
588.667,3688.00
589.658,3521.00
590.647,3664.00
591.638,3567.00
592.627,3362.00
593.616,3057.00
594.607,3699.00
595.595,3549.00
596.586,3175.00
597.574,3861.00
598.562,3954.00
599.553,3211.00
600.541,3546.00
601.531,3667.00
602.519,3419.00
603.508,3669.00
604.496,3718.00
605.484,3636.00
606.473,3523.00
607.460,3375.00
608.450,3415.00
609.437,3744.00
610.424,3864.00
611.413,3139.00
612.400,3298.00
613.388,3611.00
614.375,3401.00
615.361,3457.00
616.350,3299.00
617.336,8460.00
618.324,3871.00
619.310,3379.00
620.298,3226.00
621.284,3627.00
622.270,3229.00
623.257,3535.00
624.243,3579.00
625.230,3792.00
626.216,3519.00
627.203,3931.00
628.188,3458.00
629.173,3370.00
630.160,3296.00
631.145,2714.00
632.131,3342.00
633.116,3168.00
634.102,3621.00
635.087,3809.00
636.071,3768.00
637.057,3296.00
638.041,3081.00
639.027,3230.00
640.011,3430.00
640.995,3253.00
641.980,3217.00
642.964,3398.00
643.949,3913.00
644.932,2820.00
645.918,3350.00
646.901,3463.00
647.886,3316.00
648.868,3394.00
649.851,3172.00
650.836,2928.00
651.818,3206.00
652.803,3701.00
653.785,3497.00
654.769,3693.00
655.751,3672.00
656.733,3924.00
657.717,3050.00
658.699,3534.00
659.683,3334.00
660.664,3161.00
661.648,3353.00
662.629,3328.00
663.611,3272.00
664.594,3052.00
665.575,3078.00
666.558,3386.00
667.539,3093.00
668.521,3372.00
669.502,3389.00
670.484,3340.00
671.465,3264.00
672.445,3454.00
673.427,3241.00
674.407,3211.00
675.390,3513.00
676.369,3344.00
677.351,2993.00
678.331,3599.00
679.312,3418.00
680.292,3262.00
681.271,2940.00
682.253,3575.00
683.232,3079.00
684.213,3249.00
685.192,3645.00
686.172,3929.00
687.151,3338.00
688.132,3462.00
689.110,3550.00
690.089,3719.00
691.069,2887.00
692.047,2844.00
693.027,2948.00
694.005,3405.00
694.985,3927.00
695.963,3523.00
696.943,3228.00
697.920,3037.00
698.898,3775.00
699.877,3642.00
700.854,3242.00
701.833,3253.00
702.810,3734.00
703.789,3459.00
704.766,4456.00
705.745,3917.00
706.721,3139.00
707.698,3752.00
708.676,3047.00
709.653,3309.00
710.631,3634.00
711.607,3322.00
712.585,3388.00
713.561,3083.00
714.539,3910.00
715.514,3284.00
716.492,3080.00
717.467,3781.00
718.443,3026.00
719.420,3692.00
720.395,3777.00
721.372,3517.00
722.347,3670.00
723.324,3229.00
724.298,3376.00
725.275,3115.00
726.250,3283.00
727.226,3169.00
728.200,2999.00
729.176,3312.00
730.151,3579.00
731.125,3771.00
732.100,2991.00
733.074,3347.00
734.050,3189.00
735.023,3050.00
735.999,3226.00
736.972,3226.00
737.947,3658.00
738.921,3411.00
739.896,3557.00
740.869,3437.00
741.841,3245.00
742.816,3740.00
743.789,3078.00
744.763,3083.00
745.736,3302.00
746.710,3175.00
747.682,3061.00
748.656,3281.00
749.628,3283.00
750.602,3293.00
751.574,3411.00
752.548,4203.00
753.519,3470.00
754.491,2891.00
755.464,3175.00
756.435,3966.00
757.408,3631.00
758.379,3461.00
759.352,2859.00
760.323,2998.00
761.296,3204.00
762.267,3346.00
763.239,3026.00
764.209,3550.00
765.182,4444.00
766.152,3648.00
767.124,3069.00
768.094,3145.00
769.064,3512.00
770.036,2980.00
771.005,3633.00
771.977,3142.00
772.947,3242.00
773.918,3681.00
774.887,3292.00
775.858,3126.00
776.827,3245.00
777.798,3245.00
778.767,3814.00
779.738,3229.00
780.707,3236.00
781.677,3370.00
782.646,3123.00
783.614,3728.00
784.584,3335.00
785.552,3476.00
786.522,2973.00
787.490,3238.00
788.460,3161.00
789.428,3170.00
790.397,3713.00
791.365,2979.00
792.334,3192.00
793.302,3398.00
794.271,3452.00
795.238,3186.00
796.207,3183.00
797.174,3569.00
798.143,3040.00
799.109,3648.00
800.076,3228.00
801.044,2906.00
802.011,3062.00
802.979,3133.00
803.945,3268.00
804.913,3913.00
805.879,3220.00
806.847,2916.00
807.813,3610.00
808.780,3220.00
809.746,3283.00
810.713,3664.00
811.678,2941.00
812.646,3189.00
813.611,3205.00
814.578,2987.00
815.543,3661.00
816.510,2834.00
817.474,3118.00
818.439,3186.00
819.405,3499.00
820.370,3118.00
821.336,3000.00
822.300,3388.00
823.266,3217.00
824.230,3447.00
825.196,3277.00
826.160,3640.00
827.126,3629.00
828.089,4030.00
829.055,3250.00
830.018,3322.00
830.983,4097.00
831.946,3063.00
832.911,3073.00
833.874,3849.00
834.837,3128.00
835.802,3183.00
836.765,3771.00
837.729,3086.00
838.691,3223.00
839.656,3581.00
840.618,3383.00
841.582,3498.00
842.544,3552.00
843.508,3739.00
844.470,3003.00
845.434,2859.00
846.395,2756.00
847.359,3177.00
848.320,2915.00
849.283,3038.00
850.245,3154.00
851.208,3537.00
852.169,3211.00
853.130,3003.00
854.092,3460.00
855.053,3189.00
856.016,3243.00
856.976,4354.00
857.938,3239.00
858.899,3308.00
859.861,2902.00
860.821,3171.00
861.783,2585.00
862.743,3262.00
863.704,3517.00
864.664,2765.00
865.626,3343.00
866.585,3046.00
867.546,3305.00
868.506,3283.00
869.467,2762.00
870.426,3314.00
871.387,3501.00
872.346,3518.00
873.304,3311.00
874.265,3448.00
875.223,3276.00
876.184,3359.00
877.142,3108.00
878.102,3195.00
879.060,3241.00
880.021,3284.00
880.978,2842.00
881.938,3193.00
882.896,3579.00
883.856,3399.00
884.813,3173.00
885.772,3181.00
886.730,3402.00
887.689,3363.00
888.646,3055.00
889.603,3602.00
890.562,3646.00
891.519,3369.00
892.477,3378.00
893.434,3347.00
894.392,2880.00
895.349,3236.00
896.307,3350.00
897.263,3492.00
898.221,3303.00
899.177,3113.00
900.135,3424.00
901.091,3208.00
902.048,3681.00
903.004,3202.00
903.961,3071.00
904.917,3180.00
905.874,3260.00
906.829,2919.00
907.784,3288.00
908.741,3270.00
909.696,3069.00
910.653,2761.00
911.607,3186.00
912.564,3161.00
913.518,3144.00
914.475,3267.00
915.429,4927.00
916.385,2933.00
917.339,3663.00
918.295,3364.00
919.249,3426.00
920.205,3266.00
921.158,3383.00
922.114,3166.00
923.067,3300.00
924.020,3316.00
924.976,3137.00
925.929,3390.00
926.884,3329.00
927.837,3557.00
928.791,3413.00
929.744,2966.00
930.699,3273.00
931.651,3238.00
932.606,2891.00
933.558,3075.00
934.512,3396.00
935.464,3350.00
936.418,3617.00
937.370,3407.00
938.322,2998.00
939.276,3145.00
940.227,3217.00
941.181,3386.00
942.132,3666.00
943.085,3828.00
944.036,2795.00
944.990,3590.00
945.941,3001.00
946.893,3108.00
947.844,2889.00
948.797,3335.00
949.747,4029.00
950.700,3135.00
951.650,2621.00
952.601,3387.00
953.553,2974.00
954.503,3479.00
955.455,3186.00
956.405,3214.00
957.356,2915.00
958.306,3513.00
959.258,3227.00
960.207,3597.00
961.158,3557.00
962.108,3198.00
963.059,2959.00
964.008,2875.00
964.959,3839.00
965.908,3194.00
966.856,2984.00
967.807,2787.00
968.756,3563.00
969.706,3250.00
970.654,3088.00
971.605,3213.00
972.553,3334.00
973.503,3242.00
974.451,3509.00
975.401,3256.00
976.348,3266.00
977.296,3112.00
978.246,3480.00
979.193,3643.00
980.142,2973.00
981.090,3284.00
982.039,3213.00
982.986,3329.00
983.935,3570.00
984.882,3319.00
985.830,3448.00
986.777,3338.00
987.725,3091.00
988.672,3044.00
989.618,3259.00
990.567,2980.00
991.513,3148.00
992.461,2967.00
993.407,3465.00
994.354,3331.00
995.300,3389.00
996.248,3328.00
997.193,3350.00
998.141,3151.00
999.086,3367.00
1000.031,3315.00
1000.978,2800.00
1001.924,3208.00
1002.870,3331.00
1003.815,2618.00
1004.762,3031.00
1005.707,3233.00
1006.653,3152.00
1007.598,3170.00
1008.542,2841.00
1009.488,2835.00
1010.432,3091.00
1011.378,3009.00
1012.322,3608.00
1013.268,2891.00
1014.212,3246.00
1015.157,3287.00
1016.101,3631.00
1017.046,2904.00
1017.990,2899.00
1018.933,3173.00
1019.878,2959.00
1020.821,3026.00
1021.766,2861.00
1022.709,3075.00
1023.654,3166.00
1024.596,3486.00
1025.541,3684.00
1026.483,3614.00
1027.425,3275.00
1028.370,3380.00
1029.312,3432.00
1030.256,3084.00
1031.198,3029.00
1032.141,3090.00
1033.083,3608.00
1034.027,3305.00
1034.968,3316.00
1035.910,2735.00
1036.853,3165.00
1037.794,3297.00
1038.738,2911.00
1039.679,3521.00
1040.621,3062.00
1041.562,3115.00
1042.503,3487.00
1043.446,2950.00
1044.386,3466.00
1045.329,3225.00
1046.269,3310.00
1047.211,3115.00
1048.151,3288.00
1049.093,2929.00
1050.033,3934.00
1050.973,3320.00
1051.915,3142.00
1052.854,3113.00
1053.796,3411.00
1054.735,3044.00
1055.677,3064.00
1056.616,3300.00
1057.555,3282.00
1058.496,2879.00
1059.435,3392.00
1060.376,3060.00
1061.315,3053.00
1062.255,2880.00
1063.194,3118.00
1064.132,2868.00
1065.073,3244.00
1066.011,3254.00
1066.951,3201.00
1067.889,2941.00
1068.829,3320.00
1069.767,3292.00
1070.705,2577.00
1071.644,3095.00
1072.582,2754.00
1073.521,3108.00
1074.459,3152.00
1075.398,3331.00
1076.335,2998.00
1077.272,3816.00
1078.211,3324.00
1079.148,3737.00
1080.087,3191.00
1081.023,3613.00
1081.962,3425.00
1082.898,2696.00
1083.835,3110.00
1084.773,2795.00
1085.709,2819.00
1086.647,3191.00
1087.583,3052.00
1088.519,3300.00
1089.457,3314.00
1090.392,2738.00
1091.330,3194.00
1092.266,3145.00
1093.203,3449.00
1094.138,2808.00
1095.073,3697.00
1096.010,3448.00
1096.945,3127.00
1097.882,2802.00
1098.817,2656.00
1099.752,3346.00
1100.688,3189.00
1101.623,3267.00
1102.559,3244.00
1103.493,3473.00
1104.430,2681.00
1105.364,2794.00
1106.298,3090.00
1107.234,3720.00
1108.167,2906.00
1109.094,3066.00
1110.019,3124.00
1110.945,3293.00
1111.869,3201.00
1112.795,3081.00
1113.720,3156.00
1114.646,3160.00
1115.571,2587.00
1116.495,3222.00
1117.420,3247.00
1118.345,2969.00
1119.270,3141.00
1120.195,3271.00
1121.118,3532.00
1122.042,3418.00
1122.967,3166.00
1123.891,3194.00
1124.816,3206.00
1125.738,3201.00
1126.663,2596.00
1127.587,3080.00
1128.511,2984.00
1129.435,3185.00
1130.357,3275.00
1131.280,4025.00
1132.204,2940.00
1133.128,2960.00
1134.051,3043.00
1134.972,3814.00
1135.896,3074.00
1136.819,3420.00
1137.742,2973.00
1138.665,3314.00
1139.586,3121.00
1140.509,2673.00
1141.431,2964.00
1142.354,3587.00
1143.276,3205.00
1144.197,3535.00
1145.119,3278.00
1146.041,2892.00
1146.964,3338.00
1147.885,3295.00
1148.806,3086.00
1149.727,3169.00
1150.649,2740.00
1151.571,3153.00
1152.492,3323.00
1153.412,3264.00
1154.333,3155.00
1155.254,3000.00
1156.175,3059.00
1157.095,3591.00
1158.016,3213.00
1158.936,2978.00
1159.857,3308.00
1160.778,3083.00
1161.697,2747.00
1162.617,3266.00
1163.537,3785.00
1164.458,3584.00
1165.376,2998.00
1166.296,3367.00
1167.216,3500.00
1168.136,2995.00
1169.056,2908.00
1169.974,3097.00
1170.893,3691.00
1171.813,3301.00
1172.732,3027.00
1173.650,3252.00
1174.569,3955.00
1175.488,3299.00
1176.407,2875.00
1177.326,2915.00
1178.243,3136.00
1179.161,3027.00
1180.080,3043.00
1180.999,3258.00
1181.915,3090.00
1182.834,2712.00
1183.752,3334.00
1184.670,3730.00
1185.586,2657.00
1186.504,2996.00
1187.422,3081.00
1188.340,2832.00
1189.258,3236.00
1190.173,3150.00
1191.091,3504.00
1192.008,2959.00
1192.926,2976.00
1193.841,3244.00
1194.758,3257.00
1195.675,2920.00
1196.592,3435.00
1197.507,2889.00
1198.424,3288.00
1199.340,3587.00
1200.257,3097.00
1201.172,3295.00
1202.088,2571.00
1203.004,3245.00
1203.920,3338.00
1204.835,3734.00
1205.750,3462.00
1206.666,3495.00
1207.582,2923.00
1208.496,2960.00
1209.412,3072.00
1210.327,2989.00
1211.243,3615.00
1212.156,2979.00
1213.071,2936.00
1213.986,3156.00
1214.901,2815.00
1215.814,2787.00
1216.729,2939.00
1217.644,2921.00
1218.559,2892.00
1219.471,3923.00
1220.386,3483.00
1221.300,2955.00
1222.213,3307.00
1223.127,3141.00
1224.041,3487.00
1224.955,2891.00
1225.867,3235.00
1226.781,3410.00
1227.694,3510.00
1228.608,3082.00
1229.520,3402.00
1230.433,3366.00
1231.346,2921.00
1232.260,3301.00
1233.171,2928.00
1234.084,3245.00
1234.997,3577.00
1235.908,2971.00
1236.821,3266.00
1237.733,4301.00
1238.646,3407.00
1239.556,3266.00
1240.469,3131.00
1241.381,2932.00
1242.293,2954.00
1243.203,3663.00
1244.115,3720.00
1245.027,3198.00
1245.937,3017.00
1246.849,3056.00
1247.761,3170.00
1248.672,2905.00
1249.582,3061.00
1250.493,3699.00
1251.404,3176.00
1252.313,3344.00
1253.225,3490.00
1254.135,4078.00
1255.046,3282.00
1255.955,3349.00
1256.866,3652.00
1257.777,3048.00
1258.685,2857.00
1259.596,2645.00
1260.506,3518.00
1261.416,3053.00
1262.324,3396.00
1263.234,3086.00
1264.144,3354.00
1265.052,3225.00
1265.962,3162.00
1266.872,3417.00
1267.779,3408.00
1268.689,2720.00
1269.598,2902.00
1270.507,3133.00
1271.415,3018.00
1272.324,3248.00
1273.233,3157.00
1274.140,3013.00
1275.048,2887.00
1275.957,2644.00
1276.864,2948.00
1277.772,2998.00
1278.681,2650.00
1279.587,2911.00
1280.496,3305.00
1281.404,3928.00
1282.312,3329.00
1283.218,2840.00
1284.126,2910.00
1285.033,3678.00
1285.939,3097.00
1286.847,3191.00
1287.754,3032.00
1288.660,2916.00
1289.567,3781.00
1290.474,3215.00
1291.380,3415.00
1292.286,2868.00
1293.193,3185.00
1294.098,3150.00
1295.005,2991.00
1295.912,3471.00
1296.816,3180.00
1297.723,3083.00
1298.629,2984.00
1299.534,3523.00
1300.440,3266.00
1301.346,2901.00
1302.250,2979.00
1303.156,2752.00
1304.062,3606.00
1304.966,3685.00
1305.871,3443.00
1306.777,2991.00
1307.680,3088.00
1308.586,3265.00
1309.491,3371.00
1310.394,3147.00
1311.299,3422.00
1312.204,3629.00
1313.107,3283.00
1314.012,3206.00
1314.917,2826.00
1315.819,3301.00
1316.724,3663.00
1317.628,3190.00
1318.531,3129.00
1319.435,3532.00
1320.339,5122.00
1321.241,3102.00
1322.145,3156.00
1323.049,3255.00
1323.951,2932.00
1324.854,2916.00
1325.756,3396.00
1326.659,3201.00
1327.563,2946.00
1328.464,3292.00
1329.367,3145.00
1330.271,3513.00
1331.172,2854.00
1332.074,3137.00
1332.977,2949.00
1333.878,3307.00
1334.781,3475.00
1335.683,2921.00
1336.584,3090.00
1337.486,2758.00
1338.387,3307.00
1339.289,2846.00
1340.191,2975.00
1341.091,3077.00
1341.993,2893.00
1342.895,3054.00
1343.794,3264.00
1344.696,3370.00
1345.596,3306.00
1346.497,2855.00
1347.398,3089.00
1348.298,2701.00
1349.199,3657.00
1350.100,3040.00
1350.999,3542.00
1351.900,3315.00
1352.799,3462.00
1353.699,3203.00
1354.600,3065.00
1355.499,3236.00
1356.399,2715.00
1357.297,3097.00
1358.198,3170.00
1359.098,2934.00
1359.996,2840.00
1360.896,3586.00
1361.796,3407.00
1362.694,3244.00
1363.593,3100.00
1364.491,3337.00
1365.391,3701.00
1366.290,3071.00
1367.187,2924.00
1368.086,3384.00
1368.984,3235.00
1369.883,2734.00
1370.782,3182.00
1371.679,3329.00
1372.577,3669.00
1373.474,3187.00
1374.373,3101.00
1375.269,3180.00
1376.168,3123.00
1377.066,3443.00
1377.962,3363.00
1378.860,3487.00
1379.756,3509.00
1380.654,3750.00
1381.552,3370.00
1382.448,3286.00
1383.346,3187.00
1384.241,3294.00
1385.139,3405.00
1386.036,3080.00
1386.931,2760.00
1387.829,3219.00
1388.724,3392.00
1389.621,3035.00
1390.516,3196.00
1391.413,3036.00
1392.309,2918.00
1393.204,3465.00
1394.101,3366.00
1394.995,3332.00
1395.891,3321.00
1396.786,2940.00
1397.682,3107.00
1398.578,3245.00
1399.472,3476.00
1400.368,3163.00
1401.262,3161.00
1402.158,3322.00
1403.051,3090.00
1403.947,3124.00
1404.840,3415.00
1405.736,3394.00
1406.631,2885.00
1407.524,3625.00
1408.419,3197.00
1409.312,3046.00
1410.207,3281.00
1411.100,3010.00
1411.995,3038.00
1412.888,3322.00
1413.782,2817.00
1414.675,3479.00
1415.569,2880.00
1416.463,3088.00
1417.355,3100.00
1418.249,2954.00
1419.141,3251.00
1420.035,3304.00
1420.927,3108.00
1421.821,3532.00
1422.713,3044.00
1423.606,3290.00
1424.498,3153.00
1425.391,3729.00
1426.282,2977.00
1427.175,3101.00
1428.068,2676.00
1428.960,3203.00
1429.852,3287.00
1430.743,2926.00
1431.636,3134.00
1432.527,3465.00
1433.419,3351.00
1434.310,3351.00
1435.202,2972.00
1436.092,3117.00
1436.984,3115.00
1437.875,3563.00
1438.767,3158.00
1439.657,2980.00
1440.548,3334.00
1441.438,3282.00
1442.330,3267.00
1443.219,3101.00
1444.111,3397.00
1445.000,2968.00
1445.891,2900.00
1446.781,2903.00
1447.672,3246.00
1448.561,3526.00
1449.452,3305.00
1450.340,2957.00
1451.231,2974.00
1452.120,2853.00
1453.010,3444.00
1453.899,3047.00
1454.789,3355.00
1455.677,3548.00
1456.568,3187.00
1457.456,3176.00
1458.346,3202.00
1459.234,3239.00
1460.123,3516.00
1461.011,3171.00
1461.901,3560.00
1462.788,3557.00
1463.678,3282.00
1464.565,3180.00
1465.454,3099.00
1466.342,3260.00
1467.231,2535.00
1468.118,3460.00
1469.006,3588.00
1469.893,2870.00
1470.782,3321.00
1471.669,3482.00
1472.557,3408.00
1473.444,3180.00
1474.330,3348.00
1475.218,3519.00
1476.105,3120.00
1476.993,3196.00
1477.879,3400.00
1478.767,3136.00
1479.652,2939.00
1480.540,3225.00
1481.426,3348.00
1482.313,3272.00
1483.199,3573.00
1484.086,3415.00
1484.972,2874.00
1485.857,2916.00
1486.744,3288.00
1487.629,2738.00
1488.516,3039.00
1489.401,3384.00
1490.287,3189.00
1491.172,2816.00
1492.058,3061.00
1492.943,2979.00
1493.828,2989.00
1494.714,3314.00
1495.598,3540.00
1496.484,3974.00
1497.368,2838.00
1498.254,3167.00
1499.138,3177.00
1500.022,3141.00
1500.907,3356.00
1501.791,3945.00
1502.676,3135.00
1503.560,3059.00
1504.445,3734.00
1505.328,3325.00
1506.211,3579.00
1507.096,3151.00
1507.979,3406.00
1508.864,3096.00
1509.747,3350.00
1510.631,3274.00
1511.514,3315.00
1512.397,3424.00
1513.281,3669.00
1514.163,3445.00
1515.047,3064.00
1515.930,2915.00
1516.812,3176.00
1517.696,3323.00
1518.578,3174.00
1519.461,3233.00
1520.343,3659.00
1521.225,2992.00
1522.108,3103.00
1522.990,3496.00
1523.873,3582.00
1524.754,2791.00
1525.635,2648.00
1526.518,3323.00
1527.399,3109.00
1528.282,3176.00
1529.163,3275.00
1530.044,3180.00
1530.926,2883.00
1531.807,2914.00
1532.689,3253.00
1533.569,3015.00
1534.450,4261.00
1535.332,3383.00
1536.212,3073.00
1537.092,3470.00
1537.974,2871.00
1538.854,3130.00
1539.735,3726.00
1540.615,3398.00
1541.495,2948.00
1542.376,3622.00
1543.255,2925.00
1544.135,3160.00
1545.016,3225.00
1545.895,2960.00
1546.774,3412.00
1547.655,2754.00
1548.534,3188.00
1549.414,3090.00
1550.293,2889.00
1551.172,3260.00
1552.052,3137.00
1552.930,3041.00
1553.809,3709.00
1554.689,3075.00
1555.567,3101.00
1556.445,3087.00
1557.325,3539.00
1558.203,2799.00
1559.080,3170.00
1559.960,3115.00
1560.838,3826.00
1561.715,3103.00
1562.594,3454.00
1563.472,3329.00
1564.349,3354.00
1565.228,2808.00
1566.105,2942.00
1566.982,3208.00
1567.861,3459.00
1568.738,3113.00
1569.615,2785.00
1570.493,3052.00
1571.370,3068.00
1572.246,2643.00
1573.124,3135.00
1574.000,3058.00
1574.877,3369.00
1575.755,3037.00
1576.631,2986.00
1577.507,3583.00
1578.384,3509.00
1579.260,3266.00
1580.136,3747.00
1581.011,3160.00
1581.889,3138.00
1582.764,3214.00
1583.639,3492.00
1584.516,3331.00
1585.391,3056.00
1586.266,3221.00
1587.143,3632.00
1588.018,3369.00
1588.893,3542.00
1589.768,3916.00
1590.644,3899.00
1591.519,2904.00
1592.393,3351.00
1593.269,3440.00
1594.143,2992.00
1595.018,3155.00
1595.892,3053.00
1596.767,2714.00
1597.641,2697.00
1598.515,2844.00
1599.391,3306.00
1600.264,3051.00
1601.138,2949.00
1602.011,2558.00
1602.886,3700.00
1603.760,3480.00
1604.633,3455.00
1605.508,3379.00
1606.381,3224.00
1607.254,3204.00
1608.127,3301.00
1609.001,2907.00
1609.874,3498.00
1610.746,3456.00
1611.619,3216.00
1612.493,3430.00
1613.365,2991.00
1614.238,3212.00
1615.110,3225.00
1615.984,3188.00
1616.855,3012.00
1617.727,3411.00
1618.599,3013.00
1619.473,3506.00
1620.344,2544.00
1621.216,3108.00
1622.087,3226.00
1622.960,3230.00
1623.832,3169.00
1624.703,3297.00
1625.574,3397.00
1626.445,3193.00
1627.317,3217.00
1628.188,3418.00
1629.059,3098.00
1629.930,3519.00
1630.802,3130.00
1631.672,3371.00
1632.543,3316.00
1633.413,3169.00
1634.283,3650.00
1635.155,3264.00
1636.025,3254.00
1636.895,3176.00
1637.765,2699.00
1638.636,3201.00
1639.506,3316.00
1640.376,3925.00
1641.245,3136.00
1642.114,3219.00
1642.985,2654.00
1643.855,2949.00
1644.724,3082.00
1645.593,3372.00
1646.462,3315.00
1647.333,3212.00
1648.201,3090.00
1649.070,3269.00
1649.939,3313.00
1650.807,2979.00
1651.676,3329.00
1652.546,3392.00
1653.414,3483.00
1654.282,3230.00
1655.150,3046.00
1656.018,3158.00
1656.888,3805.00
1657.756,3203.00
1658.623,2837.00
1659.491,2769.00
1660.359,3553.00
1661.226,3038.00
1662.095,3307.00
1662.962,3054.00
1663.830,3126.00
1664.697,2994.00
1665.564,3164.00
1666.431,3343.00
1667.297,2925.00
1668.166,2932.00
1669.033,2724.00
1669.899,3036.00
1670.766,2850.00
1671.632,3050.00
1672.499,3508.00
1673.367,3220.00
1674.233,3373.00
1675.099,3192.00
1675.965,2873.00
1676.831,3116.00
1677.696,3489.00
1678.562,6051.00
1679.430,2712.00
1680.295,2859.00
1681.161,2941.00
1682.026,2946.00
1682.891,3046.00
1683.756,3109.00
1684.621,3207.00
1685.486,3219.00
1686.353,3184.00
1687.218,3292.00
1688.083,3159.00
1688.947,3458.00
1689.812,3163.00
1690.677,3020.00
1691.541,3229.00
1692.405,2522.00
1693.269,3649.00
1694.135,3362.00
1694.999,3169.00
1695.863,3719.00
1696.727,3017.00
1697.591,3019.00
1698.455,3264.00
1699.318,3063.00
1700.182,4447.00
1701.045,3247.00
1701.909,3227.00
1702.772,3645.00
1703.637,3054.00
1704.500,2774.00
1705.363,3403.00
1706.226,3222.00
1707.089,3278.00
1707.951,3316.00
1708.814,3913.00
1709.677,3942.00
1710.539,3413.00
1711.402,3357.00
1712.264,3145.00
1713.126,3063.00
1713.988,3464.00
1714.852,3423.00
1715.714,2566.00
1716.576,2750.00
1717.438,3447.00
1718.299,2756.00
1719.161,3562.00
1720.023,3144.00
1720.884,3612.00
1721.745,3138.00
1722.607,3092.00
1723.468,2708.00
1724.329,3420.00
1725.190,3133.00
1726.051,3365.00
1726.912,3052.00
1727.772,3272.00
1728.633,3152.00
1729.494,3259.00
1730.354,3450.00
1731.214,2913.00
1732.075,3029.00
1732.935,3060.00
1733.797,3055.00
1734.657,3693.00
1735.517,3839.00
1736.377,3447.00
1737.237,3152.00
1738.096,3818.00
1738.956,3123.00
1739.816,3095.00
1740.675,3151.00
1741.534,2688.00
1742.394,3204.00
1743.253,2938.00
1744.112,3207.00
1744.971,2987.00
1745.830,3277.00
1746.689,3349.00
1747.547,3417.00
1748.406,2754.00
1749.265,3042.00
1750.123,3110.00
1750.982,3378.00
1751.840,3195.00
1752.698,3240.00
1753.556,3028.00
1754.414,3212.00
1755.272,3140.00
1756.130,3218.00
1756.988,3184.00
1757.846,3376.00
1758.703,3065.00
1759.559,3461.00
1760.417,2892.00
1761.274,3817.00
1762.131,3589.00
1762.989,3703.00
1763.846,3622.00
1764.703,3308.00
1765.560,3759.00
1766.417,3186.00
1767.273,2958.00
1768.130,3153.00
1768.987,3056.00
1769.843,3431.00
1770.700,3572.00
1771.556,3077.00
1772.412,3538.00
1773.268,3124.00
1774.125,3502.00
1774.980,3241.00
1775.836,3531.00
1776.692,3093.00
1777.546,3028.00
1778.402,3388.00
1779.257,3242.00
1780.113,2994.00
1780.968,3298.00
1781.824,3477.00
1782.679,2848.00
1783.534,3064.00
1784.389,3641.00
1785.244,3341.00
1786.099,3143.00
1786.954,3433.00
1787.808,3240.00
1788.661,3210.00
1789.516,3623.00
1790.370,3215.00
1791.225,3082.00
1792.079,2812.00
1792.933,3925.00
1793.787,3295.00
1794.641,3299.00
1795.495,3144.00
1796.349,3217.00
1797.201,3103.00
1798.055,3002.00
1798.908,3178.00
1799.762,3600.00
1800.615,3395.00
1801.469,3459.00
1802.322,3617.00
1803.175,3061.00
1804.028,2768.00
1804.880,3750.00
1805.732,3407.00
1806.585,3226.00
1807.438,3234.00
1808.291,2701.00
1809.143,2921.00
1809.996,2875.00
1810.846,4009.00
1811.699,3321.00
1812.551,3106.00
1813.403,3338.00
1814.255,3247.00
1815.107,3238.00
1815.959,3834.00
1816.809,3280.00
1817.661,3368.00
1818.512,3194.00
1819.364,3261.00
1820.215,3293.00
1821.067,2965.00
1821.918,3049.00
1822.768,3413.00
1823.619,3451.00
1824.470,3075.00
1825.321,3358.00
1826.172,3130.00
1827.021,3315.00
1827.871,3459.00
1828.722,3291.00
1829.572,3245.00
1830.423,3225.00
1831.273,3031.00
1832.122,3227.00
1832.972,3199.00
1833.822,2918.00
1834.672,3398.00
1835.522,3395.00
1836.370,2987.00
1837.220,3315.00
1838.070,2816.00
1838.919,2552.00
1839.769,2978.00
1840.616,3450.00
1841.466,3342.00
1842.315,2932.00
1843.164,3804.00
1844.013,3040.00
1844.860,2908.00
1845.709,2972.00
1846.558,3493.00
1847.407,2845.00
1848.254,3324.00
1849.102,3261.00
1849.951,2981.00
1850.799,2622.00
1851.648,3087.00
1852.494,3265.00
1853.342,3254.00
1854.190,3591.00
1855.038,3528.00
1855.884,3167.00
1856.732,4091.00
1857.580,3640.00
1858.428,3027.00
1859.273,2932.00
1860.121,2951.00
1860.968,4062.00
1861.816,3581.00
1862.661,3614.00
1863.508,3761.00
1864.355,3478.00
1865.202,3557.00
1866.047,3286.00
1866.894,3573.00
1867.741,3771.00
1868.586,3368.00
1869.432,3318.00
1870.279,3157.00
1871.125,3022.00
1871.970,3899.00
1872.816,3289.00
1873.662,2720.00
1874.506,3346.00
1875.352,3501.00
1876.198,3635.00
1877.044,3774.00
1877.888,3169.00
1878.734,3252.00
1879.579,3066.00
1880.423,2838.00
1881.268,3116.00
1882.113,3467.00
1882.959,3216.00
1883.802,3009.00
1884.647,3549.00
1885.492,3265.00
1886.335,3139.00
1887.180,3024.00
1888.025,3243.00
1888.867,3011.00
1889.712,3343.00
1890.556,3010.00
1891.399,3517.00
1892.243,3498.00
1893.087,3054.00
1893.930,3395.00
1894.774,3329.00
1895.618,3539.00
1896.460,2845.00
1897.304,3121.00
1898.147,3054.00
1898.989,2903.00
1899.833,3418.00
1900.676,3019.00
1901.518,3526.00
1902.361,3545.00
1903.202,3111.00
1904.046,3041.00
1904.889,3151.00
1905.730,3121.00
1906.573,2887.00
1907.415,3287.00
1908.256,3650.00
1909.099,3359.00
1909.941,3319.00
1910.782,3338.00
1911.624,3046.00
1912.465,3381.00
1913.307,3275.00
1914.149,2983.00
1914.989,3509.00
1915.831,3165.00
1916.671,3639.00
1917.513,3147.00
1918.355,3323.00
1919.195,3482.00
1920.036,3303.00
1920.876,3206.00
1921.717,3362.00
1922.558,3226.00
1923.398,3260.00
1924.239,3250.00
1925.078,3560.00
1925.919,2912.00
1926.760,3356.00
1927.599,3092.00
1928.440,3464.00
1929.279,3321.00
1930.119,3676.00
1930.958,3184.00
1931.798,3220.00
1932.638,3089.00
1933.477,3282.00
1934.317,2972.00
1935.155,3105.00
1935.995,3332.00
1936.833,3058.00
1937.673,3057.00
1938.512,3664.00
1939.350,2846.00
1940.190,3156.00
1941.027,3128.00
1941.867,3071.00
1942.704,3245.00
1943.543,3209.00
1944.381,3416.00
1945.220,3624.00
1946.057,3274.00
1946.896,3559.00
1947.733,3267.00
1948.572,2997.00
1949.408,3652.00
1950.247,3357.00
1951.085,3374.00
1951.922,3591.00
1952.760,3022.00
1953.597,3668.00
1954.435,2630.00
1955.271,3413.00
1956.109,3138.00
1956.945,2873.00
1957.783,3412.00
1958.619,3028.00
1959.456,3202.00
1960.292,3341.00
1961.129,3563.00
1961.965,3753.00
1962.802,3029.00
1963.638,2969.00
1964.475,3291.00
1965.310,3318.00
1966.145,3282.00
1966.982,3046.00
1967.817,2950.00
1968.654,3282.00
1969.489,3060.00
1970.325,3277.00
1971.160,2964.00
1971.996,3393.00
1972.831,3429.00
1973.667,3109.00
1974.501,3638.00
1975.337,3524.00
1976.171,3091.00
1977.006,3515.00
1977.841,3146.00
1978.675,3496.00
1979.511,3864.00
1980.345,2987.00
1981.180,3434.00
1982.014,3228.00
1982.849,2953.00
1983.682,3100.00
1984.516,3050.00
1985.351,2825.00
1986.184,2733.00
1987.019,2739.00
1987.852,2536.00
1988.687,2740.00
1989.519,2970.00
1990.352,3243.00
1991.187,2694.00
1992.019,3045.00
1992.854,3373.00
1993.686,2956.00
1994.518,3007.00
1995.352,2564.00
1996.185,2311.00
1997.019,2903.00
1997.851,2680.00
1998.682,2702.00
1999.516,2704.00
2000.348,2495.00
