RamanScope Measure Spectrum Data V3.72

<< MEASURE CONDITION >>
Exposure Type,Aver
Exposure Time [sec],20
Exposure Count,2
Measure Time,2024/02/15 20:20:59
Data Name,""
Data Comment,""
Rayleigh Wave[nm],532.0

<< SAMPLE SPECTRUM >>
Wave[dcm-1],No9
96.716,-18.50
97.759,8.50
98.802,21.00
99.846,41.50
100.886,16.50
101.929,-0.50
102.972,21.50
104.015,-6.00
105.057,-5.00
106.100,-3.50
107.142,14.00
108.184,-13.00
109.226,54.50
110.268,-9.50
111.310,49.50
112.352,28.50
113.393,-12.00
114.435,-16.50
115.476,17.00
116.517,22.50
117.558,-42.00
118.599,24.00
119.640,55.50
120.681,17.00
121.722,-33.50
122.762,63.00
123.803,29.50
124.843,19.50
125.883,37.50
126.923,16.00
127.963,10.00
129.001,24.00
130.041,-14.00
131.080,59.00
132.120,30.50
133.159,4.00
134.199,16.00
135.238,13.00
136.277,-13.50
137.316,46.50
138.355,42.50
139.393,8.50
140.432,-38.00
141.470,19.50
142.509,45.00
143.547,46.00
144.585,58.50
145.623,9.50
146.661,127.00
147.699,82.00
148.736,99.50
149.774,173.50
150.811,297.50
151.849,349.00
152.886,414.50
153.923,583.50
154.960,697.00
155.997,846.50
157.034,1002.50
158.072,1124.50
159.109,1396.50
160.145,1565.50
161.182,1798.50
162.218,1926.00
163.254,2149.00
164.290,2319.00
165.326,2434.50
166.361,2613.00
167.397,2707.50
168.432,2826.50
169.468,2923.00
170.503,3005.00
171.538,3099.00
172.573,3106.00
173.608,3073.00
174.643,3142.50
175.677,3188.50
176.712,3320.50
177.746,3306.50
178.781,3350.00
179.815,3463.00
180.849,3518.50
181.883,3610.50
182.917,3623.50
183.951,3755.00
184.984,3758.00
186.020,3863.00
187.053,3834.50
188.087,3894.00
189.120,3778.00
190.153,3754.50
191.186,3732.50
192.219,3707.00
193.251,3621.00
194.284,3627.00
195.317,3590.00
196.349,3674.00
197.381,3622.00
198.413,3594.00
199.445,3593.00
200.477,3627.50
201.509,3663.50
202.543,3741.50
203.575,3645.00
204.606,3659.50
205.637,3692.50
206.669,3771.50
207.700,3884.00
208.731,3879.00
209.762,3781.50
210.792,3960.00
211.823,4026.00
212.854,4025.00
213.884,4052.00
214.914,4064.00
215.947,4159.50
216.977,4267.50
218.007,4301.00
219.037,4310.50
220.066,4375.50
221.096,4379.00
222.126,4530.50
223.155,4508.50
224.184,4543.00
225.214,4487.50
226.245,4611.00
227.274,4725.50
228.302,4652.00
229.331,4508.00
230.360,4665.00
231.388,4670.50
232.417,4731.50
233.445,4585.00
234.473,4579.50
235.501,4493.00
236.531,4469.00
237.559,4428.50
238.587,4458.00
239.614,4321.00
240.642,4290.50
241.669,4322.50
242.696,4314.50
243.724,4305.50
244.753,4245.00
245.780,4152.00
246.806,4202.50
247.833,4342.50
248.860,4329.50
249.886,4242.50
250.913,4338.00
251.939,4368.50
252.967,4371.00
253.993,4446.00
255.019,4380.50
256.045,4456.00
257.070,4401.50
258.096,4429.00
259.121,4437.00
260.147,4451.00
261.174,4380.00
262.199,4340.00
263.224,4386.50
264.249,4360.00
265.274,4319.00
266.298,4341.00
267.323,4344.50
268.349,4415.50
269.374,4365.50
270.398,4358.50
271.422,4270.50
272.446,4318.00
273.470,4377.00
274.496,4415.00
275.519,4355.50
276.543,4371.00
277.566,4365.50
278.589,4376.50
279.613,4419.00
280.636,4391.00
281.661,4453.50
282.684,4453.50
283.706,4518.00
284.729,4561.50
285.751,4445.50
286.774,4402.00
287.798,4417.50
288.820,4480.00
289.842,4402.00
290.864,4418.50
291.886,4339.00
292.910,4325.50
293.932,4349.00
294.953,4312.50
295.974,4189.00
296.996,4141.50
298.017,4153.50
299.040,4138.00
300.061,4110.50
301.082,4058.00
302.102,4009.00
303.123,4013.00
304.143,4018.50
305.166,3918.00
306.186,3960.00
307.206,3956.00
308.226,3851.50
309.246,3854.00
310.268,3852.50
311.288,3639.00
312.307,3666.00
313.327,3758.00
314.346,3661.00
315.368,3680.00
316.387,3637.50
317.406,3602.00
318.425,3635.50
319.443,3628.50
320.464,3606.50
321.483,3578.50
322.501,3541.00
323.520,3582.00
324.538,3539.50
325.558,3501.50
326.576,3480.00
327.594,3499.50
328.612,3506.50
329.629,3531.50
330.649,3481.50
331.666,3428.50
332.684,3482.50
333.701,3466.00
334.718,3414.50
335.737,3491.00
336.754,3389.00
337.771,3367.50
338.787,3351.00
339.806,3440.00
340.823,3403.50
341.839,3306.50
342.855,3400.00
343.871,3403.00
344.889,3386.00
345.905,3315.50
346.921,3284.50
347.937,3249.00
348.954,3318.50
349.970,3383.00
350.985,3312.50
352.000,3305.50
353.017,3286.50
354.032,3290.00
355.047,3305.00
356.062,3359.00
357.077,3282.50
358.093,3260.50
359.108,3263.00
360.122,3274.00
361.136,3280.50
362.152,3246.00
363.166,3269.50
364.180,3237.50
365.194,3268.00
366.210,3276.00
367.223,3244.00
368.237,3186.00
369.250,3177.00
370.265,3224.00
371.278,3232.50
372.291,3200.50
373.304,3203.00
374.319,3144.00
375.332,3255.50
376.344,3190.50
377.357,3193.50
378.371,3193.00
379.383,3180.50
380.395,3267.50
381.407,3236.00
382.421,3231.00
383.433,3203.00
384.445,3249.00
385.456,3181.00
386.470,3259.50
387.481,3219.00
388.492,3219.50
389.505,3178.00
390.516,3145.00
391.527,3205.50
392.538,3204.00
393.551,3227.00
394.561,3267.50
395.572,3264.00
396.582,3187.50
397.594,3192.00
398.604,3175.00
399.614,3155.50
400.624,3168.50
401.636,3232.50
402.646,3265.00
403.655,3247.50
404.667,3159.00
405.676,3193.50
406.685,3201.50
407.694,3194.00
408.705,3150.50
409.714,3196.50
410.723,3127.00
411.734,3151.00
412.742,3168.50
413.751,3173.50
414.759,3149.00
415.769,3144.50
416.777,3117.00
417.785,3181.00
418.795,3109.50
419.803,3055.50
420.811,3077.00
421.818,3133.00
422.828,3088.50
423.835,3106.00
424.842,3167.50
425.852,3084.00
426.859,3012.50
427.866,3131.50
428.874,3081.50
429.881,3062.50
430.888,3047.00
431.894,3086.00
432.902,3098.50
433.909,3110.50
434.915,3064.50
435.923,2988.50
436.929,3019.50
437.935,3121.00
438.942,3084.00
439.948,3010.50
440.953,3006.50
441.959,3023.00
442.966,2988.50
443.971,3060.00
444.976,3052.50
445.983,3016.50
446.988,2921.00
447.993,3007.00
448.999,3008.50
450.004,3034.50
451.008,2997.00
452.014,3060.00
453.019,3028.00
454.023,3051.50
455.029,3026.50
456.032,2983.00
457.036,3003.50
458.042,3066.00
459.045,3003.50
460.049,3062.00
461.052,3054.50
462.057,3056.00
463.060,3061.00
464.063,3037.50
465.068,3014.50
466.071,2999.50
467.073,3058.50
468.078,3071.00
469.080,2998.50
470.082,3049.00
471.087,3074.50
472.089,3055.50
473.091,3070.00
474.095,3029.00
475.096,3089.00
476.098,3015.00
477.101,3027.00
478.103,3099.00
479.104,3121.50
480.107,3104.50
481.108,3044.00
482.109,3043.00
483.112,3028.50
484.113,3054.50
485.114,3079.00
486.116,3056.00
487.117,3062.50
488.117,3062.00
489.119,3075.50
490.119,3067.00
491.121,3057.50
492.121,3003.00
493.121,3074.00
494.123,3132.00
495.122,3112.00
496.122,3080.50
497.123,3162.50
498.122,3098.00
499.121,3028.50
500.122,3111.50
501.121,3135.00
502.120,3062.50
503.121,3053.50
504.119,3096.50
505.118,3121.00
506.118,3074.50
507.117,3106.50
508.115,3032.50
509.115,3065.00
510.113,3101.50
511.112,3062.50
512.110,3004.50
513.108,3017.50
514.107,3059.00
515.105,3068.50
516.102,3032.00
517.101,3000.00
518.098,2960.50
519.095,2830.00
520.094,2920.00
521.091,2984.00
522.089,2945.50
523.086,2948.00
524.082,2898.50
525.081,2949.00
526.077,2935.00
527.073,2931.00
528.071,2951.50
529.067,2925.50
530.064,2946.00
531.060,2901.00
532.056,2942.00
533.053,2906.50
534.048,2920.00
535.044,2898.50
536.041,2934.00
537.036,2935.50
538.030,2918.00
539.027,2951.00
540.022,2939.00
541.019,2922.00
542.013,2883.00
543.007,2911.50
544.004,2934.00
544.998,2895.00
545.994,2925.50
546.988,2935.50
547.981,2873.00
548.977,2904.00
549.971,2881.50
550.964,2846.00
551.960,2895.00
552.953,2932.00
553.948,2920.50
554.941,2927.00
555.934,2897.00
556.929,2921.50
557.922,2937.50
558.916,2895.00
559.909,2871.00
560.901,2861.50
561.895,2971.50
562.888,2935.00
563.880,2906.50
564.874,2806.50
565.865,2845.00
566.859,2875.50
567.851,2848.00
568.842,2885.00
569.836,2891.50
570.827,2946.50
571.820,2906.50
572.811,2887.50
573.802,2889.50
574.795,2860.00
575.786,2858.50
576.779,2908.50
577.769,2996.00
578.760,2884.00
579.752,2911.50
580.742,2883.00
581.735,2837.50
582.725,2972.00
583.714,2868.00
584.706,2986.50
585.696,2931.50
586.688,2953.50
587.677,2954.50
588.667,3021.00
589.658,2969.00
590.647,2955.50
591.638,3010.50
592.627,2951.00
593.616,3032.50
594.607,3000.00
595.595,3034.50
596.586,2971.00
597.574,3034.50
598.562,2993.00
599.553,3077.00
600.541,3064.00
601.531,3077.50
602.519,3077.00
603.508,3098.00
604.496,3144.00
605.484,3082.00
606.473,3053.50
607.460,3032.00
608.450,3164.00
609.437,3085.00
610.424,3133.50
611.413,3049.50
612.400,3133.50
613.388,3174.50
614.375,3130.50
615.361,3172.00
616.350,3158.00
617.336,3082.50
618.324,3092.50
619.310,3108.00
620.298,3114.00
621.284,3066.50
622.270,3083.50
623.257,3077.00
624.243,3035.50
625.230,3047.50
626.216,3062.50
627.203,2977.50
628.188,2977.50
629.173,2918.50
630.160,2909.50
631.145,2886.00
632.131,2858.50
633.116,2873.50
634.102,2841.00
635.087,2819.00
636.071,2836.00
637.057,2824.50
638.041,2753.50
639.027,2776.50
640.011,2782.50
640.995,2771.50
641.980,2733.00
642.964,2750.00
643.949,2730.50
644.932,2685.00
645.918,2664.50
646.901,2694.00
647.886,2602.00
648.868,2643.00
649.851,2594.50
650.836,2643.50
651.818,2586.50
652.803,2564.00
653.785,2546.00
654.769,2553.00
655.751,2544.00
656.733,2599.50
657.717,2468.50
658.699,2449.00
659.683,2476.50
660.664,2542.50
661.648,2448.50
662.629,2488.00
663.611,2456.00
664.594,2497.00
665.575,2442.50
666.558,2469.00
667.539,2425.00
668.521,2410.00
669.502,2430.00
670.484,2474.50
671.465,2358.00
672.445,2378.00
673.427,2427.50
674.407,2425.50
675.390,2376.50
676.369,2349.00
677.351,2370.50
678.331,2339.50
679.312,2348.00
680.292,2335.50
681.271,2392.00
682.253,2328.50
683.232,2315.50
684.213,2270.50
685.192,2320.00
686.172,2244.00
687.151,2279.50
688.132,2222.00
689.110,2219.00
690.089,2264.00
691.069,2199.00
692.047,2152.00
693.027,2204.00
694.005,2177.00
694.985,2121.50
695.963,2194.00
696.943,2145.00
697.920,2149.00
698.898,2139.50
699.877,2103.50
700.854,2094.00
701.833,2080.00
702.810,2073.00
703.789,2076.00
704.766,2092.50
705.745,2105.00
706.721,2055.50
707.698,2047.00
708.676,2006.50
709.653,2025.50
710.631,1969.00
711.607,1977.00
712.585,2015.50
713.561,2024.00
714.539,1981.00
715.514,1965.50
716.492,2020.00
717.467,1935.00
718.443,1937.50
719.420,1985.50
720.395,1929.00
721.372,1942.50
722.347,1947.50
723.324,1966.50
724.298,1899.00
725.275,1918.50
726.250,1889.50
727.226,1900.00
728.200,1931.50
729.176,1907.00
730.151,1905.00
731.125,1869.00
732.100,1860.00
733.074,1839.50
734.050,1867.50
735.023,1845.00
735.999,1812.50
736.972,1827.00
737.947,1803.00
738.921,1792.50
739.896,1825.50
740.869,1849.00
741.841,1825.50
742.816,1790.00
743.789,1762.50
744.763,1798.50
745.736,1820.50
746.710,1806.00
747.682,1815.00
748.656,1787.50
749.628,1755.50
750.602,1783.50
751.574,1742.50
752.548,1854.00
753.519,1750.50
754.491,1709.50
755.464,1735.00
756.435,1660.50
757.408,1739.00
758.379,1731.50
759.352,1724.50
760.323,1652.50
761.296,1749.50
762.267,1685.50
763.239,1654.00
764.209,1681.00
765.182,1660.50
766.152,1677.50
767.124,1645.00
768.094,1647.00
769.064,1617.00
770.036,1602.50
771.005,1675.00
771.977,1656.00
772.947,1640.00
773.918,1634.50
774.887,1614.50
775.858,1655.50
776.827,1614.50
777.798,1613.00
778.767,1603.00
779.738,1594.50
780.707,1560.50
781.677,1606.00
782.646,1595.00
783.614,1586.00
784.584,1564.50
785.552,1524.50
786.522,1531.50
787.490,1572.50
788.460,1520.50
789.428,1591.00
790.397,1543.00
791.365,1538.50
792.334,1524.00
793.302,1538.00
794.271,1494.00
795.238,1573.00
796.207,1498.00
797.174,1530.00
798.143,1490.50
799.109,1513.50
800.076,1502.50
801.044,1485.00
802.011,1477.50
802.979,1554.50
803.945,1478.50
804.913,1485.00
805.879,1466.50
806.847,1485.50
807.813,1531.00
808.780,1465.00
809.746,1431.00
810.713,1448.50
811.678,1438.50
812.646,1503.50
813.611,1463.50
814.578,1487.50
815.543,1450.00
816.510,1460.50
817.474,1421.50
818.439,1434.00
819.405,1352.50
820.370,1388.50
821.336,1424.00
822.300,1385.00
823.266,1358.00
824.230,1392.50
825.196,1408.00
826.160,1396.50
827.126,1435.00
828.089,1354.50
829.055,1433.50
830.018,1430.50
830.983,1393.00
831.946,1414.50
832.911,1354.50
833.874,1396.00
834.837,1417.00
835.802,1404.00
836.765,1381.50
837.729,1407.50
838.691,1419.50
839.656,1378.50
840.618,1377.00
841.582,1318.00
842.544,1351.50
843.508,1335.50
844.470,1378.50
845.434,1405.50
846.395,1341.50
847.359,1353.50
848.320,1372.00
849.283,1423.50
850.245,1351.00
851.208,1377.00
852.169,1324.00
853.130,1336.50
854.092,1321.50
855.053,1329.00
856.016,1356.00
856.976,1384.00
857.938,1323.00
858.899,1375.00
859.861,1364.00
860.821,1345.50
861.783,1337.50
862.743,1328.50
863.704,1299.00
864.664,1322.50
865.626,1310.50
866.585,1320.50
867.546,1297.00
868.506,1242.00
869.467,1317.00
870.426,1338.50
871.387,1299.50
872.346,1267.00
873.304,1287.00
874.265,1332.50
875.223,1290.00
876.184,1325.00
877.142,1292.00
878.102,1250.50
879.060,1322.00
880.021,1264.00
880.978,1305.50
881.938,1275.00
882.896,1281.00
883.856,1238.50
884.813,1273.50
885.772,1301.50
886.730,1261.00
887.689,1310.50
888.646,1262.00
889.603,1234.50
890.562,1332.00
891.519,1297.00
892.477,1352.50
893.434,1329.00
894.392,1304.50
895.349,1299.00
896.307,1296.00
897.263,1321.50
898.221,1361.50
899.177,1298.00
900.135,1279.50
901.091,1255.50
902.048,1292.50
903.004,1313.50
903.961,1295.50
904.917,1234.00
905.874,1269.50
906.829,1317.50
907.784,1311.50
908.741,1275.00
909.696,1301.00
910.653,1337.50
911.607,1272.50
912.564,1365.00
913.518,1327.00
914.475,1290.50
915.429,1218.00
916.385,1309.50
917.339,1345.50
918.295,1267.50
919.249,1260.50
920.205,1196.50
921.158,1277.00
922.114,1293.00
923.067,1348.50
924.020,1309.50
924.976,1302.50
925.929,1328.00
926.884,1313.00
927.837,1285.00
928.791,1346.00
929.744,1337.50
930.699,1304.50
931.651,1332.50
932.606,1363.50
933.558,1330.50
934.512,1313.00
935.464,1351.00
936.418,1327.50
937.370,1340.00
938.322,1281.50
939.276,1346.50
940.227,1307.50
941.181,1334.00
942.132,1322.00
943.085,1295.00
944.036,1324.50
944.990,1301.00
945.941,1312.00
946.893,1326.00
947.844,1312.50
948.797,1310.50
949.747,1338.00
950.700,1326.50
951.650,1363.50
952.601,1372.00
953.553,1295.00
954.503,1350.00
955.455,1331.50
956.405,1308.50
957.356,1305.50
958.306,1306.50
959.258,1295.50
960.207,1343.00
961.158,1296.50
962.108,1322.00
963.059,1318.50
964.008,1286.00
964.959,1320.00
965.908,1321.50
966.856,1285.00
967.807,1330.50
968.756,1310.50
969.706,1293.00
970.654,1326.50
971.605,1288.00
972.553,1294.50
973.503,1262.50
974.451,1292.50
975.401,1268.00
976.348,1257.50
977.296,1335.50
978.246,1238.00
979.193,1312.00
980.142,1314.00
981.090,1295.50
982.039,1294.50
982.986,1314.50
983.935,1325.50
984.882,1276.00
985.830,1286.50
986.777,1285.00
987.725,1252.00
988.672,1292.50
989.618,1290.50
990.567,1273.00
991.513,1238.00
992.461,1278.00
993.407,1232.00
994.354,1258.50
995.300,1252.00
996.248,1273.50
997.193,1278.00
998.141,1186.50
999.086,1286.50
1000.031,1251.50
1000.978,1307.00
1001.924,1246.50
1002.870,1251.50
1003.815,1235.00
1004.762,1219.00
1005.707,1213.00
1006.653,1244.50
1007.598,1238.50
1008.542,1251.00
1009.488,1231.00
1010.432,1215.50
1011.378,1211.00
1012.322,1118.50
1013.268,1248.00
1014.212,1240.00
1015.157,1248.50
1016.101,1178.00
1017.046,1220.00
1017.990,1213.00
1018.933,1246.00
1019.878,1215.50
1020.821,1249.00
1021.766,1215.50
1022.709,1248.00
1023.654,1253.50
1024.596,1224.50
1025.541,1179.50
1026.483,1197.00
1027.425,1196.50
1028.370,1238.50
1029.312,1210.00
1030.256,1271.00
1031.198,1220.00
1032.141,1223.00
1033.083,1224.00
1034.027,1255.50
1034.968,1174.00
1035.910,1252.50
1036.853,1178.50
1037.794,1248.00
1038.738,1162.00
1039.679,1165.50
1040.621,1220.00
1041.562,1213.00
1042.503,1226.50
1043.446,1180.50
1044.386,1198.00
1045.329,1199.00
1046.269,1245.50
1047.211,1247.50
1048.151,1187.50
1049.093,1244.00
1050.033,1167.50
1050.973,1220.00
1051.915,1216.50
1052.854,1222.50
1053.796,1193.00
1054.735,1198.50
1055.677,1214.50
1056.616,1271.00
1057.555,1193.00
1058.496,1244.50
1059.435,1229.50
1060.376,1235.50
1061.315,1287.50
1062.255,1215.50
1063.194,1219.00
1064.132,1266.50
1065.073,1195.50
1066.011,1228.50
1066.951,1230.00
1067.889,1241.50
1068.829,1237.50
1069.767,1225.50
1070.705,1246.00
1071.644,1217.00
1072.582,1231.50
1073.521,1273.50
1074.459,1259.00
1075.398,1197.00
1076.335,1256.00
1077.272,1220.00
1078.211,1271.50
1079.148,1255.50
1080.087,1247.00
1081.023,1242.50
1081.962,1242.00
1082.898,1280.50
1083.835,1250.00
1084.773,1250.50
1085.709,1273.00
1086.647,1269.00
1087.583,1244.00
1088.519,1286.50
1089.457,1205.50
1090.392,1230.00
1091.330,1233.00
1092.266,1266.00
1093.203,1275.50
1094.138,1249.00
1095.073,1267.00
1096.010,1294.00
1096.945,1296.50
1097.882,1260.00
1098.817,1249.00
1099.752,1317.50
1100.688,1224.00
1101.623,1262.50
1102.559,1284.00
1103.493,1247.00
1104.430,1220.00
1105.364,1228.00
1106.298,1260.50
1107.234,1224.00
1108.167,1197.50
1109.094,1227.50
1110.019,1277.00
1110.945,1193.50
1111.869,1281.00
1112.795,1225.50
1113.720,1155.50
1114.646,1242.00
1115.571,1233.50
1116.495,1228.00
1117.420,1245.00
1118.345,1221.50
1119.270,1208.00
1120.195,1235.50
1121.118,1202.50
1122.042,1189.00
1122.967,1225.00
1123.891,1203.50
1124.816,1217.50
1125.738,1213.00
1126.663,1217.50
1127.587,1193.50
1128.511,1195.00
1129.435,1154.00
1130.357,1154.50
1131.280,1180.50
1132.204,1152.50
1133.128,1172.50
1134.051,1183.00
1134.972,1113.50
1135.896,1150.00
1136.819,1130.50
1137.742,1167.50
1138.665,1080.50
1139.586,1158.50
1140.509,1128.50
1141.431,1131.00
1142.354,1102.50
1143.276,1147.00
1144.197,1063.50
1145.119,1085.50
1146.041,1118.00
1146.964,1129.00
1147.885,1090.00
1148.806,1155.00
1149.727,1107.50
1150.649,1105.50
1151.571,1048.00
1152.492,1056.50
1153.412,1080.00
1154.333,1108.50
1155.254,1040.00
1156.175,1049.50
1157.095,1063.50
1158.016,1059.50
1158.936,1058.50
1159.857,1187.00
1160.778,1040.00
1161.697,1014.00
1162.617,1067.50
1163.537,1126.50
1164.458,1101.00
1165.376,1007.00
1166.296,1049.50
1167.216,1068.50
1168.136,1094.50
1169.056,1052.50
1169.974,1104.50
1170.893,1010.50
1171.813,1077.50
1172.732,1039.00
1173.650,1057.00
1174.569,1031.50
1175.488,1019.50
1176.407,1075.00
1177.326,1081.00
1178.243,1075.50
1179.161,1033.50
1180.080,1064.50
1180.999,964.00
1181.915,1039.00
1182.834,1043.50
1183.752,1054.00
1184.670,957.00
1185.586,1032.00
1186.504,1046.50
1187.422,1050.00
1188.340,993.00
1189.258,963.00
1190.173,1030.50
1191.091,1011.50
1192.008,985.50
1192.926,1011.00
1193.841,991.00
1194.758,1018.00
1195.675,978.00
1196.592,1006.00
1197.507,1003.50
1198.424,1022.50
1199.340,975.00
1200.257,948.50
1201.172,1062.00
1202.088,1001.50
1203.004,1046.00
1203.920,952.00
1204.835,1012.50
1205.750,1023.50
1206.666,958.00
1207.582,1023.50
1208.496,997.50
1209.412,963.50
1210.327,953.50
1211.243,1040.50
1212.156,966.50
1213.071,975.00
1213.986,977.00
1214.901,999.00
1215.814,1042.00
1216.729,984.00
1217.644,983.00
1218.559,998.00
1219.471,1028.00
1220.386,1010.50
1221.300,924.50
1222.213,991.00
1223.127,948.00
1224.041,1041.50
1224.955,969.50
1225.867,988.00
1226.781,964.50
1227.694,1002.00
1228.608,1033.50
1229.520,943.50
1230.433,940.50
1231.346,968.00
1232.260,975.00
1233.171,964.00
1234.084,954.50
1234.997,968.50
1235.908,1023.00
1236.821,941.50
1237.733,927.50
1238.646,1023.00
1239.556,975.50
1240.469,938.50
1241.381,991.00
1242.293,1015.50
1243.203,999.00
1244.115,979.50
1245.027,1007.50
1245.937,1021.00
1246.849,1021.00
1247.761,979.00
1248.672,969.00
1249.582,1002.50
1250.493,1035.00
1251.404,1001.50
1252.313,967.00
1253.225,951.50
1254.135,1017.50
1255.046,970.00
1255.955,972.50
1256.866,988.00
1257.777,1005.50
1258.685,994.50
1259.596,1010.50
1260.506,979.00
1261.416,1003.50
1262.324,956.00
1263.234,1022.50
1264.144,948.50
1265.052,998.50
1265.962,1004.50
1266.872,967.00
1267.779,989.00
1268.689,1012.50
1269.598,1034.00
1270.507,1036.00
1271.415,1008.50
1272.324,1035.50
1273.233,1021.00
1274.140,975.00
1275.048,1000.50
1275.957,1005.50
1276.864,1048.50
1277.772,983.50
1278.681,1001.00
1279.587,1011.50
1280.496,1021.00
1281.404,1005.50
1282.312,954.00
1283.218,1018.00
1284.126,1024.00
1285.033,1036.00
1285.939,988.50
1286.847,958.50
1287.754,990.50
1288.660,1007.00
1289.567,965.50
1290.474,1011.50
1291.380,1020.50
1292.286,980.50
1293.193,994.50
1294.098,1026.00
1295.005,1044.00
1295.912,1002.50
1296.816,977.00
1297.723,1019.50
1298.629,1023.00
1299.534,1005.50
1300.440,936.00
1301.346,910.00
1302.250,997.00
1303.156,1051.00
1304.062,959.50
1304.966,995.00
1305.871,1003.00
1306.777,1009.50
1307.680,1031.00
1308.586,968.50
1309.491,1003.00
1310.394,983.50
1311.299,980.50
1312.204,966.50
1313.107,1020.00
1314.012,901.00
1314.917,1009.00
1315.819,976.50
1316.724,991.00
1317.628,945.00
1318.531,997.00
1319.435,944.00
1320.339,1022.50
1321.241,1000.00
1322.145,968.50
1323.049,980.50
1323.951,956.00
1324.854,946.50
1325.756,978.50
1326.659,1050.50
1327.563,925.50
1328.464,934.50
1329.367,932.00
1330.271,902.50
1331.172,966.00
1332.074,999.00
1332.977,923.00
1333.878,990.50
1334.781,934.50
1335.683,925.00
1336.584,962.50
1337.486,916.50
1338.387,941.50
1339.289,966.50
1340.191,909.50
1341.091,921.50
1341.993,941.50
1342.895,954.00
1343.794,904.50
1344.696,972.00
1345.596,963.50
1346.497,917.50
1347.398,919.50
1348.298,909.00
1349.199,889.00
1350.100,887.00
1350.999,873.50
1351.900,911.00
1352.799,884.50
1353.699,841.50
1354.600,910.00
1355.499,867.50
1356.399,882.00
1357.297,850.50
1358.198,922.50
1359.098,877.50
1359.996,881.00
1360.896,857.00
1361.796,873.00
1362.694,893.50
1363.593,864.50
1364.491,832.50
1365.391,838.50
1366.290,869.00
1367.187,885.50
1368.086,863.00
1368.984,923.50
1369.883,804.00
1370.782,862.00
1371.679,830.50
1372.577,845.00
1373.474,857.50
1374.373,878.50
1375.269,836.50
1376.168,850.00
1377.066,846.50
1377.962,814.00
1378.860,872.00
1379.756,826.00
1380.654,859.50
1381.552,848.50
1382.448,869.00
1383.346,834.50
1384.241,887.50
1385.139,811.50
1386.036,868.00
1386.931,821.00
1387.829,811.00
1388.724,845.00
1389.621,814.50
1390.516,822.00
1391.413,785.50
1392.309,852.50
1393.204,792.00
1394.101,796.00
1394.995,842.50
1395.891,803.50
1396.786,845.50
1397.682,828.00
1398.578,853.50
1399.472,802.00
1400.368,806.00
1401.262,816.50
1402.158,806.00
1403.051,820.50
1403.947,797.00
1404.840,829.00
1405.736,761.00
1406.631,843.50
1407.524,830.50
1408.419,765.00
1409.312,780.50
1410.207,821.50
1411.100,780.00
1411.995,798.00
1412.888,829.50
1413.782,821.50
1414.675,830.50
1415.569,817.50
1416.463,768.50
1417.355,831.00
1418.249,815.00
1419.141,807.00
1420.035,793.00
1420.927,777.50
1421.821,745.00
1422.713,779.00
1423.606,773.00
1424.498,749.00
1425.391,823.50
1426.282,760.00
1427.175,768.00
1428.068,757.50
1428.960,776.50
1429.852,802.50
1430.743,755.50
1431.636,823.00
1432.527,811.00
1433.419,751.50
1434.310,797.00
1435.202,800.50
1436.092,861.00
1436.984,826.50
1437.875,811.00
1438.767,708.50
1439.657,770.50
1440.548,708.00
1441.438,801.50
1442.330,764.50
1443.219,786.50
1444.111,791.50
1445.000,745.50
1445.891,803.50
1446.781,798.50
1447.672,759.00
1448.561,716.50
1449.452,772.50
1450.340,751.50
1451.231,765.00
1452.120,782.00
1453.010,754.00
1453.899,760.00
1454.789,769.00
1455.677,781.50
1456.568,803.00
1457.456,777.50
1458.346,743.50
1459.234,732.50
1460.123,822.50
1461.011,727.00
1461.901,742.00
1462.788,749.50
1463.678,728.50
1464.565,740.50
1465.454,767.00
1466.342,806.00
1467.231,763.00
1468.118,752.50
1469.006,709.50
1469.893,718.00
1470.782,789.00
1471.669,756.00
1472.557,780.50
1473.444,754.00
1474.330,754.00
1475.218,704.50
1476.105,766.00
1476.993,725.00
1477.879,762.00
1478.767,719.00
1479.652,665.50
1480.540,696.50
1481.426,702.50
1482.313,772.00
1483.199,761.50
1484.086,726.50
1484.972,742.50
1485.857,688.00
1486.744,720.00
1487.629,713.50
1488.516,708.00
1489.401,713.00
1490.287,706.00
1491.172,679.50
1492.058,707.00
1492.943,693.00
1493.828,728.50
1494.714,786.50
1495.598,699.00
1496.484,705.50
1497.368,703.00
1498.254,725.00
1499.138,709.50
1500.022,711.00
1500.907,722.00
1501.791,659.00
1502.676,731.50
1503.560,689.50
1504.445,701.00
1505.328,706.00
1506.211,720.00
1507.096,713.50
1507.979,706.00
1508.864,676.00
1509.747,714.00
1510.631,706.00
1511.514,679.00
1512.397,720.00
1513.281,678.50
1514.163,726.00
1515.047,709.00
1515.930,696.00
1516.812,756.50
1517.696,698.00
1518.578,657.50
1519.461,676.50
1520.343,727.00
1521.225,703.00
1522.108,717.50
1522.990,669.00
1523.873,694.00
1524.754,643.00
1525.635,652.50
1526.518,713.00
1527.399,649.00
1528.282,735.50
1529.163,664.50
1530.044,697.00
1530.926,664.50
1531.807,672.50
1532.689,639.00
1533.569,698.50
1534.450,715.50
1535.332,662.50
1536.212,648.50
1537.092,657.50
1537.974,652.50
1538.854,645.00
1539.735,708.50
1540.615,673.00
1541.495,674.50
1542.376,706.50
1543.255,628.00
1544.135,628.00
1545.016,665.50
1545.895,702.00
1546.774,675.00
1547.655,683.00
1548.534,587.00
1549.414,670.00
1550.293,618.50
1551.172,648.50
1552.052,637.00
1552.930,667.00
1553.809,629.00
1554.689,638.00
1555.567,640.50
1556.445,699.50
1557.325,606.50
1558.203,639.00
1559.080,606.00
1559.960,592.00
1560.838,668.00
1561.715,680.50
1562.594,613.00
1563.472,686.50
1564.349,623.00
1565.228,615.00
1566.105,635.50
1566.982,641.50
1567.861,703.00
1568.738,670.50
1569.615,638.50
1570.493,596.00
1571.370,653.50
1572.246,646.00
1573.124,667.50
1574.000,623.50
1574.877,633.00
1575.755,607.50
1576.631,639.50
1577.507,620.50
1578.384,613.00
1579.260,669.00
1580.136,648.50
1581.011,667.00
1581.889,653.00
1582.764,630.50
1583.639,658.50
1584.516,626.00
1585.391,602.00
1586.266,644.50
1587.143,641.00
1588.018,641.50
1588.893,615.00
1589.768,676.00
1590.644,657.00
1591.519,611.50
1592.393,596.00
1593.269,616.50
1594.143,651.50
1595.018,655.50
1595.892,664.00
1596.767,613.50
1597.641,663.00
1598.515,638.50
1599.391,668.00
1600.264,622.00
1601.138,589.50
1602.011,605.50
1602.886,613.00
1603.760,646.50
1604.633,632.00
1605.508,680.50
1606.381,588.50
1607.254,600.00
1608.127,634.00
1609.001,610.50
1609.874,582.50
1610.746,647.00
1611.619,653.50
1612.493,631.50
1613.365,656.50
1614.238,631.50
1615.110,553.00
1615.984,611.00
1616.855,614.00
1617.727,581.00
1618.599,696.50
1619.473,643.00
1620.344,610.50
1621.216,647.50
1622.087,581.00
1622.960,578.00
1623.832,636.00
1624.703,574.00
1625.574,651.50
1626.445,632.00
1627.317,596.50
1628.188,628.00
1629.059,620.00
1629.930,602.50
1630.802,577.50
1631.672,626.50
1632.543,627.50
1633.413,574.00
1634.283,575.00
1635.155,575.00
1636.025,661.50
1636.895,570.00
1637.765,568.00
1638.636,621.50
1639.506,607.00
1640.376,614.50
1641.245,551.50
1642.114,596.50
1642.985,602.00
1643.855,667.50
1644.724,585.50
1645.593,606.00
1646.462,605.50
1647.333,610.00
1648.201,610.00
1649.070,642.00
1649.939,610.00
1650.807,622.00
1651.676,623.50
1652.546,578.50
1653.414,612.50
1654.282,621.00
1655.150,622.50
1656.018,577.50
1656.888,580.00
1657.756,594.00
1658.623,571.50
1659.491,586.00
1660.359,624.50
1661.226,613.50
1662.095,571.50
1662.962,595.00
1663.830,596.00
1664.697,608.50
1665.564,640.50
1666.431,580.50
1667.297,519.50
1668.166,647.00
1669.033,586.50
1669.899,557.50
1670.766,609.00
1671.632,551.50
1672.499,527.50
1673.367,617.50
1674.233,573.00
1675.099,546.00
1675.965,631.50
1676.831,621.50
1677.696,546.50
1678.562,620.50
1679.430,596.50
1680.295,540.00
1681.161,591.50
1682.026,619.00
1682.891,532.50
1683.756,595.00
1684.621,574.00
1685.486,613.50
1686.353,570.50
1687.218,567.50
1688.083,540.00
1688.947,545.00
1689.812,538.50
1690.677,573.50
1691.541,568.50
1692.405,558.50
1693.269,512.00
1694.135,577.00
1694.999,546.00
1695.863,549.00
1696.727,569.00
1697.591,560.50
1698.455,544.50
1699.318,550.50
1700.182,562.00
1701.045,573.00
1701.909,567.50
1702.772,583.50
1703.637,568.00
1704.500,584.00
1705.363,535.50
1706.226,536.00
1707.089,536.50
1707.951,593.00
1708.814,576.50
1709.677,555.50
1710.539,576.00
1711.402,589.00
1712.264,580.00
1713.126,572.50
1713.988,544.50
1714.852,570.00
1715.714,493.50
1716.576,569.50
1717.438,495.00
1718.299,567.50
1719.161,562.00
1720.023,517.50
1720.884,577.00
1721.745,582.00
1722.607,543.50
1723.468,532.50
1724.329,530.50
1725.190,529.50
1726.051,587.50
1726.912,535.00
1727.772,558.50
1728.633,545.00
1729.494,592.00
1730.354,539.00
1731.214,538.50
1732.075,554.00
1732.935,536.00
1733.797,510.50
1734.657,570.50
1735.517,514.50
1736.377,522.50
1737.237,525.00
1738.096,612.00
1738.956,537.50
1739.816,610.50
1740.675,576.00
1741.534,566.00
1742.394,509.50
1743.253,578.00
1744.112,575.50
1744.971,562.00
1745.830,565.50
1746.689,618.00
1747.547,514.50
1748.406,570.50
1749.265,516.50
1750.123,533.50
1750.982,522.50
1751.840,580.50
1752.698,553.00
1753.556,500.50
1754.414,536.50
1755.272,573.50
1756.130,537.00
1756.988,549.00
1757.846,509.00
1758.703,558.00
1759.559,563.00
1760.417,580.50
1761.274,547.50
1762.131,529.00
1762.989,528.50
1763.846,541.00
1764.703,595.00
1765.560,554.00
1766.417,555.00
1767.273,591.50
1768.130,488.00
1768.987,547.50
1769.843,566.00
1770.700,515.50
1771.556,530.00
1772.412,575.50
1773.268,561.00
1774.125,517.00
1774.980,536.00
1775.836,599.50
1776.692,536.50
1777.546,615.00
1778.402,537.50
1779.257,499.50
1780.113,551.00
1780.968,514.50
1781.824,547.00
1782.679,579.50
1783.534,545.50
1784.389,549.50
1785.244,581.50
1786.099,587.50
1786.954,566.50
1787.808,568.50
1788.661,499.00
1789.516,575.50
1790.370,613.00
1791.225,585.00
1792.079,555.00
1792.933,553.00
1793.787,504.50
1794.641,532.00
1795.495,548.00
1796.349,581.50
1797.201,560.50
1798.055,580.50
1798.908,512.50
1799.762,515.00
1800.615,525.00
1801.469,578.50
1802.322,541.50
1803.175,590.00
1804.028,534.00
1804.880,510.00
1805.732,551.50
1806.585,512.50
1807.438,531.50
1808.291,568.00
1809.143,513.00
1809.996,479.50
1810.846,544.50
1811.699,510.00
1812.551,582.50
1813.403,594.50
1814.255,541.00
1815.107,504.00
1815.959,503.50
1816.809,545.00
1817.661,549.50
1818.512,538.00
1819.364,528.50
1820.215,451.00
1821.067,531.00
1821.918,543.50
1822.768,541.50
1823.619,557.50
1824.470,557.50
1825.321,574.50
1826.172,545.50
1827.021,513.00
1827.871,544.00
1828.722,506.00
1829.572,517.00
1830.423,501.00
1831.273,539.50
1832.122,495.50
1832.972,511.00
1833.822,491.00
1834.672,518.00
1835.522,506.00
1836.370,531.00
1837.220,520.50
1838.070,519.00
1838.919,514.50
1839.769,531.50
1840.616,543.50
1841.466,519.50
1842.315,499.50
1843.164,542.00
1844.013,515.00
1844.860,463.00
1845.709,539.50
1846.558,546.50
1847.407,561.50
1848.254,559.50
1849.102,536.50
1849.951,533.50
1850.799,586.50
1851.648,548.50
1852.494,526.00
1853.342,516.00
1854.190,475.50
1855.038,519.00
1855.884,458.00
1856.732,494.50
1857.580,516.00
1858.428,528.50
1859.273,509.50
1860.121,498.50
1860.968,498.00
1861.816,551.00
1862.661,565.00
1863.508,498.50
1864.355,549.00
1865.202,518.00
1866.047,512.50
1866.894,523.50
1867.741,531.50
1868.586,471.00
1869.432,558.00
1870.279,528.00
1871.125,492.50
1871.970,574.50
1872.816,521.50
1873.662,512.50
1874.506,489.50
1875.352,555.00
1876.198,529.50
1877.044,515.50
1877.888,530.50
1878.734,531.50
1879.579,528.00
1880.423,568.00
1881.268,556.00
1882.113,552.00
1882.959,477.00
1883.802,583.00
1884.647,560.50
1885.492,518.00
1886.335,491.00
1887.180,547.00
1888.025,504.50
1888.867,508.50
1889.712,498.00
1890.556,560.50
1891.399,541.50
1892.243,471.50
1893.087,515.00
1893.930,572.00
1894.774,510.00
1895.618,499.50
1896.460,517.00
1897.304,490.50
1898.147,501.00
1898.989,496.50
1899.833,486.00
1900.676,549.00
1901.518,513.50
1902.361,524.00
1903.202,525.00
1904.046,508.50
1904.889,573.00
1905.730,525.50
1906.573,523.50
1907.415,490.00
1908.256,521.50
1909.099,538.00
1909.941,551.50
1910.782,548.50
1911.624,511.50
1912.465,564.00
1913.307,475.00
1914.149,513.50
1914.989,542.00
1915.831,533.00
1916.671,515.00
1917.513,529.00
1918.355,488.50
1919.195,456.00
1920.036,522.50
1920.876,495.50
1921.717,513.00
1922.558,509.00
1923.398,501.50
1924.239,588.00
1925.078,517.50
1925.919,601.50
1926.760,555.50
1927.599,567.00
1928.440,504.50
1929.279,527.00
1930.119,495.00
1930.958,498.00
1931.798,506.50
1932.638,466.50
1933.477,554.00
1934.317,485.50
1935.155,534.00
1935.995,484.00
1936.833,511.50
1937.673,507.00
1938.512,517.00
1939.350,540.00
1940.190,511.00
1941.027,509.50
1941.867,480.50
1942.704,490.00
1943.543,504.50
1944.381,476.00
1945.220,500.00
1946.057,531.00
1946.896,550.50
1947.733,541.50
1948.572,506.00
1949.408,508.00
1950.247,493.50
1951.085,501.00
1951.922,450.00
1952.760,511.00
1953.597,490.50
1954.435,506.00
1955.271,510.50
1956.109,469.50
1956.945,450.00
1957.783,494.00
1958.619,500.50
1959.456,577.00
1960.292,514.00
1961.129,523.50
1961.965,559.50
1962.802,526.50
1963.638,535.50
1964.475,486.00
1965.310,527.50
1966.145,539.50
1966.982,549.00
1967.817,475.00
1968.654,585.00
1969.489,513.00
1970.325,545.00
1971.160,503.50
1971.996,554.00
1972.831,497.00
1973.667,442.50
1974.501,541.50
1975.337,539.00
1976.171,513.00
1977.006,530.00
1977.841,505.00
1978.675,511.00
1979.511,518.50
1980.345,502.00
1981.180,545.00
1982.014,463.00
1982.849,542.50
1983.682,581.50
1984.516,550.50
1985.351,519.50
1986.184,531.00
1987.019,529.00
1987.852,531.50
1988.687,492.00
1989.519,536.00
1990.352,552.50
1991.187,471.00
1992.019,472.50
1992.854,499.50
1993.686,556.00
1994.518,547.00
1995.352,472.00
1996.185,517.00
1997.019,556.00
1997.851,560.00
1998.682,560.00
1999.516,525.00
2000.348,524.50

<< BACKGROUND SPECTRUM >>
Wave[dcm-1],No9
96.716,2574.00
97.759,2356.00
98.802,2288.00
99.846,2903.00
100.886,2565.00
101.929,2764.00
102.972,2736.00
104.015,2648.00
105.057,2763.00
106.100,2231.00
107.142,2616.00
108.184,3016.00
109.226,2844.00
110.268,3078.00
111.310,3318.00
112.352,2868.00
113.393,2961.00
114.435,2848.00
115.476,3069.00
116.517,3081.00
117.558,2620.00
118.599,2930.00
119.640,3216.00
120.681,3250.00
121.722,3207.00
122.762,2861.00
123.803,2729.00
124.843,3108.00
125.883,3333.00
126.923,3575.00
127.963,3295.00
129.001,3554.00
130.041,4004.00
131.080,3223.00
132.120,3114.00
133.159,3551.00
134.199,3592.00
135.238,3165.00
136.277,3522.00
137.316,3661.00
138.355,3598.00
139.393,3188.00
140.432,3378.00
141.470,3412.00
142.509,3158.00
143.547,3749.00
144.585,2969.00
145.623,3401.00
146.661,3084.00
147.699,3505.00
148.736,3627.00
149.774,3202.00
150.811,3446.00
151.849,3945.00
152.886,3430.00
153.923,3634.00
154.960,3136.00
155.997,3889.00
157.034,3978.00
158.072,3629.00
159.109,4037.00
160.145,4209.00
161.182,3203.00
162.218,3492.00
163.254,3291.00
164.290,3278.00
165.326,4031.00
166.361,3886.00
167.397,3525.00
168.432,3702.00
169.468,3376.00
170.503,3675.00
171.538,3356.00
172.573,3719.00
173.608,3237.00
174.643,3748.00
175.677,3654.00
176.712,3780.00
177.746,3798.00
178.781,3359.00
179.815,2697.00
180.849,3797.00
181.883,3341.00
182.917,2844.00
183.951,3091.00
184.984,3827.00
186.020,3266.00
187.053,3659.00
188.087,3208.00
189.120,3486.00
190.153,3666.00
191.186,3700.00
192.219,3787.00
193.251,3652.00
194.284,3765.00
195.317,3860.00
196.349,5992.00
197.381,3398.00
198.413,3476.00
199.445,3266.00
200.477,3549.00
201.509,3537.00
202.543,3485.00
203.575,3936.00
204.606,3641.00
205.637,5243.00
206.669,3170.00
207.700,3703.00
208.731,3552.00
209.762,3258.00
210.792,3231.00
211.823,3621.00
212.854,3250.00
213.884,4388.00
214.914,3732.00
215.947,3559.00
216.977,3679.00
218.007,3580.00
219.037,3868.00
220.066,3345.00
221.096,3827.00
222.126,3167.00
223.155,3408.00
224.184,3748.00
225.214,4302.00
226.245,3882.00
227.274,3306.00
228.302,3636.00
229.331,3757.00
230.360,3416.00
231.388,3424.00
232.417,3184.00
233.445,3596.00
234.473,3375.00
235.501,3717.00
236.531,3744.00
237.559,3693.00
238.587,3296.00
239.614,3295.00
240.642,3598.00
241.669,3660.00
242.696,3675.00
243.724,3685.00
244.753,4031.00
245.780,3481.00
246.806,3225.00
247.833,3599.00
248.860,3458.00
249.886,3590.00
250.913,3222.00
251.939,3519.00
252.967,3495.00
253.993,3481.00
255.019,3945.00
256.045,3588.00
257.070,4058.00
258.096,3290.00
259.121,3695.00
260.147,3558.00
261.174,3456.00
262.199,3424.00
263.224,3608.00
264.249,3919.00
265.274,4068.00
266.298,3517.00
267.323,3628.00
268.349,3852.00
269.374,3215.00
270.398,3244.00
271.422,3714.00
272.446,3293.00
273.470,3120.00
274.496,3683.00
275.519,3724.00
276.543,3833.00
277.566,3899.00
278.589,3852.00
279.613,3811.00
280.636,3685.00
281.661,3815.00
282.684,3850.00
283.706,3920.00
284.729,4099.00
285.751,2995.00
286.774,3983.00
287.798,3404.00
288.820,2972.00
289.842,3335.00
290.864,3311.00
291.886,3638.00
292.910,3468.00
293.932,4052.00
294.953,3522.00
295.974,3563.00
296.996,3717.00
298.017,3540.00
299.040,3384.00
300.061,3689.00
301.082,3347.00
302.102,3230.00
303.123,3797.00
304.143,3560.00
305.166,3518.00
306.186,3727.00
307.206,3332.00
308.226,3755.00
309.246,3120.00
310.268,3824.00
311.288,3575.00
312.307,3244.00
313.327,3479.00
314.346,3816.00
315.368,3016.00
316.387,3663.00
317.406,3641.00
318.425,3555.00
319.443,3468.00
320.464,3188.00
321.483,4051.00
322.501,3390.00
323.520,3971.00
324.538,3456.00
325.558,4052.00
326.576,3627.00
327.594,3529.00
328.612,3406.00
329.629,3136.00
330.649,3812.00
331.666,3590.00
332.684,3127.00
333.701,3672.00
334.718,3221.00
335.737,3352.00
336.754,3712.00
337.771,3786.00
338.787,3180.00
339.806,3447.00
340.823,3453.00
341.839,3596.00
342.855,3445.00
343.871,3597.00
344.889,3351.00
345.905,3854.00
346.921,3745.00
347.937,4378.00
348.954,4150.00
349.970,3610.00
350.985,3589.00
352.000,3138.00
353.017,3748.00
354.032,3116.00
355.047,3829.00
356.062,3451.00
357.077,3381.00
358.093,3977.00
359.108,3676.00
360.122,3623.00
361.136,3482.00
362.152,3939.00
363.166,3218.00
364.180,3113.00
365.194,3979.00
366.210,3404.00
367.223,3266.00
368.237,3405.00
369.250,3586.00
370.265,3362.00
371.278,3912.00
372.291,3728.00
373.304,3071.00
374.319,3769.00
375.332,3769.00
376.344,4101.00
377.357,3444.00
378.371,3842.00
379.383,3362.00
380.395,4278.00
381.407,4030.00
382.421,3420.00
383.433,3432.00
384.445,3357.00
385.456,3564.00
386.470,3077.00
387.481,3953.00
388.492,3881.00
389.505,3283.00
390.516,3985.00
391.527,3462.00
392.538,3478.00
393.551,3695.00
394.561,4299.00
395.572,3659.00
396.582,3628.00
397.594,3772.00
398.604,3423.00
399.614,3658.00
400.624,3426.00
401.636,3421.00
402.646,3497.00
403.655,3147.00
404.667,3404.00
405.676,3344.00
406.685,4314.00
407.694,3903.00
408.705,3007.00
409.714,3116.00
410.723,3280.00
411.734,3301.00
412.742,3378.00
413.751,3610.00
414.759,3637.00
415.769,3532.00
416.777,3807.00
417.785,3496.00
418.795,3376.00
419.803,3619.00
420.811,3292.00
421.818,3919.00
422.828,3504.00
423.835,3400.00
424.842,3382.00
425.852,3261.00
426.859,3710.00
427.866,3672.00
428.874,3609.00
429.881,3469.00
430.888,3759.00
431.894,3596.00
432.902,3545.00
433.909,4475.00
434.915,3635.00
435.923,4258.00
436.929,3085.00
437.935,3446.00
438.942,3395.00
439.948,3555.00
440.953,4101.00
441.959,3191.00
442.966,3964.00
443.971,3702.00
444.976,3147.00
445.983,3619.00
446.988,3542.00
447.993,4040.00
448.999,3616.00
450.004,3535.00
451.008,3370.00
452.014,4037.00
453.019,3852.00
454.023,3240.00
455.029,3227.00
456.032,3960.00
457.036,3459.00
458.042,2889.00
459.045,3460.00
460.049,3719.00
461.052,4040.00
462.057,3746.00
463.060,3970.00
464.063,3408.00
465.068,3458.00
466.071,3316.00
467.073,3864.00
468.078,3121.00
469.080,3081.00
470.082,3584.00
471.087,3429.00
472.089,3572.00
473.091,3807.00
474.095,4006.00
475.096,3428.00
476.098,3414.00
477.101,3756.00
478.103,3283.00
479.104,4157.00
480.107,3460.00
481.108,3068.00
482.109,4181.00
483.112,4150.00
484.113,4587.00
485.114,3769.00
486.116,3569.00
487.117,3846.00
488.117,3592.00
489.119,3706.00
490.119,3795.00
491.121,3207.00
492.121,3037.00
493.121,2953.00
494.123,3569.00
495.122,3638.00
496.122,3559.00
497.123,4490.00
498.122,3378.00
499.121,3678.00
500.122,3577.00
501.121,3143.00
502.120,3145.00
503.121,3289.00
504.119,3225.00
505.118,3766.00
506.118,3286.00
507.117,3287.00
508.115,3723.00
509.115,3550.00
510.113,3089.00
511.112,3837.00
512.110,3527.00
513.108,3774.00
514.107,3864.00
515.105,3743.00
516.102,3886.00
517.101,3518.00
518.098,3569.00
519.095,4128.00
520.094,3427.00
521.091,3401.00
522.089,3725.00
523.086,3366.00
524.082,3748.00
525.081,3623.00
526.077,4754.00
527.073,4546.00
528.071,3505.00
529.067,3364.00
530.064,3407.00
531.060,3192.00
532.056,3420.00
533.053,3871.00
534.048,3733.00
535.044,3546.00
536.041,3709.00
537.036,3593.00
538.030,3699.00
539.027,3782.00
540.022,3105.00
541.019,3494.00
542.013,3811.00
543.007,3691.00
544.004,3481.00
544.998,3551.00
545.994,4101.00
546.988,3923.00
547.981,3446.00
548.977,4186.00
549.971,3723.00
550.964,3839.00
551.960,3675.00
552.953,3577.00
553.948,3800.00
554.941,3359.00
555.934,3238.00
556.929,3715.00
557.922,3271.00
558.916,3808.00
559.909,4042.00
560.901,3605.00
561.895,3566.00
562.888,3246.00
563.880,3740.00
564.874,3964.00
565.865,3815.00
566.859,3220.00
567.851,4060.00
568.842,3473.00
569.836,3560.00
570.827,3222.00
571.820,3577.00
572.811,3713.00
573.802,3571.00
574.795,3309.00
575.786,3849.00
576.779,3679.00
577.769,3171.00
578.760,3610.00
579.752,3223.00
580.742,3402.00
581.735,3706.00
582.725,3319.00
583.714,3793.00
584.706,3223.00
585.696,3541.00
586.688,3724.00
587.677,3522.00
588.667,3670.00
589.658,3507.00
590.647,3666.00
591.638,3589.00
592.627,3416.00
593.616,3096.00
594.607,3662.00
595.595,3541.00
596.586,3198.00
597.574,3892.00
598.562,3961.00
599.553,3188.00
600.541,3562.00
601.531,3669.00
602.519,3436.00
603.508,3647.00
604.496,3669.00
605.484,3617.00
606.473,3538.00
607.460,3453.00
608.450,3415.00
609.437,3762.00
610.424,3895.00
611.413,3144.00
612.400,3239.00
613.388,3566.00
614.375,3440.00
615.361,3414.00
616.350,3284.00
617.336,8415.00
618.324,3893.00
619.310,3361.00
620.298,3213.00
621.284,3640.00
622.270,3226.00
623.257,3591.00
624.243,3559.00
625.230,3743.00
626.216,3533.00
627.203,3888.00
628.188,3455.00
629.173,3423.00
630.160,3286.00
631.145,2718.00
632.131,3357.00
633.116,3146.00
634.102,3635.00
635.087,3785.00
636.071,3765.00
637.057,3307.00
638.041,3136.00
639.027,3262.00
640.011,3402.00
640.995,3263.00
641.980,3282.00
642.964,3388.00
643.949,3889.00
644.932,2780.00
645.918,3331.00
646.901,3508.00
647.886,3360.00
648.868,3399.00
649.851,3196.00
650.836,2934.00
651.818,3196.00
652.803,3716.00
653.785,3506.00
654.769,3697.00
655.751,3669.00
656.733,3892.00
657.717,3040.00
658.699,3597.00
659.683,3294.00
660.664,3138.00
661.648,3401.00
662.629,3313.00
663.611,3307.00
664.594,3088.00
665.575,3097.00
666.558,3394.00
667.539,3115.00
668.521,3335.00
669.502,3341.00
670.484,3335.00
671.465,3276.00
672.445,3434.00
673.427,3187.00
674.407,3171.00
675.390,3555.00
676.369,3356.00
677.351,2960.00
678.331,3634.00
679.312,3362.00
680.292,3242.00
681.271,2965.00
682.253,3549.00
683.232,3060.00
684.213,3260.00
685.192,3664.00
686.172,3966.00
687.151,3390.00
688.132,3436.00
689.110,3569.00
690.089,3708.00
691.069,2885.00
692.047,2845.00
693.027,2952.00
694.005,3403.00
694.985,4013.00
695.963,3471.00
696.943,3234.00
697.920,2981.00
698.898,3779.00
699.877,3602.00
700.854,3262.00
701.833,3232.00
702.810,3739.00
703.789,3459.00
704.766,4453.00
705.745,3885.00
706.721,3193.00
707.698,3698.00
708.676,3066.00
709.653,3318.00
710.631,3683.00
711.607,3383.00
712.585,3373.00
713.561,3093.00
714.539,3884.00
715.514,3279.00
716.492,3055.00
717.467,3815.00
718.443,3027.00
719.420,3669.00
720.395,3783.00
721.372,3494.00
722.347,3659.00
723.324,3175.00
724.298,3383.00
725.275,3122.00
726.250,3312.00
727.226,3175.00
728.200,2970.00
729.176,3278.00
730.151,3601.00
731.125,3812.00
732.100,2959.00
733.074,3348.00
734.050,3205.00
735.023,3051.00
735.999,3296.00
736.972,3235.00
737.947,3713.00
738.921,3435.00
739.896,3563.00
740.869,3389.00
741.841,3251.00
742.816,3803.00
743.789,3099.00
744.763,3071.00
745.736,3294.00
746.710,3167.00
747.682,3059.00
748.656,3302.00
749.628,3294.00
750.602,3280.00
751.574,3418.00
752.548,4155.00
753.519,3465.00
754.491,2968.00
755.464,3176.00
756.435,4021.00
757.408,3583.00
758.379,3474.00
759.352,2865.00
760.323,3020.00
761.296,3238.00
762.267,3355.00
763.239,3092.00
764.209,3562.00
765.182,4497.00
766.152,3628.00
767.124,3066.00
768.094,3101.00
769.064,3524.00
770.036,3003.00
771.005,3601.00
771.977,3156.00
772.947,3242.00
773.918,3728.00
774.887,3295.00
775.858,3075.00
776.827,3232.00
777.798,3249.00
778.767,3780.00
779.738,3259.00
780.707,3219.00
781.677,3352.00
782.646,3102.00
783.614,3665.00
784.584,3391.00
785.552,3519.00
786.522,2993.00
787.490,3304.00
788.460,3178.00
789.428,3135.00
790.397,3675.00
791.365,2963.00
792.334,3237.00
793.302,3376.00
794.271,3443.00
795.238,3147.00
796.207,3155.00
797.174,3578.00
798.143,3024.00
799.109,3667.00
800.076,3222.00
801.044,2915.00
802.011,3097.00
802.979,3089.00
803.945,3291.00
804.913,3881.00
805.879,3198.00
806.847,2958.00
807.813,3591.00
808.780,3234.00
809.746,3290.00
810.713,3669.00
811.678,2977.00
812.646,3179.00
813.611,3209.00
814.578,2937.00
815.543,3615.00
816.510,2867.00
817.474,3170.00
818.439,3207.00
819.405,3575.00
820.370,3106.00
821.336,2974.00
822.300,3404.00
823.266,3218.00
824.230,3463.00
825.196,3304.00
826.160,3640.00
827.126,3621.00
828.089,4044.00
829.055,3294.00
830.018,3328.00
830.983,4065.00
831.946,3074.00
832.911,3089.00
833.874,3880.00
834.837,3120.00
835.802,3159.00
836.765,3728.00
837.729,3118.00
838.691,3213.00
839.656,3588.00
840.618,3414.00
841.582,3532.00
842.544,3560.00
843.508,3730.00
844.470,3005.00
845.434,2865.00
846.395,2757.00
847.359,3144.00
848.320,2889.00
849.283,2998.00
850.245,3119.00
851.208,3503.00
852.169,3209.00
853.130,3006.00
854.092,3452.00
855.053,3187.00
856.016,3215.00
856.976,4310.00
857.938,3272.00
858.899,3276.00
859.861,2898.00
860.821,3171.00
861.783,2569.00
862.743,3256.00
863.704,3528.00
864.664,2756.00
865.626,3367.00
866.585,3055.00
867.546,3301.00
868.506,3361.00
869.467,2777.00
870.426,3283.00
871.387,3522.00
872.346,3587.00
873.304,3370.00
874.265,3414.00
875.223,3319.00
876.184,3352.00
877.142,3099.00
878.102,3220.00
879.060,3216.00
880.021,3315.00
880.978,2837.00
881.938,3215.00
882.896,3592.00
883.856,3440.00
884.813,3163.00
885.772,3138.00
886.730,3459.00
887.689,3364.00
888.646,3081.00
889.603,3651.00
890.562,3580.00
891.519,3307.00
892.477,3361.00
893.434,3278.00
894.392,2835.00
895.349,3244.00
896.307,3330.00
897.263,3470.00
898.221,3277.00
899.177,3094.00
900.135,3417.00
901.091,3189.00
902.048,3677.00
903.004,3186.00
903.961,3041.00
904.917,3235.00
905.874,3250.00
906.829,2934.00
907.784,3240.00
908.741,3294.00
909.696,3139.00
910.653,2760.00
911.607,3173.00
912.564,3125.00
913.518,3112.00
914.475,3302.00
915.429,4965.00
916.385,2938.00
917.339,3575.00
918.295,3357.00
919.249,3457.00
920.205,3362.00
921.158,3384.00
922.114,3167.00
923.067,3227.00
924.020,3290.00
924.976,3137.00
925.929,3381.00
926.884,3295.00
927.837,3535.00
928.791,3425.00
929.744,2930.00
930.699,3258.00
931.651,3250.00
932.606,2855.00
933.558,3142.00
934.512,3449.00
935.464,3329.00
936.418,3600.00
937.370,3382.00
938.322,3028.00
939.276,3162.00
940.227,3247.00
941.181,3316.00
942.132,3668.00
943.085,3849.00
944.036,2785.00
944.990,3575.00
945.941,3025.00
946.893,3093.00
947.844,2930.00
948.797,3379.00
949.747,3987.00
950.700,3114.00
951.650,2635.00
952.601,3337.00
953.553,3023.00
954.503,3422.00
955.455,3180.00
956.405,3247.00
957.356,2935.00
958.306,3526.00
959.258,3233.00
960.207,3620.00
961.158,3559.00
962.108,3242.00
963.059,2909.00
964.008,2915.00
964.959,3869.00
965.908,3158.00
966.856,3017.00
967.807,2819.00
968.756,3554.00
969.706,3267.00
970.654,3149.00
971.605,3219.00
972.553,3319.00
973.503,3253.00
974.451,3494.00
975.401,3291.00
976.348,3263.00
977.296,3122.00
978.246,3502.00
979.193,3608.00
980.142,2994.00
981.090,3270.00
982.039,3205.00
982.986,3300.00
983.935,3541.00
984.882,3301.00
985.830,3417.00
986.777,3339.00
987.725,3093.00
988.672,3047.00
989.618,3254.00
990.567,2991.00
991.513,3187.00
992.461,3031.00
993.407,3455.00
994.354,3317.00
995.300,3351.00
996.248,3299.00
997.193,3359.00
998.141,3170.00
999.086,3323.00
1000.031,3291.00
1000.978,2815.00
1001.924,3186.00
1002.870,3348.00
1003.815,2654.00
1004.762,2999.00
1005.707,3258.00
1006.653,3129.00
1007.598,3157.00
1008.542,2852.00
1009.488,2835.00
1010.432,3097.00
1011.378,2998.00
1012.322,3691.00
1013.268,2920.00
1014.212,3198.00
1015.157,3299.00
1016.101,3684.00
1017.046,2902.00
1017.990,2945.00
1018.933,3172.00
1019.878,2962.00
1020.821,2981.00
1021.766,2857.00
1022.709,3074.00
1023.654,3153.00
1024.596,3465.00
1025.541,3687.00
1026.483,3626.00
1027.425,3308.00
1028.370,3355.00
1029.312,3415.00
1030.256,3094.00
1031.198,3045.00
1032.141,3084.00
1033.083,3606.00
1034.027,3287.00
1034.968,3373.00
1035.910,2734.00
1036.853,3212.00
1037.794,3236.00
1038.738,2950.00
1039.679,3531.00
1040.621,3041.00
1041.562,3112.00
1042.503,3472.00
1043.446,2944.00
1044.386,3470.00
1045.329,3202.00
1046.269,3313.00
1047.211,3108.00
1048.151,3252.00
1049.093,2885.00
1050.033,3977.00
1050.973,3319.00
1051.915,3121.00
1052.854,3105.00
1053.796,3398.00
1054.735,3043.00
1055.677,3082.00
1056.616,3235.00
1057.555,3291.00
1058.496,2876.00
1059.435,3398.00
1060.376,3044.00
1061.315,3019.00
1062.255,2907.00
1063.194,3140.00
1064.132,2865.00
1065.073,3240.00
1066.011,3207.00
1066.951,3206.00
1067.889,2937.00
1068.829,3330.00
1069.767,3260.00
1070.705,2582.00
1071.644,3081.00
1072.582,2770.00
1073.521,3084.00
1074.459,3125.00
1075.398,3344.00
1076.335,3038.00
1077.272,3828.00
1078.211,3284.00
1079.148,3723.00
1080.087,3204.00
1081.023,3608.00
1081.962,3452.00
1082.898,2725.00
1083.835,3043.00
1084.773,2764.00
1085.709,2821.00
1086.647,3184.00
1087.583,3070.00
1088.519,3322.00
1089.457,3348.00
1090.392,2783.00
1091.330,3216.00
1092.266,3117.00
1093.203,3452.00
1094.138,2853.00
1095.073,3643.00
1096.010,3445.00
1096.945,3086.00
1097.882,2789.00
1098.817,2654.00
1099.752,4011.00
1100.688,3198.00
1101.623,3269.00
1102.559,3247.00
1103.493,3489.00
1104.430,2718.00
1105.364,2844.00
1106.298,3103.00
1107.234,3750.00
1108.167,2963.00
1109.094,3113.00
1110.019,3105.00
1110.945,3310.00
1111.869,3152.00
1112.795,3062.00
1113.720,3206.00
1114.646,3163.00
1115.571,2596.00
1116.495,3225.00
1117.420,3225.00
1118.345,2976.00
1119.270,3111.00
1120.195,3248.00
1121.118,3514.00
1122.042,3426.00
1122.967,3144.00
1123.891,3207.00
1124.816,3196.00
1125.738,3168.00
1126.663,2585.00
1127.587,3049.00
1128.511,3035.00
1129.435,3173.00
1130.357,3224.00
1131.280,3979.00
1132.204,2955.00
1133.128,2974.00
1134.051,3038.00
1134.972,3796.00
1135.896,3019.00
1136.819,3459.00
1137.742,2956.00
1138.665,3336.00
1139.586,3109.00
1140.509,2686.00
1141.431,2971.00
1142.354,3621.00
1143.276,3169.00
1144.197,3582.00
1145.119,3260.00
1146.041,2902.00
1146.964,3318.00
1147.885,3267.00
1148.806,3089.00
1149.727,3148.00
1150.649,2785.00
1151.571,3181.00
1152.492,3370.00
1153.412,3258.00
1154.333,3165.00
1155.254,3050.00
1156.175,3055.00
1157.095,3600.00
1158.016,3213.00
1158.936,2979.00
1159.857,3208.00
1160.778,3082.00
1161.697,2772.00
1162.617,3262.00
1163.537,3779.00
1164.458,3568.00
1165.376,2996.00
1166.296,3349.00
1167.216,3445.00
1168.136,2971.00
1169.056,2864.00
1169.974,3064.00
1170.893,3687.00
1171.813,3294.00
1172.732,3055.00
1173.650,3181.00
1174.569,3964.00
1175.488,3322.00
1176.407,2860.00
1177.326,2914.00
1178.243,3119.00
1179.161,2992.00
1180.080,3029.00
1180.999,3337.00
1181.915,3120.00
1182.834,2722.00
1183.752,3304.00
1184.670,3731.00
1185.586,2691.00
1186.504,2988.00
1187.422,3080.00
1188.340,2860.00
1189.258,3310.00
1190.173,3130.00
1191.091,3452.00
1192.008,2985.00
1192.926,2997.00
1193.841,3264.00
1194.758,3256.00
1195.675,2925.00
1196.592,3406.00
1197.507,2919.00
1198.424,3308.00
1199.340,3617.00
1200.257,3130.00
1201.172,3216.00
1202.088,2602.00
1203.004,3188.00
1203.920,3402.00
1204.835,3689.00
1205.750,3457.00
1206.666,3561.00
1207.582,2905.00
1208.496,2973.00
1209.412,3078.00
1210.327,2998.00
1211.243,3638.00
1212.156,2959.00
1213.071,2939.00
1213.986,3161.00
1214.901,2829.00
1215.814,2785.00
1216.729,2910.00
1217.644,2962.00
1218.559,2899.00
1219.471,3879.00
1220.386,3470.00
1221.300,2988.00
1222.213,3293.00
1223.127,3123.00
1224.041,3491.00
1224.955,2924.00
1225.867,3200.00
1226.781,3402.00
1227.694,3498.00
1228.608,3082.00
1229.520,3400.00
1230.433,3384.00
1231.346,2928.00
1232.260,3325.00
1233.171,2921.00
1234.084,3233.00
1234.997,3549.00
1235.908,2977.00
1236.821,3343.00
1237.733,4367.00
1238.646,3403.00
1239.556,3262.00
1240.469,3162.00
1241.381,2939.00
1242.293,2898.00
1243.203,3643.00
1244.115,3720.00
1245.027,3224.00
1245.937,2991.00
1246.849,3048.00
1247.761,3171.00
1248.672,2948.00
1249.582,3045.00
1250.493,3690.00
1251.404,3141.00
1252.313,3362.00
1253.225,3513.00
1254.135,4106.00
1255.046,3312.00
1255.955,3355.00
1256.866,3612.00
1257.777,2998.00
1258.685,2833.00
1259.596,2600.00
1260.506,3506.00
1261.416,3109.00
1262.324,3409.00
1263.234,3107.00
1264.144,3365.00
1265.052,3260.00
1265.962,3135.00
1266.872,3462.00
1267.779,3383.00
1268.689,2703.00
1269.598,2837.00
1270.507,3055.00
1271.415,3012.00
1272.324,3219.00
1273.233,3130.00
1274.140,3026.00
1275.048,2894.00
1275.957,2660.00
1276.864,2931.00
1277.772,2977.00
1278.681,2660.00
1279.587,2908.00
1280.496,3240.00
1281.404,3882.00
1282.312,3355.00
1283.218,2881.00
1284.126,2872.00
1285.033,3641.00
1285.939,3117.00
1286.847,3242.00
1287.754,3054.00
1288.660,2897.00
1289.567,3763.00
1290.474,3202.00
1291.380,3401.00
1292.286,2865.00
1293.193,3190.00
1294.098,3142.00
1295.005,2945.00
1295.912,3471.00
1296.816,3207.00
1297.723,3108.00
1298.629,2944.00
1299.534,3503.00
1300.440,3282.00
1301.346,2963.00
1302.250,2980.00
1303.156,2697.00
1304.062,3586.00
1304.966,3660.00
1305.871,3463.00
1306.777,2937.00
1307.680,3034.00
1308.586,3249.00
1309.491,3356.00
1310.394,3139.00
1311.299,3395.00
1312.204,3680.00
1313.107,3266.00
1314.012,3269.00
1314.917,2830.00
1315.819,3271.00
1316.724,3644.00
1317.628,3260.00
1318.531,3079.00
1319.435,3508.00
1320.339,5163.00
1321.241,3092.00
1322.145,3160.00
1323.049,3210.00
1323.951,2948.00
1324.854,2959.00
1325.756,3416.00
1326.659,3189.00
1327.563,2940.00
1328.464,3284.00
1329.367,3159.00
1330.271,3525.00
1331.172,2874.00
1332.074,3136.00
1332.977,2969.00
1333.878,3278.00
1334.781,3447.00
1335.683,2940.00
1336.584,3064.00
1337.486,2790.00
1338.387,3296.00
1339.289,2831.00
1340.191,3013.00
1341.091,3080.00
1341.993,2864.00
1342.895,2977.00
1343.794,3271.00
1344.696,3319.00
1345.596,3268.00
1346.497,2876.00
1347.398,3115.00
1348.298,2703.00
1349.199,3706.00
1350.100,3028.00
1350.999,3520.00
1351.900,3334.00
1352.799,3478.00
1353.699,3261.00
1354.600,3109.00
1355.499,3264.00
1356.399,2720.00
1357.297,3125.00
1358.198,3167.00
1359.098,2931.00
1359.996,2852.00
1360.896,3612.00
1361.796,3391.00
1362.694,3262.00
1363.593,3143.00
1364.491,3348.00
1365.391,3692.00
1366.290,3103.00
1367.187,2908.00
1368.086,3359.00
1368.984,3168.00
1369.883,2792.00
1370.782,3159.00
1371.679,3349.00
1372.577,3679.00
1373.474,3172.00
1374.373,3056.00
1375.269,3186.00
1376.168,3094.00
1377.066,3434.00
1377.962,3389.00
1378.860,3513.00
1379.756,3504.00
1380.654,3705.00
1381.552,3401.00
1382.448,3263.00
1383.346,3194.00
1384.241,3261.00
1385.139,3430.00
1386.036,3030.00
1386.931,2758.00
1387.829,3233.00
1388.724,3386.00
1389.621,3033.00
1390.516,3189.00
1391.413,3061.00
1392.309,2926.00
1393.204,3449.00
1394.101,3359.00
1394.995,3322.00
1395.891,3354.00
1396.786,2936.00
1397.682,3119.00
1398.578,3247.00
1399.472,3481.00
1400.368,3181.00
1401.262,3137.00
1402.158,3310.00
1403.051,3087.00
1403.947,3055.00
1404.840,3426.00
1405.736,3394.00
1406.631,2869.00
1407.524,3575.00
1408.419,3215.00
1409.312,3076.00
1410.207,3281.00
1411.100,3018.00
1411.995,3022.00
1412.888,3319.00
1413.782,2792.00
1414.675,3507.00
1415.569,2893.00
1416.463,3120.00
1417.355,3090.00
1418.249,2952.00
1419.141,3247.00
1420.035,3294.00
1420.927,3120.00
1421.821,3557.00
1422.713,3052.00
1423.606,3282.00
1424.498,3204.00
1425.391,3728.00
1426.282,2970.00
1427.175,3125.00
1428.068,2649.00
1428.960,3220.00
1429.852,3253.00
1430.743,2953.00
1431.636,3139.00
1432.527,3467.00
1433.419,3320.00
1434.310,3342.00
1435.202,2931.00
1436.092,3079.00
1436.984,3094.00
1437.875,3505.00
1438.767,3212.00
1439.657,2983.00
1440.548,3382.00
1441.438,3228.00
1442.330,3286.00
1443.219,3097.00
1444.111,3374.00
1445.000,3017.00
1445.891,2872.00
1446.781,2961.00
1447.672,3230.00
1448.561,3557.00
1449.452,3307.00
1450.340,2928.00
1451.231,2966.00
1452.120,2889.00
1453.010,3438.00
1453.899,3038.00
1454.789,3337.00
1455.677,3541.00
1456.568,3179.00
1457.456,3169.00
1458.346,3213.00
1459.234,3270.00
1460.123,3475.00
1461.011,3206.00
1461.901,3546.00
1462.788,3574.00
1463.678,3321.00
1464.565,3187.00
1465.454,3100.00
1466.342,3224.00
1467.231,2521.00
1468.118,3423.00
1469.006,3630.00
1469.893,2876.00
1470.782,3301.00
1471.669,3486.00
1472.557,3391.00
1473.444,3164.00
1474.330,3336.00
1475.218,3526.00
1476.105,3077.00
1476.993,3206.00
1477.879,3388.00
1478.767,3105.00
1479.652,2960.00
1480.540,3286.00
1481.426,3364.00
1482.313,3276.00
1483.199,3511.00
1484.086,3409.00
1484.972,2877.00
1485.857,2889.00
1486.744,3289.00
1487.629,2778.00
1488.516,3050.00
1489.401,3379.00
1490.287,3190.00
1491.172,2839.00
1492.058,3100.00
1492.943,2988.00
1493.828,2970.00
1494.714,3296.00
1495.598,3547.00
1496.484,3977.00
1497.368,2813.00
1498.254,3101.00
1499.138,3184.00
1500.022,3182.00
1500.907,3267.00
1501.791,3943.00
1502.676,3147.00
1503.560,3028.00
1504.445,3680.00
1505.328,3331.00
1506.211,3566.00
1507.096,3114.00
1507.979,3465.00
1508.864,3148.00
1509.747,3331.00
1510.631,3228.00
1511.514,3368.00
1512.397,3402.00
1513.281,3688.00
1514.163,3419.00
1515.047,3041.00
1515.930,2913.00
1516.812,3148.00
1517.696,3369.00
1518.578,3151.00
1519.461,3290.00
1520.343,3643.00
1521.225,2976.00
1522.108,3091.00
1522.990,3511.00
1523.873,3596.00
1524.754,2843.00
1525.635,2680.00
1526.518,3315.00
1527.399,3139.00
1528.282,3161.00
1529.163,3306.00
1530.044,3157.00
1530.926,2858.00
1531.807,2926.00
1532.689,3254.00
1533.569,2961.00
1534.450,4223.00
1535.332,3373.00
1536.212,3085.00
1537.092,3465.00
1537.974,2879.00
1538.854,3134.00
1539.735,3687.00
1540.615,3371.00
1541.495,2951.00
1542.376,3559.00
1543.255,2940.00
1544.135,3163.00
1545.016,3223.00
1545.895,2951.00
1546.774,3383.00
1547.655,2728.00
1548.534,3235.00
1549.414,3063.00
1550.293,2894.00
1551.172,3262.00
1552.052,3161.00
1552.930,3055.00
1553.809,3679.00
1554.689,3080.00
1555.567,3121.00
1556.445,3031.00
1557.325,3518.00
1558.203,2795.00
1559.080,3221.00
1559.960,3162.00
1560.838,3834.00
1561.715,3077.00
1562.594,3514.00
1563.472,3338.00
1564.349,3353.00
1565.228,2761.00
1566.105,2958.00
1566.982,3253.00
1567.861,3405.00
1568.738,3086.00
1569.615,2762.00
1570.493,3053.00
1571.370,3046.00
1572.246,2627.00
1573.124,3132.00
1574.000,3120.00
1574.877,3387.00
1575.755,3100.00
1576.631,2963.00
1577.507,3549.00
1578.384,3556.00
1579.260,3286.00
1580.136,3753.00
1581.011,3130.00
1581.889,3123.00
1582.764,3184.00
1583.639,3444.00
1584.516,3338.00
1585.391,3101.00
1586.266,3214.00
1587.143,3660.00
1588.018,3300.00
1588.893,3568.00
1589.768,3894.00
1590.644,3873.00
1591.519,2933.00
1592.393,3372.00
1593.269,3444.00
1594.143,2949.00
1595.018,3095.00
1595.892,3051.00
1596.767,2681.00
1597.641,2688.00
1598.515,2827.00
1599.391,3291.00
1600.264,3051.00
1601.138,2970.00
1602.011,2541.00
1602.886,3714.00
1603.760,3482.00
1604.633,3446.00
1605.508,3329.00
1606.381,3267.00
1607.254,3220.00
1608.127,3288.00
1609.001,2928.00
1609.874,3519.00
1610.746,3391.00
1611.619,3149.00
1612.493,3381.00
1613.365,2941.00
1614.238,3206.00
1615.110,3234.00
1615.984,3199.00
1616.855,3002.00
1617.727,3438.00
1618.599,2961.00
1619.473,3465.00
1620.344,2542.00
1621.216,3189.00
1622.087,3237.00
1622.960,3231.00
1623.832,3131.00
1624.703,3296.00
1625.574,3338.00
1626.445,3182.00
1627.317,3246.00
1628.188,3394.00
1629.059,3121.00
1629.930,3545.00
1630.802,3169.00
1631.672,3329.00
1632.543,3297.00
1633.413,3207.00
1634.283,3691.00
1635.155,3283.00
1636.025,3246.00
1636.895,3226.00
1637.765,2727.00
1638.636,3151.00
1639.506,3299.00
1640.376,3941.00
1641.245,3129.00
1642.114,3194.00
1642.985,2647.00
1643.855,2907.00
1644.724,3090.00
1645.593,3339.00
1646.462,3320.00
1647.333,3219.00
1648.201,3054.00
1649.070,3229.00
1649.939,3354.00
1650.807,2960.00
1651.676,3359.00
1652.546,3404.00
1653.414,3466.00
1654.282,3189.00
1655.150,3028.00
1656.018,3166.00
1656.888,3821.00
1657.756,3209.00
1658.623,2859.00
1659.491,2765.00
1660.359,3521.00
1661.226,3063.00
1662.095,3327.00
1662.962,3051.00
1663.830,3126.00
1664.697,2987.00
1665.564,3147.00
1666.431,3315.00
1667.297,2979.00
1668.166,2900.00
1669.033,2755.00
1669.899,3070.00
1670.766,2842.00
1671.632,3118.00
1672.499,3557.00
1673.367,3190.00
1674.233,3393.00
1675.099,3216.00
1675.965,2848.00
1676.831,3090.00
1677.696,3505.00
1678.562,5710.00
1679.430,2732.00
1680.295,2881.00
1681.161,2924.00
1682.026,2966.00
1682.891,3073.00
1683.756,3092.00
1684.621,3226.00
1685.486,3196.00
1686.353,3164.00
1687.218,3310.00
1688.083,3192.00
1688.947,3464.00
1689.812,3133.00
1690.677,3052.00
1691.541,3277.00
1692.405,2536.00
1693.269,3673.00
1694.135,3335.00
1694.999,3189.00
1695.863,3703.00
1696.727,3028.00
1697.591,3054.00
1698.455,3286.00
1699.318,3054.00
1700.182,4427.00
1701.045,3213.00
1701.909,3208.00
1702.772,3648.00
1703.637,3048.00
1704.500,2746.00
1705.363,3447.00
1706.226,3253.00
1707.089,3337.00
1707.951,3332.00
1708.814,3892.00
1709.677,3930.00
1710.539,3411.00
1711.402,3426.00
1712.264,3153.00
1713.126,3097.00
1713.988,3429.00
1714.852,3435.00
1715.714,2629.00
1716.576,2771.00
1717.438,3443.00
1718.299,2726.00
1719.161,3574.00
1720.023,3194.00
1720.884,3607.00
1721.745,3158.00
1722.607,3088.00
1723.468,2732.00
1724.329,3449.00
1725.190,3199.00
1726.051,3341.00
1726.912,3045.00
1727.772,3269.00
1728.633,3135.00
1729.494,3238.00
1730.354,3426.00
1731.214,2914.00
1732.075,3046.00
1732.935,3063.00
1733.797,3100.00
1734.657,3688.00
1735.517,3877.00
1736.377,3512.00
1737.237,3150.00
1738.096,3805.00
1738.956,3124.00
1739.816,3039.00
1740.675,3132.00
1741.534,2669.00
1742.394,3247.00
1743.253,2937.00
1744.112,3202.00
1744.971,3020.00
1745.830,3311.00
1746.689,3278.00
1747.547,3442.00
1748.406,2785.00
1749.265,3076.00
1750.123,3110.00
1750.982,3396.00
1751.840,3149.00
1752.698,3243.00
1753.556,3033.00
1754.414,3209.00
1755.272,3124.00
1756.130,3226.00
1756.988,3167.00
1757.846,3379.00
1758.703,3015.00
1759.559,3477.00
1760.417,2900.00
1761.274,3847.00
1762.131,3586.00
1762.989,3674.00
1763.846,3623.00
1764.703,3272.00
1765.560,3739.00
1766.417,3216.00
1767.273,2944.00
1768.130,3202.00
1768.987,3037.00
1769.843,3426.00
1770.700,3577.00
1771.556,3080.00
1772.412,3517.00
1773.268,3095.00
1774.125,3548.00
1774.980,3251.00
1775.836,3477.00
1776.692,3107.00
1777.546,2978.00
1778.402,3409.00
1779.257,3267.00
1780.113,2994.00
1780.968,3303.00
1781.824,3416.00
1782.679,2830.00
1783.534,3058.00
1784.389,3653.00
1785.244,3286.00
1786.099,3117.00
1786.954,3409.00
1787.808,3173.00
1788.661,3222.00
1789.516,3592.00
1790.370,3199.00
1791.225,3051.00
1792.079,2842.00
1792.933,3928.00
1793.787,3345.00
1794.641,3266.00
1795.495,3183.00
1796.349,3245.00
1797.201,3032.00
1798.055,2991.00
1798.908,3188.00
1799.762,3590.00
1800.615,3427.00
1801.469,3421.00
1802.322,3606.00
1803.175,2996.00
1804.028,2780.00
1804.880,3731.00
1805.732,3382.00
1806.585,3177.00
1807.438,3213.00
1808.291,2688.00
1809.143,2975.00
1809.996,2868.00
1810.846,3951.00
1811.699,3335.00
1812.551,3088.00
1813.403,3382.00
1814.255,3244.00
1815.107,3250.00
1815.959,3823.00
1816.809,3316.00
1817.661,3304.00
1818.512,3172.00
1819.364,3256.00
1820.215,3391.00
1821.067,2973.00
1821.918,3040.00
1822.768,3461.00
1823.619,3456.00
1824.470,3087.00
1825.321,3314.00
1826.172,3152.00
1827.021,3358.00
1827.871,3444.00
1828.722,3278.00
1829.572,3305.00
1830.423,3256.00
1831.273,3053.00
1832.122,3237.00
1832.972,3200.00
1833.822,2942.00
1834.672,3368.00
1835.522,3419.00
1836.370,3011.00
1837.220,3324.00
1838.070,2768.00
1838.919,2548.00
1839.769,3023.00
1840.616,3459.00
1841.466,3372.00
1842.315,2933.00
1843.164,3808.00
1844.013,3038.00
1844.860,2938.00
1845.709,2920.00
1846.558,3491.00
1847.407,2857.00
1848.254,3281.00
1849.102,3260.00
1849.951,2940.00
1850.799,2619.00
1851.648,3079.00
1852.494,3230.00
1853.342,3285.00
1854.190,3572.00
1855.038,3571.00
1855.884,3234.00
1856.732,4100.00
1857.580,3619.00
1858.428,3037.00
1859.273,2919.00
1860.121,2988.00
1860.968,4093.00
1861.816,3503.00
1862.661,3555.00
1863.508,3807.00
1864.355,3436.00
1865.202,3506.00
1866.047,3314.00
1866.894,3583.00
1867.741,3738.00
1868.586,3380.00
1869.432,3289.00
1870.279,3141.00
1871.125,3063.00
1871.970,3845.00
1872.816,3301.00
1873.662,2758.00
1874.506,3375.00
1875.352,3518.00
1876.198,3642.00
1877.044,3806.00
1877.888,3141.00
1878.734,3238.00
1879.579,3052.00
1880.423,2837.00
1881.268,3065.00
1882.113,3478.00
1882.959,3181.00
1883.802,2977.00
1884.647,3562.00
1885.492,3282.00
1886.335,3204.00
1887.180,3047.00
1888.025,3262.00
1888.867,3025.00
1889.712,3344.00
1890.556,2956.00
1891.399,3507.00
1892.243,3536.00
1893.087,3062.00
1893.930,3333.00
1894.774,3389.00
1895.618,3550.00
1896.460,2836.00
1897.304,3172.00
1898.147,3083.00
1898.989,2934.00
1899.833,3425.00
1900.676,3028.00
1901.518,3504.00
1902.361,3543.00
1903.202,3085.00
1904.046,3062.00
1904.889,3117.00
1905.730,3116.00
1906.573,2883.00
1907.415,3298.00
1908.256,3660.00
1909.099,3330.00
1909.941,3344.00
1910.782,3311.00
1911.624,3049.00
1912.465,3376.00
1913.307,3300.00
1914.149,2952.00
1914.989,3522.00
1915.831,3126.00
1916.671,3633.00
1917.513,3117.00
1918.355,3301.00
1919.195,3505.00
1920.036,3288.00
1920.876,3247.00
1921.717,3398.00
1922.558,3251.00
1923.398,3243.00
1924.239,3200.00
1925.078,3546.00
1925.919,2953.00
1926.760,3367.00
1927.599,3050.00
1928.440,3448.00
1929.279,3228.00
1930.119,3691.00
1930.958,3135.00
1931.798,3264.00
1932.638,3137.00
1933.477,3188.00
1934.317,3047.00
1935.155,3070.00
1935.995,3349.00
1936.833,3054.00
1937.673,3012.00
1938.512,3671.00
1939.350,2820.00
1940.190,3154.00
1941.027,3124.00
1941.867,3116.00
1942.704,3195.00
1943.543,3208.00
1944.381,3412.00
1945.220,3592.00
1946.057,3317.00
1946.896,3522.00
1947.733,3252.00
1948.572,3004.00
1949.408,3601.00
1950.247,3359.00
1951.085,3412.00
1951.922,3613.00
1952.760,3020.00
1953.597,3610.00
1954.435,2618.00
1955.271,3388.00
1956.109,3147.00
1956.945,2872.00
1957.783,3401.00
1958.619,3072.00
1959.456,3184.00
1960.292,3286.00
1961.129,3557.00
1961.965,3719.00
1962.802,3009.00
1963.638,2965.00
1964.475,3308.00
1965.310,3242.00
1966.145,3250.00
1966.982,3010.00
1967.817,2971.00
1968.654,3221.00
1969.489,3021.00
1970.325,3249.00
1971.160,2977.00
1971.996,3394.00
1972.831,3427.00
1973.667,3182.00
1974.501,3611.00
1975.337,3494.00
1976.171,3129.00
1977.006,3491.00
1977.841,3145.00
1978.675,3491.00
1979.511,3852.00
1980.345,3006.00
1981.180,3414.00
1982.014,3282.00
1982.849,2938.00
1983.682,3032.00
1984.516,3084.00
1985.351,2825.00
1986.184,2717.00
1987.019,2749.00
1987.852,2500.00
1988.687,2769.00
1989.519,2971.00
1990.352,3174.00
1991.187,2755.00
1992.019,3045.00
1992.854,3427.00
1993.686,2939.00
1994.518,3040.00
1995.352,2575.00
1996.185,2322.00
1997.019,2866.00
1997.851,2643.00
1998.682,2720.00
1999.516,2742.00
2000.348,2496.00
