RamanScope Measure Spectrum Data V3.72

<< MEASURE CONDITION >>
Exposure Type,Aver
Exposure Time [sec],20
Exposure Count,2
Measure Time,2024/02/15 20:18:36
Data Name,""
Data Comment,""
Rayleigh Wave[nm],532.0

<< SAMPLE SPECTRUM >>
Wave[dcm-1],No7
96.716,36.50
97.759,12.50
98.802,26.00
99.846,-11.00
100.886,27.00
101.929,27.50
102.972,-24.00
104.015,2.50
105.057,20.50
106.100,1.00
107.142,42.50
108.184,-3.50
109.226,55.00
110.268,1.50
111.310,38.00
112.352,-14.00
113.393,4.50
114.435,29.00
115.476,17.50
116.517,-75.00
117.558,58.50
118.599,5.50
119.640,-6.00
120.681,-23.00
121.722,-15.00
122.762,19.50
123.803,20.50
124.843,13.00
125.883,18.50
126.923,5.50
127.963,18.50
129.001,-39.50
130.041,39.00
131.080,40.00
132.120,7.50
133.159,55.50
134.199,4.50
135.238,62.50
136.277,-7.00
137.316,56.50
138.355,10.50
139.393,56.50
140.432,42.50
141.470,18.00
142.509,73.50
143.547,11.00
144.585,28.50
145.623,138.50
146.661,106.00
147.699,102.50
148.736,208.00
149.774,224.50
150.811,283.50
151.849,331.50
152.886,547.00
153.923,658.00
154.960,758.00
155.997,910.00
157.034,1086.00
158.072,1226.50
159.109,1469.50
160.145,1685.50
161.182,1867.00
162.218,2087.50
163.254,2258.00
164.290,2406.50
165.326,2617.00
166.361,2743.50
167.397,2807.50
168.432,2922.50
169.468,2997.50
170.503,3152.00
171.538,3171.00
172.573,3203.50
173.608,3259.50
174.643,3285.00
175.677,3378.00
176.712,3423.00
177.746,3424.50
178.781,3573.00
179.815,3555.00
180.849,3607.50
181.883,3705.00
182.917,3749.00
183.951,3800.00
184.984,3859.50
186.020,3823.50
187.053,3905.00
188.087,3880.00
189.120,3814.50
190.153,3887.50
191.186,3881.00
192.219,3878.00
193.251,3843.00
194.284,3805.50
195.317,3784.50
196.349,3881.00
197.381,3829.50
198.413,3770.00
199.445,3862.50
200.477,3876.50
201.509,3920.00
202.543,3990.50
203.575,3902.00
204.606,3989.00
205.637,4111.50
206.669,4125.50
207.700,4148.00
208.731,4163.50
209.762,4222.50
210.792,4265.50
211.823,4330.00
212.854,4385.50
213.884,4439.50
214.914,4486.50
215.947,4556.00
216.977,4692.50
218.007,4711.50
219.037,4743.00
220.066,4811.00
221.096,4937.00
222.126,5064.00
223.155,4994.50
224.184,5019.00
225.214,5035.50
226.245,5090.00
227.274,5101.00
228.302,5117.00
229.331,5108.00
230.360,4986.00
231.388,5014.50
232.417,4973.50
233.445,4908.00
234.473,4874.00
235.501,4884.00
236.531,4877.50
237.559,4816.00
238.587,4654.50
239.614,4616.00
240.642,4677.50
241.669,4610.50
242.696,4568.50
243.724,4566.00
244.753,4570.50
245.780,4507.50
246.806,4533.00
247.833,4535.50
248.860,4468.00
249.886,4470.00
250.913,4530.00
251.939,4530.00
252.967,4545.00
253.993,4619.00
255.019,4640.00
256.045,4575.00
257.070,4673.50
258.096,4668.50
259.121,4571.00
260.147,4586.50
261.174,4597.50
262.199,4638.50
263.224,4723.50
264.249,4629.00
265.274,4714.50
266.298,4663.00
267.323,4715.50
268.349,4742.00
269.374,4743.00
270.398,4770.00
271.422,4841.50
272.446,4744.00
273.470,4870.50
274.496,4858.50
275.519,4812.00
276.543,4872.50
277.566,4971.50
278.589,4899.00
279.613,5017.50
280.636,5030.50
281.661,4996.00
282.684,5011.00
283.706,4966.00
284.729,5005.00
285.751,4948.50
286.774,4969.50
287.798,4951.50
288.820,5007.00
289.842,4936.50
290.864,4887.00
291.886,4900.00
292.910,4813.00
293.932,4821.00
294.953,4735.00
295.974,4681.00
296.996,4670.50
298.017,4629.00
299.040,4526.50
300.061,4553.00
301.082,4471.00
302.102,4507.00
303.123,4403.50
304.143,4302.00
305.166,4307.50
306.186,4305.00
307.206,4250.00
308.226,4177.50
309.246,4231.00
310.268,4145.00
311.288,4094.00
312.307,4088.50
313.327,4029.50
314.346,4077.00
315.368,3996.00
316.387,3988.50
317.406,4001.00
318.425,4013.00
319.443,3909.50
320.464,3914.00
321.483,3874.00
322.501,3728.00
323.520,3805.00
324.538,3793.50
325.558,3857.00
326.576,3768.00
327.594,3783.50
328.612,3794.50
329.629,3786.00
330.649,3834.00
331.666,3743.50
332.684,3762.00
333.701,3775.50
334.718,3718.50
335.737,3785.00
336.754,3768.50
337.771,3701.00
338.787,3657.50
339.806,3736.50
340.823,3741.00
341.839,3710.00
342.855,3731.50
343.871,3648.00
344.889,3646.50
345.905,3671.50
346.921,3668.00
347.937,3575.50
348.954,3663.50
349.970,3593.50
350.985,3568.50
352.000,3611.50
353.017,3637.00
354.032,3676.00
355.047,3602.50
356.062,3661.00
357.077,3593.50
358.093,3530.50
359.108,3639.50
360.122,3597.00
361.136,3558.50
362.152,3589.00
363.166,3592.00
364.180,3607.00
365.194,3603.50
366.210,3621.00
367.223,3547.00
368.237,3560.00
369.250,3581.00
370.265,3602.50
371.278,3599.50
372.291,3619.00
373.304,3565.00
374.319,3577.00
375.332,3597.50
376.344,3631.50
377.357,3597.50
378.371,3677.50
379.383,3627.50
380.395,3595.00
381.407,3641.50
382.421,3636.00
383.433,3635.50
384.445,3626.00
385.456,3667.00
386.470,3636.00
387.481,3673.00
388.492,3639.00
389.505,3627.00
390.516,3634.50
391.527,3684.00
392.538,3620.00
393.551,3630.50
394.561,3667.00
395.572,3656.50
396.582,3719.00
397.594,3624.00
398.604,3543.50
399.614,3614.00
400.624,3628.50
401.636,3572.00
402.646,3526.50
403.655,3605.00
404.667,3555.50
405.676,3553.50
406.685,3662.50
407.694,3599.50
408.705,3541.00
409.714,3558.50
410.723,3488.50
411.734,3515.00
412.742,3511.50
413.751,3524.50
414.759,3492.00
415.769,3452.00
416.777,3469.50
417.785,3472.00
418.795,3443.50
419.803,3400.50
420.811,3465.50
421.818,3492.50
422.828,3453.50
423.835,3445.00
424.842,3397.50
425.852,3392.00
426.859,3427.00
427.866,3396.00
428.874,3339.00
429.881,3305.50
430.888,3384.50
431.894,3350.50
432.902,3361.00
433.909,3358.50
434.915,3309.00
435.923,3236.50
436.929,3285.50
437.935,3345.50
438.942,3316.00
439.948,3326.50
440.953,3364.50
441.959,3317.50
442.966,3307.50
443.971,3259.00
444.976,3279.00
445.983,3244.00
446.988,3205.50
447.993,3310.50
448.999,3307.00
450.004,3263.00
451.008,3281.50
452.014,3262.00
453.019,3229.00
454.023,3271.50
455.029,3239.50
456.032,3301.50
457.036,3296.00
458.042,3289.50
459.045,3276.00
460.049,3239.00
461.052,3248.00
462.057,3232.50
463.060,3290.50
464.063,3326.00
465.068,3300.00
466.071,3235.00
467.073,3240.50
468.078,3285.50
469.080,3246.00
470.082,3277.50
471.087,3255.50
472.089,3306.50
473.091,3255.00
474.095,3231.50
475.096,3266.50
476.098,3290.50
477.101,3301.50
478.103,3277.50
479.104,3314.00
480.107,3241.00
481.108,3315.00
482.109,3232.00
483.112,3183.50
484.113,3283.00
485.114,3253.00
486.116,3238.50
487.117,3205.50
488.117,3285.50
489.119,3213.50
490.119,3291.50
491.121,3241.50
492.121,3257.00
493.121,3277.00
494.123,3306.50
495.122,3292.50
496.122,3287.50
497.123,3298.00
498.122,3213.50
499.121,3260.00
500.122,3272.50
501.121,3288.00
502.120,3265.50
503.121,3207.00
504.119,3252.00
505.118,3235.50
506.118,3228.00
507.117,3276.00
508.115,3204.00
509.115,3191.00
510.113,3135.00
511.112,3142.50
512.110,3125.50
513.108,3186.50
514.107,3138.00
515.105,3125.00
516.102,3032.00
517.101,3149.00
518.098,3064.00
519.095,3085.50
520.094,3144.50
521.091,3061.50
522.089,3077.50
523.086,3076.00
524.082,3117.50
525.081,3045.00
526.077,3032.00
527.073,3056.00
528.071,3162.00
529.067,3050.00
530.064,3101.50
531.060,3114.00
532.056,3034.00
533.053,3071.50
534.048,3055.00
535.044,3039.00
536.041,3038.00
537.036,3090.50
538.030,3121.50
539.027,3114.00
540.022,3102.50
541.019,3024.50
542.013,3081.00
543.007,3008.50
544.004,3031.00
544.998,3124.50
545.994,3083.00
546.988,3090.50
547.981,3017.50
548.977,3058.50
549.971,3109.50
550.964,3103.50
551.960,3012.50
552.953,3099.50
553.948,3031.50
554.941,3052.00
555.934,3014.50
556.929,3065.50
557.922,3052.50
558.916,3025.50
559.909,3018.50
560.901,3059.50
561.895,3064.00
562.888,3019.00
563.880,3033.50
564.874,3045.50
565.865,2977.50
566.859,2991.50
567.851,2996.00
568.842,3062.50
569.836,3024.00
570.827,3049.00
571.820,3040.00
572.811,3020.50
573.802,3020.50
574.795,2987.50
575.786,3028.00
576.779,3043.00
577.769,3048.00
578.760,3024.50
579.752,3039.00
580.742,3020.50
581.735,3056.00
582.725,3041.50
583.714,3075.00
584.706,3033.50
585.696,3035.00
586.688,3051.00
587.677,3050.50
588.667,3079.50
589.658,3029.50
590.647,3019.00
591.638,3044.00
592.627,3048.50
593.616,2975.50
594.607,3022.00
595.595,2984.50
596.586,2997.50
597.574,3049.50
598.562,3071.00
599.553,3040.00
600.541,3056.50
601.531,3068.00
602.519,3008.00
603.508,2998.00
604.496,2939.00
605.484,3054.50
606.473,2970.00
607.460,2990.50
608.450,3043.50
609.437,3028.50
610.424,2986.50
611.413,3055.50
612.400,3013.00
613.388,3062.00
614.375,2995.00
615.361,2992.00
616.350,3018.00
617.336,2894.50
618.324,2960.50
619.310,2946.00
620.298,2932.00
621.284,2874.00
622.270,2913.50
623.257,2881.00
624.243,2876.00
625.230,2872.00
626.216,2855.00
627.203,2862.00
628.188,2816.00
629.173,2848.00
630.160,2721.50
631.145,2738.00
632.131,2775.50
633.116,2735.00
634.102,2678.50
635.087,2655.00
636.071,2691.50
637.057,2648.50
638.041,2727.00
639.027,2695.50
640.011,2603.50
640.995,2663.00
641.980,2584.00
642.964,2587.00
643.949,2659.00
644.932,2562.00
645.918,2569.00
646.901,2538.50
647.886,2511.00
648.868,2491.00
649.851,2525.50
650.836,2502.00
651.818,2425.00
652.803,2460.50
653.785,2448.00
654.769,2437.50
655.751,2434.50
656.733,2373.50
657.717,2401.50
658.699,2380.00
659.683,2408.50
660.664,2357.00
661.648,2378.50
662.629,2428.50
663.611,2339.50
664.594,2364.00
665.575,2367.50
666.558,2350.50
667.539,2315.00
668.521,2338.50
669.502,2335.50
670.484,2320.00
671.465,2344.00
672.445,2302.50
673.427,2317.00
674.407,2321.50
675.390,2303.50
676.369,2302.00
677.351,2276.00
678.331,2283.50
679.312,2210.50
680.292,2261.50
681.271,2230.00
682.253,2233.00
683.232,2227.50
684.213,2142.50
685.192,2176.00
686.172,2239.00
687.151,2159.00
688.132,2172.50
689.110,2215.00
690.089,2155.50
691.069,2106.00
692.047,2096.00
693.027,2112.00
694.005,2119.50
694.985,2036.00
695.963,2078.00
696.943,1999.00
697.920,2039.00
698.898,2100.50
699.877,2050.50
700.854,1961.00
701.833,2043.50
702.810,2043.00
703.789,2012.50
704.766,1994.00
705.745,1985.00
706.721,1979.50
707.698,1937.50
708.676,1997.50
709.653,1978.50
710.631,1990.50
711.607,1997.50
712.585,1982.00
713.561,1960.50
714.539,1945.00
715.514,1886.00
716.492,1928.50
717.467,1935.00
718.443,1919.50
719.420,1892.50
720.395,1935.00
721.372,1868.50
722.347,1895.50
723.324,1898.50
724.298,1823.00
725.275,1859.50
726.250,1869.00
727.226,1876.00
728.200,1880.00
729.176,1839.00
730.151,1797.00
731.125,1808.50
732.100,1824.50
733.074,1781.50
734.050,1816.00
735.023,1806.00
735.999,1876.00
736.972,1780.00
737.947,1752.50
738.921,1823.00
739.896,1796.00
740.869,1758.00
741.841,1804.00
742.816,1749.50
743.789,1700.50
744.763,1783.00
745.736,1789.00
746.710,1827.00
747.682,1757.50
748.656,1744.00
749.628,1718.50
750.602,1768.50
751.574,1748.00
752.548,1721.50
753.519,1757.50
754.491,1739.00
755.464,1680.00
756.435,1703.00
757.408,1661.50
758.379,1650.00
759.352,1743.00
760.323,1665.50
761.296,1622.00
762.267,1637.50
763.239,1675.50
764.209,1620.00
765.182,1645.50
766.152,1642.50
767.124,1672.50
768.094,1631.00
769.064,1635.50
770.036,1597.50
771.005,1652.00
771.977,1578.00
772.947,1614.50
773.918,1620.50
774.887,1628.50
775.858,1604.50
776.827,1584.00
777.798,1607.00
778.767,1582.50
779.738,1610.00
780.707,1568.00
781.677,1565.00
782.646,1598.00
783.614,1581.00
784.584,1522.50
785.552,1534.00
786.522,1532.50
787.490,1510.00
788.460,1532.00
789.428,1495.00
790.397,1509.50
791.365,1581.50
792.334,1556.00
793.302,1561.00
794.271,1549.00
795.238,1550.00
796.207,1449.00
797.174,1604.50
798.143,1518.50
799.109,1464.50
800.076,1449.00
801.044,1511.50
802.011,1487.50
802.979,1462.50
803.945,1469.50
804.913,1417.50
805.879,1467.50
806.847,1500.50
807.813,1400.50
808.780,1440.00
809.746,1438.50
810.713,1468.00
811.678,1434.00
812.646,1433.50
813.611,1445.00
814.578,1407.50
815.543,1470.00
816.510,1413.00
817.474,1395.50
818.439,1431.00
819.405,1385.00
820.370,1403.50
821.336,1388.50
822.300,1411.50
823.266,1375.00
824.230,1406.50
825.196,1387.00
826.160,1432.50
827.126,1387.00
828.089,1373.50
829.055,1373.00
830.018,1429.50
830.983,1417.00
831.946,1363.50
832.911,1342.50
833.874,1377.50
834.837,1361.50
835.802,1366.50
836.765,1387.00
837.729,1364.50
838.691,1299.00
839.656,1365.00
840.618,1329.50
841.582,1368.50
842.544,1314.00
843.508,1376.50
844.470,1354.00
845.434,1400.50
846.395,1418.00
847.359,1381.00
848.320,1341.00
849.283,1351.00
850.245,1426.50
851.208,1328.00
852.169,1324.50
853.130,1389.50
854.092,1347.50
855.053,1369.50
856.016,1355.00
856.976,1322.00
857.938,1330.00
858.899,1315.50
859.861,1339.50
860.821,1381.00
861.783,1364.00
862.743,1360.50
863.704,1324.00
864.664,1364.50
865.626,1396.00
866.585,1382.00
867.546,1379.00
868.506,1324.00
869.467,1290.50
870.426,1335.00
871.387,1281.00
872.346,1344.50
873.304,1356.00
874.265,1329.50
875.223,1264.50
876.184,1370.50
877.142,1330.00
878.102,1391.00
879.060,1401.00
880.021,1357.00
880.978,1357.00
881.938,1371.00
882.896,1345.50
883.856,1341.50
884.813,1332.00
885.772,1380.50
886.730,1334.00
887.689,1336.00
888.646,1372.00
889.603,1360.00
890.562,1344.00
891.519,1373.00
892.477,1358.00
893.434,1365.50
894.392,1410.00
895.349,1319.00
896.307,1397.00
897.263,1378.00
898.221,1388.50
899.177,1407.50
900.135,1355.50
901.091,1382.50
902.048,1390.50
903.004,1346.50
903.961,1394.50
904.917,1322.50
905.874,1435.50
906.829,1365.00
907.784,1377.00
908.741,1444.50
909.696,1401.50
910.653,1419.00
911.607,1393.50
912.564,1345.50
913.518,1345.00
914.475,1428.50
915.429,1403.50
916.385,1385.00
917.339,1387.00
918.295,1352.50
919.249,1428.00
920.205,1420.00
921.158,1385.50
922.114,1466.50
923.067,1399.50
924.020,1416.00
924.976,1448.00
925.929,1397.00
926.884,1454.50
927.837,1452.50
928.791,1421.50
929.744,1411.00
930.699,1413.50
931.651,1424.50
932.606,1441.50
933.558,1397.00
934.512,1362.50
935.464,1425.00
936.418,1427.50
937.370,1435.50
938.322,1402.50
939.276,1424.00
940.227,1490.50
941.181,1403.50
942.132,1460.50
943.085,1442.50
944.036,1425.50
944.990,1408.00
945.941,1486.00
946.893,1395.00
947.844,1472.00
948.797,1478.00
949.747,1412.00
950.700,1413.50
951.650,1454.50
952.601,1442.50
953.553,1370.50
954.503,1463.00
955.455,1431.00
956.405,1477.00
957.356,1452.00
958.306,1386.50
959.258,1386.00
960.207,1420.50
961.158,1390.00
962.108,1439.50
963.059,1416.50
964.008,1409.50
964.959,1401.00
965.908,1390.00
966.856,1424.00
967.807,1395.50
968.756,1402.00
969.706,1422.00
970.654,1437.50
971.605,1404.00
972.553,1398.00
973.503,1354.50
974.451,1411.50
975.401,1373.50
976.348,1380.00
977.296,1377.00
978.246,1414.50
979.193,1381.00
980.142,1404.00
981.090,1401.50
982.039,1352.50
982.986,1398.00
983.935,1302.00
984.882,1313.50
985.830,1334.50
986.777,1341.50
987.725,1316.00
988.672,1354.50
989.618,1373.50
990.567,1348.00
991.513,1283.00
992.461,1352.50
993.407,1334.00
994.354,1300.50
995.300,1270.50
996.248,1282.00
997.193,1307.00
998.141,1313.00
999.086,1282.50
1000.031,1395.00
1000.978,1326.00
1001.924,1297.00
1002.870,1364.00
1003.815,1340.00
1004.762,1309.50
1005.707,1306.50
1006.653,1304.00
1007.598,1308.50
1008.542,1290.00
1009.488,1349.50
1010.432,1267.00
1011.378,1266.00
1012.322,1283.00
1013.268,1346.50
1014.212,1290.00
1015.157,1296.00
1016.101,1269.00
1017.046,1248.00
1017.990,1254.50
1018.933,1320.50
1019.878,1280.00
1020.821,1342.50
1021.766,1259.50
1022.709,1289.50
1023.654,1268.50
1024.596,1291.50
1025.541,1281.50
1026.483,1258.50
1027.425,1301.50
1028.370,1203.00
1029.312,1275.00
1030.256,1294.50
1031.198,1238.50
1032.141,1283.00
1033.083,1285.00
1034.027,1189.50
1034.968,1211.00
1035.910,1266.00
1036.853,1292.00
1037.794,1273.00
1038.738,1272.00
1039.679,1321.00
1040.621,1323.00
1041.562,1282.50
1042.503,1283.50
1043.446,1255.00
1044.386,1251.00
1045.329,1242.00
1046.269,1306.50
1047.211,1294.50
1048.151,1261.50
1049.093,1292.00
1050.033,1239.00
1050.973,1242.00
1051.915,1227.00
1052.854,1278.00
1053.796,1252.50
1054.735,1255.50
1055.677,1293.00
1056.616,1235.50
1057.555,1250.00
1058.496,1326.00
1059.435,1267.50
1060.376,1216.00
1061.315,1289.00
1062.255,1205.50
1063.194,1245.00
1064.132,1270.00
1065.073,1276.00
1066.011,1293.50
1066.951,1295.00
1067.889,1271.00
1068.829,1183.50
1069.767,1234.50
1070.705,1335.50
1071.644,1279.00
1072.582,1307.50
1073.521,1241.50
1074.459,1231.00
1075.398,1292.50
1076.335,1287.50
1077.272,1270.50
1078.211,1297.00
1079.148,1410.50
1080.087,1296.00
1081.023,1323.00
1081.962,1257.50
1082.898,1288.50
1083.835,1311.00
1084.773,1312.50
1085.709,1316.00
1086.647,1316.00
1087.583,1345.50
1088.519,1254.00
1089.457,1301.50
1090.392,1265.50
1091.330,1307.00
1092.266,1320.00
1093.203,1332.00
1094.138,1286.50
1095.073,1361.00
1096.010,1280.50
1096.945,1328.00
1097.882,1302.00
1098.817,1341.00
1099.752,1528.50
1100.688,1294.50
1101.623,1324.00
1102.559,1279.00
1103.493,1281.50
1104.430,1337.00
1105.364,1335.50
1106.298,1298.00
1107.234,1262.00
1108.167,1292.00
1109.094,1352.00
1110.019,1286.00
1110.945,1238.50
1111.869,1318.00
1112.795,1263.50
1113.720,1293.00
1114.646,1291.00
1115.571,1265.50
1116.495,1261.00
1117.420,1241.50
1118.345,1303.50
1119.270,1280.50
1120.195,1204.50
1121.118,1193.50
1122.042,1204.50
1122.967,1287.00
1123.891,1221.00
1124.816,1221.50
1125.738,1198.00
1126.663,1256.50
1127.587,1191.50
1128.511,1177.50
1129.435,1141.50
1130.357,1205.50
1131.280,1216.50
1132.204,1191.50
1133.128,1155.50
1134.051,1214.00
1134.972,1183.50
1135.896,1149.00
1136.819,1147.00
1137.742,1166.50
1138.665,1157.50
1139.586,1132.00
1140.509,1162.00
1141.431,1180.00
1142.354,1109.50
1143.276,1099.50
1144.197,1117.50
1145.119,1067.00
1146.041,1127.50
1146.964,1138.50
1147.885,1178.50
1148.806,1111.50
1149.727,1107.00
1150.649,1080.00
1151.571,1118.00
1152.492,1049.50
1153.412,1082.50
1154.333,1100.50
1155.254,1063.00
1156.175,1070.00
1157.095,1060.50
1158.016,1053.50
1158.936,1081.00
1159.857,1019.50
1160.778,1042.00
1161.697,1040.50
1162.617,1122.50
1163.537,1024.00
1164.458,1038.50
1165.376,1031.00
1166.296,1039.50
1167.216,1101.00
1168.136,1056.00
1169.056,1033.00
1169.974,1051.50
1170.893,1056.50
1171.813,1017.50
1172.732,1051.50
1173.650,951.50
1174.569,983.50
1175.488,1040.00
1176.407,1006.00
1177.326,1065.00
1178.243,1031.00
1179.161,994.00
1180.080,1019.50
1180.999,1019.50
1181.915,1003.00
1182.834,948.00
1183.752,1000.50
1184.670,1023.50
1185.586,1004.50
1186.504,1020.50
1187.422,1021.00
1188.340,969.50
1189.258,967.00
1190.173,950.00
1191.091,923.50
1192.008,984.00
1192.926,1029.50
1193.841,952.00
1194.758,974.50
1195.675,981.00
1196.592,1014.50
1197.507,996.00
1198.424,989.00
1199.340,1001.50
1200.257,973.00
1201.172,928.00
1202.088,997.50
1203.004,989.50
1203.920,963.50
1204.835,980.50
1205.750,963.50
1206.666,936.00
1207.582,1009.00
1208.496,945.00
1209.412,905.50
1210.327,1012.00
1211.243,948.50
1212.156,918.50
1213.071,942.00
1213.986,941.00
1214.901,909.50
1215.814,969.50
1216.729,959.00
1217.644,928.00
1218.559,925.50
1219.471,904.50
1220.386,952.00
1221.300,919.50
1222.213,973.00
1223.127,929.00
1224.041,941.50
1224.955,930.50
1225.867,931.50
1226.781,966.00
1227.694,912.00
1228.608,939.00
1229.520,932.00
1230.433,925.00
1231.346,994.00
1232.260,898.50
1233.171,923.00
1234.084,925.50
1234.997,927.00
1235.908,937.00
1236.821,950.50
1237.733,1017.50
1238.646,948.50
1239.556,946.50
1240.469,996.50
1241.381,952.00
1242.293,954.00
1243.203,976.50
1244.115,970.50
1245.027,987.00
1245.937,964.50
1246.849,966.00
1247.761,959.50
1248.672,970.00
1249.582,920.00
1250.493,975.50
1251.404,973.00
1252.313,900.00
1253.225,950.50
1254.135,919.00
1255.046,924.50
1255.955,949.50
1256.866,943.50
1257.777,980.50
1258.685,930.50
1259.596,940.00
1260.506,895.00
1261.416,914.00
1262.324,957.50
1263.234,1005.50
1264.144,954.00
1265.052,939.50
1265.962,953.00
1266.872,981.50
1267.779,968.50
1268.689,901.50
1269.598,956.50
1270.507,934.00
1271.415,930.50
1272.324,923.50
1273.233,942.50
1274.140,953.50
1275.048,967.50
1275.957,951.00
1276.864,961.50
1277.772,960.00
1278.681,919.50
1279.587,908.00
1280.496,975.50
1281.404,984.00
1282.312,982.00
1283.218,958.50
1284.126,956.00
1285.033,960.50
1285.939,927.00
1286.847,970.00
1287.754,926.00
1288.660,950.00
1289.567,935.50
1290.474,933.50
1291.380,885.50
1292.286,904.00
1293.193,936.50
1294.098,912.00
1295.005,946.50
1295.912,930.00
1296.816,894.50
1297.723,932.00
1298.629,935.00
1299.534,959.00
1300.440,920.00
1301.346,931.50
1302.250,965.00
1303.156,915.50
1304.062,956.50
1304.966,921.00
1305.871,893.00
1306.777,863.50
1307.680,932.50
1308.586,928.00
1309.491,927.50
1310.394,939.50
1311.299,886.00
1312.204,894.00
1313.107,912.00
1314.012,921.50
1314.917,950.00
1315.819,968.50
1316.724,860.50
1317.628,889.50
1318.531,838.50
1319.435,893.00
1320.339,962.50
1321.241,928.50
1322.145,880.00
1323.049,906.50
1323.951,907.00
1324.854,961.00
1325.756,895.00
1326.659,859.50
1327.563,862.00
1328.464,910.00
1329.367,885.00
1330.271,894.50
1331.172,894.00
1332.074,899.50
1332.977,892.00
1333.878,902.00
1334.781,895.50
1335.683,912.00
1336.584,855.50
1337.486,886.50
1338.387,833.50
1339.289,870.00
1340.191,873.00
1341.091,918.00
1341.993,891.00
1342.895,875.50
1343.794,897.50
1344.696,859.00
1345.596,847.00
1346.497,890.50
1347.398,884.00
1348.298,824.00
1349.199,817.00
1350.100,834.00
1350.999,848.00
1351.900,842.00
1352.799,860.50
1353.699,852.00
1354.600,830.50
1355.499,855.50
1356.399,842.00
1357.297,798.00
1358.198,806.50
1359.098,797.50
1359.996,835.50
1360.896,836.00
1361.796,770.50
1362.694,830.50
1363.593,858.00
1364.491,825.50
1365.391,817.00
1366.290,783.50
1367.187,819.50
1368.086,824.00
1368.984,849.00
1369.883,829.50
1370.782,844.00
1371.679,874.00
1372.577,809.50
1373.474,810.00
1374.373,794.00
1375.269,744.00
1376.168,798.00
1377.066,783.50
1377.962,830.50
1378.860,812.00
1379.756,812.50
1380.654,748.00
1381.552,737.50
1382.448,772.00
1383.346,832.00
1384.241,778.00
1385.139,755.50
1386.036,774.00
1386.931,756.50
1387.829,802.50
1388.724,736.50
1389.621,783.00
1390.516,776.50
1391.413,715.50
1392.309,788.50
1393.204,806.50
1394.101,731.50
1394.995,769.00
1395.891,830.50
1396.786,742.50
1397.682,789.00
1398.578,778.50
1399.472,733.00
1400.368,698.50
1401.262,732.50
1402.158,737.50
1403.051,732.50
1403.947,783.00
1404.840,760.50
1405.736,713.50
1406.631,781.00
1407.524,732.00
1408.419,680.50
1409.312,728.50
1410.207,713.50
1411.100,688.00
1411.995,713.50
1412.888,724.00
1413.782,717.50
1414.675,704.00
1415.569,773.50
1416.463,694.00
1417.355,759.00
1418.249,696.00
1419.141,736.50
1420.035,744.00
1420.927,707.50
1421.821,731.50
1422.713,670.50
1423.606,714.00
1424.498,771.00
1425.391,738.00
1426.282,713.00
1427.175,768.50
1428.068,687.50
1428.960,672.00
1429.852,705.50
1430.743,712.00
1431.636,730.50
1432.527,750.00
1433.419,662.00
1434.310,715.00
1435.202,686.00
1436.092,690.50
1436.984,753.00
1437.875,682.50
1438.767,722.50
1439.657,702.00
1440.548,733.50
1441.438,704.00
1442.330,700.00
1443.219,738.00
1444.111,717.50
1445.000,698.50
1445.891,704.00
1446.781,701.50
1447.672,698.50
1448.561,735.00
1449.452,689.00
1450.340,704.00
1451.231,721.00
1452.120,686.50
1453.010,650.00
1453.899,693.50
1454.789,670.50
1455.677,660.00
1456.568,660.50
1457.456,691.50
1458.346,695.50
1459.234,762.50
1460.123,711.00
1461.011,654.00
1461.901,660.50
1462.788,628.50
1463.678,704.00
1464.565,680.50
1465.454,662.50
1466.342,682.50
1467.231,664.00
1468.118,649.50
1469.006,669.00
1469.893,648.50
1470.782,690.50
1471.669,710.00
1472.557,699.50
1473.444,659.50
1474.330,636.50
1475.218,697.50
1476.105,653.00
1476.993,674.00
1477.879,654.50
1478.767,668.50
1479.652,687.50
1480.540,643.00
1481.426,650.00
1482.313,670.50
1483.199,679.00
1484.086,664.50
1484.972,739.00
1485.857,629.00
1486.744,656.00
1487.629,586.50
1488.516,645.50
1489.401,674.00
1490.287,665.00
1491.172,600.50
1492.058,668.50
1492.943,645.50
1493.828,640.50
1494.714,618.00
1495.598,624.00
1496.484,637.00
1497.368,666.50
1498.254,679.00
1499.138,619.00
1500.022,624.00
1500.907,654.50
1501.791,593.50
1502.676,637.00
1503.560,664.50
1504.445,636.00
1505.328,622.00
1506.211,643.00
1507.096,657.00
1507.979,615.00
1508.864,639.00
1509.747,685.50
1510.631,643.50
1511.514,629.00
1512.397,636.50
1513.281,618.00
1514.163,624.50
1515.047,597.00
1515.930,661.50
1516.812,611.50
1517.696,643.00
1518.578,643.50
1519.461,607.00
1520.343,608.00
1521.225,619.50
1522.108,647.00
1522.990,585.50
1523.873,630.00
1524.754,624.00
1525.635,608.00
1526.518,622.00
1527.399,604.00
1528.282,627.00
1529.163,617.00
1530.044,599.00
1530.926,588.00
1531.807,575.50
1532.689,616.50
1533.569,619.00
1534.450,640.00
1535.332,579.50
1536.212,629.50
1537.092,625.00
1537.974,593.00
1538.854,589.00
1539.735,650.00
1540.615,619.50
1541.495,596.00
1542.376,592.00
1543.255,634.00
1544.135,529.00
1545.016,591.50
1545.895,588.00
1546.774,589.00
1547.655,562.50
1548.534,570.00
1549.414,573.00
1550.293,623.50
1551.172,649.00
1552.052,560.00
1552.930,592.50
1553.809,558.50
1554.689,634.50
1555.567,599.50
1556.445,585.50
1557.325,572.00
1558.203,575.00
1559.080,607.50
1559.960,551.00
1560.838,576.00
1561.715,640.50
1562.594,576.50
1563.472,602.00
1564.349,546.50
1565.228,594.50
1566.105,581.00
1566.982,601.00
1567.861,610.50
1568.738,554.00
1569.615,587.50
1570.493,549.50
1571.370,613.00
1572.246,588.00
1573.124,574.50
1574.000,623.00
1574.877,542.50
1575.755,541.00
1576.631,588.50
1577.507,581.00
1578.384,561.50
1579.260,589.50
1580.136,560.00
1581.011,502.00
1581.889,558.50
1582.764,606.00
1583.639,522.50
1584.516,542.00
1585.391,578.00
1586.266,584.00
1587.143,530.50
1588.018,597.00
1588.893,603.00
1589.768,614.00
1590.644,605.00
1591.519,570.50
1592.393,595.50
1593.269,570.00
1594.143,564.50
1595.018,551.00
1595.892,599.00
1596.767,563.00
1597.641,584.00
1598.515,530.50
1599.391,518.00
1600.264,574.50
1601.138,585.00
1602.011,568.00
1602.886,596.50
1603.760,573.50
1604.633,562.00
1605.508,562.00
1606.381,557.50
1607.254,564.00
1608.127,546.00
1609.001,521.00
1609.874,637.00
1610.746,555.00
1611.619,593.00
1612.493,552.00
1613.365,593.50
1614.238,562.50
1615.110,552.00
1615.984,537.00
1616.855,613.50
1617.727,557.00
1618.599,546.00
1619.473,522.50
1620.344,590.50
1621.216,558.00
1622.087,549.00
1622.960,607.50
1623.832,568.00
1624.703,538.50
1625.574,547.00
1626.445,530.00
1627.317,574.50
1628.188,579.50
1629.059,564.00
1629.930,532.50
1630.802,594.50
1631.672,567.00
1632.543,545.50
1633.413,587.50
1634.283,533.00
1635.155,602.00
1636.025,473.00
1636.895,597.00
1637.765,553.00
1638.636,526.50
1639.506,522.00
1640.376,533.00
1641.245,535.00
1642.114,572.50
1642.985,519.00
1643.855,518.00
1644.724,569.00
1645.593,523.00
1646.462,498.50
1647.333,510.00
1648.201,533.00
1649.070,540.00
1649.939,550.50
1650.807,533.00
1651.676,600.50
1652.546,503.00
1653.414,540.00
1654.282,575.00
1655.150,547.50
1656.018,567.00
1656.888,565.00
1657.756,556.50
1658.623,554.00
1659.491,554.00
1660.359,469.00
1661.226,538.00
1662.095,565.00
1662.962,510.00
1663.830,517.50
1664.697,528.00
1665.564,528.00
1666.431,530.50
1667.297,479.00
1668.166,542.50
1669.033,549.50
1669.899,554.00
1670.766,524.50
1671.632,516.00
1672.499,509.00
1673.367,564.00
1674.233,535.00
1675.099,591.00
1675.965,535.00
1676.831,550.50
1677.696,506.00
1678.562,512.00
1679.430,512.00
1680.295,530.00
1681.161,518.00
1682.026,535.00
1682.891,532.00
1683.756,515.00
1684.621,525.00
1685.486,529.50
1686.353,513.00
1687.218,489.00
1688.083,493.00
1688.947,478.00
1689.812,494.50
1690.677,522.50
1691.541,510.00
1692.405,513.00
1693.269,517.50
1694.135,499.00
1694.999,525.00
1695.863,550.50
1696.727,492.00
1697.591,544.00
1698.455,538.00
1699.318,510.00
1700.182,522.00
1701.045,512.00
1701.909,518.00
1702.772,492.00
1703.637,487.00
1704.500,504.00
1705.363,499.00
1706.226,534.00
1707.089,492.50
1707.951,530.00
1708.814,483.00
1709.677,521.50
1710.539,544.00
1711.402,546.50
1712.264,525.00
1713.126,508.00
1713.988,554.50
1714.852,532.50
1715.714,543.00
1716.576,498.50
1717.438,574.00
1718.299,521.00
1719.161,557.50
1720.023,462.00
1720.884,487.00
1721.745,550.50
1722.607,458.00
1723.468,503.00
1724.329,529.50
1725.190,529.00
1726.051,487.00
1726.912,516.50
1727.772,465.00
1728.633,507.50
1729.494,527.50
1730.354,464.00
1731.214,566.00
1732.075,496.50
1732.935,530.50
1733.797,513.00
1734.657,534.50
1735.517,483.00
1736.377,543.50
1737.237,509.50
1738.096,514.50
1738.956,491.50
1739.816,558.50
1740.675,467.00
1741.534,497.50
1742.394,533.50
1743.253,513.50
1744.112,491.50
1744.971,527.50
1745.830,493.00
1746.689,513.50
1747.547,464.50
1748.406,494.50
1749.265,521.50
1750.123,534.00
1750.982,469.00
1751.840,491.50
1752.698,476.00
1753.556,539.50
1754.414,499.00
1755.272,517.00
1756.130,487.00
1756.988,542.00
1757.846,521.50
1758.703,498.50
1759.559,471.50
1760.417,509.00
1761.274,478.00
1762.131,494.50
1762.989,527.50
1763.846,441.50
1764.703,509.00
1765.560,515.00
1766.417,457.00
1767.273,484.00
1768.130,505.50
1768.987,500.50
1769.843,535.50
1770.700,512.00
1771.556,471.50
1772.412,472.50
1773.268,549.50
1774.125,534.50
1774.980,431.00
1775.836,532.50
1776.692,532.50
1777.546,470.00
1778.402,501.50
1779.257,500.00
1780.113,526.50
1780.968,509.00
1781.824,471.00
1782.679,494.50
1783.534,486.50
1784.389,502.50
1785.244,481.00
1786.099,513.50
1786.954,448.50
1787.808,484.00
1788.661,466.50
1789.516,455.00
1790.370,491.50
1791.225,534.00
1792.079,483.00
1792.933,504.00
1793.787,505.50
1794.641,502.50
1795.495,438.50
1796.349,518.50
1797.201,480.00
1798.055,465.00
1798.908,462.50
1799.762,455.50
1800.615,443.00
1801.469,461.00
1802.322,463.50
1803.175,508.00
1804.028,478.50
1804.880,542.00
1805.732,462.50
1806.585,495.50
1807.438,474.50
1808.291,495.00
1809.143,554.50
1809.996,492.00
1810.846,496.00
1811.699,572.00
1812.551,458.00
1813.403,493.00
1814.255,488.00
1815.107,540.50
1815.959,472.50
1816.809,521.50
1817.661,459.00
1818.512,428.50
1819.364,503.50
1820.215,468.50
1821.067,511.00
1821.918,518.50
1822.768,492.50
1823.619,464.50
1824.470,478.50
1825.321,476.00
1826.172,495.50
1827.021,466.00
1827.871,485.50
1828.722,490.00
1829.572,467.00
1830.423,466.00
1831.273,488.00
1832.122,481.00
1832.972,496.00
1833.822,430.00
1834.672,510.00
1835.522,526.00
1836.370,504.50
1837.220,443.50
1838.070,446.50
1838.919,500.50
1839.769,464.00
1840.616,461.00
1841.466,477.00
1842.315,455.00
1843.164,449.50
1844.013,486.50
1844.860,482.50
1845.709,453.00
1846.558,520.50
1847.407,453.00
1848.254,497.00
1849.102,454.00
1849.951,441.00
1850.799,492.00
1851.648,466.00
1852.494,495.00
1853.342,503.00
1854.190,416.00
1855.038,467.00
1855.884,479.00
1856.732,488.00
1857.580,493.50
1858.428,456.50
1859.273,487.50
1860.121,478.00
1860.968,485.50
1861.816,438.50
1862.661,475.00
1863.508,447.50
1864.355,460.00
1865.202,457.50
1866.047,452.00
1866.894,493.00
1867.741,451.00
1868.586,455.00
1869.432,460.00
1870.279,389.00
1871.125,468.00
1871.970,410.00
1872.816,525.00
1873.662,459.00
1874.506,423.00
1875.352,431.00
1876.198,402.00
1877.044,462.00
1877.888,459.00
1878.734,455.50
1879.579,461.50
1880.423,484.50
1881.268,466.50
1882.113,494.00
1882.959,446.00
1883.802,493.50
1884.647,455.50
1885.492,484.00
1886.335,461.00
1887.180,470.50
1888.025,425.00
1888.867,480.00
1889.712,448.50
1890.556,467.00
1891.399,467.00
1892.243,492.50
1893.087,437.00
1893.930,504.00
1894.774,485.50
1895.618,442.00
1896.460,463.00
1897.304,483.50
1898.147,442.00
1898.989,482.00
1899.833,399.00
1900.676,500.50
1901.518,430.50
1902.361,430.50
1903.202,478.50
1904.046,456.50
1904.889,460.00
1905.730,459.00
1906.573,489.50
1907.415,515.00
1908.256,445.50
1909.099,484.50
1909.941,463.00
1910.782,398.00
1911.624,428.50
1912.465,464.00
1913.307,439.50
1914.149,442.50
1914.989,486.00
1915.831,487.00
1916.671,482.50
1917.513,469.00
1918.355,441.50
1919.195,469.50
1920.036,511.00
1920.876,449.50
1921.717,443.00
1922.558,455.50
1923.398,426.00
1924.239,499.50
1925.078,443.00
1925.919,456.00
1926.760,526.50
1927.599,506.50
1928.440,471.00
1929.279,456.00
1930.119,494.00
1930.958,464.00
1931.798,438.00
1932.638,484.50
1933.477,442.00
1934.317,439.50
1935.155,459.00
1935.995,432.00
1936.833,483.50
1937.673,440.50
1938.512,457.00
1939.350,427.00
1940.190,481.00
1941.027,448.00
1941.867,427.50
1942.704,466.00
1943.543,425.50
1944.381,452.50
1945.220,525.50
1946.057,446.50
1946.896,454.50
1947.733,479.00
1948.572,437.00
1949.408,451.50
1950.247,479.00
1951.085,443.00
1951.922,468.50
1952.760,477.00
1953.597,430.50
1954.435,490.50
1955.271,419.50
1956.109,460.50
1956.945,444.50
1957.783,492.00
1958.619,448.00
1959.456,457.50
1960.292,437.00
1961.129,461.00
1961.965,417.50
1962.802,369.50
1963.638,511.00
1964.475,441.00
1965.310,459.00
1966.145,472.50
1966.982,462.50
1967.817,445.50
1968.654,497.50
1969.489,486.50
1970.325,444.00
1971.160,441.50
1971.996,424.50
1972.831,416.50
1973.667,461.50
1974.501,454.00
1975.337,416.00
1976.171,466.00
1977.006,462.50
1977.841,440.50
1978.675,504.00
1979.511,408.50
1980.345,485.00
1981.180,437.00
1982.014,453.50
1982.849,438.50
1983.682,463.50
1984.516,448.50
1985.351,466.50
1986.184,456.50
1987.019,470.00
1987.852,503.00
1988.687,498.00
1989.519,461.50
1990.352,484.50
1991.187,442.00
1992.019,443.00
1992.854,464.00
1993.686,465.50
1994.518,473.50
1995.352,532.00
1996.185,469.50
1997.019,435.50
1997.851,468.50
1998.682,494.00
1999.516,439.50
2000.348,468.00

<< BACKGROUND SPECTRUM >>
Wave[dcm-1],No7
96.716,2561.00
97.759,2342.00
98.802,2274.00
99.846,2931.00
100.886,2541.00
101.929,2718.00
102.972,2764.00
104.015,2660.00
105.057,2750.00
106.100,2210.00
107.142,2609.00
108.184,3004.00
109.226,2829.00
110.268,3048.00
111.310,3309.00
112.352,2910.00
113.393,2953.00
114.435,2791.00
115.476,3068.00
116.517,3126.00
117.558,2576.00
118.599,2926.00
119.640,3254.00
120.681,3264.00
121.722,3161.00
122.762,2908.00
123.803,2749.00
124.843,3112.00
125.883,3336.00
126.923,3555.00
127.963,3285.00
129.001,3623.00
130.041,3940.00
131.080,3252.00
132.120,3150.00
133.159,3510.00
134.199,3599.00
135.238,3124.00
136.277,3521.00
137.316,3673.00
138.355,3597.00
139.393,3171.00
140.432,3317.00
141.470,3426.00
142.509,3138.00
143.547,3766.00
144.585,2979.00
145.623,3359.00
146.661,3125.00
147.699,3485.00
148.736,3548.00
149.774,3207.00
150.811,3474.00
151.849,3943.00
152.886,3383.00
153.923,3616.00
154.960,3139.00
155.997,3916.00
157.034,3967.00
158.072,3574.00
159.109,4061.00
160.145,4187.00
161.182,3225.00
162.218,3463.00
163.254,3309.00
164.290,3267.00
165.326,3975.00
166.361,3855.00
167.397,3518.00
168.432,3742.00
169.468,3414.00
170.503,3646.00
171.538,3338.00
172.573,3720.00
173.608,3180.00
174.643,3757.00
175.677,3616.00
176.712,3773.00
177.746,3841.00
178.781,3296.00
179.815,2706.00
180.849,3797.00
181.883,3259.00
182.917,2790.00
183.951,3144.00
184.984,3829.00
186.020,3310.00
187.053,3614.00
188.087,3249.00
189.120,3532.00
190.153,3702.00
191.186,3677.00
192.219,3788.00
193.251,3671.00
194.284,3796.00
195.317,3857.00
196.349,5990.00
197.381,3465.00
198.413,3494.00
199.445,3253.00
200.477,3551.00
201.509,3529.00
202.543,3539.00
203.575,3909.00
204.606,3690.00
205.637,5274.00
206.669,3147.00
207.700,3702.00
208.731,3583.00
209.762,3204.00
210.792,3252.00
211.823,3678.00
212.854,3261.00
213.884,4358.00
214.914,3685.00
215.947,3588.00
216.977,3636.00
218.007,3582.00
219.037,3864.00
220.066,3383.00
221.096,3788.00
222.126,3165.00
223.155,3401.00
224.184,3761.00
225.214,4243.00
226.245,3897.00
227.274,3327.00
228.302,3683.00
229.331,3707.00
230.360,3470.00
231.388,3418.00
232.417,3235.00
233.445,3607.00
234.473,3430.00
235.501,3712.00
236.531,3700.00
237.559,3675.00
238.587,3338.00
239.614,3293.00
240.642,3585.00
241.669,3701.00
242.696,3690.00
243.724,3668.00
244.753,4030.00
245.780,3422.00
246.806,3239.00
247.833,3608.00
248.860,3468.00
249.886,3613.00
250.913,3224.00
251.939,3574.00
252.967,3529.00
253.993,3496.00
255.019,3946.00
256.045,3592.00
257.070,4037.00
258.096,3334.00
259.121,3752.00
260.147,3632.00
261.174,3461.00
262.199,3423.00
263.224,3516.00
264.249,3896.00
265.274,4049.00
266.298,3574.00
267.323,3630.00
268.349,3876.00
269.374,3225.00
270.398,3255.00
271.422,3661.00
272.446,3361.00
273.470,3076.00
274.496,3746.00
275.519,3751.00
276.543,3847.00
277.566,3883.00
278.589,3861.00
279.613,3748.00
280.636,3714.00
281.661,3846.00
282.684,3830.00
283.706,3975.00
284.729,4129.00
285.751,3041.00
286.774,3985.00
287.798,3433.00
288.820,2982.00
289.842,3314.00
290.864,3367.00
291.886,3639.00
292.910,3503.00
293.932,4076.00
294.953,3533.00
295.974,3591.00
296.996,3694.00
298.017,3531.00
299.040,3448.00
300.061,3663.00
301.082,3363.00
302.102,3200.00
303.123,3795.00
304.143,3589.00
305.166,3519.00
306.186,3746.00
307.206,3336.00
308.226,3782.00
309.246,3110.00
310.268,3874.00
311.288,3508.00
312.307,3208.00
313.327,3508.00
314.346,3777.00
315.368,3029.00
316.387,3664.00
317.406,3613.00
318.425,3541.00
319.443,3467.00
320.464,3155.00
321.483,4029.00
322.501,3422.00
323.520,3951.00
324.538,3466.00
325.558,3982.00
326.576,3623.00
327.594,3549.00
328.612,3418.00
329.629,3137.00
330.649,3773.00
331.666,3551.00
332.684,3122.00
333.701,3696.00
334.718,3218.00
335.737,3391.00
336.754,3707.00
337.771,3789.00
338.787,3220.00
339.806,3433.00
340.823,3419.00
341.839,3575.00
342.855,3423.00
343.871,3633.00
344.889,3375.00
345.905,3847.00
346.921,3735.00
347.937,4378.00
348.954,4123.00
349.970,3670.00
350.985,3643.00
352.000,3139.00
353.017,3716.00
354.032,3122.00
355.047,3925.00
356.062,3430.00
357.077,3398.00
358.093,4000.00
359.108,3677.00
360.122,3627.00
361.136,3500.00
362.152,3945.00
363.166,3269.00
364.180,3123.00
365.194,3983.00
366.210,3373.00
367.223,3307.00
368.237,3403.00
369.250,3595.00
370.265,3359.00
371.278,3895.00
372.291,3695.00
373.304,3038.00
374.319,3811.00
375.332,3814.00
376.344,4074.00
377.357,3419.00
378.371,3757.00
379.383,3363.00
380.395,4301.00
381.407,4076.00
382.421,3414.00
383.433,3390.00
384.445,3370.00
385.456,3526.00
386.470,3085.00
387.481,3948.00
388.492,3896.00
389.505,3237.00
390.516,3952.00
391.527,3474.00
392.538,3477.00
393.551,3668.00
394.561,4350.00
395.572,3689.00
396.582,3556.00
397.594,3750.00
398.604,3440.00
399.614,3620.00
400.624,3403.00
401.636,3421.00
402.646,3576.00
403.655,3169.00
404.667,3437.00
405.676,3374.00
406.685,4310.00
407.694,3876.00
408.705,3023.00
409.714,3099.00
410.723,3301.00
411.734,3293.00
412.742,3404.00
413.751,3574.00
414.759,3667.00
415.769,3595.00
416.777,3803.00
417.785,3533.00
418.795,3408.00
419.803,3590.00
420.811,3259.00
421.818,3899.00
422.828,3443.00
423.835,3396.00
424.842,3388.00
425.852,3315.00
426.859,3642.00
427.866,3695.00
428.874,3637.00
429.881,3512.00
430.888,3754.00
431.894,3580.00
432.902,3539.00
433.909,4550.00
434.915,3616.00
435.923,4285.00
436.929,3096.00
437.935,3475.00
438.942,3388.00
439.948,3532.00
440.953,4067.00
441.959,3180.00
442.966,3966.00
443.971,3764.00
444.976,3181.00
445.983,3606.00
446.988,3488.00
447.993,3993.00
448.999,3625.00
450.004,3559.00
451.008,3389.00
452.014,4036.00
453.019,3871.00
454.023,3255.00
455.029,3219.00
456.032,4010.00
457.036,3472.00
458.042,2891.00
459.045,3423.00
460.049,3727.00
461.052,4061.00
462.057,3748.00
463.060,3947.00
464.063,3366.00
465.068,3427.00
466.071,3327.00
467.073,3881.00
468.078,3154.00
469.080,3088.00
470.082,3587.00
471.087,3439.00
472.089,3563.00
473.091,3829.00
474.095,4005.00
475.096,3447.00
476.098,3375.00
477.101,3734.00
478.103,3283.00
479.104,4143.00
480.107,3482.00
481.108,3010.00
482.109,4204.00
483.112,4210.00
484.113,4566.00
485.114,3752.00
486.116,3592.00
487.117,3909.00
488.117,3584.00
489.119,3761.00
490.119,3737.00
491.121,3216.00
492.121,3027.00
493.121,2876.00
494.123,3583.00
495.122,3635.00
496.122,3528.00
497.123,4535.00
498.122,3361.00
499.121,3594.00
500.122,3571.00
501.121,3149.00
502.120,3139.00
503.121,3243.00
504.119,3249.00
505.118,3754.00
506.118,3270.00
507.117,3242.00
508.115,3715.00
509.115,3551.00
510.113,3137.00
511.112,3812.00
512.110,3509.00
513.108,3794.00
514.107,3862.00
515.105,3811.00
516.102,3985.00
517.101,3502.00
518.098,3584.00
519.095,4073.00
520.094,3402.00
521.091,3419.00
522.089,3729.00
523.086,3368.00
524.082,3690.00
525.081,3645.00
526.077,4750.00
527.073,4554.00
528.071,3469.00
529.067,3400.00
530.064,3415.00
531.060,3168.00
532.056,3429.00
533.053,3851.00
534.048,3756.00
535.044,3543.00
536.041,3692.00
537.036,3574.00
538.030,3702.00
539.027,3785.00
540.022,3166.00
541.019,3484.00
542.013,3768.00
543.007,3681.00
544.004,3510.00
544.998,3497.00
545.994,4117.00
546.988,3884.00
547.981,3454.00
548.977,4176.00
549.971,3698.00
550.964,3751.00
551.960,3645.00
552.953,3556.00
553.948,3868.00
554.941,3381.00
555.934,3259.00
556.929,3714.00
557.922,3329.00
558.916,3852.00
559.909,4062.00
560.901,3594.00
561.895,3605.00
562.888,3279.00
563.880,3720.00
564.874,3936.00
565.865,3824.00
566.859,3263.00
567.851,4086.00
568.842,3437.00
569.836,3581.00
570.827,3220.00
571.820,3598.00
572.811,3756.00
573.802,3579.00
574.795,3327.00
575.786,3844.00
576.779,3673.00
577.769,3216.00
578.760,3639.00
579.752,3211.00
580.742,3428.00
581.735,3710.00
582.725,3325.00
583.714,3779.00
584.706,3275.00
585.696,3508.00
586.688,3761.00
587.677,3475.00
588.667,3687.00
589.658,3494.00
590.647,3692.00
591.638,3579.00
592.627,3395.00
593.616,3142.00
594.607,3689.00
595.595,3596.00
596.586,3211.00
597.574,3882.00
598.562,3960.00
599.553,3171.00
600.541,3553.00
601.531,3690.00
602.519,3448.00
603.508,3713.00
604.496,3778.00
605.484,3635.00
606.473,3532.00
607.460,3392.00
608.450,3439.00
609.437,3744.00
610.424,3915.00
611.413,3081.00
612.400,3284.00
613.388,3543.00
614.375,3400.00
615.361,3443.00
616.350,3287.00
617.336,8484.00
618.324,3878.00
619.310,3361.00
620.298,3203.00
621.284,3690.00
622.270,3260.00
623.257,3596.00
624.243,3574.00
625.230,3778.00
626.216,3521.00
627.203,3917.00
628.188,3484.00
629.173,3428.00
630.160,3329.00
631.145,2735.00
632.131,3339.00
633.116,3169.00
634.102,3660.00
635.087,3843.00
636.071,3795.00
637.057,3359.00
638.041,3079.00
639.027,3248.00
640.011,3415.00
640.995,3247.00
641.980,3287.00
642.964,3418.00
643.949,3881.00
644.932,2819.00
645.918,3315.00
646.901,3514.00
647.886,3336.00
648.868,3422.00
649.851,3171.00
650.836,2930.00
651.818,3240.00
652.803,3724.00
653.785,3477.00
654.769,3706.00
655.751,3676.00
656.733,3961.00
657.717,3068.00
658.699,3559.00
659.683,3305.00
660.664,3168.00
661.648,3383.00
662.629,3301.00
663.611,3307.00
664.594,3099.00
665.575,3081.00
666.558,3427.00
667.539,3126.00
668.521,3347.00
669.502,3387.00
670.484,3358.00
671.465,3250.00
672.445,3424.00
673.427,3227.00
674.407,3210.00
675.390,3541.00
676.369,3324.00
677.351,2981.00
678.331,3575.00
679.312,3409.00
680.292,3246.00
681.271,2957.00
682.253,3574.00
683.232,3082.00
684.213,3311.00
685.192,3697.00
686.172,3918.00
687.151,3389.00
688.132,3417.00
689.110,3574.00
690.089,3723.00
691.069,2905.00
692.047,2839.00
693.027,2991.00
694.005,3369.00
694.985,4042.00
695.963,3510.00
696.943,3274.00
697.920,2998.00
698.898,3783.00
699.877,3612.00
700.854,3269.00
701.833,3213.00
702.810,3728.00
703.789,3459.00
704.766,4488.00
705.745,3946.00
706.721,3182.00
707.698,3709.00
708.676,3026.00
709.653,3292.00
710.631,3680.00
711.607,3352.00
712.585,3390.00
713.561,3101.00
714.539,3884.00
715.514,3276.00
716.492,3081.00
717.467,3780.00
718.443,3038.00
719.420,3684.00
720.395,3725.00
721.372,3519.00
722.347,3637.00
723.324,3217.00
724.298,3408.00
725.275,3127.00
726.250,3299.00
727.226,3171.00
728.200,2967.00
729.176,3300.00
730.151,3594.00
731.125,3834.00
732.100,2970.00
733.074,3327.00
734.050,3181.00
735.023,3041.00
735.999,3252.00
736.972,3216.00
737.947,3703.00
738.921,3415.00
739.896,3555.00
740.869,3433.00
741.841,3228.00
742.816,3794.00
743.789,3118.00
744.763,3102.00
745.736,3314.00
746.710,3168.00
747.682,3108.00
748.656,3257.00
749.628,3276.00
750.602,3276.00
751.574,3393.00
752.548,4196.00
753.519,3467.00
754.491,2888.00
755.464,3141.00
756.435,3974.00
757.408,3620.00
758.379,3499.00
759.352,2840.00
760.323,2991.00
761.296,3276.00
762.267,3380.00
763.239,3067.00
764.209,3576.00
765.182,4486.00
766.152,3620.00
767.124,3045.00
768.094,3139.00
769.064,3501.00
770.036,3000.00
771.005,3628.00
771.977,3174.00
772.947,3258.00
773.918,3715.00
774.887,3257.00
775.858,3108.00
776.827,3208.00
777.798,3257.00
778.767,3811.00
779.738,3246.00
780.707,3188.00
781.677,3380.00
782.646,3094.00
783.614,3679.00
784.584,3424.00
785.552,3509.00
786.522,2996.00
787.490,3300.00
788.460,3182.00
789.428,3189.00
790.397,3703.00
791.365,2944.00
792.334,3221.00
793.302,3385.00
794.271,3407.00
795.238,3158.00
796.207,3152.00
797.174,3522.00
798.143,3010.00
799.109,3686.00
800.076,3233.00
801.044,2889.00
802.011,3060.00
802.979,3129.00
803.945,3288.00
804.913,3963.00
805.879,3242.00
806.847,2913.00
807.813,3627.00
808.780,3257.00
809.746,3263.00
810.713,3660.00
811.678,2958.00
812.646,3234.00
813.611,3250.00
814.578,2970.00
815.543,3625.00
816.510,2876.00
817.474,3172.00
818.439,3213.00
819.405,3549.00
820.370,3095.00
821.336,3004.00
822.300,3388.00
823.266,3226.00
824.230,3402.00
825.196,3298.00
826.160,3629.00
827.126,3668.00
828.089,4029.00
829.055,3329.00
830.018,3333.00
830.983,4063.00
831.946,3061.00
832.911,3111.00
833.874,3907.00
834.837,3110.00
835.802,3182.00
836.765,3714.00
837.729,3147.00
838.691,3247.00
839.656,3596.00
840.618,3424.00
841.582,3500.00
842.544,3554.00
843.508,3730.00
844.470,3000.00
845.434,2853.00
846.395,2765.00
847.359,3153.00
848.320,2904.00
849.283,3056.00
850.245,3087.00
851.208,3559.00
852.169,3234.00
853.130,2989.00
854.092,3433.00
855.053,3206.00
856.016,3223.00
856.976,4349.00
857.938,3258.00
858.899,3294.00
859.861,2924.00
860.821,3163.00
861.783,2554.00
862.743,3216.00
863.704,3540.00
864.664,2773.00
865.626,3327.00
866.585,3057.00
867.546,3312.00
868.506,3384.00
869.467,2815.00
870.426,3314.00
871.387,3526.00
872.346,3532.00
873.304,3353.00
874.265,3478.00
875.223,3340.00
876.184,3288.00
877.142,3088.00
878.102,3182.00
879.060,3201.00
880.021,3284.00
880.978,2876.00
881.938,3176.00
882.896,3557.00
883.856,3411.00
884.813,3188.00
885.772,3128.00
886.730,3428.00
887.689,3399.00
888.646,3074.00
889.603,3604.00
890.562,3621.00
891.519,3333.00
892.477,3411.00
893.434,3293.00
894.392,2804.00
895.349,3286.00
896.307,3318.00
897.263,3458.00
898.221,3307.00
899.177,3065.00
900.135,3437.00
901.091,3192.00
902.048,3652.00
903.004,3215.00
903.961,3031.00
904.917,3239.00
905.874,3212.00
906.829,2957.00
907.784,3287.00
908.741,3267.00
909.696,3122.00
910.653,2760.00
911.607,3167.00
912.564,3159.00
913.518,3191.00
914.475,3293.00
915.429,4937.00
916.385,2967.00
917.339,3615.00
918.295,3394.00
919.249,3394.00
920.205,3266.00
921.158,3359.00
922.114,3122.00
923.067,3320.00
924.020,3285.00
924.976,3105.00
925.929,3411.00
926.884,3257.00
927.837,3473.00
928.791,3447.00
929.744,2954.00
930.699,3271.00
931.651,3259.00
932.606,2882.00
933.558,3130.00
934.512,3504.00
935.464,3326.00
936.418,3622.00
937.370,3408.00
938.322,3024.00
939.276,3144.00
940.227,3224.00
941.181,3320.00
942.132,3653.00
943.085,3841.00
944.036,2821.00
944.990,3601.00
945.941,2996.00
946.893,3122.00
947.844,2879.00
948.797,3334.00
949.747,4002.00
950.700,3137.00
951.650,2660.00
952.601,3334.00
953.553,3052.00
954.503,3440.00
955.455,3210.00
956.405,3205.00
957.356,2897.00
958.306,3525.00
959.258,3220.00
960.207,3636.00
961.158,3562.00
962.108,3239.00
963.059,2939.00
964.008,2909.00
964.959,3856.00
965.908,3197.00
966.856,2971.00
967.807,2822.00
968.756,3563.00
969.706,3260.00
970.654,3131.00
971.605,3207.00
972.553,3329.00
973.503,3246.00
974.451,3489.00
975.401,3282.00
976.348,3275.00
977.296,3114.00
978.246,3445.00
979.193,3646.00
980.142,2956.00
981.090,3327.00
982.039,3216.00
982.986,3319.00
983.935,3544.00
984.882,3313.00
985.830,3443.00
986.777,3416.00
987.725,3107.00
988.672,3016.00
989.618,3246.00
990.567,2991.00
991.513,3165.00
992.461,3006.00
993.407,3464.00
994.354,3341.00
995.300,3426.00
996.248,3314.00
997.193,3396.00
998.141,3180.00
999.086,3367.00
1000.031,3264.00
1000.978,2821.00
1001.924,3209.00
1002.870,3337.00
1003.815,2638.00
1004.762,3017.00
1005.707,3222.00
1006.653,3158.00
1007.598,3154.00
1008.542,2872.00
1009.488,2822.00
1010.432,3081.00
1011.378,2988.00
1012.322,3589.00
1013.268,2896.00
1014.212,3220.00
1015.157,3319.00
1016.101,3637.00
1017.046,2935.00
1017.990,2953.00
1018.933,3124.00
1019.878,2966.00
1020.821,2990.00
1021.766,2875.00
1022.709,3094.00
1023.654,3193.00
1024.596,3489.00
1025.541,3644.00
1026.483,3643.00
1027.425,3272.00
1028.370,3402.00
1029.312,3386.00
1030.256,3101.00
1031.198,3067.00
1032.141,3097.00
1033.083,3592.00
1034.027,3365.00
1034.968,3410.00
1035.910,2746.00
1036.853,3170.00
1037.794,3269.00
1038.738,2922.00
1039.679,3460.00
1040.621,3025.00
1041.562,3132.00
1042.503,3491.00
1043.446,2924.00
1044.386,3453.00
1045.329,3235.00
1046.269,3301.00
1047.211,3095.00
1048.151,3265.00
1049.093,2878.00
1050.033,3959.00
1050.973,3358.00
1051.915,3163.00
1052.854,3102.00
1053.796,3420.00
1054.735,3059.00
1055.677,3060.00
1056.616,3307.00
1057.555,3297.00
1058.496,2845.00
1059.435,3406.00
1060.376,3088.00
1061.315,3027.00
1062.255,2931.00
1063.194,3127.00
1064.132,2909.00
1065.073,3260.00
1066.011,3207.00
1066.951,3206.00
1067.889,2934.00
1068.829,3395.00
1069.767,3304.00
1070.705,2570.00
1071.644,3109.00
1072.582,2761.00
1073.521,3110.00
1074.459,3192.00
1075.398,3305.00
1076.335,3035.00
1077.272,3819.00
1078.211,3309.00
1079.148,3644.00
1080.087,3191.00
1081.023,3599.00
1081.962,3466.00
1082.898,2718.00
1083.835,3060.00
1084.773,2810.00
1085.709,2838.00
1086.647,3164.00
1087.583,3044.00
1088.519,3373.00
1089.457,3312.00
1090.392,2785.00
1091.330,3208.00
1092.266,3100.00
1093.203,3458.00
1094.138,2821.00
1095.073,3626.00
1096.010,3460.00
1096.945,3096.00
1097.882,2797.00
1098.817,2634.00
1099.752,3792.00
1100.688,3241.00
1101.623,3268.00
1102.559,3283.00
1103.493,3501.00
1104.430,2704.00
1105.364,2794.00
1106.298,3112.00
1107.234,3779.00
1108.167,2931.00
1109.094,3069.00
1110.019,3156.00
1110.945,3312.00
1111.869,3155.00
1112.795,3043.00
1113.720,3158.00
1114.646,3128.00
1115.571,2592.00
1116.495,3207.00
1117.420,3254.00
1118.345,2961.00
1119.270,3080.00
1120.195,3293.00
1121.118,3571.00
1122.042,3425.00
1122.967,3110.00
1123.891,3213.00
1124.816,3214.00
1125.738,3202.00
1126.663,2559.00
1127.587,3065.00
1128.511,3023.00
1129.435,3252.00
1130.357,3213.00
1131.280,3947.00
1132.204,2946.00
1133.128,3002.00
1134.051,3040.00
1134.972,3754.00
1135.896,3066.00
1136.819,3441.00
1137.742,2957.00
1138.665,3285.00
1139.586,3169.00
1140.509,2692.00
1141.431,2947.00
1142.354,3594.00
1143.276,3222.00
1144.197,3555.00
1145.119,3276.00
1146.041,2891.00
1146.964,3325.00
1147.885,3213.00
1148.806,3086.00
1149.727,3137.00
1150.649,2787.00
1151.571,3174.00
1152.492,3358.00
1153.412,3253.00
1154.333,3138.00
1155.254,3039.00
1156.175,3056.00
1157.095,3641.00
1158.016,3210.00
1158.936,2985.00
1159.857,3315.00
1160.778,3076.00
1161.697,2779.00
1162.617,3237.00
1163.537,3847.00
1164.458,3623.00
1165.376,2964.00
1166.296,3362.00
1167.216,3471.00
1168.136,2979.00
1169.056,2906.00
1169.974,3077.00
1170.893,3681.00
1171.813,3311.00
1172.732,3055.00
1173.650,3269.00
1174.569,3994.00
1175.488,3350.00
1176.407,2875.00
1177.326,2895.00
1178.243,3130.00
1179.161,3012.00
1180.080,3065.00
1180.999,3259.00
1181.915,3126.00
1182.834,2749.00
1183.752,3332.00
1184.670,3686.00
1185.586,2695.00
1186.504,2992.00
1187.422,3098.00
1188.340,2852.00
1189.258,3277.00
1190.173,3162.00
1191.091,3512.00
1192.008,2956.00
1192.926,2968.00
1193.841,3286.00
1194.758,3288.00
1195.675,2920.00
1196.592,3392.00
1197.507,2921.00
1198.424,3269.00
1199.340,3588.00
1200.257,3081.00
1201.172,3320.00
1202.088,2559.00
1203.004,3203.00
1203.920,3404.00
1204.835,3734.00
1205.750,3517.00
1206.666,3563.00
1207.582,2895.00
1208.496,2985.00
1209.412,3092.00
1210.327,2978.00
1211.243,3674.00
1212.156,2962.00
1213.071,2967.00
1213.986,3169.00
1214.901,2869.00
1215.814,2780.00
1216.729,2928.00
1217.644,2962.00
1218.559,2919.00
1219.471,3915.00
1220.386,3496.00
1221.300,2965.00
1222.213,3288.00
1223.127,3126.00
1224.041,3514.00
1224.955,2912.00
1225.867,3222.00
1226.781,3377.00
1227.694,3513.00
1228.608,3088.00
1229.520,3393.00
1230.433,3393.00
1231.346,2886.00
1232.260,3342.00
1233.171,2908.00
1234.084,3243.00
1234.997,3595.00
1235.908,2992.00
1236.821,3289.00
1237.733,4293.00
1238.646,3399.00
1239.556,3242.00
1240.469,3120.00
1241.381,2931.00
1242.293,2938.00
1243.203,3611.00
1244.115,3665.00
1245.027,3221.00
1245.937,3018.00
1246.849,3060.00
1247.761,3178.00
1248.672,2911.00
1249.582,3074.00
1250.493,3716.00
1251.404,3164.00
1252.313,3364.00
1253.225,3482.00
1254.135,4101.00
1255.046,3321.00
1255.955,3389.00
1256.866,3681.00
1257.777,2989.00
1258.685,2814.00
1259.596,2627.00
1260.506,3543.00
1261.416,3130.00
1262.324,3414.00
1263.234,3108.00
1264.144,3378.00
1265.052,3255.00
1265.962,3176.00
1266.872,3420.00
1267.779,3357.00
1268.689,2765.00
1269.598,2867.00
1270.507,3096.00
1271.415,3053.00
1272.324,3242.00
1273.233,3163.00
1274.140,2998.00
1275.048,2881.00
1275.957,2682.00
1276.864,2968.00
1277.772,3003.00
1278.681,2676.00
1279.587,2946.00
1280.496,3269.00
1281.404,3873.00
1282.312,3294.00
1283.218,2901.00
1284.126,2876.00
1285.033,3659.00
1285.939,3102.00
1286.847,3209.00
1287.754,3087.00
1288.660,2925.00
1289.567,3742.00
1290.474,3253.00
1291.380,3399.00
1292.286,2858.00
1293.193,3222.00
1294.098,3169.00
1295.005,2987.00
1295.912,3482.00
1296.816,3280.00
1297.723,3113.00
1298.629,2951.00
1299.534,3495.00
1300.440,3297.00
1301.346,2936.00
1302.250,2990.00
1303.156,2711.00
1304.062,3606.00
1304.966,3703.00
1305.871,3469.00
1306.777,3021.00
1307.680,3111.00
1308.586,3240.00
1309.491,3355.00
1310.394,3127.00
1311.299,3442.00
1312.204,3678.00
1313.107,3317.00
1314.012,3234.00
1314.917,2871.00
1315.819,3260.00
1316.724,3684.00
1317.628,3271.00
1318.531,3149.00
1319.435,3543.00
1320.339,5169.00
1321.241,3129.00
1322.145,3143.00
1323.049,3223.00
1323.951,2946.00
1324.854,2882.00
1325.756,3395.00
1326.659,3227.00
1327.563,2942.00
1328.464,3277.00
1329.367,3137.00
1330.271,3502.00
1331.172,2886.00
1332.074,3137.00
1332.977,2934.00
1333.878,3307.00
1334.781,3464.00
1335.683,2888.00
1336.584,3098.00
1337.486,2720.00
1338.387,3355.00
1339.289,2841.00
1340.191,2976.00
1341.091,3009.00
1341.993,2877.00
1342.895,2994.00
1343.794,3251.00
1344.696,3377.00
1345.596,3290.00
1346.497,2858.00
1347.398,3100.00
1348.298,2710.00
1349.199,3714.00
1350.100,3045.00
1350.999,3508.00
1351.900,3324.00
1352.799,3472.00
1353.699,3225.00
1354.600,3130.00
1355.499,3221.00
1356.399,2733.00
1357.297,3097.00
1358.198,3234.00
1359.098,2940.00
1359.996,2826.00
1360.896,3614.00
1361.796,3446.00
1362.694,3265.00
1363.593,3072.00
1364.491,3320.00
1365.391,3684.00
1366.290,3104.00
1367.187,2918.00
1368.086,3357.00
1368.984,3201.00
1369.883,2737.00
1370.782,3148.00
1371.679,3284.00
1372.577,3687.00
1373.474,3147.00
1374.373,3095.00
1375.269,3212.00
1376.168,3105.00
1377.066,3422.00
1377.962,3358.00
1378.860,3515.00
1379.756,3476.00
1380.654,3775.00
1381.552,3404.00
1382.448,3297.00
1383.346,3150.00
1384.241,3341.00
1385.139,3423.00
1386.036,3077.00
1386.931,2774.00
1387.829,3232.00
1388.724,3406.00
1389.621,3007.00
1390.516,3190.00
1391.413,3092.00
1392.309,2897.00
1393.204,3401.00
1394.101,3395.00
1394.995,3333.00
1395.891,3293.00
1396.786,2943.00
1397.682,3090.00
1398.578,3243.00
1399.472,3450.00
1400.368,3219.00
1401.262,3163.00
1402.158,3337.00
1403.051,3115.00
1403.947,3060.00
1404.840,3415.00
1405.736,3402.00
1406.631,2890.00
1407.524,3623.00
1408.419,3232.00
1409.312,3067.00
1410.207,3320.00
1411.100,3089.00
1411.995,3019.00
1412.888,3353.00
1413.782,2842.00
1414.675,3521.00
1415.569,2883.00
1416.463,3126.00
1417.355,3099.00
1418.249,2977.00
1419.141,3238.00
1420.035,3290.00
1420.927,3149.00
1421.821,3475.00
1422.713,3090.00
1423.606,3297.00
1424.498,3169.00
1425.391,3754.00
1426.282,2974.00
1427.175,3101.00
1428.068,2651.00
1428.960,3243.00
1429.852,3277.00
1430.743,2920.00
1431.636,3171.00
1432.527,3462.00
1433.419,3374.00
1434.310,3351.00
1435.202,2984.00
1436.092,3127.00
1436.984,3097.00
1437.875,3536.00
1438.767,3170.00
1439.657,2985.00
1440.548,3326.00
1441.438,3227.00
1442.330,3308.00
1443.219,3072.00
1444.111,3367.00
1445.000,2997.00
1445.891,2890.00
1446.781,2965.00
1447.672,3224.00
1448.561,3475.00
1449.452,3327.00
1450.340,2932.00
1451.231,2943.00
1452.120,2889.00
1453.010,3471.00
1453.899,3023.00
1454.789,3360.00
1455.677,3566.00
1456.568,3215.00
1457.456,3191.00
1458.346,3186.00
1459.234,3209.00
1460.123,3496.00
1461.011,3187.00
1461.901,3547.00
1462.788,3613.00
1463.678,3271.00
1464.565,3164.00
1465.454,3118.00
1466.342,3283.00
1467.231,2554.00
1468.118,3463.00
1469.006,3601.00
1469.893,2909.00
1470.782,3335.00
1471.669,3465.00
1472.557,3418.00
1473.444,3211.00
1474.330,3399.00
1475.218,3486.00
1476.105,3115.00
1476.993,3200.00
1477.879,3423.00
1478.767,3071.00
1479.652,2928.00
1480.540,3262.00
1481.426,3381.00
1482.313,3299.00
1483.199,3550.00
1484.086,3429.00
1484.972,2845.00
1485.857,2898.00
1486.744,3282.00
1487.629,2804.00
1488.516,3062.00
1489.401,3387.00
1490.287,3192.00
1491.172,2852.00
1492.058,3105.00
1492.943,2960.00
1493.828,2974.00
1494.714,3360.00
1495.598,3556.00
1496.484,3954.00
1497.368,2853.00
1498.254,3104.00
1499.138,3217.00
1500.022,3217.00
1500.907,3276.00
1501.791,3946.00
1502.676,3188.00
1503.560,3022.00
1504.445,3718.00
1505.328,3329.00
1506.211,3560.00
1507.096,3124.00
1507.979,3476.00
1508.864,3089.00
1509.747,3303.00
1510.631,3257.00
1511.514,3337.00
1512.397,3452.00
1513.281,3682.00
1514.163,3423.00
1515.047,3111.00
1515.930,2899.00
1516.812,3180.00
1517.696,3352.00
1518.578,3094.00
1519.461,3254.00
1520.343,3683.00
1521.225,2996.00
1522.108,3060.00
1522.990,3508.00
1523.873,3613.00
1524.754,2843.00
1525.635,2669.00
1526.518,3340.00
1527.399,3133.00
1528.282,3198.00
1529.163,3347.00
1530.044,3194.00
1530.926,2892.00
1531.807,2979.00
1532.689,3240.00
1533.569,2998.00
1534.450,4240.00
1535.332,3413.00
1536.212,3066.00
1537.092,3436.00
1537.974,2853.00
1538.854,3117.00
1539.735,3695.00
1540.615,3364.00
1541.495,2952.00
1542.376,3587.00
1543.255,2875.00
1544.135,3167.00
1545.016,3240.00
1545.895,2993.00
1546.774,3403.00
1547.655,2754.00
1548.534,3194.00
1549.414,3121.00
1550.293,2855.00
1551.172,3222.00
1552.052,3192.00
1552.930,3044.00
1553.809,3706.00
1554.689,3091.00
1555.567,3113.00
1556.445,3057.00
1557.325,3469.00
1558.203,2824.00
1559.080,3194.00
1559.960,3147.00
1560.838,3874.00
1561.715,3070.00
1562.594,3500.00
1563.472,3333.00
1564.349,3386.00
1565.228,2748.00
1566.105,2961.00
1566.982,3249.00
1567.861,3458.00
1568.738,3129.00
1569.615,2800.00
1570.493,3035.00
1571.370,3063.00
1572.246,2628.00
1573.124,3150.00
1574.000,3088.00
1574.877,3415.00
1575.755,3095.00
1576.631,2960.00
1577.507,3557.00
1578.384,3541.00
1579.260,3274.00
1580.136,3758.00
1581.011,3208.00
1581.889,3150.00
1582.764,3159.00
1583.639,3505.00
1584.516,3365.00
1585.391,3053.00
1586.266,3240.00
1587.143,3694.00
1588.018,3339.00
1588.893,3542.00
1589.768,3907.00
1590.644,3889.00
1591.519,2897.00
1592.393,3343.00
1593.269,3409.00
1594.143,2986.00
1595.018,3150.00
1595.892,3034.00
1596.767,2678.00
1597.641,2690.00
1598.515,2865.00
1599.391,3316.00
1600.264,3016.00
1601.138,2944.00
1602.011,2569.00
1602.886,3683.00
1603.760,3489.00
1604.633,3453.00
1605.508,3381.00
1606.381,3251.00
1607.254,3195.00
1608.127,3298.00
1609.001,2950.00
1609.874,3455.00
1610.746,3431.00
1611.619,3186.00
1612.493,3417.00
1613.365,2973.00
1614.238,3210.00
1615.110,3231.00
1615.984,3204.00
1616.855,2975.00
1617.727,3398.00
1618.599,3041.00
1619.473,3506.00
1620.344,2540.00
1621.216,3206.00
1622.087,3225.00
1622.960,3179.00
1623.832,3192.00
1624.703,3313.00
1625.574,3381.00
1626.445,3226.00
1627.317,3219.00
1628.188,3437.00
1629.059,3122.00
1629.930,3518.00
1630.802,3112.00
1631.672,3354.00
1632.543,3306.00
1633.413,3185.00
1634.283,3696.00
1635.155,3248.00
1636.025,3308.00
1636.895,3188.00
1637.765,2723.00
1638.636,3180.00
1639.506,3357.00
1640.376,3961.00
1641.245,3101.00
1642.114,3202.00
1642.985,2672.00
1643.855,2959.00
1644.724,3054.00
1645.593,3351.00
1646.462,3353.00
1647.333,3260.00
1648.201,3098.00
1649.070,3225.00
1649.939,3338.00
1650.807,2975.00
1651.676,3368.00
1652.546,3437.00
1653.414,3506.00
1654.282,3149.00
1655.150,3059.00
1656.018,3145.00
1656.888,3794.00
1657.756,3188.00
1658.623,2866.00
1659.491,2730.00
1660.359,3595.00
1661.226,3056.00
1662.095,3336.00
1662.962,3073.00
1663.830,3125.00
1664.697,3015.00
1665.564,3185.00
1666.431,3348.00
1667.297,2975.00
1668.166,2903.00
1669.033,2747.00
1669.899,3030.00
1670.766,2853.00
1671.632,3066.00
1672.499,3530.00
1673.367,3198.00
1674.233,3376.00
1675.099,3151.00
1675.965,2872.00
1676.831,3104.00
1677.696,3529.00
1678.562,5773.00
1679.430,2739.00
1680.295,2864.00
1681.161,2976.00
1682.026,2963.00
1682.891,3047.00
1683.756,3083.00
1684.621,3221.00
1685.486,3205.00
1686.353,3187.00
1687.218,3311.00
1688.083,3186.00
1688.947,3479.00
1689.812,3171.00
1690.677,3030.00
1691.541,3290.00
1692.405,2545.00
1693.269,3659.00
1694.135,3387.00
1694.999,3200.00
1695.863,3692.00
1696.727,3063.00
1697.591,3051.00
1698.455,3279.00
1699.318,3049.00
1700.182,4457.00
1701.045,3243.00
1701.909,3218.00
1702.772,3690.00
1703.637,3043.00
1704.500,2790.00
1705.363,3434.00
1706.226,3217.00
1707.089,3328.00
1707.951,3358.00
1708.814,3913.00
1709.677,3917.00
1710.539,3410.00
1711.402,3445.00
1712.264,3184.00
1713.126,3103.00
1713.988,3407.00
1714.852,3440.00
1715.714,2583.00
1716.576,2776.00
1717.438,3391.00
1718.299,2715.00
1719.161,3544.00
1720.023,3191.00
1720.884,3641.00
1721.745,3146.00
1722.607,3095.00
1723.468,2716.00
1724.329,3427.00
1725.190,3183.00
1726.051,3393.00
1726.912,3054.00
1727.772,3269.00
1728.633,3114.00
1729.494,3271.00
1730.354,3463.00
1731.214,2876.00
1732.075,3066.00
1732.935,3049.00
1733.797,3055.00
1734.657,3642.00
1735.517,3901.00
1736.377,3424.00
1737.237,3118.00
1738.096,3830.00
1738.956,3152.00
1739.816,3050.00
1740.675,3153.00
1741.534,2676.00
1742.394,3220.00
1743.253,2924.00
1744.112,3220.00
1744.971,3027.00
1745.830,3332.00
1746.689,3292.00
1747.547,3469.00
1748.406,2801.00
1749.265,3038.00
1750.123,3068.00
1750.982,3397.00
1751.840,3166.00
1752.698,3271.00
1753.556,3000.00
1754.414,3200.00
1755.272,3091.00
1756.130,3209.00
1756.988,3138.00
1757.846,3340.00
1758.703,3020.00
1759.559,3483.00
1760.417,2899.00
1761.274,3877.00
1762.131,3581.00
1762.989,3648.00
1763.846,3626.00
1764.703,3270.00
1765.560,3735.00
1766.417,3250.00
1767.273,2969.00
1768.130,3164.00
1768.987,3028.00
1769.843,3427.00
1770.700,3545.00
1771.556,3087.00
1772.412,3577.00
1773.268,3060.00
1774.125,3475.00
1774.980,3266.00
1775.836,3503.00
1776.692,3079.00
1777.546,3020.00
1778.402,3406.00
1779.257,3252.00
1780.113,2971.00
1780.968,3294.00
1781.824,3476.00
1782.679,2845.00
1783.534,3056.00
1784.389,3651.00
1785.244,3356.00
1786.099,3141.00
1786.954,3443.00
1787.808,3233.00
1788.661,3259.00
1789.516,3644.00
1790.370,3230.00
1791.225,3035.00
1792.079,2842.00
1792.933,3946.00
1793.787,3325.00
1794.641,3265.00
1795.495,3186.00
1796.349,3228.00
1797.201,3053.00
1798.055,3018.00
1798.908,3203.00
1799.762,3612.00
1800.615,3453.00
1801.469,3467.00
1802.322,3625.00
1803.175,3006.00
1804.028,2801.00
1804.880,3706.00
1805.732,3378.00
1806.585,3178.00
1807.438,3232.00
1808.291,2702.00
1809.143,2920.00
1809.996,2856.00
1810.846,3977.00
1811.699,3261.00
1812.551,3152.00
1813.403,3392.00
1814.255,3232.00
1815.107,3210.00
1815.959,3810.00
1816.809,3269.00
1817.661,3349.00
1818.512,3220.00
1819.364,3220.00
1820.215,3337.00
1821.067,2935.00
1821.918,3014.00
1822.768,3429.00
1823.619,3489.00
1824.470,3103.00
1825.321,3367.00
1826.172,3148.00
1827.021,3346.00
1827.871,3470.00
1828.722,3267.00
1829.572,3275.00
1830.423,3233.00
1831.273,3048.00
1832.122,3185.00
1832.972,3163.00
1833.822,2947.00
1834.672,3366.00
1835.522,3376.00
1836.370,2974.00
1837.220,3379.00
1838.070,2786.00
1838.919,2520.00
1839.769,3044.00
1840.616,3469.00
1841.466,3366.00
1842.315,2940.00
1843.164,3832.00
1844.013,3008.00
1844.860,2878.00
1845.709,3008.00
1846.558,3492.00
1847.407,2873.00
1848.254,3301.00
1849.102,3281.00
1849.951,2997.00
1850.799,2621.00
1851.648,3091.00
1852.494,3214.00
1853.342,3279.00
1854.190,3587.00
1855.038,3546.00
1855.884,3234.00
1856.732,4080.00
1857.580,3615.00
1858.428,3054.00
1859.273,2949.00
1860.121,2996.00
1860.968,4053.00
1861.816,3599.00
1862.661,3585.00
1863.508,3798.00
1864.355,3496.00
1865.202,3522.00
1866.047,3299.00
1866.894,3551.00
1867.741,3757.00
1868.586,3357.00
1869.432,3321.00
1870.279,3191.00
1871.125,3043.00
1871.970,3895.00
1872.816,3267.00
1873.662,2746.00
1874.506,3355.00
1875.352,3547.00
1876.198,3687.00
1877.044,3822.00
1877.888,3144.00
1878.734,3267.00
1879.579,3075.00
1880.423,2870.00
1881.268,3124.00
1882.113,3465.00
1882.959,3202.00
1883.802,2990.00
1884.647,3604.00
1885.492,3237.00
1886.335,3191.00
1887.180,3052.00
1888.025,3285.00
1888.867,2985.00
1889.712,3382.00
1890.556,2995.00
1891.399,3521.00
1892.243,3526.00
1893.087,3095.00
1893.930,3325.00
1894.774,3331.00
1895.618,3575.00
1896.460,2833.00
1897.304,3159.00
1898.147,3118.00
1898.989,2930.00
1899.833,3451.00
1900.676,3026.00
1901.518,3535.00
1902.361,3576.00
1903.202,3104.00
1904.046,3054.00
1904.889,3177.00
1905.730,3131.00
1906.573,2884.00
1907.415,3265.00
1908.256,3672.00
1909.099,3346.00
1909.941,3347.00
1910.782,3433.00
1911.624,3062.00
1912.465,3413.00
1913.307,3308.00
1914.149,2962.00
1914.989,3491.00
1915.831,3172.00
1916.671,3638.00
1917.513,3161.00
1918.355,3348.00
1919.195,3459.00
1920.036,3272.00
1920.876,3264.00
1921.717,3394.00
1922.558,3252.00
1923.398,3291.00
1924.239,3225.00
1925.078,3573.00
1925.919,2933.00
1926.760,3345.00
1927.599,3070.00
1928.440,3459.00
1929.279,3262.00
1930.119,3699.00
1930.958,3131.00
1931.798,3284.00
1932.638,3126.00
1933.477,3257.00
1934.317,3055.00
1935.155,3095.00
1935.995,3361.00
1936.833,3036.00
1937.673,3042.00
1938.512,3703.00
1939.350,2847.00
1940.190,3134.00
1941.027,3156.00
1941.867,3144.00
1942.704,3219.00
1943.543,3231.00
1944.381,3404.00
1945.220,3553.00
1946.057,3313.00
1946.896,3526.00
1947.733,3267.00
1948.572,3012.00
1949.408,3618.00
1950.247,3334.00
1951.085,3412.00
1951.922,3554.00
1952.760,3021.00
1953.597,3629.00
1954.435,2604.00
1955.271,3401.00
1956.109,3125.00
1956.945,2870.00
1957.783,3366.00
1958.619,3048.00
1959.456,3222.00
1960.292,3306.00
1961.129,3569.00
1961.965,3793.00
1962.802,3101.00
1963.638,2965.00
1964.475,3289.00
1965.310,3282.00
1966.145,3283.00
1966.982,3035.00
1967.817,2951.00
1968.654,3239.00
1969.489,3016.00
1970.325,3258.00
1971.160,2970.00
1971.996,3443.00
1972.831,3479.00
1973.667,3152.00
1974.501,3669.00
1975.337,3560.00
1976.171,3134.00
1977.006,3507.00
1977.841,3153.00
1978.675,3467.00
1979.511,3884.00
1980.345,2968.00
1981.180,3478.00
1982.014,3242.00
1982.849,2966.00
1983.682,3104.00
1984.516,3092.00
1985.351,2852.00
1986.184,2737.00
1987.019,2744.00
1987.852,2504.00
1988.687,2725.00
1989.519,2984.00
1990.352,3239.00
1991.187,2724.00
1992.019,3037.00
1992.854,3399.00
1993.686,2924.00
1994.518,3054.00
1995.352,2533.00
1996.185,2339.00
1997.019,2931.00
1997.851,2669.00
1998.682,2717.00
1999.516,2763.00
2000.348,2494.00
