RamanScope Measure Spectrum Data V3.72

<< MEASURE CONDITION >>
Exposure Type,Aver
Exposure Time [sec],20
Exposure Count,2
Measure Time,2024/02/15 21:15:13
Data Name,""
Data Comment,""
Rayleigh Wave[nm],532.0

<< SAMPLE SPECTRUM >>
Wave[dcm-1],No40
96.716,10.00
97.759,39.00
98.802,17.00
99.846,-39.50
100.886,29.00
101.929,-20.00
102.972,-15.50
104.015,-7.00
105.057,-8.50
106.100,-8.00
107.142,13.00
108.184,12.50
109.226,28.00
110.268,66.50
111.310,17.00
112.352,-32.50
113.393,13.50
114.435,-15.50
115.476,10.50
116.517,0.50
117.558,23.50
118.599,-18.50
119.640,26.50
120.681,56.00
121.722,-15.50
122.762,-22.50
123.803,35.00
124.843,26.50
125.883,-6.00
126.923,-22.00
127.963,-79.50
129.001,25.50
130.041,29.00
131.080,0.00
132.120,30.50
133.159,4.00
134.199,1.50
135.238,-12.50
136.277,-4.50
137.316,-16.50
138.355,-4.00
139.393,-9.00
140.432,29.00
141.470,-15.50
142.509,42.50
143.547,46.50
144.585,56.00
145.623,54.00
146.661,35.50
147.699,57.50
148.736,109.50
149.774,167.50
150.811,213.00
151.849,256.50
152.886,378.50
153.923,439.50
154.960,531.00
155.997,680.50
157.034,790.50
158.072,975.50
159.109,975.50
160.145,1223.00
161.182,1425.00
162.218,1485.00
163.254,1578.50
164.290,1817.00
165.326,1912.00
166.361,2007.50
167.397,2002.50
168.432,2074.50
169.468,2174.00
170.503,2209.50
171.538,2326.50
172.573,2278.50
173.608,2411.00
174.643,2360.00
175.677,2457.00
176.712,2460.00
177.746,2509.50
178.781,2541.50
179.815,2614.50
180.849,2632.50
181.883,2702.00
182.917,2688.00
183.951,2743.00
184.984,2772.50
186.020,2797.00
187.053,2842.00
188.087,2796.50
189.120,2827.50
190.153,2757.00
191.186,2718.50
192.219,2688.00
193.251,2619.50
194.284,2675.00
195.317,2642.00
196.349,2653.00
197.381,2688.50
198.413,2703.50
199.445,2720.00
200.477,2781.50
201.509,2704.50
202.543,2758.00
203.575,2771.00
204.606,2757.00
205.637,2849.50
206.669,2882.50
207.700,2757.00
208.731,2923.50
209.762,2975.50
210.792,2998.50
211.823,3012.50
212.854,3012.50
213.884,3066.00
214.914,3035.00
215.947,3101.50
216.977,3208.50
218.007,3185.00
219.037,3276.00
220.066,3318.50
221.096,3251.00
222.126,3351.00
223.155,3491.00
224.184,3477.50
225.214,3471.00
226.245,3553.50
227.274,3568.00
228.302,3621.00
229.331,3661.50
230.360,3643.00
231.388,3660.50
232.417,3623.00
233.445,3548.00
234.473,3615.00
235.501,3568.50
236.531,3524.50
237.559,3535.50
238.587,3395.00
239.614,3354.50
240.642,3328.50
241.669,3303.50
242.696,3156.00
243.724,3121.50
244.753,3213.50
245.780,3216.50
246.806,3161.50
247.833,3157.50
248.860,3176.50
249.886,3080.00
250.913,3133.50
251.939,3109.00
252.967,3150.00
253.993,3254.50
255.019,3286.50
256.045,3237.00
257.070,3345.00
258.096,3283.50
259.121,3243.00
260.147,3260.00
261.174,3231.00
262.199,3273.50
263.224,3194.50
264.249,3182.00
265.274,3207.00
266.298,3201.00
267.323,3202.50
268.349,3193.00
269.374,3185.50
270.398,3148.00
271.422,3211.50
272.446,3244.00
273.470,3234.50
274.496,3302.00
275.519,3212.00
276.543,3267.00
277.566,3247.00
278.589,3338.00
279.613,3357.50
280.636,3340.50
281.661,3359.00
282.684,3371.50
283.706,3426.00
284.729,3398.00
285.751,3398.50
286.774,3381.00
287.798,3442.50
288.820,3462.00
289.842,3431.00
290.864,3483.50
291.886,3509.00
292.910,3471.50
293.932,3454.50
294.953,3417.50
295.974,3406.50
296.996,3451.00
298.017,3363.50
299.040,3394.00
300.061,3303.00
301.082,3243.50
302.102,3195.00
303.123,3206.00
304.143,3174.50
305.166,3128.50
306.186,3056.50
307.206,3082.50
308.226,3058.00
309.246,3067.50
310.268,2999.50
311.288,2909.50
312.307,2829.50
313.327,2847.00
314.346,2865.50
315.368,2840.50
316.387,2828.50
317.406,2803.50
318.425,2765.00
319.443,2778.00
320.464,2753.00
321.483,2701.50
322.501,2749.00
323.520,2655.50
324.538,2665.50
325.558,2616.00
326.576,2639.00
327.594,2596.50
328.612,2572.00
329.629,2642.50
330.649,2598.00
331.666,2603.50
332.684,2578.00
333.701,2578.00
334.718,2574.00
335.737,2573.50
336.754,2558.50
337.771,2477.50
338.787,2594.50
339.806,2562.00
340.823,2473.00
341.839,2496.00
342.855,2496.50
343.871,2562.00
344.889,2496.00
345.905,2506.50
346.921,2515.50
347.937,2491.00
348.954,2461.00
349.970,2496.00
350.985,2459.00
352.000,2478.00
353.017,2396.50
354.032,2423.00
355.047,2489.50
356.062,2490.50
357.077,2458.50
358.093,2407.50
359.108,2487.50
360.122,2514.50
361.136,2438.00
362.152,2362.00
363.166,2434.00
364.180,2440.50
365.194,2406.00
366.210,2459.00
367.223,2424.50
368.237,2426.50
369.250,2369.00
370.265,2462.50
371.278,2461.00
372.291,2453.50
373.304,2441.50
374.319,2466.00
375.332,2447.50
376.344,2487.50
377.357,2380.00
378.371,2432.00
379.383,2502.50
380.395,2431.50
381.407,2391.50
382.421,2423.00
383.433,2528.00
384.445,2448.00
385.456,2498.50
386.470,2476.00
387.481,2472.00
388.492,2449.50
389.505,2540.50
390.516,2480.00
391.527,2499.50
392.538,2530.00
393.551,2483.50
394.561,2551.50
395.572,2558.50
396.582,2515.50
397.594,2521.00
398.604,2527.00
399.614,2528.50
400.624,2497.50
401.636,2582.50
402.646,2564.50
403.655,2564.50
404.667,2516.00
405.676,2525.00
406.685,2567.00
407.694,2499.00
408.705,2485.00
409.714,2547.00
410.723,2508.50
411.734,2499.00
412.742,2551.00
413.751,2487.00
414.759,2469.50
415.769,2501.00
416.777,2500.50
417.785,2487.50
418.795,2534.50
419.803,2452.00
420.811,2453.00
421.818,2414.00
422.828,2457.00
423.835,2416.00
424.842,2413.50
425.852,2406.50
426.859,2356.50
427.866,2374.00
428.874,2393.00
429.881,2318.50
430.888,2329.00
431.894,2338.00
432.902,2378.50
433.909,2260.00
434.915,2313.00
435.923,2318.00
436.929,2301.00
437.935,2288.00
438.942,2325.00
439.948,2279.50
440.953,2319.00
441.959,2325.50
442.966,2335.00
443.971,2327.50
444.976,2330.50
445.983,2262.00
446.988,2356.50
447.993,2269.50
448.999,2324.00
450.004,2285.00
451.008,2311.00
452.014,2329.50
453.019,2353.00
454.023,2314.00
455.029,2316.00
456.032,2304.00
457.036,2254.00
458.042,2255.50
459.045,2328.00
460.049,2329.00
461.052,2287.50
462.057,2345.00
463.060,2233.00
464.063,2310.50
465.068,2252.50
466.071,2242.00
467.073,2329.00
468.078,2336.50
469.080,2346.50
470.082,2255.50
471.087,2295.50
472.089,2312.00
473.091,2292.00
474.095,2354.50
475.096,2301.00
476.098,2297.00
477.101,2305.00
478.103,2300.00
479.104,2321.00
480.107,2361.00
481.108,2308.00
482.109,2307.00
483.112,2329.50
484.113,2310.00
485.114,2300.00
486.116,2349.00
487.117,2315.00
488.117,2297.00
489.119,2304.50
490.119,2307.50
491.121,2311.00
492.121,2305.50
493.121,2318.00
494.123,2375.50
495.122,2404.00
496.122,2344.50
497.123,2385.50
498.122,2392.00
499.121,2350.00
500.122,2322.50
501.121,2309.00
502.120,2323.00
503.121,2289.50
504.119,2350.00
505.118,2374.00
506.118,2338.50
507.117,2301.00
508.115,2238.50
509.115,2226.50
510.113,2255.00
511.112,2360.50
512.110,2313.50
513.108,2278.00
514.107,2216.00
515.105,2376.00
516.102,2251.00
517.101,2181.50
518.098,2174.00
519.095,2239.50
520.094,2259.50
521.091,2189.50
522.089,2313.00
523.086,2255.50
524.082,2231.50
525.081,2224.50
526.077,2212.50
527.073,2264.50
528.071,2227.00
529.067,2183.50
530.064,2251.50
531.060,2211.50
532.056,2230.50
533.053,2212.00
534.048,2125.00
535.044,2161.50
536.041,2187.50
537.036,2224.50
538.030,2156.50
539.027,2187.50
540.022,2232.50
541.019,2226.50
542.013,2195.00
543.007,2237.50
544.004,2266.00
544.998,2225.50
545.994,2271.00
546.988,2235.00
547.981,2223.00
548.977,2255.50
549.971,2223.50
550.964,2194.50
551.960,2154.00
552.953,2292.50
553.948,2213.00
554.941,2200.50
555.934,2266.00
556.929,2273.50
557.922,2245.50
558.916,2263.00
559.909,2240.00
560.901,2167.00
561.895,2200.50
562.888,2214.50
563.880,2215.50
564.874,2163.00
565.865,2283.00
566.859,2149.50
567.851,2219.50
568.842,2195.00
569.836,2264.00
570.827,2199.50
571.820,2144.00
572.811,2259.00
573.802,2194.00
574.795,2243.50
575.786,2184.50
576.779,2230.00
577.769,2215.00
578.760,2207.50
579.752,2137.50
580.742,2217.00
581.735,2189.00
582.725,2168.00
583.714,2224.00
584.706,2201.00
585.696,2187.00
586.688,2178.50
587.677,2260.50
588.667,2239.50
589.658,2154.50
590.647,2218.50
591.638,2198.00
592.627,2215.00
593.616,2263.50
594.607,2212.00
595.595,2188.50
596.586,2195.50
597.574,2243.00
598.562,2254.50
599.553,2208.00
600.541,2198.50
601.531,2319.50
602.519,2307.00
603.508,2256.00
604.496,2271.00
605.484,2226.00
606.473,2265.00
607.460,2261.00
608.450,2286.00
609.437,2244.00
610.424,2244.00
611.413,2265.50
612.400,2213.50
613.388,2163.50
614.375,2287.00
615.361,2213.00
616.350,2227.50
617.336,2254.00
618.324,2246.50
619.310,2199.50
620.298,2224.50
621.284,2181.00
622.270,2169.50
623.257,2192.00
624.243,2227.00
625.230,2202.00
626.216,2173.50
627.203,2190.00
628.188,2190.00
629.173,2113.50
630.160,2172.00
631.145,2151.00
632.131,2077.50
633.116,2030.00
634.102,2037.00
635.087,2095.50
636.071,1995.50
637.057,2023.50
638.041,2046.00
639.027,1986.50
640.011,1994.50
640.995,1931.50
641.980,1964.50
642.964,1927.00
643.949,1892.00
644.932,1909.00
645.918,1920.00
646.901,1903.50
647.886,1857.00
648.868,1865.00
649.851,1886.50
650.836,1833.50
651.818,1777.00
652.803,1870.50
653.785,1856.00
654.769,1793.00
655.751,1873.50
656.733,1795.50
657.717,1737.00
658.699,1797.50
659.683,1818.00
660.664,1776.50
661.648,1767.00
662.629,1720.00
663.611,1728.00
664.594,1750.50
665.575,1719.50
666.558,1668.50
667.539,1706.50
668.521,1703.50
669.502,1722.50
670.484,1739.50
671.465,1705.00
672.445,1706.50
673.427,1677.50
674.407,1650.50
675.390,1642.00
676.369,1617.50
677.351,1639.00
678.331,1688.00
679.312,1666.50
680.292,1661.50
681.271,1658.50
682.253,1617.50
683.232,1654.00
684.213,1658.50
685.192,1568.00
686.172,1521.00
687.151,1568.50
688.132,1566.00
689.110,1606.50
690.089,1584.00
691.069,1539.50
692.047,1538.00
693.027,1558.50
694.005,1465.00
694.985,1515.50
695.963,1522.50
696.943,1531.50
697.920,1507.00
698.898,1479.00
699.877,1480.50
700.854,1501.50
701.833,1462.00
702.810,1457.50
703.789,1502.00
704.766,1457.50
705.745,1444.00
706.721,1436.50
707.698,1397.50
708.676,1425.50
709.653,1443.50
710.631,1397.50
711.607,1418.00
712.585,1342.50
713.561,1395.00
714.539,1358.00
715.514,1296.00
716.492,1311.00
717.467,1336.50
718.443,1343.00
719.420,1386.50
720.395,1351.00
721.372,1347.50
722.347,1316.50
723.324,1360.00
724.298,1327.00
725.275,1331.00
726.250,1378.00
727.226,1304.50
728.200,1341.00
729.176,1361.50
730.151,1345.50
731.125,1330.50
732.100,1284.00
733.074,1303.00
734.050,1271.00
735.023,1297.50
735.999,1205.00
736.972,1243.50
737.947,1260.50
738.921,1279.00
739.896,1264.50
740.869,1259.50
741.841,1237.50
742.816,1294.50
743.789,1278.00
744.763,1305.50
745.736,1216.00
746.710,1221.50
747.682,1225.50
748.656,1239.00
749.628,1184.50
750.602,1207.50
751.574,1238.50
752.548,1216.50
753.519,1223.00
754.491,1199.00
755.464,1195.00
756.435,1237.00
757.408,1176.00
758.379,1180.00
759.352,1165.50
760.323,1205.00
761.296,1224.50
762.267,1130.00
763.239,1158.00
764.209,1172.00
765.182,1188.50
766.152,1124.50
767.124,1192.50
768.094,1185.50
769.064,1145.00
770.036,1127.50
771.005,1161.00
771.977,1138.50
772.947,1101.50
773.918,1146.50
774.887,1115.00
775.858,1136.00
776.827,1144.00
777.798,1140.00
778.767,1137.00
779.738,1115.00
780.707,1109.00
781.677,1157.00
782.646,1133.00
783.614,1072.50
784.584,1106.00
785.552,1093.50
786.522,1143.50
787.490,1152.00
788.460,1059.50
789.428,1076.00
790.397,1040.50
791.365,1060.00
792.334,1058.50
793.302,1123.50
794.271,1022.50
795.238,1056.50
796.207,1055.00
797.174,1057.00
798.143,1104.00
799.109,1084.00
800.076,1083.00
801.044,1024.00
802.011,1046.00
802.979,1104.00
803.945,1039.00
804.913,1007.00
805.879,1035.00
806.847,1062.00
807.813,1074.50
808.780,1019.00
809.746,1094.50
810.713,1001.00
811.678,1001.00
812.646,986.00
813.611,973.00
814.578,990.50
815.543,1012.00
816.510,988.50
817.474,988.00
818.439,1040.50
819.405,968.00
820.370,1039.00
821.336,1031.50
822.300,1014.00
823.266,949.00
824.230,1019.50
825.196,956.00
826.160,963.00
827.126,1027.50
828.089,965.00
829.055,926.00
830.018,984.50
830.983,951.00
831.946,925.50
832.911,894.50
833.874,977.50
834.837,950.50
835.802,992.50
836.765,946.50
837.729,978.50
838.691,938.00
839.656,984.50
840.618,962.00
841.582,962.00
842.544,909.00
843.508,914.00
844.470,1039.00
845.434,975.50
846.395,946.00
847.359,912.00
848.320,928.00
849.283,976.00
850.245,949.00
851.208,963.50
852.169,943.00
853.130,995.00
854.092,973.00
855.053,966.00
856.016,1000.50
856.976,973.50
857.938,924.50
858.899,974.00
859.861,982.00
860.821,968.00
861.783,964.50
862.743,944.00
863.704,982.50
864.664,988.50
865.626,1000.00
866.585,960.50
867.546,952.50
868.506,1003.00
869.467,960.00
870.426,972.50
871.387,993.00
872.346,962.00
873.304,956.50
874.265,944.00
875.223,984.50
876.184,986.50
877.142,957.00
878.102,947.50
879.060,937.50
880.021,955.50
880.978,976.00
881.938,946.00
882.896,979.50
883.856,978.00
884.813,994.00
885.772,994.00
886.730,962.00
887.689,965.50
888.646,1023.50
889.603,952.00
890.562,1021.00
891.519,1034.00
892.477,985.00
893.434,999.00
894.392,1021.50
895.349,996.00
896.307,1045.00
897.263,1004.00
898.221,1068.00
899.177,1001.50
900.135,955.50
901.091,997.00
902.048,976.00
903.004,1052.00
903.961,1023.50
904.917,1050.00
905.874,998.00
906.829,1023.00
907.784,1048.00
908.741,1048.00
909.696,1009.00
910.653,1032.00
911.607,1009.50
912.564,986.50
913.518,1010.00
914.475,1012.50
915.429,1001.50
916.385,1045.00
917.339,1038.50
918.295,1073.00
919.249,1037.00
920.205,1077.50
921.158,1087.00
922.114,1051.00
923.067,1053.00
924.020,1014.50
924.976,1032.00
925.929,1081.00
926.884,1034.50
927.837,1009.50
928.791,1015.00
929.744,1055.50
930.699,1029.50
931.651,1027.00
932.606,1015.50
933.558,1074.50
934.512,999.00
935.464,1027.00
936.418,1062.00
937.370,1007.00
938.322,1022.50
939.276,1039.50
940.227,1024.00
941.181,1064.00
942.132,1087.50
943.085,1031.00
944.036,1051.50
944.990,1028.50
945.941,1090.00
946.893,1001.50
947.844,1065.00
948.797,1002.00
949.747,1005.50
950.700,1062.50
951.650,1029.50
952.601,1033.50
953.553,1031.00
954.503,997.00
955.455,1054.50
956.405,1086.50
957.356,1004.50
958.306,1052.50
959.258,1014.50
960.207,994.50
961.158,989.50
962.108,1033.00
963.059,1035.00
964.008,1044.50
964.959,977.00
965.908,1016.50
966.856,984.50
967.807,971.50
968.756,1042.00
969.706,1034.50
970.654,1044.00
971.605,997.00
972.553,1022.50
973.503,1013.50
974.451,994.50
975.401,956.00
976.348,993.00
977.296,1025.50
978.246,1027.00
979.193,1050.50
980.142,1014.00
981.090,959.50
982.039,958.00
982.986,977.50
983.935,1045.00
984.882,999.50
985.830,957.50
986.777,948.00
987.725,976.00
988.672,953.50
989.618,952.50
990.567,965.50
991.513,953.00
992.461,966.50
993.407,892.00
994.354,937.00
995.300,922.50
996.248,987.50
997.193,987.50
998.141,998.00
999.086,952.50
1000.031,997.50
1000.978,1019.50
1001.924,973.50
1002.870,991.00
1003.815,982.50
1004.762,977.00
1005.707,977.00
1006.653,943.00
1007.598,928.00
1008.542,886.50
1009.488,942.50
1010.432,944.00
1011.378,937.50
1012.322,916.00
1013.268,937.50
1014.212,1000.00
1015.157,1001.00
1016.101,1004.00
1017.046,936.00
1017.990,918.00
1018.933,973.50
1019.878,972.50
1020.821,924.50
1021.766,933.50
1022.709,954.00
1023.654,955.00
1024.596,997.00
1025.541,995.50
1026.483,904.00
1027.425,1010.50
1028.370,879.50
1029.312,971.00
1030.256,1025.50
1031.198,938.50
1032.141,971.50
1033.083,953.00
1034.027,897.50
1034.968,927.00
1035.910,915.00
1036.853,956.00
1037.794,955.00
1038.738,948.00
1039.679,988.00
1040.621,941.00
1041.562,934.00
1042.503,964.50
1043.446,947.50
1044.386,970.50
1045.329,1004.00
1046.269,961.50
1047.211,957.50
1048.151,931.00
1049.093,972.00
1050.033,885.50
1050.973,979.50
1051.915,975.50
1052.854,964.50
1053.796,980.00
1054.735,1004.00
1055.677,951.00
1056.616,983.00
1057.555,1012.50
1058.496,984.00
1059.435,972.00
1060.376,966.50
1061.315,979.00
1062.255,1022.00
1063.194,993.50
1064.132,998.00
1065.073,1002.00
1066.011,1043.00
1066.951,1045.50
1067.889,994.50
1068.829,983.00
1069.767,1012.00
1070.705,985.00
1071.644,960.00
1072.582,980.00
1073.521,1058.50
1074.459,1010.50
1075.398,1007.50
1076.335,1008.00
1077.272,1000.50
1078.211,1026.50
1079.148,991.00
1080.087,1029.50
1081.023,1042.00
1081.962,1033.00
1082.898,1044.50
1083.835,996.50
1084.773,1034.00
1085.709,978.50
1086.647,968.00
1087.583,1012.00
1088.519,1032.50
1089.457,1075.00
1090.392,1042.50
1091.330,1021.00
1092.266,1032.00
1093.203,1018.50
1094.138,1038.00
1095.073,1046.00
1096.010,1080.50
1096.945,1059.50
1097.882,1045.50
1098.817,1135.00
1099.752,1065.50
1100.688,1058.00
1101.623,1067.50
1102.559,1026.50
1103.493,1076.50
1104.430,1033.50
1105.364,1054.50
1106.298,1020.00
1107.234,1039.00
1108.167,1017.50
1109.094,1026.50
1110.019,1063.00
1110.945,996.50
1111.869,992.00
1112.795,938.00
1113.720,979.00
1114.646,1019.00
1115.571,950.00
1116.495,992.50
1117.420,975.00
1118.345,934.00
1119.270,1021.00
1120.195,1040.50
1121.118,998.50
1122.042,1022.00
1122.967,965.00
1123.891,969.50
1124.816,958.50
1125.738,1007.50
1126.663,939.00
1127.587,906.00
1128.511,904.00
1129.435,953.00
1130.357,915.00
1131.280,922.50
1132.204,943.50
1133.128,896.00
1134.051,912.00
1134.972,889.50
1135.896,858.00
1136.819,869.00
1137.742,887.50
1138.665,866.00
1139.586,856.50
1140.509,874.50
1141.431,880.00
1142.354,870.50
1143.276,807.00
1144.197,829.50
1145.119,881.50
1146.041,798.00
1146.964,886.00
1147.885,855.00
1148.806,848.50
1149.727,843.00
1150.649,889.00
1151.571,801.50
1152.492,816.00
1153.412,828.00
1154.333,830.00
1155.254,843.50
1156.175,814.00
1157.095,778.00
1158.016,798.00
1158.936,808.00
1159.857,801.00
1160.778,805.50
1161.697,794.00
1162.617,807.50
1163.537,823.00
1164.458,788.00
1165.376,772.00
1166.296,850.00
1167.216,814.50
1168.136,766.50
1169.056,760.00
1169.974,816.50
1170.893,777.50
1171.813,794.50
1172.732,771.50
1173.650,761.50
1174.569,750.00
1175.488,789.50
1176.407,723.50
1177.326,778.00
1178.243,785.00
1179.161,763.50
1180.080,730.00
1180.999,731.00
1181.915,769.50
1182.834,769.00
1183.752,771.50
1184.670,757.50
1185.586,737.50
1186.504,730.50
1187.422,708.50
1188.340,824.50
1189.258,771.50
1190.173,812.00
1191.091,747.00
1192.008,729.50
1192.926,708.50
1193.841,703.50
1194.758,737.00
1195.675,669.00
1196.592,744.00
1197.507,707.00
1198.424,706.50
1199.340,713.50
1200.257,733.00
1201.172,690.50
1202.088,726.00
1203.004,729.00
1203.920,758.50
1204.835,721.50
1205.750,740.00
1206.666,650.00
1207.582,782.00
1208.496,762.50
1209.412,713.50
1210.327,698.50
1211.243,766.00
1212.156,702.00
1213.071,766.50
1213.986,759.00
1214.901,729.50
1215.814,658.00
1216.729,703.50
1217.644,718.50
1218.559,721.00
1219.471,757.50
1220.386,782.50
1221.300,711.50
1222.213,695.00
1223.127,762.50
1224.041,730.00
1224.955,739.00
1225.867,737.50
1226.781,735.50
1227.694,667.50
1228.608,720.50
1229.520,750.50
1230.433,749.50
1231.346,774.00
1232.260,717.00
1233.171,705.00
1234.084,708.00
1234.997,661.00
1235.908,691.50
1236.821,735.00
1237.733,714.50
1238.646,709.50
1239.556,735.50
1240.469,742.00
1241.381,670.50
1242.293,729.00
1243.203,682.50
1244.115,771.00
1245.027,764.00
1245.937,763.00
1246.849,737.00
1247.761,791.00
1248.672,727.50
1249.582,757.50
1250.493,705.50
1251.404,751.00
1252.313,677.00
1253.225,779.00
1254.135,811.00
1255.046,722.00
1255.955,770.00
1256.866,765.00
1257.777,733.00
1258.685,708.50
1259.596,750.00
1260.506,731.50
1261.416,784.00
1262.324,710.50
1263.234,749.50
1264.144,775.50
1265.052,766.50
1265.962,784.00
1266.872,734.50
1267.779,768.50
1268.689,749.00
1269.598,702.50
1270.507,770.50
1271.415,810.50
1272.324,709.00
1273.233,770.00
1274.140,791.50
1275.048,728.00
1275.957,741.00
1276.864,760.50
1277.772,758.00
1278.681,789.00
1279.587,771.50
1280.496,779.00
1281.404,788.50
1282.312,788.50
1283.218,770.50
1284.126,771.50
1285.033,782.00
1285.939,747.00
1286.847,728.00
1287.754,786.50
1288.660,803.00
1289.567,794.50
1290.474,826.00
1291.380,732.00
1292.286,757.00
1293.193,820.50
1294.098,711.50
1295.005,776.00
1295.912,781.50
1296.816,753.00
1297.723,800.00
1298.629,788.50
1299.534,782.50
1300.440,780.00
1301.346,772.50
1302.250,756.00
1303.156,743.00
1304.062,738.00
1304.966,757.50
1305.871,780.50
1306.777,805.50
1307.680,745.50
1308.586,763.50
1309.491,735.50
1310.394,799.00
1311.299,781.50
1312.204,789.00
1313.107,745.00
1314.012,782.50
1314.917,782.00
1315.819,805.50
1316.724,774.00
1317.628,740.00
1318.531,827.00
1319.435,727.00
1320.339,782.00
1321.241,756.50
1322.145,773.50
1323.049,740.00
1323.951,762.00
1324.854,742.50
1325.756,771.00
1326.659,704.00
1327.563,751.00
1328.464,734.50
1329.367,751.50
1330.271,772.50
1331.172,748.00
1332.074,722.00
1332.977,739.50
1333.878,748.50
1334.781,715.00
1335.683,736.50
1336.584,708.00
1337.486,701.00
1338.387,748.00
1339.289,702.00
1340.191,691.00
1341.091,721.00
1341.993,689.00
1342.895,683.00
1343.794,691.50
1344.696,633.50
1345.596,689.00
1346.497,667.50
1347.398,735.00
1348.298,690.00
1349.199,705.50
1350.100,730.00
1350.999,685.50
1351.900,663.00
1352.799,648.50
1353.699,658.50
1354.600,649.00
1355.499,701.00
1356.399,669.00
1357.297,660.00
1358.198,647.50
1359.098,663.00
1359.996,609.00
1360.896,634.50
1361.796,667.00
1362.694,642.00
1363.593,621.50
1364.491,608.00
1365.391,633.00
1366.290,636.00
1367.187,636.50
1368.086,626.00
1368.984,681.50
1369.883,641.50
1370.782,628.00
1371.679,568.00
1372.577,623.50
1373.474,591.50
1374.373,557.00
1375.269,558.00
1376.168,614.00
1377.066,594.00
1377.962,649.00
1378.860,651.00
1379.756,644.00
1380.654,635.50
1381.552,616.00
1382.448,669.00
1383.346,613.00
1384.241,621.00
1385.139,621.00
1386.036,608.50
1386.931,619.00
1387.829,634.00
1388.724,586.50
1389.621,619.50
1390.516,552.00
1391.413,545.00
1392.309,606.00
1393.204,572.00
1394.101,563.00
1394.995,639.50
1395.891,585.50
1396.786,528.00
1397.682,612.50
1398.578,626.50
1399.472,592.00
1400.368,570.50
1401.262,593.50
1402.158,580.00
1403.051,599.00
1403.947,588.50
1404.840,595.00
1405.736,596.00
1406.631,576.50
1407.524,594.00
1408.419,546.50
1409.312,567.50
1410.207,578.00
1411.100,540.00
1411.995,616.00
1412.888,534.00
1413.782,587.00
1414.675,556.00
1415.569,508.00
1416.463,550.00
1417.355,545.50
1418.249,545.50
1419.141,546.00
1420.035,580.00
1420.927,570.00
1421.821,526.00
1422.713,541.50
1423.606,536.50
1424.498,550.00
1425.391,534.50
1426.282,544.00
1427.175,565.00
1428.068,486.50
1428.960,540.50
1429.852,511.00
1430.743,595.00
1431.636,533.00
1432.527,571.00
1433.419,521.00
1434.310,525.00
1435.202,509.00
1436.092,520.00
1436.984,525.00
1437.875,477.00
1438.767,578.00
1439.657,556.50
1440.548,568.50
1441.438,526.00
1442.330,561.50
1443.219,567.50
1444.111,498.00
1445.000,610.00
1445.891,500.00
1446.781,548.00
1447.672,494.50
1448.561,494.00
1449.452,463.00
1450.340,550.00
1451.231,513.50
1452.120,520.00
1453.010,521.00
1453.899,524.50
1454.789,507.00
1455.677,578.00
1456.568,465.50
1457.456,560.00
1458.346,540.00
1459.234,538.50
1460.123,529.00
1461.011,460.00
1461.901,511.00
1462.788,514.50
1463.678,512.00
1464.565,483.50
1465.454,463.00
1466.342,462.00
1467.231,497.50
1468.118,483.00
1469.006,500.00
1469.893,474.00
1470.782,515.00
1471.669,565.00
1472.557,522.00
1473.444,458.50
1474.330,481.00
1475.218,469.00
1476.105,496.00
1476.993,486.00
1477.879,479.00
1478.767,485.50
1479.652,488.00
1480.540,513.00
1481.426,477.00
1482.313,467.00
1483.199,473.00
1484.086,470.00
1484.972,534.50
1485.857,483.00
1486.744,452.50
1487.629,475.50
1488.516,517.00
1489.401,456.00
1490.287,477.50
1491.172,441.00
1492.058,446.00
1492.943,558.50
1493.828,476.00
1494.714,442.00
1495.598,453.00
1496.484,461.00
1497.368,449.00
1498.254,515.00
1499.138,433.00
1500.022,540.00
1500.907,449.50
1501.791,493.00
1502.676,455.00
1503.560,436.50
1504.445,454.00
1505.328,486.00
1506.211,469.50
1507.096,450.50
1507.979,429.00
1508.864,461.00
1509.747,461.00
1510.631,454.00
1511.514,435.00
1512.397,418.50
1513.281,467.00
1514.163,451.00
1515.047,470.00
1515.930,443.00
1516.812,435.00
1517.696,465.00
1518.578,438.00
1519.461,448.00
1520.343,436.00
1521.225,465.00
1522.108,454.00
1522.990,445.50
1523.873,444.00
1524.754,493.00
1525.635,447.00
1526.518,410.00
1527.399,391.00
1528.282,458.50
1529.163,462.50
1530.044,422.00
1530.926,451.50
1531.807,429.50
1532.689,408.00
1533.569,451.50
1534.450,420.00
1535.332,435.00
1536.212,483.50
1537.092,476.00
1537.974,424.00
1538.854,402.50
1539.735,433.00
1540.615,380.00
1541.495,473.50
1542.376,449.00
1543.255,399.00
1544.135,475.50
1545.016,442.50
1545.895,451.00
1546.774,450.50
1547.655,393.50
1548.534,459.00
1549.414,422.50
1550.293,468.00
1551.172,408.50
1552.052,409.50
1552.930,460.50
1553.809,434.00
1554.689,455.50
1555.567,461.00
1556.445,426.00
1557.325,432.50
1558.203,402.50
1559.080,438.00
1559.960,420.50
1560.838,472.00
1561.715,461.00
1562.594,468.50
1563.472,423.50
1564.349,440.00
1565.228,384.50
1566.105,438.00
1566.982,395.50
1567.861,452.50
1568.738,418.50
1569.615,411.00
1570.493,458.50
1571.370,445.00
1572.246,421.00
1573.124,453.00
1574.000,435.50
1574.877,411.50
1575.755,391.00
1576.631,427.00
1577.507,380.50
1578.384,401.00
1579.260,396.50
1580.136,381.00
1581.011,399.00
1581.889,387.00
1582.764,395.00
1583.639,450.00
1584.516,396.50
1585.391,483.50
1586.266,400.00
1587.143,378.00
1588.018,449.50
1588.893,404.50
1589.768,448.50
1590.644,440.00
1591.519,382.50
1592.393,423.00
1593.269,411.00
1594.143,385.50
1595.018,426.00
1595.892,400.50
1596.767,421.00
1597.641,417.00
1598.515,416.50
1599.391,422.50
1600.264,432.00
1601.138,429.00
1602.011,372.50
1602.886,359.00
1603.760,354.00
1604.633,416.50
1605.508,403.00
1606.381,382.50
1607.254,375.00
1608.127,421.00
1609.001,434.50
1609.874,478.50
1610.746,413.50
1611.619,405.00
1612.493,393.50
1613.365,358.00
1614.238,422.00
1615.110,400.50
1615.984,364.50
1616.855,448.00
1617.727,439.00
1618.599,378.50
1619.473,437.00
1620.344,330.50
1621.216,390.00
1622.087,467.00
1622.960,402.50
1623.832,376.50
1624.703,356.00
1625.574,444.50
1626.445,405.00
1627.317,381.00
1628.188,413.00
1629.059,360.00
1629.930,388.00
1630.802,388.50
1631.672,391.50
1632.543,413.50
1633.413,404.50
1634.283,424.00
1635.155,392.50
1636.025,410.50
1636.895,348.50
1637.765,365.00
1638.636,402.50
1639.506,336.50
1640.376,400.50
1641.245,385.50
1642.114,386.00
1642.985,374.50
1643.855,412.50
1644.724,392.50
1645.593,462.00
1646.462,403.50
1647.333,432.00
1648.201,415.00
1649.070,372.50
1649.939,365.00
1650.807,387.00
1651.676,400.50
1652.546,358.50
1653.414,418.50
1654.282,401.00
1655.150,374.00
1656.018,426.50
1656.888,367.50
1657.756,398.50
1658.623,428.00
1659.491,421.50
1660.359,328.00
1661.226,394.50
1662.095,375.00
1662.962,397.50
1663.830,408.50
1664.697,421.50
1665.564,369.00
1666.431,365.00
1667.297,361.50
1668.166,372.50
1669.033,377.00
1669.899,395.50
1670.766,336.00
1671.632,358.00
1672.499,368.50
1673.367,348.50
1674.233,396.50
1675.099,411.00
1675.965,371.50
1676.831,408.50
1677.696,400.50
1678.562,291.00
1679.430,362.00
1680.295,348.50
1681.161,379.50
1682.026,386.00
1682.891,362.00
1683.756,376.50
1684.621,331.50
1685.486,388.50
1686.353,362.00
1687.218,372.50
1688.083,338.50
1688.947,352.50
1689.812,379.00
1690.677,364.50
1691.541,359.00
1692.405,353.00
1693.269,390.50
1694.135,357.50
1694.999,392.50
1695.863,360.00
1696.727,413.50
1697.591,328.00
1698.455,332.50
1699.318,328.00
1700.182,333.00
1701.045,358.50
1701.909,373.50
1702.772,348.50
1703.637,378.50
1704.500,341.50
1705.363,408.00
1706.226,321.00
1707.089,360.00
1707.951,400.00
1708.814,353.50
1709.677,389.50
1710.539,393.50
1711.402,309.50
1712.264,313.00
1713.126,366.50
1713.988,311.50
1714.852,325.50
1715.714,354.00
1716.576,407.00
1717.438,345.50
1718.299,360.50
1719.161,381.00
1720.023,331.00
1720.884,361.50
1721.745,350.00
1722.607,361.50
1723.468,358.00
1724.329,375.50
1725.190,359.00
1726.051,403.50
1726.912,355.50
1727.772,332.00
1728.633,378.50
1729.494,394.50
1730.354,345.50
1731.214,393.00
1732.075,338.00
1732.935,339.00
1733.797,344.00
1734.657,345.50
1735.517,337.50
1736.377,389.50
1737.237,364.50
1738.096,332.50
1738.956,348.00
1739.816,401.00
1740.675,358.50
1741.534,339.00
1742.394,327.50
1743.253,323.50
1744.112,358.50
1744.971,367.50
1745.830,318.00
1746.689,343.50
1747.547,319.00
1748.406,327.50
1749.265,337.50
1750.123,366.50
1750.982,320.00
1751.840,308.00
1752.698,335.50
1753.556,332.00
1754.414,375.00
1755.272,367.50
1756.130,353.50
1756.988,343.50
1757.846,361.00
1758.703,314.00
1759.559,332.00
1760.417,363.00
1761.274,383.00
1762.131,319.50
1762.989,316.00
1763.846,390.50
1764.703,338.00
1765.560,371.50
1766.417,355.00
1767.273,374.00
1768.130,353.00
1768.987,372.00
1769.843,319.50
1770.700,389.50
1771.556,355.50
1772.412,362.50
1773.268,321.50
1774.125,345.00
1774.980,338.50
1775.836,363.50
1776.692,331.50
1777.546,351.00
1778.402,390.00
1779.257,313.50
1780.113,353.00
1780.968,270.00
1781.824,359.50
1782.679,358.00
1783.534,310.50
1784.389,332.50
1785.244,315.50
1786.099,380.50
1786.954,325.00
1787.808,350.50
1788.661,306.50
1789.516,354.00
1790.370,335.50
1791.225,346.00
1792.079,348.50
1792.933,396.00
1793.787,343.50
1794.641,348.00
1795.495,385.00
1796.349,366.00
1797.201,286.50
1798.055,335.50
1798.908,339.00
1799.762,348.50
1800.615,346.00
1801.469,360.00
1802.322,353.50
1803.175,323.50
1804.028,362.00
1804.880,351.00
1805.732,308.00
1806.585,364.50
1807.438,327.50
1808.291,309.00
1809.143,335.00
1809.996,313.00
1810.846,343.00
1811.699,333.50
1812.551,339.00
1813.403,329.50
1814.255,331.50
1815.107,349.50
1815.959,338.50
1816.809,305.50
1817.661,332.50
1818.512,340.00
1819.364,335.00
1820.215,346.50
1821.067,300.50
1821.918,315.00
1822.768,318.50
1823.619,406.00
1824.470,325.50
1825.321,351.50
1826.172,363.00
1827.021,346.50
1827.871,324.00
1828.722,319.50
1829.572,318.50
1830.423,335.00
1831.273,274.50
1832.122,327.50
1832.972,386.50
1833.822,284.50
1834.672,357.00
1835.522,279.00
1836.370,345.00
1837.220,350.50
1838.070,332.50
1838.919,291.50
1839.769,350.50
1840.616,316.50
1841.466,342.00
1842.315,323.00
1843.164,310.50
1844.013,305.50
1844.860,311.00
1845.709,352.00
1846.558,342.00
1847.407,324.00
1848.254,315.50
1849.102,332.00
1849.951,306.50
1850.799,305.00
1851.648,299.00
1852.494,325.00
1853.342,322.50
1854.190,340.50
1855.038,312.50
1855.884,356.50
1856.732,267.50
1857.580,303.50
1858.428,364.00
1859.273,297.00
1860.121,296.00
1860.968,326.50
1861.816,333.50
1862.661,306.00
1863.508,340.50
1864.355,288.00
1865.202,284.50
1866.047,355.50
1866.894,336.00
1867.741,368.50
1868.586,298.50
1869.432,331.50
1870.279,303.50
1871.125,324.00
1871.970,312.50
1872.816,323.50
1873.662,307.00
1874.506,314.00
1875.352,349.00
1876.198,332.50
1877.044,346.50
1877.888,304.50
1878.734,310.00
1879.579,318.50
1880.423,305.50
1881.268,274.00
1882.113,366.00
1882.959,323.00
1883.802,322.00
1884.647,292.50
1885.492,321.00
1886.335,334.50
1887.180,357.00
1888.025,311.00
1888.867,332.00
1889.712,301.50
1890.556,368.50
1891.399,281.50
1892.243,317.50
1893.087,316.00
1893.930,289.00
1894.774,307.50
1895.618,316.00
1896.460,306.00
1897.304,300.00
1898.147,318.50
1898.989,331.50
1899.833,348.00
1900.676,340.00
1901.518,267.00
1902.361,380.00
1903.202,332.00
1904.046,344.00
1904.889,244.00
1905.730,294.50
1906.573,335.00
1907.415,277.50
1908.256,331.50
1909.099,350.00
1909.941,341.50
1910.782,301.00
1911.624,354.50
1912.465,310.00
1913.307,399.50
1914.149,338.50
1914.989,329.00
1915.831,278.00
1916.671,334.50
1917.513,303.00
1918.355,316.00
1919.195,313.00
1920.036,308.50
1920.876,318.00
1921.717,349.00
1922.558,336.50
1923.398,356.00
1924.239,315.00
1925.078,316.50
1925.919,330.00
1926.760,338.50
1927.599,327.50
1928.440,302.50
1929.279,292.00
1930.119,329.50
1930.958,268.00
1931.798,297.00
1932.638,294.00
1933.477,276.00
1934.317,312.50
1935.155,335.50
1935.995,315.00
1936.833,314.50
1937.673,312.00
1938.512,318.00
1939.350,281.50
1940.190,313.00
1941.027,278.50
1941.867,336.50
1942.704,338.00
1943.543,325.00
1944.381,268.50
1945.220,265.00
1946.057,274.50
1946.896,317.50
1947.733,345.50
1948.572,300.00
1949.408,301.00
1950.247,304.50
1951.085,292.50
1951.922,313.00
1952.760,295.50
1953.597,295.50
1954.435,333.00
1955.271,347.00
1956.109,320.00
1956.945,340.00
1957.783,315.50
1958.619,232.00
1959.456,276.00
1960.292,317.00
1961.129,275.00
1961.965,318.50
1962.802,318.50
1963.638,291.00
1964.475,266.50
1965.310,345.00
1966.145,308.00
1966.982,317.00
1967.817,291.50
1968.654,323.50
1969.489,295.00
1970.325,320.50
1971.160,352.00
1971.996,245.50
1972.831,332.50
1973.667,352.50
1974.501,339.00
1975.337,263.50
1976.171,309.50
1977.006,275.00
1977.841,353.50
1978.675,303.00
1979.511,295.00
1980.345,347.50
1981.180,302.00
1982.014,308.00
1982.849,338.00
1983.682,322.50
1984.516,287.00
1985.351,293.50
1986.184,312.50
1987.019,307.00
1987.852,343.50
1988.687,309.00
1989.519,303.50
1990.352,324.50
1991.187,297.50
1992.019,360.50
1992.854,290.00
1993.686,318.00
1994.518,322.00
1995.352,345.00
1996.185,306.50
1997.019,337.50
1997.851,298.00
1998.682,362.00
1999.516,315.50
2000.348,335.00

<< BACKGROUND SPECTRUM >>
Wave[dcm-1],No40
96.716,2582.00
97.759,2348.00
98.802,2297.00
99.846,2957.00
100.886,2568.00
101.929,2761.00
102.972,2796.00
104.015,2650.00
105.057,2766.00
106.100,2236.00
107.142,2638.00
108.184,3009.00
109.226,2856.00
110.268,3029.00
111.310,3333.00
112.352,2925.00
113.393,2978.00
114.435,2852.00
115.476,3083.00
116.517,3114.00
117.558,2586.00
118.599,2968.00
119.640,3245.00
120.681,3231.00
121.722,3213.00
122.762,2920.00
123.803,2744.00
124.843,3119.00
125.883,3398.00
126.923,3627.00
127.963,3329.00
129.001,3573.00
130.041,4010.00
131.080,3264.00
132.120,3146.00
133.159,3563.00
134.199,3630.00
135.238,3197.00
136.277,3537.00
137.316,3728.00
138.355,3635.00
139.393,3212.00
140.432,3339.00
141.470,3467.00
142.509,3181.00
143.547,3762.00
144.585,2944.00
145.623,3367.00
146.661,3154.00
147.699,3538.00
148.736,3592.00
149.774,3241.00
150.811,3498.00
151.849,3969.00
152.886,3425.00
153.923,3684.00
154.960,3155.00
155.997,3928.00
157.034,4915.00
158.072,3578.00
159.109,4132.00
160.145,4218.00
161.182,3220.00
162.218,3518.00
163.254,3337.00
164.290,3260.00
165.326,4017.00
166.361,3873.00
167.397,3556.00
168.432,3727.00
169.468,3436.00
170.503,3711.00
171.538,3387.00
172.573,3749.00
173.608,3166.00
174.643,3744.00
175.677,3651.00
176.712,3783.00
177.746,3826.00
178.781,3345.00
179.815,2692.00
180.849,3806.00
181.883,3298.00
182.917,2816.00
183.951,3115.00
184.984,3833.00
186.020,3321.00
187.053,3640.00
188.087,3220.00
189.120,3479.00
190.153,3739.00
191.186,3722.00
192.219,3817.00
193.251,3684.00
194.284,3810.00
195.317,3882.00
196.349,10744.00
197.381,3450.00
198.413,3496.00
199.445,3269.00
200.477,3525.00
201.509,3596.00
202.543,3529.00
203.575,3908.00
204.606,3718.00
205.637,5226.00
206.669,3153.00
207.700,3847.00
208.731,3585.00
209.762,3185.00
210.792,3213.00
211.823,3651.00
212.854,3250.00
213.884,4358.00
214.914,3707.00
215.947,3554.00
216.977,3675.00
218.007,3569.00
219.037,3825.00
220.066,3366.00
221.096,3856.00
222.126,3234.00
223.155,3379.00
224.184,3747.00
225.214,4268.00
226.245,3905.00
227.274,3308.00
228.302,3642.00
229.331,3718.00
230.360,3441.00
231.388,3407.00
232.417,3196.00
233.445,3685.00
234.473,3393.00
235.501,3742.00
236.531,3727.00
237.559,3637.00
238.587,3363.00
239.614,3330.00
240.642,3637.00
241.669,3698.00
242.696,3746.00
243.724,3723.00
244.753,4056.00
245.780,3399.00
246.806,3252.00
247.833,3629.00
248.860,3447.00
249.886,3628.00
250.913,3254.00
251.939,3553.00
252.967,3527.00
253.993,3487.00
255.019,3876.00
256.045,3601.00
257.070,4039.00
258.096,3331.00
259.121,3715.00
260.147,3533.00
261.174,3474.00
262.199,3371.00
263.224,3579.00
264.249,3898.00
265.274,4098.00
266.298,3533.00
267.323,3631.00
268.349,3887.00
269.374,3265.00
270.398,3304.00
271.422,3711.00
272.446,3314.00
273.470,3130.00
274.496,3715.00
275.519,3733.00
276.543,3879.00
277.566,3953.00
278.589,3837.00
279.613,3739.00
280.636,3750.00
281.661,3871.00
282.684,3851.00
283.706,3974.00
284.729,4155.00
285.751,3029.00
286.774,4007.00
287.798,3399.00
288.820,3009.00
289.842,3358.00
290.864,3354.00
291.886,3623.00
292.910,3466.00
293.932,4074.00
294.953,3557.00
295.974,3569.00
296.996,3710.00
298.017,3552.00
299.040,3364.00
300.061,3698.00
301.082,3422.00
302.102,3280.00
303.123,3808.00
304.143,3600.00
305.166,3540.00
306.186,3797.00
307.206,3348.00
308.226,3756.00
309.246,3096.00
310.268,3916.00
311.288,3550.00
312.307,3268.00
313.327,3552.00
314.346,3800.00
315.368,3029.00
316.387,3681.00
317.406,3644.00
318.425,3580.00
319.443,3484.00
320.464,3158.00
321.483,4022.00
322.501,3329.00
323.520,3977.00
324.538,3453.00
325.558,4080.00
326.576,3632.00
327.594,3562.00
328.612,3451.00
329.629,3139.00
330.649,3797.00
331.666,3549.00
332.684,3180.00
333.701,3718.00
334.718,3198.00
335.737,3423.00
336.754,3735.00
337.771,3817.00
338.787,3196.00
339.806,3464.00
340.823,3471.00
341.839,3606.00
342.855,3455.00
343.871,3548.00
344.889,3345.00
345.905,3830.00
346.921,3721.00
347.937,4331.00
348.954,4160.00
349.970,3667.00
350.985,3592.00
352.000,3135.00
353.017,3786.00
354.032,3168.00
355.047,3819.00
356.062,3496.00
357.077,3414.00
358.093,3972.00
359.108,3721.00
360.122,3607.00
361.136,3484.00
362.152,3989.00
363.166,3241.00
364.180,3139.00
365.194,4010.00
366.210,3385.00
367.223,3322.00
368.237,3414.00
369.250,3610.00
370.265,3332.00
371.278,3919.00
372.291,3688.00
373.304,3036.00
374.319,3720.00
375.332,3820.00
376.344,4071.00
377.357,3472.00
378.371,3865.00
379.383,3384.00
380.395,4368.00
381.407,4130.00
382.421,3461.00
383.433,3419.00
384.445,3420.00
385.456,3553.00
386.470,3112.00
387.481,4006.00
388.492,3939.00
389.505,3256.00
390.516,4027.00
391.527,3517.00
392.538,3465.00
393.551,3730.00
394.561,4336.00
395.572,3706.00
396.582,3618.00
397.594,3787.00
398.604,3429.00
399.614,3649.00
400.624,3420.00
401.636,3429.00
402.646,3502.00
403.655,3214.00
404.667,3410.00
405.676,3373.00
406.685,4335.00
407.694,3928.00
408.705,3045.00
409.714,3124.00
410.723,3306.00
411.734,3306.00
412.742,3405.00
413.751,3630.00
414.759,3625.00
415.769,3561.00
416.777,3828.00
417.785,3523.00
418.795,3384.00
419.803,3603.00
420.811,3286.00
421.818,3981.00
422.828,3459.00
423.835,3404.00
424.842,3395.00
425.852,3296.00
426.859,3666.00
427.866,3734.00
428.874,3605.00
429.881,3507.00
430.888,3784.00
431.894,3613.00
432.902,3536.00
433.909,4566.00
434.915,3646.00
435.923,4245.00
436.929,3115.00
437.935,3540.00
438.942,3388.00
439.948,3577.00
440.953,4114.00
441.959,3191.00
442.966,3969.00
443.971,3725.00
444.976,3187.00
445.983,3628.00
446.988,3419.00
447.993,4059.00
448.999,3599.00
450.004,3551.00
451.008,3352.00
452.014,4058.00
453.019,3810.00
454.023,3230.00
455.029,3190.00
456.032,4009.00
457.036,3488.00
458.042,2913.00
459.045,3436.00
460.049,3737.00
461.052,4071.00
462.057,3768.00
463.060,4042.00
464.063,3400.00
465.068,3486.00
466.071,3343.00
467.073,3880.00
468.078,3148.00
469.080,3089.00
470.082,3600.00
471.087,3459.00
472.089,3597.00
473.091,3812.00
474.095,3995.00
475.096,3461.00
476.098,3407.00
477.101,3762.00
478.103,3292.00
479.104,4186.00
480.107,3455.00
481.108,3050.00
482.109,4245.00
483.112,4193.00
484.113,3761.00
485.114,3799.00
486.116,3593.00
487.117,3886.00
488.117,3634.00
489.119,3734.00
490.119,3787.00
491.121,3230.00
492.121,3053.00
493.121,2908.00
494.123,3584.00
495.122,3618.00
496.122,3560.00
497.123,4498.00
498.122,3325.00
499.121,3616.00
500.122,3580.00
501.121,3193.00
502.120,3145.00
503.121,3295.00
504.119,3228.00
505.118,3757.00
506.118,3250.00
507.117,3278.00
508.115,3783.00
509.115,3608.00
510.113,3142.00
511.112,3753.00
512.110,3441.00
513.108,3799.00
514.107,3924.00
515.105,3729.00
516.102,3982.00
517.101,3538.00
518.098,3662.00
519.095,4049.00
520.094,3367.00
521.091,3425.00
522.089,3652.00
523.086,3361.00
524.082,3706.00
525.081,3631.00
526.077,4775.00
527.073,4508.00
528.071,3495.00
529.067,3368.00
530.064,3410.00
531.060,3194.00
532.056,3409.00
533.053,3834.00
534.048,3781.00
535.044,3576.00
536.041,3728.00
537.036,3583.00
538.030,3724.00
539.027,3851.00
540.022,3161.00
541.019,3529.00
542.013,3806.00
543.007,3648.00
544.004,3439.00
544.998,3526.00
545.994,4118.00
546.988,3940.00
547.981,3412.00
548.977,4179.00
549.971,3712.00
550.964,3788.00
551.960,3656.00
552.953,3528.00
553.948,3835.00
554.941,3409.00
555.934,3229.00
556.929,3713.00
557.922,3312.00
558.916,3807.00
559.909,4034.00
560.901,3651.00
561.895,3667.00
562.888,3289.00
563.880,3771.00
564.874,3921.00
565.865,3771.00
566.859,3246.00
567.851,4058.00
568.842,3483.00
569.836,3547.00
570.827,3259.00
571.820,3664.00
572.811,3736.00
573.802,3571.00
574.795,3295.00
575.786,3883.00
576.779,3692.00
577.769,3196.00
578.760,3623.00
579.752,3254.00
580.742,3398.00
581.735,3713.00
582.725,3361.00
583.714,3770.00
584.706,3264.00
585.696,3529.00
586.688,3794.00
587.677,3462.00
588.667,3693.00
589.658,3544.00
590.647,3694.00
591.638,3640.00
592.627,3357.00
593.616,3090.00
594.607,3676.00
595.595,3581.00
596.586,3185.00
597.574,3891.00
598.562,3901.00
599.553,3201.00
600.541,3599.00
601.531,3626.00
602.519,3422.00
603.508,3691.00
604.496,3699.00
605.484,3635.00
606.473,3509.00
607.460,3425.00
608.450,3434.00
609.437,3718.00
610.424,3871.00
611.413,3111.00
612.400,3287.00
613.388,3621.00
614.375,3400.00
615.361,3482.00
616.350,3282.00
617.336,8330.00
618.324,3887.00
619.310,3429.00
620.298,3244.00
621.284,3677.00
622.270,3269.00
623.257,3586.00
624.243,3579.00
625.230,3785.00
626.216,3539.00
627.203,3894.00
628.188,3453.00
629.173,3439.00
630.160,3262.00
631.145,2659.00
632.131,3377.00
633.116,3215.00
634.102,3646.00
635.087,3789.00
636.071,3823.00
637.057,3342.00
638.041,3091.00
639.027,3276.00
640.011,3427.00
640.995,3254.00
641.980,3273.00
642.964,3407.00
643.949,3936.00
644.932,2810.00
645.918,3349.00
646.901,3518.00
647.886,3347.00
648.868,3409.00
649.851,3180.00
650.836,2983.00
651.818,3240.00
652.803,3710.00
653.785,3475.00
654.769,3717.00
655.751,3606.00
656.733,3937.00
657.717,3097.00
658.699,3555.00
659.683,3279.00
660.664,3185.00
661.648,3350.00
662.629,3347.00
663.611,3278.00
664.594,3082.00
665.575,3086.00
666.558,3444.00
667.539,3122.00
668.521,3369.00
669.502,3373.00
670.484,3360.00
671.465,3236.00
672.445,3437.00
673.427,3254.00
674.407,3211.00
675.390,3565.00
676.369,3361.00
677.351,2982.00
678.331,3561.00
679.312,3375.00
680.292,3251.00
681.271,2971.00
682.253,3561.00
683.232,3055.00
684.213,3227.00
685.192,3687.00
686.172,3982.00
687.151,3387.00
688.132,3450.00
689.110,3579.00
690.089,3718.00
691.069,2881.00
692.047,2822.00
693.027,2988.00
694.005,3475.00
694.985,4013.00
695.963,3519.00
696.943,3221.00
697.920,3004.00
698.898,3799.00
699.877,3615.00
700.854,3218.00
701.833,3242.00
702.810,3729.00
703.789,3434.00
704.766,4478.00
705.745,3941.00
706.721,3176.00
707.698,3734.00
708.676,3053.00
709.653,3244.00
710.631,3663.00
711.607,3377.00
712.585,3413.00
713.561,3099.00
714.539,3912.00
715.514,3339.00
716.492,3110.00
717.467,3783.00
718.443,3039.00
719.420,3652.00
720.395,3767.00
721.372,3501.00
722.347,3667.00
723.324,3203.00
724.298,3373.00
725.275,3118.00
726.250,3274.00
727.226,3171.00
728.200,2959.00
729.176,3291.00
730.151,3561.00
731.125,3788.00
732.100,2962.00
733.074,3315.00
734.050,3199.00
735.023,3014.00
735.999,3329.00
736.972,3225.00
737.947,3702.00
738.921,3418.00
739.896,3585.00
740.869,3427.00
741.841,3266.00
742.816,3761.00
743.789,3084.00
744.763,3042.00
745.736,3323.00
746.710,3188.00
747.682,3098.00
748.656,3309.00
749.628,3285.00
750.602,3295.00
751.574,3389.00
752.548,4177.00
753.519,3471.00
754.491,2919.00
755.464,3150.00
756.435,3958.00
757.408,3607.00
758.379,3466.00
759.352,2919.00
760.323,2981.00
761.296,3248.00
762.267,3410.00
763.239,3076.00
764.209,3554.00
765.182,4446.00
766.152,3645.00
767.124,3060.00
768.094,3097.00
769.064,3524.00
770.036,2984.00
771.005,3618.00
771.977,3169.00
772.947,3246.00
773.918,3700.00
774.887,3285.00
775.858,3096.00
776.827,3210.00
777.798,3245.00
778.767,3836.00
779.738,3271.00
780.707,3172.00
781.677,3352.00
782.646,3110.00
783.614,3704.00
784.584,3350.00
785.552,3509.00
786.522,2965.00
787.490,3237.00
788.460,3180.00
789.428,3172.00
790.397,3731.00
791.365,2991.00
792.334,3218.00
793.302,3352.00
794.271,3452.00
795.238,3143.00
796.207,3162.00
797.174,3561.00
798.143,2980.00
799.109,3640.00
800.076,3190.00
801.044,2889.00
802.011,3070.00
802.979,3077.00
803.945,3317.00
804.913,3921.00
805.879,3230.00
806.847,2944.00
807.813,3594.00
808.780,3247.00
809.746,3206.00
810.713,3676.00
811.678,2981.00
812.646,3225.00
813.611,3263.00
814.578,2973.00
815.543,3617.00
816.510,2878.00
817.474,3154.00
818.439,3186.00
819.405,3534.00
820.370,3063.00
821.336,2980.00
822.300,3369.00
823.266,3224.00
824.230,3397.00
825.196,3291.00
826.160,3645.00
827.126,3607.00
828.089,4001.00
829.055,3351.00
830.018,3362.00
830.983,4082.00
831.946,3102.00
832.911,3154.00
833.874,3859.00
834.837,3089.00
835.802,3176.00
836.765,3733.00
837.729,3133.00
838.691,3226.00
839.656,3551.00
840.618,3432.00
841.582,3503.00
842.544,3590.00
843.508,3761.00
844.470,2967.00
845.434,2861.00
846.395,2763.00
847.359,3184.00
848.320,2915.00
849.283,3047.00
850.245,3154.00
851.208,3495.00
852.169,3201.00
853.130,2962.00
854.092,3430.00
855.053,3188.00
856.016,3179.00
856.976,3151.00
857.938,3248.00
858.899,3269.00
859.861,2912.00
860.821,3162.00
861.783,2571.00
862.743,3233.00
863.704,3506.00
864.664,2760.00
865.626,3349.00
866.585,3067.00
867.546,3326.00
868.506,3289.00
869.467,2781.00
870.426,3290.00
871.387,3458.00
872.346,3557.00
873.304,3366.00
874.265,3443.00
875.223,3281.00
876.184,3336.00
877.142,3106.00
878.102,3256.00
879.060,3215.00
880.021,3330.00
880.978,2844.00
881.938,3208.00
882.896,3576.00
883.856,3407.00
884.813,3153.00
885.772,3148.00
886.730,3429.00
887.689,3408.00
888.646,3059.00
889.603,3639.00
890.562,3620.00
891.519,3306.00
892.477,3377.00
893.434,3298.00
894.392,2815.00
895.349,3244.00
896.307,3348.00
897.263,3478.00
898.221,3256.00
899.177,3098.00
900.135,3457.00
901.091,3205.00
902.048,3681.00
903.004,3173.00
903.961,3044.00
904.917,3166.00
905.874,3246.00
906.829,2963.00
907.784,3258.00
908.741,3268.00
909.696,3128.00
910.653,2748.00
911.607,3171.00
912.564,3144.00
913.518,3156.00
914.475,3324.00
915.429,4925.00
916.385,2958.00
917.339,3581.00
918.295,3329.00
919.249,3425.00
920.205,3250.00
921.158,3352.00
922.114,3154.00
923.067,3255.00
924.020,3322.00
924.976,3132.00
925.929,3357.00
926.884,3312.00
927.837,3539.00
928.791,3472.00
929.744,2925.00
930.699,3291.00
931.651,3257.00
932.606,2890.00
933.558,3116.00
934.512,3450.00
935.464,3354.00
936.418,3587.00
937.370,3417.00
938.322,3005.00
939.276,3145.00
940.227,3268.00
941.181,3323.00
942.132,3619.00
943.085,3854.00
944.036,2822.00
944.990,3536.00
945.941,3015.00
946.893,3118.00
947.844,2885.00
948.797,3380.00
949.747,4008.00
950.700,3122.00
951.650,2672.00
952.601,3363.00
953.553,3032.00
954.503,3484.00
955.455,3181.00
956.405,3177.00
957.356,2935.00
958.306,3464.00
959.258,3216.00
960.207,3655.00
961.158,3550.00
962.108,3258.00
963.059,2913.00
964.008,2889.00
964.959,3890.00
965.908,3197.00
966.856,2992.00
967.807,2827.00
968.756,3546.00
969.706,3260.00
970.654,3126.00
971.605,3236.00
972.553,3307.00
973.503,3173.00
974.451,3513.00
975.401,3308.00
976.348,3241.00
977.296,3082.00
978.246,3419.00
979.193,3599.00
980.142,2996.00
981.090,3327.00
982.039,3228.00
982.986,3295.00
983.935,3499.00
984.882,3289.00
985.830,3442.00
986.777,3385.00
987.725,3067.00
988.672,3043.00
989.618,3275.00
990.567,2968.00
991.513,3175.00
992.461,3010.00
993.407,3499.00
994.354,3342.00
995.300,3405.00
996.248,3311.00
997.193,3352.00
998.141,3127.00
999.086,3372.00
1000.031,3294.00
1000.978,2762.00
1001.924,3204.00
1002.870,3314.00
1003.815,2629.00
1004.762,2984.00
1005.707,3221.00
1006.653,3125.00
1007.598,3188.00
1008.542,2927.00
1009.488,2860.00
1010.432,3094.00
1011.378,2971.00
1012.322,3636.00
1013.268,2938.00
1014.212,3200.00
1015.157,3288.00
1016.101,3615.00
1017.046,2904.00
1017.990,2949.00
1018.933,3145.00
1019.878,2996.00
1020.821,3050.00
1021.766,2881.00
1022.709,3055.00
1023.654,3147.00
1024.596,3448.00
1025.541,3612.00
1026.483,3610.00
1027.425,3250.00
1028.370,3423.00
1029.312,3416.00
1030.256,3072.00
1031.198,3056.00
1032.141,3076.00
1033.083,3619.00
1034.027,3333.00
1034.968,3404.00
1035.910,2772.00
1036.853,3220.00
1037.794,3267.00
1038.738,2935.00
1039.679,3476.00
1040.621,3064.00
1041.562,3145.00
1042.503,3494.00
1043.446,2927.00
1044.386,3432.00
1045.329,3184.00
1046.269,3319.00
1047.211,3148.00
1048.151,3287.00
1049.093,2912.00
1050.033,4021.00
1050.973,3330.00
1051.915,3152.00
1052.854,3110.00
1053.796,3397.00
1054.735,3023.00
1055.677,3073.00
1056.616,3261.00
1057.555,3237.00
1058.496,2866.00
1059.435,3434.00
1060.376,3042.00
1061.315,3034.00
1062.255,2878.00
1063.194,3117.00
1064.132,2877.00
1065.073,3264.00
1066.011,3192.00
1066.951,3157.00
1067.889,2947.00
1068.829,3319.00
1069.767,3265.00
1070.705,2576.00
1071.644,3127.00
1072.582,2794.00
1073.521,3058.00
1074.459,3158.00
1075.398,3297.00
1076.335,3031.00
1077.272,3848.00
1078.211,3301.00
1079.148,3677.00
1080.087,3174.00
1081.023,3595.00
1081.962,3424.00
1082.898,2687.00
1083.835,3070.00
1084.773,2757.00
1085.709,2866.00
1086.647,3192.00
1087.583,3083.00
1088.519,3297.00
1089.457,3291.00
1090.392,2749.00
1091.330,3201.00
1092.266,3099.00
1093.203,3487.00
1094.138,2802.00
1095.073,3651.00
1096.010,3410.00
1096.945,3107.00
1097.882,2790.00
1098.817,2644.00
1099.752,4027.00
1100.688,3169.00
1101.623,3254.00
1102.559,3253.00
1103.493,3436.00
1104.430,2694.00
1105.364,2814.00
1106.298,3096.00
1107.234,3683.00
1108.167,2920.00
1109.094,3097.00
1110.019,3096.00
1110.945,3272.00
1111.869,3163.00
1112.795,3072.00
1113.720,3154.00
1114.646,3149.00
1115.571,2636.00
1116.495,3210.00
1117.420,3256.00
1118.345,3004.00
1119.270,3107.00
1120.195,3260.00
1121.118,3513.00
1122.042,3368.00
1122.967,3112.00
1123.891,3199.00
1124.816,3193.00
1125.738,3122.00
1126.663,2584.00
1127.587,3068.00
1128.511,3027.00
1129.435,3131.00
1130.357,3208.00
1131.280,3992.00
1132.204,2913.00
1133.128,2971.00
1134.051,3039.00
1134.972,3781.00
1135.896,3064.00
1136.819,3422.00
1137.742,2971.00
1138.665,3287.00
1139.586,3159.00
1140.509,2668.00
1141.431,2944.00
1142.354,3587.00
1143.276,3207.00
1144.197,3570.00
1145.119,3228.00
1146.041,2928.00
1146.964,3330.00
1147.885,3226.00
1148.806,3061.00
1149.727,3169.00
1150.649,2737.00
1151.571,3181.00
1152.492,3353.00
1153.412,3242.00
1154.333,3126.00
1155.254,3011.00
1156.175,3038.00
1157.095,3646.00
1158.016,3197.00
1158.936,2989.00
1159.857,3303.00
1160.778,3065.00
1161.697,2753.00
1162.617,3219.00
1163.537,3790.00
1164.458,3594.00
1165.376,2963.00
1166.296,3318.00
1167.216,3475.00
1168.136,3032.00
1169.056,2893.00
1169.974,3058.00
1170.893,3681.00
1171.813,3303.00
1172.732,3028.00
1173.650,3239.00
1174.569,3969.00
1175.488,3322.00
1176.407,2882.00
1177.326,2900.00
1178.243,3122.00
1179.161,2971.00
1180.080,3057.00
1180.999,3284.00
1181.915,3073.00
1182.834,2693.00
1183.752,3294.00
1184.670,3715.00
1185.586,2677.00
1186.504,2987.00
1187.422,3154.00
1188.340,2761.00
1189.258,3250.00
1190.173,3114.00
1191.091,3466.00
1192.008,2972.00
1192.926,3019.00
1193.841,3276.00
1194.758,3276.00
1195.675,2956.00
1196.592,3424.00
1197.507,2910.00
1198.424,3313.00
1199.340,3597.00
1200.257,3089.00
1201.172,3316.00
1202.088,2561.00
1203.004,3199.00
1203.920,3351.00
1204.835,3739.00
1205.750,3493.00
1206.666,3582.00
1207.582,2891.00
1208.496,2935.00
1209.412,3086.00
1210.327,2998.00
1211.243,3633.00
1212.156,2951.00
1213.071,2907.00
1213.986,3140.00
1214.901,2800.00
1215.814,2831.00
1216.729,2939.00
1217.644,2935.00
1218.559,2896.00
1219.471,3884.00
1220.386,3458.00
1221.300,2930.00
1222.213,3298.00
1223.127,3088.00
1224.041,3529.00
1224.955,2888.00
1225.867,3228.00
1226.781,3373.00
1227.694,3564.00
1228.608,3078.00
1229.520,3344.00
1230.433,3328.00
1231.346,2882.00
1232.260,3317.00
1233.171,2917.00
1234.084,3208.00
1234.997,3581.00
1235.908,3017.00
1236.821,3295.00
1237.733,4318.00
1238.646,3425.00
1239.556,3243.00
1240.469,3138.00
1241.381,3002.00
1242.293,2948.00
1243.203,3687.00
1244.115,3627.00
1245.027,3205.00
1245.937,3012.00
1246.849,3069.00
1247.761,3146.00
1248.672,2939.00
1249.582,3055.00
1250.493,3745.00
1251.404,3174.00
1252.313,3376.00
1253.225,3442.00
1254.135,4035.00
1255.046,3306.00
1255.955,3340.00
1256.866,3640.00
1257.777,3032.00
1258.685,2830.00
1259.596,2628.00
1260.506,3509.00
1261.416,3092.00
1262.324,3432.00
1263.234,3104.00
1264.144,3341.00
1265.052,3235.00
1265.962,3144.00
1266.872,3441.00
1267.779,3405.00
1268.689,2723.00
1269.598,2863.00
1270.507,3072.00
1271.415,2983.00
1272.324,3263.00
1273.233,3154.00
1274.140,2998.00
1275.048,2900.00
1275.957,2651.00
1276.864,2986.00
1277.772,3001.00
1278.681,2600.00
1279.587,2893.00
1280.496,3246.00
1281.404,3889.00
1282.312,3306.00
1283.218,2888.00
1284.126,2898.00
1285.033,3661.00
1285.939,3123.00
1286.847,3244.00
1287.754,3053.00
1288.660,2916.00
1289.567,3742.00
1290.474,3171.00
1291.380,3396.00
1292.286,2854.00
1293.193,3204.00
1294.098,3192.00
1295.005,2970.00
1295.912,3505.00
1296.816,3229.00
1297.723,3101.00
1298.629,2973.00
1299.534,3492.00
1300.440,3275.00
1301.346,2958.00
1302.250,2994.00
1303.156,2698.00
1304.062,3580.00
1304.966,3703.00
1305.871,3445.00
1306.777,2977.00
1307.680,3097.00
1308.586,3257.00
1309.491,3406.00
1310.394,3135.00
1311.299,3414.00
1312.204,3679.00
1313.107,3335.00
1314.012,3209.00
1314.917,2886.00
1315.819,3244.00
1316.724,3662.00
1317.628,3295.00
1318.531,3054.00
1319.435,3536.00
1320.339,5157.00
1321.241,3120.00
1322.145,3159.00
1323.049,3237.00
1323.951,2921.00
1324.854,2938.00
1325.756,3404.00
1326.659,3246.00
1327.563,2930.00
1328.464,3306.00
1329.367,3132.00
1330.271,3472.00
1331.172,2852.00
1332.074,3157.00
1332.977,2940.00
1333.878,3293.00
1334.781,3473.00
1335.683,2928.00
1336.584,3099.00
1337.486,2736.00
1338.387,3295.00
1339.289,2862.00
1340.191,3004.00
1341.091,3042.00
1341.993,2885.00
1342.895,3030.00
1343.794,3237.00
1344.696,3421.00
1345.596,3268.00
1346.497,2907.00
1347.398,3088.00
1348.298,2671.00
1349.199,3694.00
1350.100,2993.00
1350.999,3490.00
1351.900,3357.00
1352.799,3514.00
1353.699,3229.00
1354.600,3127.00
1355.499,3209.00
1356.399,2735.00
1357.297,3097.00
1358.198,3190.00
1359.098,2907.00
1359.996,2854.00
1360.896,3598.00
1361.796,3394.00
1362.694,3273.00
1363.593,3139.00
1364.491,3344.00
1365.391,3664.00
1366.290,3109.00
1367.187,2934.00
1368.086,3387.00
1368.984,3173.00
1369.883,2717.00
1370.782,3175.00
1371.679,3376.00
1372.577,3667.00
1373.474,3198.00
1374.373,3134.00
1375.269,3186.00
1376.168,3120.00
1377.066,3402.00
1377.962,3364.00
1378.860,3472.00
1379.756,3480.00
1380.654,3713.00
1381.552,3372.00
1382.448,3261.00
1383.346,3164.00
1384.241,3277.00
1385.139,3423.00
1386.036,3044.00
1386.931,2726.00
1387.829,3200.00
1388.724,3370.00
1389.621,3015.00
1390.516,3236.00
1391.413,3092.00
1392.309,2925.00
1393.204,3444.00
1394.101,3355.00
1394.995,3301.00
1395.891,3333.00
1396.786,2966.00
1397.682,3080.00
1398.578,3238.00
1399.472,3443.00
1400.368,3179.00
1401.262,3145.00
1402.158,3316.00
1403.051,3065.00
1403.947,3018.00
1404.840,3398.00
1405.736,3370.00
1406.631,2904.00
1407.524,3586.00
1408.419,3217.00
1409.312,3057.00
1410.207,3269.00
1411.100,3040.00
1411.995,2945.00
1412.888,3374.00
1413.782,2815.00
1414.675,3515.00
1415.569,2909.00
1416.463,3091.00
1417.355,3113.00
1418.249,2947.00
1419.141,3222.00
1420.035,3254.00
1420.927,3118.00
1421.821,3490.00
1422.713,3050.00
1423.606,3296.00
1424.498,3205.00
1425.391,3736.00
1426.282,2949.00
1427.175,3092.00
1428.068,2693.00
1428.960,3230.00
1429.852,3285.00
1430.743,2895.00
1431.636,3160.00
1432.527,3447.00
1433.419,3316.00
1434.310,3334.00
1435.202,2962.00
1436.092,3112.00
1436.984,3126.00
1437.875,3560.00
1438.767,3144.00
1439.657,2956.00
1440.548,3304.00
1441.438,3249.00
1442.330,3273.00
1443.219,3081.00
1444.111,3416.00
1445.000,2952.00
1445.891,2886.00
1446.781,2918.00
1447.672,3235.00
1448.561,3524.00
1449.452,3341.00
1450.340,2925.00
1451.231,2957.00
1452.120,2899.00
1453.010,3437.00
1453.899,3046.00
1454.789,3331.00
1455.677,3494.00
1456.568,3239.00
1457.456,3166.00
1458.346,3173.00
1459.234,3218.00
1460.123,3477.00
1461.011,3226.00
1461.901,3497.00
1462.788,3598.00
1463.678,3292.00
1464.565,3207.00
1465.454,3108.00
1466.342,3287.00
1467.231,2544.00
1468.118,3485.00
1469.006,3586.00
1469.893,2888.00
1470.782,3326.00
1471.669,3444.00
1472.557,3390.00
1473.444,3224.00
1474.330,3388.00
1475.218,3500.00
1476.105,3089.00
1476.993,3208.00
1477.879,3413.00
1478.767,3089.00
1479.652,2929.00
1480.540,3223.00
1481.426,3368.00
1482.313,3319.00
1483.199,3562.00
1484.086,3422.00
1484.972,2902.00
1485.857,2861.00
1486.744,3290.00
1487.629,2765.00
1488.516,3037.00
1489.401,3381.00
1490.287,3175.00
1491.172,2832.00
1492.058,3138.00
1492.943,2922.00
1493.828,2963.00
1494.714,3383.00
1495.598,3585.00
1496.484,4036.00
1497.368,2840.00
1498.254,3103.00
1499.138,3207.00
1500.022,3102.00
1500.907,3317.00
1501.791,3905.00
1502.676,3170.00
1503.560,3042.00
1504.445,3725.00
1505.328,3319.00
1506.211,3575.00
1507.096,3136.00
1507.979,3485.00
1508.864,3118.00
1509.747,3318.00
1510.631,3267.00
1511.514,3368.00
1512.397,3450.00
1513.281,3652.00
1514.163,3397.00
1515.047,3047.00
1515.930,2920.00
1516.812,3185.00
1517.696,3305.00
1518.578,3143.00
1519.461,3266.00
1520.343,3701.00
1521.225,3035.00
1522.108,3123.00
1522.990,3507.00
1523.873,3637.00
1524.754,2770.00
1525.635,2674.00
1526.518,3367.00
1527.399,3178.00
1528.282,3186.00
1529.163,3300.00
1530.044,3204.00
1530.926,2859.00
1531.807,2961.00
1532.689,3264.00
1533.569,2968.00
1534.450,4264.00
1535.332,3375.00
1536.212,3058.00
1537.092,3432.00
1537.974,2892.00
1538.854,3120.00
1539.735,3702.00
1540.615,3412.00
1541.495,2925.00
1542.376,3584.00
1543.255,2944.00
1544.135,3093.00
1545.016,3224.00
1545.895,2970.00
1546.774,3372.00
1547.655,2737.00
1548.534,3186.00
1549.414,3101.00
1550.293,2832.00
1551.172,3257.00
1552.052,3182.00
1552.930,3024.00
1553.809,3699.00
1554.689,3073.00
1555.567,3079.00
1556.445,3068.00
1557.325,3485.00
1558.203,2798.00
1559.080,3191.00
1559.960,3134.00
1560.838,3801.00
1561.715,3074.00
1562.594,3457.00
1563.472,3363.00
1564.349,3333.00
1565.228,2778.00
1566.105,2945.00
1566.982,3258.00
1567.861,3419.00
1568.738,3138.00
1569.615,2776.00
1570.493,3026.00
1571.370,3036.00
1572.246,2659.00
1573.124,3120.00
1574.000,3121.00
1574.877,3400.00
1575.755,3084.00
1576.631,2955.00
1577.507,3580.00
1578.384,3575.00
1579.260,3309.00
1580.136,3801.00
1581.011,3167.00
1581.889,3160.00
1582.764,3187.00
1583.639,3450.00
1584.516,3330.00
1585.391,3027.00
1586.266,3248.00
1587.143,3699.00
1588.018,3321.00
1588.893,3577.00
1589.768,3911.00
1590.644,3888.00
1591.519,2950.00
1592.393,3358.00
1593.269,3451.00
1594.143,3014.00
1595.018,3129.00
1595.892,3073.00
1596.767,2709.00
1597.641,2710.00
1598.515,2857.00
1599.391,3286.00
1600.264,3026.00
1601.138,2963.00
1602.011,2580.00
1602.886,3774.00
1603.760,3508.00
1604.633,3456.00
1605.508,3367.00
1606.381,3265.00
1607.254,3212.00
1608.127,3304.00
1609.001,2885.00
1609.874,3486.00
1610.746,3446.00
1611.619,3169.00
1612.493,3405.00
1613.365,3023.00
1614.238,3224.00
1615.110,3213.00
1615.984,3222.00
1616.855,2962.00
1617.727,3387.00
1618.599,3032.00
1619.473,3483.00
1620.344,2581.00
1621.216,3193.00
1622.087,3202.00
1622.960,3201.00
1623.832,3218.00
1624.703,3303.00
1625.574,3358.00
1626.445,3193.00
1627.317,3243.00
1628.188,3424.00
1629.059,3138.00
1629.930,3540.00
1630.802,3162.00
1631.672,3347.00
1632.543,3301.00
1633.413,3180.00
1634.283,3649.00
1635.155,3289.00
1636.025,3271.00
1636.895,3279.00
1637.765,2740.00
1638.636,3150.00
1639.506,3351.00
1640.376,3947.00
1641.245,3126.00
1642.114,3265.00
1642.985,2649.00
1643.855,2927.00
1644.724,3067.00
1645.593,3312.00
1646.462,3311.00
1647.333,3166.00
1648.201,3058.00
1649.070,3247.00
1649.939,3365.00
1650.807,2951.00
1651.676,3368.00
1652.546,3436.00
1653.414,3503.00
1654.282,3178.00
1655.150,3079.00
1656.018,3137.00
1656.888,3828.00
1657.756,3207.00
1658.623,2809.00
1659.491,2731.00
1660.359,3586.00
1661.226,3053.00
1662.095,3367.00
1662.962,3067.00
1663.830,3115.00
1664.697,2985.00
1665.564,3195.00
1666.431,3371.00
1667.297,2922.00
1668.166,2907.00
1669.033,2742.00
1669.899,3023.00
1670.766,2859.00
1671.632,3060.00
1672.499,3519.00
1673.367,3232.00
1674.233,3383.00
1675.099,3159.00
1675.965,2881.00
1676.831,3107.00
1677.696,3473.00
1678.562,6054.00
1679.430,2747.00
1680.295,2863.00
1681.161,2942.00
1682.026,2946.00
1682.891,3041.00
1683.756,3110.00
1684.621,3258.00
1685.486,3201.00
1686.353,3196.00
1687.218,3318.00
1688.083,3165.00
1688.947,3481.00
1689.812,3106.00
1690.677,3044.00
1691.541,3277.00
1692.405,2522.00
1693.269,3643.00
1694.135,3405.00
1694.999,3177.00
1695.863,3719.00
1696.727,3037.00
1697.591,3091.00
1698.455,3303.00
1699.318,3055.00
1700.182,4446.00
1701.045,3231.00
1701.909,3227.00
1702.772,3671.00
1703.637,3022.00
1704.500,2777.00
1705.363,3394.00
1706.226,3287.00
1707.089,3327.00
1707.951,3353.00
1708.814,3926.00
1709.677,3925.00
1710.539,3395.00
1711.402,3471.00
1712.264,3214.00
1713.126,3093.00
1713.988,3466.00
1714.852,3458.00
1715.714,2583.00
1716.576,2748.00
1717.438,3430.00
1718.299,2729.00
1719.161,3572.00
1720.023,3150.00
1720.884,3621.00
1721.745,3181.00
1722.607,3090.00
1723.468,2717.00
1724.329,3425.00
1725.190,3207.00
1726.051,3335.00
1726.912,3056.00
1727.772,3271.00
1728.633,3123.00
1729.494,3254.00
1730.354,3470.00
1731.214,2885.00
1732.075,3058.00
1732.935,3058.00
1733.797,3076.00
1734.657,3704.00
1735.517,3875.00
1736.377,3433.00
1737.237,3148.00
1738.096,3844.00
1738.956,3104.00
1739.816,3050.00
1740.675,3131.00
1741.534,2693.00
1742.394,3228.00
1743.253,2945.00
1744.112,3240.00
1744.971,3050.00
1745.830,3311.00
1746.689,3340.00
1747.547,3454.00
1748.406,2860.00
1749.265,3084.00
1750.123,3074.00
1750.982,3401.00
1751.840,3201.00
1752.698,3256.00
1753.556,3076.00
1754.414,3172.00
1755.272,3123.00
1756.130,3215.00
1756.988,3156.00
1757.846,3341.00
1758.703,3052.00
1759.559,3495.00
1760.417,2882.00
1761.274,3825.00
1762.131,3619.00
1762.989,3728.00
1763.846,3594.00
1764.703,3301.00
1765.560,3723.00
1766.417,3235.00
1767.273,2949.00
1768.130,3172.00
1768.987,3034.00
1769.843,3458.00
1770.700,3527.00
1771.556,3063.00
1772.412,3548.00
1773.268,3113.00
1774.125,3544.00
1774.980,3243.00
1775.836,3494.00
1776.692,3128.00
1777.546,3019.00
1778.402,3385.00
1779.257,3294.00
1780.113,2996.00
1780.968,3357.00
1781.824,3479.00
1782.679,2834.00
1783.534,3065.00
1784.389,3692.00
1785.244,3335.00
1786.099,3123.00
1786.954,3460.00
1787.808,3223.00
1788.661,3249.00
1789.516,3635.00
1790.370,3242.00
1791.225,3088.00
1792.079,2819.00
1792.933,3938.00
1793.787,3359.00
1794.641,3261.00
1795.495,3157.00
1796.349,3227.00
1797.201,3084.00
1798.055,3010.00
1798.908,3187.00
1799.762,3578.00
1800.615,3415.00
1801.469,3424.00
1802.322,3604.00
1803.175,3031.00
1804.028,2773.00
1804.880,3746.00
1805.732,3424.00
1806.585,3185.00
1807.438,3230.00
1808.291,2763.00
1809.143,2957.00
1809.996,2860.00
1810.846,3999.00
1811.699,3360.00
1812.551,3107.00
1813.403,3387.00
1814.255,3257.00
1815.107,3219.00
1815.959,3801.00
1816.809,3339.00
1817.661,3347.00
1818.512,3190.00
1819.364,3262.00
1820.215,3323.00
1821.067,2999.00
1821.918,3058.00
1822.768,3452.00
1823.619,3408.00
1824.470,3118.00
1825.321,3350.00
1826.172,3145.00
1827.021,3317.00
1827.871,3496.00
1828.722,3256.00
1829.572,3253.00
1830.423,3214.00
1831.273,3083.00
1832.122,3205.00
1832.972,3149.00
1833.822,2899.00
1834.672,3381.00
1835.522,3447.00
1836.370,2999.00
1837.220,3331.00
1838.070,2755.00
1838.919,2571.00
1839.769,3018.00
1840.616,3470.00
1841.466,3363.00
1842.315,2902.00
1843.164,3855.00
1844.013,3040.00
1844.860,2901.00
1845.709,2934.00
1846.558,3493.00
1847.407,2879.00
1848.254,3336.00
1849.102,3254.00
1849.951,2976.00
1850.799,2674.00
1851.648,3103.00
1852.494,3232.00
1853.342,3284.00
1854.190,3549.00
1855.038,3576.00
1855.884,3198.00
1856.732,4097.00
1857.580,3656.00
1858.428,3026.00
1859.273,2953.00
1860.121,3004.00
1860.968,4039.00
1861.816,3544.00
1862.661,3596.00
1863.508,3786.00
1864.355,3504.00
1865.202,3551.00
1866.047,3288.00
1866.894,3601.00
1867.741,3733.00
1868.586,3376.00
1869.432,3334.00
1870.279,3200.00
1871.125,3063.00
1871.970,3867.00
1872.816,3312.00
1873.662,2756.00
1874.506,3368.00
1875.352,3526.00
1876.198,3647.00
1877.044,3817.00
1877.888,3156.00
1878.734,3256.00
1879.579,3052.00
1880.423,2886.00
1881.268,3171.00
1882.113,3480.00
1882.959,3201.00
1883.802,3012.00
1884.647,3605.00
1885.492,3294.00
1886.335,3164.00
1887.180,3042.00
1888.025,3240.00
1888.867,2990.00
1889.712,3381.00
1890.556,2969.00
1891.399,3557.00
1892.243,3581.00
1893.087,3073.00
1893.930,3390.00
1894.774,3398.00
1895.618,3594.00
1896.460,2847.00
1897.304,3162.00
1898.147,3100.00
1898.989,2920.00
1899.833,3393.00
1900.676,3071.00
1901.518,3553.00
1902.361,3529.00
1903.202,3120.00
1904.046,3043.00
1904.889,3250.00
1905.730,3158.00
1906.573,2878.00
1907.415,3305.00
1908.256,3643.00
1909.099,3297.00
1909.941,3380.00
1910.782,3369.00
1911.624,3043.00
1912.465,3426.00
1913.307,3243.00
1914.149,2969.00
1914.989,3519.00
1915.831,3190.00
1916.671,3648.00
1917.513,3179.00
1918.355,3339.00
1919.195,3491.00
1920.036,3304.00
1920.876,3229.00
1921.717,3363.00
1922.558,3250.00
1923.398,3271.00
1924.239,3240.00
1925.078,3550.00
1925.919,2950.00
1926.760,3353.00
1927.599,3087.00
1928.440,3476.00
1929.279,3269.00
1930.119,3669.00
1930.958,3167.00
1931.798,3255.00
1932.638,3149.00
1933.477,3274.00
1934.317,3007.00
1935.155,3083.00
1935.995,3346.00
1936.833,3042.00
1937.673,3056.00
1938.512,3678.00
1939.350,2870.00
1940.190,3160.00
1941.027,3161.00
1941.867,3100.00
1942.704,3176.00
1943.543,3204.00
1944.381,3428.00
1945.220,3635.00
1946.057,3345.00
1946.896,3541.00
1947.733,3221.00
1948.572,3017.00
1949.408,3606.00
1950.247,3339.00
1951.085,3419.00
1951.922,3582.00
1952.760,3047.00
1953.597,3637.00
1954.435,2607.00
1955.271,3383.00
1956.109,3133.00
1956.945,2838.00
1957.783,3406.00
1958.619,3106.00
1959.456,3231.00
1960.292,3307.00
1961.129,3609.00
1961.965,3761.00
1962.802,3024.00
1963.638,3002.00
1964.475,3326.00
1965.310,3235.00
1966.145,3286.00
1966.982,3068.00
1967.817,2973.00
1968.654,3240.00
1969.489,3050.00
1970.325,3248.00
1971.160,2968.00
1971.996,3474.00
1972.831,3425.00
1973.667,3120.00
1974.501,3644.00
1975.337,3569.00
1976.171,3144.00
1977.006,3554.00
1977.841,3144.00
1978.675,3529.00
1979.511,3871.00
1980.345,2968.00
1981.180,3481.00
1982.014,3245.00
1982.849,2930.00
1983.682,3098.00
1984.516,3112.00
1985.351,2871.00
1986.184,2750.00
1987.019,2737.00
1987.852,2508.00
1988.687,2764.00
1989.519,2986.00
1990.352,3237.00
1991.187,2719.00
1992.019,2989.00
1992.854,3424.00
1993.686,2945.00
1994.518,3038.00
1995.352,2535.00
1996.185,2323.00
1997.019,2881.00
1997.851,2690.00
1998.682,2708.00
1999.516,2771.00
2000.348,2494.00
