RamanScope Measure Spectrum Data V3.72

<< MEASURE CONDITION >>
Exposure Type,Aver
Exposure Time [sec],20
Exposure Count,2
Measure Time,2024/02/15 20:30:19
Data Name,""
Data Comment,""
Rayleigh Wave[nm],532.0

<< SAMPLE SPECTRUM >>
Wave[dcm-1],No13
96.716,14.50
97.759,2.00
98.802,2.50
99.846,7.00
100.886,-32.50
101.929,3.00
102.972,27.00
104.015,33.50
105.057,48.00
106.100,15.50
107.142,23.50
108.184,36.00
109.226,25.00
110.268,-16.50
111.310,1.00
112.352,-27.00
113.393,1.00
114.435,-57.00
115.476,-5.00
116.517,6.50
117.558,19.00
118.599,-4.50
119.640,3.50
120.681,46.00
121.722,35.50
122.762,29.00
123.803,30.00
124.843,69.00
125.883,36.00
126.923,40.50
127.963,-10.00
129.001,25.00
130.041,27.00
131.080,-44.00
132.120,2.50
133.159,40.50
134.199,14.00
135.238,-27.50
136.277,27.00
137.316,45.00
138.355,-0.50
139.393,14.00
140.432,24.00
141.470,43.50
142.509,47.50
143.547,53.00
144.585,72.00
145.623,120.00
146.661,105.00
147.699,141.50
148.736,153.00
149.774,255.00
150.811,276.50
151.849,381.00
152.886,522.50
153.923,604.50
154.960,806.00
155.997,971.50
157.034,1135.50
158.072,1350.50
159.109,1435.00
160.145,1700.50
161.182,1959.00
162.218,2050.00
163.254,2250.50
164.290,2439.50
165.326,2640.00
166.361,2771.50
167.397,2852.00
168.432,2882.50
169.468,3020.50
170.503,3150.00
171.538,3144.50
172.573,3093.50
173.608,3197.50
174.643,3249.50
175.677,3343.50
176.712,3351.00
177.746,3356.50
178.781,3469.00
179.815,3545.50
180.849,3572.50
181.883,3652.50
182.917,3683.00
183.951,3720.00
184.984,3765.50
186.020,3822.50
187.053,3835.00
188.087,3801.50
189.120,3772.00
190.153,3775.50
191.186,3738.50
192.219,3653.50
193.251,3729.50
194.284,3706.00
195.317,3685.00
196.349,3691.50
197.381,3626.50
198.413,3756.50
199.445,3747.00
200.477,3721.00
201.509,3780.00
202.543,3806.00
203.575,3753.50
204.606,3869.00
205.637,3860.50
206.669,3951.00
207.700,3946.50
208.731,4062.50
209.762,4031.00
210.792,4144.00
211.823,4159.00
212.854,4216.00
213.884,4246.50
214.914,4343.00
215.947,4400.50
216.977,4444.00
218.007,4597.50
219.037,4644.00
220.066,4788.00
221.096,4822.50
222.126,4984.50
223.155,4984.50
224.184,5145.00
225.214,5158.50
226.245,5237.50
227.274,5321.00
228.302,5359.50
229.331,5350.00
230.360,5368.00
231.388,5394.00
232.417,5437.00
233.445,5349.50
234.473,5289.50
235.501,5154.00
236.531,5176.50
237.559,5001.50
238.587,4938.00
239.614,4926.00
240.642,4787.50
241.669,4755.50
242.696,4694.00
243.724,4698.00
244.753,4618.50
245.780,4520.00
246.806,4564.50
247.833,4546.00
248.860,4512.50
249.886,4510.50
250.913,4594.50
251.939,4535.00
252.967,4607.50
253.993,4656.00
255.019,4621.00
256.045,4650.50
257.070,4732.00
258.096,4780.00
259.121,4615.00
260.147,4593.50
261.174,4576.00
262.199,4603.50
263.224,4525.00
264.249,4506.00
265.274,4499.50
266.298,4487.50
267.323,4590.50
268.349,4533.50
269.374,4583.50
270.398,4574.00
271.422,4593.50
272.446,4686.00
273.470,4652.00
274.496,4653.00
275.519,4615.50
276.543,4728.50
277.566,4766.00
278.589,4675.00
279.613,4849.50
280.636,4877.00
281.661,4902.50
282.684,4975.50
283.706,4969.00
284.729,5025.50
285.751,4985.00
286.774,4957.00
287.798,5038.00
288.820,5032.00
289.842,5049.00
290.864,4951.50
291.886,5011.50
292.910,5020.50
293.932,4914.00
294.953,4862.00
295.974,4772.50
296.996,4795.50
298.017,4708.00
299.040,4626.50
300.061,4556.50
301.082,4498.50
302.102,4512.00
303.123,4438.50
304.143,4430.50
305.166,4337.50
306.186,4245.50
307.206,4201.00
308.226,4232.00
309.246,4204.50
310.268,4101.50
311.288,4037.00
312.307,4025.50
313.327,3947.50
314.346,3969.00
315.368,3891.50
316.387,3915.00
317.406,3821.50
318.425,3861.00
319.443,3811.00
320.464,3701.50
321.483,3733.50
322.501,3701.50
323.520,3600.50
324.538,3567.00
325.558,3578.00
326.576,3506.00
327.594,3583.00
328.612,3591.50
329.629,3500.50
330.649,3588.50
331.666,3495.00
332.684,3500.50
333.701,3438.50
334.718,3412.50
335.737,3354.00
336.754,3354.50
337.771,3356.00
338.787,3356.50
339.806,3424.50
340.823,3370.50
341.839,3330.50
342.855,3270.00
343.871,3339.50
344.889,3292.50
345.905,3290.50
346.921,3281.00
347.937,3258.00
348.954,3294.00
349.970,3318.00
350.985,3334.00
352.000,3258.00
353.017,3309.00
354.032,3241.50
355.047,3270.50
356.062,3176.50
357.077,3277.50
358.093,3259.00
359.108,3183.00
360.122,3216.00
361.136,3227.00
362.152,3224.50
363.166,3232.00
364.180,3243.50
365.194,3182.00
366.210,3222.50
367.223,3168.00
368.237,3182.00
369.250,3167.00
370.265,3207.50
371.278,3243.50
372.291,3160.00
373.304,3162.50
374.319,3187.50
375.332,3296.00
376.344,3266.50
377.357,3231.50
378.371,3175.00
379.383,3172.00
380.395,3237.00
381.407,3210.50
382.421,3230.50
383.433,3206.00
384.445,3254.50
385.456,3285.50
386.470,3259.00
387.481,3293.00
388.492,3261.50
389.505,3273.50
390.516,3333.00
391.527,3257.00
392.538,3308.50
393.551,3275.00
394.561,3378.00
395.572,3330.00
396.582,3376.50
397.594,3286.00
398.604,3293.50
399.614,3291.00
400.624,3314.00
401.636,3330.00
402.646,3348.50
403.655,3299.00
404.667,3334.00
405.676,3323.50
406.685,3293.50
407.694,3286.50
408.705,3300.50
409.714,3232.00
410.723,3308.00
411.734,3290.50
412.742,3265.00
413.751,3174.50
414.759,3215.00
415.769,3148.00
416.777,3165.50
417.785,3167.50
418.795,3161.00
419.803,3145.50
420.811,3148.50
421.818,3212.50
422.828,3126.50
423.835,3111.00
424.842,3135.50
425.852,3167.50
426.859,3109.00
427.866,3070.00
428.874,3098.50
429.881,3057.00
430.888,3000.50
431.894,3088.00
432.902,3064.50
433.909,3058.00
434.915,3018.00
435.923,2973.50
436.929,3052.50
437.935,2981.00
438.942,2967.00
439.948,2993.50
440.953,3003.00
441.959,2972.50
442.966,3001.00
443.971,2996.00
444.976,2971.00
445.983,3010.50
446.988,3000.50
447.993,2969.50
448.999,2975.50
450.004,2951.00
451.008,2965.00
452.014,2961.50
453.019,2957.00
454.023,3036.50
455.029,2995.50
456.032,3012.50
457.036,2937.50
458.042,2971.00
459.045,2974.50
460.049,2991.50
461.052,2990.50
462.057,3008.00
463.060,2990.50
464.063,3007.50
465.068,2999.50
466.071,2998.50
467.073,3009.00
468.078,3015.50
469.080,2972.50
470.082,3030.00
471.087,3077.00
472.089,3052.00
473.091,3043.50
474.095,2990.50
475.096,3035.00
476.098,3055.50
477.101,3042.00
478.103,3070.00
479.104,3036.00
480.107,3060.50
481.108,3045.50
482.109,3008.50
483.112,3003.50
484.113,3062.00
485.114,3052.00
486.116,3047.00
487.117,3088.00
488.117,3031.50
489.119,3080.50
490.119,3076.50
491.121,3047.00
492.121,3041.50
493.121,3073.00
494.123,3063.50
495.122,3021.50
496.122,3096.00
497.123,3077.50
498.122,3089.00
499.121,3072.50
500.122,3004.50
501.121,3033.50
502.120,3075.50
503.121,3111.50
504.119,3074.50
505.118,3145.00
506.118,3009.00
507.117,2999.00
508.115,3060.50
509.115,3049.00
510.113,3055.00
511.112,3009.50
512.110,2965.00
513.108,3026.50
514.107,2993.00
515.105,3004.50
516.102,2913.50
517.101,2924.50
518.098,3001.50
519.095,2976.00
520.094,2941.00
521.091,2953.50
522.089,2969.50
523.086,2972.00
524.082,2918.00
525.081,2941.00
526.077,3008.50
527.073,2992.50
528.071,2952.50
529.067,2994.00
530.064,2981.50
531.060,2930.50
532.056,2979.00
533.053,2876.00
534.048,2929.50
535.044,2898.00
536.041,2912.50
537.036,2971.50
538.030,2981.50
539.027,2967.50
540.022,3051.00
541.019,2985.00
542.013,2978.00
543.007,2990.50
544.004,2987.00
544.998,2969.00
545.994,2981.00
546.988,2957.50
547.981,2985.00
548.977,3033.00
549.971,2950.50
550.964,2977.50
551.960,2994.50
552.953,2976.00
553.948,2967.50
554.941,3032.00
555.934,2976.50
556.929,3003.50
557.922,3070.00
558.916,3011.00
559.909,3046.50
560.901,3020.50
561.895,3070.50
562.888,2985.00
563.880,2999.00
564.874,2995.50
565.865,3056.00
566.859,2963.00
567.851,3061.00
568.842,2979.00
569.836,3034.00
570.827,3028.00
571.820,2978.50
572.811,3013.00
573.802,3049.00
574.795,3026.00
575.786,3048.50
576.779,3022.50
577.769,3012.00
578.760,3085.00
579.752,3037.50
580.742,3132.50
581.735,3092.50
582.725,3065.50
583.714,3065.50
584.706,3085.00
585.696,3046.00
586.688,3076.00
587.677,3050.00
588.667,3041.00
589.658,3056.50
590.647,3098.00
591.638,3050.00
592.627,3173.50
593.616,3121.00
594.607,3140.00
595.595,3127.50
596.586,3097.50
597.574,3109.00
598.562,3091.50
599.553,3153.50
600.541,3077.50
601.531,3162.00
602.519,3127.50
603.508,3152.50
604.496,3146.50
605.484,3148.00
606.473,3133.00
607.460,3162.00
608.450,3158.50
609.437,3158.00
610.424,3132.00
611.413,3185.50
612.400,3094.00
613.388,3143.00
614.375,3179.00
615.361,3152.00
616.350,3181.00
617.336,3102.50
618.324,3107.00
619.310,3115.00
620.298,3183.00
621.284,3141.50
622.270,3130.00
623.257,3048.50
624.243,3057.00
625.230,3068.50
626.216,3085.50
627.203,3043.50
628.188,3057.00
629.173,2995.00
630.160,2958.50
631.145,2990.00
632.131,2923.00
633.116,2982.00
634.102,3006.00
635.087,2843.00
636.071,2853.50
637.057,2918.00
638.041,2838.00
639.027,2868.50
640.011,2826.00
640.995,2769.00
641.980,2830.00
642.964,2799.00
643.949,2820.00
644.932,2767.00
645.918,2749.50
646.901,2724.00
647.886,2739.50
648.868,2661.50
649.851,2743.50
650.836,2725.00
651.818,2704.00
652.803,2679.50
653.785,2632.00
654.769,2662.50
655.751,2557.50
656.733,2657.00
657.717,2614.50
658.699,2621.50
659.683,2644.00
660.664,2588.00
661.648,2538.50
662.629,2580.00
663.611,2491.50
664.594,2496.50
665.575,2535.00
666.558,2545.50
667.539,2498.50
668.521,2483.00
669.502,2520.50
670.484,2544.00
671.465,2417.00
672.445,2421.00
673.427,2490.50
674.407,2501.50
675.390,2420.00
676.369,2436.50
677.351,2418.00
678.331,2468.00
679.312,2334.00
680.292,2407.50
681.271,2397.00
682.253,2402.50
683.232,2394.00
684.213,2407.00
685.192,2345.50
686.172,2380.50
687.151,2351.00
688.132,2307.00
689.110,2350.00
690.089,2314.00
691.069,2247.50
692.047,2244.50
693.027,2259.00
694.005,2208.00
694.985,2231.50
695.963,2252.00
696.943,2167.00
697.920,2155.00
698.898,2140.50
699.877,2205.00
700.854,2149.50
701.833,2186.50
702.810,2109.00
703.789,2139.50
704.766,2126.00
705.745,2114.00
706.721,2059.00
707.698,2094.00
708.676,2115.00
709.653,2126.50
710.631,2125.50
711.607,2102.00
712.585,2050.50
713.561,1999.50
714.539,2048.00
715.514,2006.00
716.492,2045.00
717.467,1951.00
718.443,1982.00
719.420,1964.50
720.395,1997.00
721.372,2051.00
722.347,1975.50
723.324,1977.50
724.298,1942.00
725.275,1978.00
726.250,1953.00
727.226,1949.00
728.200,1929.50
729.176,1961.00
730.151,1951.00
731.125,1980.50
732.100,1949.00
733.074,1956.00
734.050,1921.00
735.023,1902.50
735.999,1904.00
736.972,1856.50
737.947,1869.00
738.921,1816.00
739.896,1891.50
740.869,1888.00
741.841,1889.00
742.816,1879.50
743.789,1872.50
744.763,1882.00
745.736,1871.50
746.710,1817.00
747.682,1858.50
748.656,1816.50
749.628,1811.00
750.602,1825.50
751.574,1852.50
752.548,1834.50
753.519,1829.50
754.491,1786.50
755.464,1794.00
756.435,1794.50
757.408,1754.50
758.379,1793.00
759.352,1693.00
760.323,1757.50
761.296,1750.50
762.267,1754.00
763.239,1799.50
764.209,1781.00
765.182,1732.00
766.152,1713.50
767.124,1710.50
768.094,1801.50
769.064,1718.50
770.036,1740.00
771.005,1740.50
771.977,1708.00
772.947,1739.50
773.918,1695.50
774.887,1711.50
775.858,1741.00
776.827,1696.00
777.798,1725.00
778.767,1681.50
779.738,1662.00
780.707,1644.50
781.677,1669.00
782.646,1649.00
783.614,1650.50
784.584,1644.50
785.552,1651.50
786.522,1651.50
787.490,1627.00
788.460,1656.50
789.428,1626.50
790.397,1666.50
791.365,1642.00
792.334,1644.00
793.302,1609.00
794.271,1606.00
795.238,1581.50
796.207,1607.00
797.174,1604.50
798.143,1587.00
799.109,1559.50
800.076,1583.50
801.044,1571.00
802.011,1541.50
802.979,1546.00
803.945,1585.00
804.913,1549.00
805.879,1549.00
806.847,1590.00
807.813,1479.50
808.780,1513.50
809.746,1538.50
810.713,1541.00
811.678,1530.50
812.646,1557.00
813.611,1500.50
814.578,1523.00
815.543,1489.00
816.510,1551.50
817.474,1456.00
818.439,1523.00
819.405,1534.00
820.370,1505.00
821.336,1481.50
822.300,1469.00
823.266,1449.50
824.230,1504.00
825.196,1456.00
826.160,1468.00
827.126,1462.00
828.089,1483.00
829.055,1481.00
830.018,1499.00
830.983,1459.00
831.946,1496.50
832.911,1446.50
833.874,1412.50
834.837,1418.50
835.802,1508.00
836.765,1474.50
837.729,1452.00
838.691,1467.00
839.656,1422.50
840.618,1473.50
841.582,1435.00
842.544,1423.50
843.508,1425.50
844.470,1450.00
845.434,1422.00
846.395,1505.50
847.359,1433.50
848.320,1438.00
849.283,1446.50
850.245,1441.50
851.208,1476.00
852.169,1471.50
853.130,1402.50
854.092,1479.00
855.053,1325.50
856.016,1435.00
856.976,1471.50
857.938,1454.00
858.899,1430.50
859.861,1423.50
860.821,1423.50
861.783,1452.50
862.743,1399.50
863.704,1465.00
864.664,1421.00
865.626,1467.50
866.585,1438.50
867.546,1402.50
868.506,1429.50
869.467,1394.50
870.426,1396.00
871.387,1416.00
872.346,1416.50
873.304,1399.50
874.265,1401.50
875.223,1398.50
876.184,1419.00
877.142,1417.00
878.102,1405.50
879.060,1381.50
880.021,1392.00
880.978,1391.00
881.938,1384.50
882.896,1395.50
883.856,1385.50
884.813,1410.00
885.772,1410.00
886.730,1366.00
887.689,1391.00
888.646,1373.00
889.603,1385.50
890.562,1390.50
891.519,1392.50
892.477,1346.00
893.434,1423.00
894.392,1353.50
895.349,1360.00
896.307,1338.50
897.263,1375.00
898.221,1357.50
899.177,1369.00
900.135,1358.00
901.091,1370.50
902.048,1371.50
903.004,1409.50
903.961,1335.50
904.917,1315.50
905.874,1320.00
906.829,1309.00
907.784,1386.00
908.741,1374.00
909.696,1397.00
910.653,1376.00
911.607,1379.00
912.564,1408.00
913.518,1367.50
914.475,1384.50
915.429,1355.50
916.385,1355.50
917.339,1288.50
918.295,1314.00
919.249,1423.50
920.205,1366.00
921.158,1455.00
922.114,1372.00
923.067,1367.00
924.020,1375.00
924.976,1374.50
925.929,1391.50
926.884,1241.50
927.837,1370.00
928.791,1340.00
929.744,1352.50
930.699,1385.00
931.651,1356.00
932.606,1340.50
933.558,1408.00
934.512,1362.00
935.464,1370.50
936.418,1352.00
937.370,1309.50
938.322,1345.00
939.276,1374.50
940.227,1352.00
941.181,1378.50
942.132,1318.50
943.085,1357.50
944.036,1294.50
944.990,1356.50
945.941,1335.50
946.893,1314.50
947.844,1366.50
948.797,1341.00
949.747,1342.00
950.700,1327.00
951.650,1357.00
952.601,1360.00
953.553,1343.50
954.503,1354.00
955.455,1334.00
956.405,1343.00
957.356,1376.00
958.306,1324.00
959.258,1335.50
960.207,1318.00
961.158,1340.50
962.108,1323.50
963.059,1292.50
964.008,1328.50
964.959,1297.00
965.908,1334.00
966.856,1322.00
967.807,1311.50
968.756,1378.50
969.706,1336.50
970.654,1324.00
971.605,1393.00
972.553,1363.50
973.503,1356.00
974.451,1382.00
975.401,1293.50
976.348,1342.00
977.296,1344.50
978.246,1352.50
979.193,1316.00
980.142,1289.50
981.090,1255.50
982.039,1336.00
982.986,1314.00
983.935,1279.50
984.882,1381.50
985.830,1283.50
986.777,1291.00
987.725,1354.00
988.672,1308.50
989.618,1347.00
990.567,1258.00
991.513,1351.00
992.461,1315.50
993.407,1310.50
994.354,1321.00
995.300,1313.50
996.248,1343.00
997.193,1329.00
998.141,1326.50
999.086,1396.50
1000.031,1307.00
1000.978,1287.00
1001.924,1319.00
1002.870,1361.00
1003.815,1365.50
1004.762,1293.50
1005.707,1325.00
1006.653,1345.50
1007.598,1295.00
1008.542,1301.50
1009.488,1354.00
1010.432,1322.00
1011.378,1296.50
1012.322,1312.50
1013.268,1339.00
1014.212,1384.50
1015.157,1327.50
1016.101,1323.50
1017.046,1323.00
1017.990,1275.50
1018.933,1258.00
1019.878,1342.00
1020.821,1339.50
1021.766,1326.50
1022.709,1351.50
1023.654,1320.50
1024.596,1330.50
1025.541,1375.50
1026.483,1305.50
1027.425,1352.00
1028.370,1323.00
1029.312,1337.50
1030.256,1332.50
1031.198,1332.00
1032.141,1305.00
1033.083,1314.50
1034.027,1392.00
1034.968,1316.50
1035.910,1339.00
1036.853,1315.00
1037.794,1343.00
1038.738,1329.50
1039.679,1316.50
1040.621,1356.00
1041.562,1386.00
1042.503,1296.50
1043.446,1358.00
1044.386,1303.50
1045.329,1347.00
1046.269,1360.50
1047.211,1331.00
1048.151,1366.50
1049.093,1297.00
1050.033,1348.50
1050.973,1351.50
1051.915,1398.00
1052.854,1342.00
1053.796,1357.00
1054.735,1400.00
1055.677,1383.00
1056.616,1407.50
1057.555,1366.00
1058.496,1381.50
1059.435,1351.50
1060.376,1397.00
1061.315,1435.50
1062.255,1373.00
1063.194,1399.50
1064.132,1443.50
1065.073,1363.00
1066.011,1423.00
1066.951,1416.50
1067.889,1391.50
1068.829,1388.00
1069.767,1431.00
1070.705,1370.50
1071.644,1393.50
1072.582,1370.00
1073.521,1441.00
1074.459,1448.00
1075.398,1444.00
1076.335,1411.00
1077.272,1417.00
1078.211,1390.00
1079.148,1420.00
1080.087,1422.50
1081.023,1394.00
1081.962,1415.50
1082.898,1494.00
1083.835,1447.00
1084.773,1419.00
1085.709,1473.00
1086.647,1445.50
1087.583,1475.50
1088.519,1444.00
1089.457,1450.50
1090.392,1481.00
1091.330,1454.50
1092.266,1481.50
1093.203,1556.00
1094.138,1497.00
1095.073,1478.00
1096.010,1454.00
1096.945,1454.00
1097.882,1474.00
1098.817,1508.00
1099.752,1439.00
1100.688,1449.00
1101.623,1454.00
1102.559,1465.00
1103.493,1475.50
1104.430,1472.00
1105.364,1492.50
1106.298,1488.50
1107.234,1465.00
1108.167,1484.50
1109.094,1463.50
1110.019,1451.50
1110.945,1462.00
1111.869,1490.50
1112.795,1450.00
1113.720,1413.00
1114.646,1439.00
1115.571,1468.50
1116.495,1477.00
1117.420,1402.00
1118.345,1464.50
1119.270,1379.00
1120.195,1386.00
1121.118,1390.50
1122.042,1371.00
1122.967,1413.00
1123.891,1351.50
1124.816,1365.00
1125.738,1400.00
1126.663,1375.00
1127.587,1345.00
1128.511,1330.50
1129.435,1344.50
1130.357,1296.00
1131.280,1345.00
1132.204,1310.00
1133.128,1307.50
1134.051,1367.00
1134.972,1323.50
1135.896,1356.50
1136.819,1332.00
1137.742,1239.50
1138.665,1252.00
1139.586,1311.00
1140.509,1325.50
1141.431,1290.50
1142.354,1278.00
1143.276,1223.50
1144.197,1252.00
1145.119,1293.00
1146.041,1226.50
1146.964,1295.50
1147.885,1228.00
1148.806,1256.50
1149.727,1281.50
1150.649,1205.00
1151.571,1249.00
1152.492,1197.00
1153.412,1217.00
1154.333,1186.00
1155.254,1221.00
1156.175,1267.50
1157.095,1183.00
1158.016,1241.50
1158.936,1155.00
1159.857,1241.00
1160.778,1184.00
1161.697,1169.00
1162.617,1188.00
1163.537,1169.50
1164.458,1207.50
1165.376,1208.00
1166.296,1148.00
1167.216,1183.50
1168.136,1147.00
1169.056,1210.50
1169.974,1168.00
1170.893,1187.00
1171.813,1206.00
1172.732,1191.50
1173.650,1098.00
1174.569,1115.00
1175.488,1180.50
1176.407,1155.00
1177.326,1141.00
1178.243,1154.50
1179.161,1138.50
1180.080,1116.00
1180.999,1148.00
1181.915,1161.50
1182.834,1137.00
1183.752,1106.00
1184.670,1146.50
1185.586,1173.00
1186.504,1132.50
1187.422,1073.00
1188.340,1149.00
1189.258,1096.50
1190.173,1106.50
1191.091,1082.00
1192.008,1165.00
1192.926,1146.50
1193.841,1173.00
1194.758,1081.00
1195.675,1120.00
1196.592,1115.00
1197.507,1158.00
1198.424,1079.50
1199.340,1136.00
1200.257,1101.00
1201.172,1145.00
1202.088,1098.50
1203.004,1111.00
1203.920,1083.00
1204.835,1155.00
1205.750,1090.00
1206.666,1105.00
1207.582,1093.50
1208.496,1053.00
1209.412,1105.50
1210.327,1066.50
1211.243,1110.00
1212.156,1141.00
1213.071,1092.00
1213.986,1086.00
1214.901,1132.00
1215.814,1122.50
1216.729,1131.00
1217.644,1145.00
1218.559,1083.50
1219.471,1130.00
1220.386,1067.00
1221.300,1081.00
1222.213,1082.00
1223.127,1130.00
1224.041,1114.00
1224.955,1129.50
1225.867,1089.00
1226.781,1123.00
1227.694,1062.50
1228.608,1151.00
1229.520,1120.00
1230.433,1166.00
1231.346,1144.00
1232.260,1115.50
1233.171,1093.50
1234.084,1054.00
1234.997,1114.50
1235.908,1125.50
1236.821,1126.00
1237.733,1121.50
1238.646,1182.00
1239.556,1137.00
1240.469,1140.50
1241.381,1114.50
1242.293,1151.00
1243.203,1099.50
1244.115,1118.50
1245.027,1149.00
1245.937,1112.50
1246.849,1129.50
1247.761,1137.50
1248.672,1134.50
1249.582,1160.50
1250.493,1206.00
1251.404,1144.50
1252.313,1116.50
1253.225,1152.00
1254.135,1091.50
1255.046,1149.00
1255.955,1145.50
1256.866,1181.50
1257.777,1107.50
1258.685,1142.00
1259.596,1141.50
1260.506,1159.00
1261.416,1142.00
1262.324,1095.50
1263.234,1164.50
1264.144,1141.50
1265.052,1152.50
1265.962,1154.00
1266.872,1079.00
1267.779,1136.50
1268.689,1129.50
1269.598,1152.50
1270.507,1162.00
1271.415,1145.00
1272.324,1156.00
1273.233,1132.00
1274.140,1099.50
1275.048,1152.50
1275.957,1146.00
1276.864,1177.00
1277.772,1145.50
1278.681,1131.50
1279.587,1183.50
1280.496,1160.00
1281.404,1147.50
1282.312,1135.00
1283.218,1167.00
1284.126,1164.50
1285.033,1159.50
1285.939,1144.50
1286.847,1156.00
1287.754,1160.00
1288.660,1173.50
1289.567,1209.00
1290.474,1165.50
1291.380,1173.00
1292.286,1196.50
1293.193,1172.50
1294.098,1136.00
1295.005,1224.50
1295.912,1160.50
1296.816,1202.50
1297.723,1131.00
1298.629,1188.50
1299.534,1112.50
1300.440,1191.50
1301.346,1113.00
1302.250,1179.00
1303.156,1151.50
1304.062,1132.50
1304.966,1150.00
1305.871,1159.50
1306.777,1131.00
1307.680,1100.50
1308.586,1144.00
1309.491,1117.00
1310.394,1163.50
1311.299,1106.50
1312.204,1184.00
1313.107,1155.00
1314.012,1174.50
1314.917,1127.50
1315.819,1108.50
1316.724,1177.50
1317.628,1096.00
1318.531,1117.00
1319.435,1143.00
1320.339,1031.00
1321.241,1164.50
1322.145,1111.50
1323.049,1072.50
1323.951,1135.50
1324.854,1068.50
1325.756,1177.00
1326.659,1138.00
1327.563,1105.50
1328.464,1098.50
1329.367,1077.00
1330.271,1078.00
1331.172,1123.50
1332.074,1092.00
1332.977,1052.50
1333.878,1101.00
1334.781,1152.00
1335.683,1088.50
1336.584,1081.50
1337.486,1082.50
1338.387,1083.00
1339.289,1067.00
1340.191,1107.50
1341.091,1084.00
1341.993,1054.00
1342.895,1070.50
1343.794,1042.50
1344.696,1096.50
1345.596,1019.00
1346.497,1047.00
1347.398,1083.00
1348.298,1088.00
1349.199,1071.00
1350.100,1021.50
1350.999,1041.50
1351.900,1034.00
1352.799,986.50
1353.699,1030.00
1354.600,1024.00
1355.499,999.00
1356.399,1005.00
1357.297,1020.00
1358.198,996.50
1359.098,980.50
1359.996,1012.50
1360.896,952.50
1361.796,1024.50
1362.694,1016.00
1363.593,1008.50
1364.491,977.50
1365.391,1019.50
1366.290,1027.00
1367.187,942.00
1368.086,971.50
1368.984,988.00
1369.883,949.00
1370.782,966.50
1371.679,1007.00
1372.577,950.50
1373.474,999.00
1374.373,947.00
1375.269,987.00
1376.168,957.00
1377.066,985.00
1377.962,930.00
1378.860,972.00
1379.756,881.00
1380.654,986.50
1381.552,888.50
1382.448,955.50
1383.346,937.00
1384.241,945.00
1385.139,928.50
1386.036,932.50
1386.931,943.50
1387.829,922.00
1388.724,972.50
1389.621,926.50
1390.516,874.50
1391.413,945.50
1392.309,877.50
1393.204,890.00
1394.101,880.50
1394.995,923.00
1395.891,925.00
1396.786,898.50
1397.682,872.00
1398.578,900.00
1399.472,877.50
1400.368,894.00
1401.262,920.00
1402.158,862.50
1403.051,881.50
1403.947,918.50
1404.840,859.00
1405.736,941.50
1406.631,894.50
1407.524,893.50
1408.419,889.00
1409.312,913.00
1410.207,888.50
1411.100,899.50
1411.995,893.50
1412.888,878.00
1413.782,893.00
1414.675,878.00
1415.569,870.00
1416.463,850.50
1417.355,799.00
1418.249,851.00
1419.141,838.00
1420.035,837.00
1420.927,911.00
1421.821,845.50
1422.713,853.00
1423.606,831.00
1424.498,813.00
1425.391,824.50
1426.282,831.50
1427.175,850.00
1428.068,862.00
1428.960,886.00
1429.852,807.50
1430.743,851.00
1431.636,811.00
1432.527,876.00
1433.419,837.50
1434.310,877.50
1435.202,854.00
1436.092,853.50
1436.984,819.50
1437.875,824.00
1438.767,847.00
1439.657,780.50
1440.548,809.00
1441.438,787.00
1442.330,854.50
1443.219,806.00
1444.111,830.50
1445.000,863.50
1445.891,831.00
1446.781,867.50
1447.672,814.00
1448.561,793.50
1449.452,899.50
1450.340,810.00
1451.231,822.50
1452.120,825.00
1453.010,817.00
1453.899,792.50
1454.789,731.00
1455.677,787.50
1456.568,763.00
1457.456,811.00
1458.346,762.00
1459.234,798.50
1460.123,807.00
1461.011,823.00
1461.901,794.00
1462.788,820.00
1463.678,782.00
1464.565,756.50
1465.454,824.00
1466.342,760.50
1467.231,835.00
1468.118,771.00
1469.006,771.00
1469.893,805.00
1470.782,795.50
1471.669,760.50
1472.557,801.00
1473.444,747.00
1474.330,794.50
1475.218,746.00
1476.105,817.50
1476.993,783.50
1477.879,729.50
1478.767,830.50
1479.652,761.50
1480.540,761.50
1481.426,758.00
1482.313,758.50
1483.199,726.50
1484.086,782.00
1484.972,721.50
1485.857,782.50
1486.744,738.50
1487.629,721.50
1488.516,760.00
1489.401,813.50
1490.287,753.50
1491.172,783.00
1492.058,737.50
1492.943,745.00
1493.828,761.50
1494.714,757.50
1495.598,750.00
1496.484,766.00
1497.368,787.50
1498.254,764.50
1499.138,730.50
1500.022,731.00
1500.907,739.00
1501.791,731.00
1502.676,751.50
1503.560,737.00
1504.445,713.50
1505.328,764.00
1506.211,747.00
1507.096,711.00
1507.979,763.50
1508.864,736.50
1509.747,729.50
1510.631,779.50
1511.514,712.00
1512.397,746.00
1513.281,754.50
1514.163,726.50
1515.047,725.00
1515.930,690.00
1516.812,739.00
1517.696,703.00
1518.578,740.00
1519.461,726.50
1520.343,675.50
1521.225,740.50
1522.108,680.50
1522.990,765.50
1523.873,689.50
1524.754,736.00
1525.635,727.50
1526.518,766.00
1527.399,736.00
1528.282,711.50
1529.163,725.00
1530.044,713.50
1530.926,739.00
1531.807,703.50
1532.689,748.00
1533.569,733.00
1534.450,689.50
1535.332,726.50
1536.212,734.50
1537.092,727.50
1537.974,733.50
1538.854,701.50
1539.735,714.50
1540.615,671.50
1541.495,702.00
1542.376,702.00
1543.255,699.00
1544.135,661.50
1545.016,720.50
1545.895,664.50
1546.774,672.50
1547.655,641.00
1548.534,730.50
1549.414,714.50
1550.293,702.50
1551.172,708.50
1552.052,716.00
1552.930,675.50
1553.809,681.00
1554.689,718.00
1555.567,721.50
1556.445,704.50
1557.325,695.50
1558.203,694.00
1559.080,658.00
1559.960,690.00
1560.838,708.50
1561.715,737.50
1562.594,669.50
1563.472,677.50
1564.349,704.50
1565.228,696.50
1566.105,687.00
1566.982,719.00
1567.861,668.00
1568.738,684.50
1569.615,686.00
1570.493,700.50
1571.370,729.00
1572.246,671.50
1573.124,681.00
1574.000,703.00
1574.877,667.00
1575.755,682.00
1576.631,675.00
1577.507,733.50
1578.384,707.50
1579.260,665.50
1580.136,714.50
1581.011,688.50
1581.889,689.50
1582.764,702.00
1583.639,651.00
1584.516,619.00
1585.391,687.50
1586.266,681.50
1587.143,632.50
1588.018,679.50
1588.893,719.50
1589.768,636.50
1590.644,663.00
1591.519,656.50
1592.393,693.00
1593.269,676.00
1594.143,698.00
1595.018,674.00
1595.892,655.00
1596.767,651.00
1597.641,612.00
1598.515,644.00
1599.391,714.50
1600.264,682.50
1601.138,681.50
1602.011,673.00
1602.886,670.00
1603.760,672.00
1604.633,649.00
1605.508,695.00
1606.381,685.00
1607.254,697.50
1608.127,678.50
1609.001,686.50
1609.874,646.00
1610.746,654.00
1611.619,725.00
1612.493,639.00
1613.365,663.50
1614.238,686.00
1615.110,681.00
1615.984,634.50
1616.855,686.00
1617.727,648.00
1618.599,679.50
1619.473,638.00
1620.344,636.00
1621.216,635.00
1622.087,633.50
1622.960,665.50
1623.832,676.00
1624.703,647.50
1625.574,639.50
1626.445,683.00
1627.317,656.50
1628.188,639.50
1629.059,680.50
1629.930,680.00
1630.802,619.00
1631.672,652.50
1632.543,664.00
1633.413,662.00
1634.283,623.50
1635.155,682.50
1636.025,634.00
1636.895,617.50
1637.765,682.00
1638.636,640.00
1639.506,657.50
1640.376,627.50
1641.245,654.00
1642.114,615.50
1642.985,608.50
1643.855,625.50
1644.724,645.00
1645.593,599.50
1646.462,644.00
1647.333,687.50
1648.201,694.50
1649.070,666.50
1649.939,666.00
1650.807,654.00
1651.676,616.50
1652.546,671.00
1653.414,636.50
1654.282,629.50
1655.150,617.00
1656.018,621.00
1656.888,618.00
1657.756,645.00
1658.623,626.50
1659.491,600.00
1660.359,639.00
1661.226,607.00
1662.095,560.50
1662.962,669.00
1663.830,634.50
1664.697,619.00
1665.564,671.50
1666.431,640.50
1667.297,675.50
1668.166,581.50
1669.033,532.00
1669.899,666.00
1670.766,638.00
1671.632,618.00
1672.499,626.00
1673.367,663.50
1674.233,605.00
1675.099,577.50
1675.965,628.00
1676.831,578.00
1677.696,624.50
1678.562,630.00
1679.430,555.00
1680.295,648.00
1681.161,618.00
1682.026,582.00
1682.891,615.00
1683.756,600.50
1684.621,577.00
1685.486,657.50
1686.353,614.50
1687.218,638.50
1688.083,560.00
1688.947,629.00
1689.812,653.00
1690.677,622.00
1691.541,633.00
1692.405,663.00
1693.269,648.00
1694.135,625.00
1694.999,589.50
1695.863,605.00
1696.727,632.50
1697.591,635.50
1698.455,543.00
1699.318,592.00
1700.182,534.50
1701.045,610.00
1701.909,598.00
1702.772,604.50
1703.637,586.00
1704.500,605.00
1705.363,640.00
1706.226,633.00
1707.089,576.50
1707.951,644.50
1708.814,608.50
1709.677,561.50
1710.539,561.50
1711.402,599.50
1712.264,627.50
1713.126,647.50
1713.988,603.50
1714.852,594.50
1715.714,594.50
1716.576,599.00
1717.438,621.50
1718.299,609.00
1719.161,601.50
1720.023,582.50
1720.884,583.00
1721.745,645.00
1722.607,610.50
1723.468,623.00
1724.329,599.50
1725.190,613.50
1726.051,608.00
1726.912,647.50
1727.772,647.50
1728.633,579.50
1729.494,594.00
1730.354,609.00
1731.214,580.00
1732.075,566.50
1732.935,580.50
1733.797,593.50
1734.657,613.00
1735.517,608.00
1736.377,566.00
1737.237,579.50
1738.096,545.00
1738.956,584.50
1739.816,533.50
1740.675,576.50
1741.534,553.00
1742.394,559.50
1743.253,561.50
1744.112,604.50
1744.971,559.50
1745.830,584.00
1746.689,569.00
1747.547,576.50
1748.406,549.50
1749.265,530.50
1750.123,593.00
1750.982,600.50
1751.840,615.50
1752.698,647.00
1753.556,571.00
1754.414,565.00
1755.272,604.50
1756.130,550.00
1756.988,649.00
1757.846,573.50
1758.703,580.50
1759.559,560.00
1760.417,550.00
1761.274,571.00
1762.131,539.50
1762.989,519.00
1763.846,526.50
1764.703,581.00
1765.560,627.50
1766.417,612.00
1767.273,571.00
1768.130,592.50
1768.987,575.50
1769.843,587.50
1770.700,621.00
1771.556,590.50
1772.412,609.00
1773.268,573.50
1774.125,575.50
1774.980,602.00
1775.836,538.50
1776.692,624.00
1777.546,554.00
1778.402,564.50
1779.257,614.50
1780.113,570.50
1780.968,563.50
1781.824,591.50
1782.679,583.50
1783.534,563.00
1784.389,618.50
1785.244,570.00
1786.099,562.00
1786.954,588.00
1787.808,600.00
1788.661,599.00
1789.516,635.50
1790.370,571.50
1791.225,619.50
1792.079,573.50
1792.933,537.00
1793.787,550.50
1794.641,588.00
1795.495,606.50
1796.349,539.50
1797.201,584.50
1798.055,575.50
1798.908,563.50
1799.762,539.00
1800.615,599.00
1801.469,557.00
1802.322,569.50
1803.175,548.50
1804.028,574.50
1804.880,573.50
1805.732,578.00
1806.585,579.50
1807.438,565.50
1808.291,534.00
1809.143,555.50
1809.996,573.50
1810.846,542.50
1811.699,607.00
1812.551,547.00
1813.403,545.00
1814.255,558.00
1815.107,518.50
1815.959,535.00
1816.809,539.50
1817.661,521.00
1818.512,607.50
1819.364,630.00
1820.215,600.50
1821.067,545.50
1821.918,549.00
1822.768,527.50
1823.619,556.00
1824.470,551.50
1825.321,543.00
1826.172,575.50
1827.021,629.50
1827.871,526.50
1828.722,622.00
1829.572,614.50
1830.423,573.00
1831.273,529.50
1832.122,550.00
1832.972,544.00
1833.822,575.50
1834.672,547.00
1835.522,586.00
1836.370,530.00
1837.220,536.00
1838.070,549.50
1838.919,555.00
1839.769,583.50
1840.616,607.50
1841.466,534.50
1842.315,587.00
1843.164,516.50
1844.013,516.00
1844.860,543.00
1845.709,528.00
1846.558,571.00
1847.407,599.50
1848.254,588.50
1849.102,534.50
1849.951,567.50
1850.799,508.00
1851.648,595.50
1852.494,568.00
1853.342,532.00
1854.190,530.50
1855.038,583.50
1855.884,515.00
1856.732,510.50
1857.580,556.50
1858.428,571.00
1859.273,551.00
1860.121,582.50
1860.968,534.50
1861.816,526.50
1862.661,546.00
1863.508,512.50
1864.355,530.00
1865.202,504.00
1866.047,538.50
1866.894,550.00
1867.741,495.00
1868.586,548.00
1869.432,573.50
1870.279,523.50
1871.125,530.50
1871.970,589.50
1872.816,502.00
1873.662,518.50
1874.506,577.50
1875.352,538.50
1876.198,529.00
1877.044,536.50
1877.888,510.00
1878.734,541.50
1879.579,551.50
1880.423,573.00
1881.268,510.00
1882.113,490.00
1882.959,515.50
1883.802,532.00
1884.647,537.50
1885.492,585.50
1886.335,562.00
1887.180,573.00
1888.025,562.50
1888.867,545.00
1889.712,601.00
1890.556,571.00
1891.399,548.50
1892.243,534.50
1893.087,524.50
1893.930,494.50
1894.774,599.00
1895.618,547.00
1896.460,541.00
1897.304,558.00
1898.147,575.50
1898.989,555.00
1899.833,538.50
1900.676,544.00
1901.518,534.00
1902.361,531.50
1903.202,542.00
1904.046,506.50
1904.889,538.50
1905.730,488.50
1906.573,502.00
1907.415,582.50
1908.256,541.50
1909.099,513.50
1909.941,561.50
1910.782,587.50
1911.624,552.50
1912.465,540.00
1913.307,506.00
1914.149,529.00
1914.989,517.50
1915.831,505.00
1916.671,566.00
1917.513,535.50
1918.355,501.00
1919.195,500.50
1920.036,515.50
1920.876,534.50
1921.717,488.50
1922.558,558.50
1923.398,533.00
1924.239,525.50
1925.078,600.00
1925.919,547.50
1926.760,493.00
1927.599,546.00
1928.440,549.00
1929.279,544.50
1930.119,516.50
1930.958,518.50
1931.798,562.00
1932.638,525.00
1933.477,557.50
1934.317,558.00
1935.155,502.00
1935.995,523.00
1936.833,541.00
1937.673,542.00
1938.512,489.50
1939.350,572.00
1940.190,491.50
1941.027,526.00
1941.867,539.50
1942.704,544.00
1943.543,550.50
1944.381,492.50
1945.220,510.50
1946.057,572.50
1946.896,525.00
1947.733,547.50
1948.572,495.50
1949.408,556.00
1950.247,554.00
1951.085,462.00
1951.922,560.50
1952.760,548.00
1953.597,501.00
1954.435,554.00
1955.271,550.00
1956.109,525.00
1956.945,503.00
1957.783,535.00
1958.619,483.00
1959.456,522.50
1960.292,543.00
1961.129,517.50
1961.965,542.50
1962.802,549.50
1963.638,520.50
1964.475,551.00
1965.310,562.00
1966.145,523.00
1966.982,480.50
1967.817,519.00
1968.654,535.50
1969.489,545.00
1970.325,509.00
1971.160,522.50
1971.996,467.00
1972.831,472.50
1973.667,488.50
1974.501,550.00
1975.337,557.50
1976.171,544.50
1977.006,497.00
1977.841,530.50
1978.675,529.50
1979.511,496.00
1980.345,498.00
1981.180,559.50
1982.014,537.50
1982.849,556.50
1983.682,540.00
1984.516,548.00
1985.351,524.50
1986.184,572.00
1987.019,487.00
1987.852,545.00
1988.687,477.00
1989.519,484.50
1990.352,560.00
1991.187,560.00
1992.019,525.00
1992.854,523.00
1993.686,551.50
1994.518,562.50
1995.352,529.00
1996.185,584.00
1997.019,533.00
1997.851,508.00
1998.682,508.50
1999.516,515.50
2000.348,584.00

<< BACKGROUND SPECTRUM >>
Wave[dcm-1],No13
96.716,2552.00
97.759,2377.00
98.802,2300.00
99.846,2930.00
100.886,2597.00
101.929,2737.00
102.972,2730.00
104.015,2596.00
105.057,2732.00
106.100,2222.00
107.142,2615.00
108.184,2969.00
109.226,2856.00
110.268,3049.00
111.310,3341.00
112.352,2927.00
113.393,2971.00
114.435,2864.00
115.476,3082.00
116.517,3098.00
117.558,2583.00
118.599,2963.00
119.640,3281.00
120.681,3241.00
121.722,3160.00
122.762,2866.00
123.803,2727.00
124.843,3099.00
125.883,3343.00
126.923,3545.00
127.963,3293.00
129.001,3574.00
130.041,3982.00
131.080,3290.00
132.120,3151.00
133.159,3522.00
134.199,3620.00
135.238,3180.00
136.277,3504.00
137.316,3690.00
138.355,3632.00
139.393,3180.00
140.432,3305.00
141.470,3417.00
142.509,3173.00
143.547,3749.00
144.585,2949.00
145.623,3327.00
146.661,3131.00
147.699,3478.00
148.736,3610.00
149.774,3175.00
150.811,3514.00
151.849,3958.00
152.886,3405.00
153.923,3668.00
154.960,3103.00
155.997,3924.00
157.034,4893.00
158.072,3535.00
159.109,4073.00
160.145,4218.00
161.182,3188.00
162.218,3510.00
163.254,3323.00
164.290,3303.00
165.326,3981.00
166.361,3849.00
167.397,3497.00
168.432,3731.00
169.468,3403.00
170.503,3651.00
171.538,3383.00
172.573,3751.00
173.608,3206.00
174.643,3730.00
175.677,3611.00
176.712,3779.00
177.746,3871.00
178.781,3345.00
179.815,2716.00
180.849,3799.00
181.883,3294.00
182.917,2818.00
183.951,3107.00
184.984,3832.00
186.020,3299.00
187.053,3632.00
188.087,3205.00
189.120,3495.00
190.153,3668.00
191.186,3683.00
192.219,3801.00
193.251,3642.00
194.284,3787.00
195.317,3813.00
196.349,6062.00
197.381,3435.00
198.413,3441.00
199.445,3275.00
200.477,3578.00
201.509,3597.00
202.543,3535.00
203.575,3942.00
204.606,3675.00
205.637,5244.00
206.669,3142.00
207.700,3722.00
208.731,3557.00
209.762,3202.00
210.792,3233.00
211.823,3681.00
212.854,3229.00
213.884,4359.00
214.914,3685.00
215.947,3526.00
216.977,3655.00
218.007,3527.00
219.037,3859.00
220.066,3327.00
221.096,3841.00
222.126,3150.00
223.155,3415.00
224.184,3683.00
225.214,4230.00
226.245,3898.00
227.274,3337.00
228.302,3670.00
229.331,3735.00
230.360,3437.00
231.388,3421.00
232.417,3198.00
233.445,3644.00
234.473,3407.00
235.501,3759.00
236.531,3726.00
237.559,3717.00
238.587,3333.00
239.614,3290.00
240.642,3659.00
241.669,3716.00
242.696,3710.00
243.724,3659.00
244.753,4012.00
245.780,3430.00
246.806,3217.00
247.833,3585.00
248.860,3446.00
249.886,3557.00
250.913,3200.00
251.939,3523.00
252.967,3503.00
253.993,3509.00
255.019,3911.00
256.045,3589.00
257.070,4043.00
258.096,3250.00
259.121,3738.00
260.147,3575.00
261.174,3470.00
262.199,3419.00
263.224,3601.00
264.249,3908.00
265.274,4106.00
266.298,3617.00
267.323,3607.00
268.349,3899.00
269.374,3197.00
270.398,3248.00
271.422,3722.00
272.446,3287.00
273.470,3130.00
274.496,3751.00
275.519,3773.00
276.543,3817.00
277.566,3895.00
278.589,3905.00
279.613,3731.00
280.636,3707.00
281.661,3843.00
282.684,3839.00
283.706,3922.00
284.729,4122.00
285.751,3003.00
286.774,4023.00
287.798,3382.00
288.820,3001.00
289.842,3300.00
290.864,3395.00
291.886,3643.00
292.910,3428.00
293.932,4091.00
294.953,3545.00
295.974,3591.00
296.996,3694.00
298.017,3545.00
299.040,3402.00
300.061,3706.00
301.082,3387.00
302.102,3208.00
303.123,3778.00
304.143,3553.00
305.166,3504.00
306.186,3786.00
307.206,3389.00
308.226,3732.00
309.246,3099.00
310.268,3876.00
311.288,3532.00
312.307,3199.00
313.327,3513.00
314.346,3762.00
315.368,3024.00
316.387,3621.00
317.406,3638.00
318.425,3523.00
319.443,3485.00
320.464,3144.00
321.483,4015.00
322.501,3340.00
323.520,3970.00
324.538,3486.00
325.558,4025.00
326.576,3614.00
327.594,3529.00
328.612,3376.00
329.629,3168.00
330.649,3762.00
331.666,3569.00
332.684,3154.00
333.701,3709.00
334.718,3205.00
335.737,3469.00
336.754,3722.00
337.771,3813.00
338.787,3231.00
339.806,3455.00
340.823,3434.00
341.839,3613.00
342.855,3494.00
343.871,3614.00
344.889,3363.00
345.905,3841.00
346.921,3778.00
347.937,4368.00
348.954,4128.00
349.970,3671.00
350.985,3550.00
352.000,3109.00
353.017,3753.00
354.032,3117.00
355.047,3826.00
356.062,3500.00
357.077,3407.00
358.093,3963.00
359.108,3710.00
360.122,3625.00
361.136,3457.00
362.152,3947.00
363.166,3235.00
364.180,3149.00
365.194,3967.00
366.210,3402.00
367.223,3307.00
368.237,3406.00
369.250,3595.00
370.265,3327.00
371.278,3856.00
372.291,3670.00
373.304,3032.00
374.319,3727.00
375.332,3754.00
376.344,4033.00
377.357,3405.00
378.371,3820.00
379.383,3375.00
380.395,4324.00
381.407,4075.00
382.421,3435.00
383.433,3416.00
384.445,3382.00
385.456,3517.00
386.470,3098.00
387.481,3930.00
388.492,3925.00
389.505,3284.00
390.516,3954.00
391.527,3512.00
392.538,3468.00
393.551,3723.00
394.561,4324.00
395.572,3720.00
396.582,3604.00
397.594,3785.00
398.604,3399.00
399.614,3620.00
400.624,3400.00
401.636,3433.00
402.646,3530.00
403.655,3175.00
404.667,3405.00
405.676,3381.00
406.685,4327.00
407.694,3913.00
408.705,2998.00
409.714,3134.00
410.723,3267.00
411.734,3291.00
412.742,3395.00
413.751,3629.00
414.759,3636.00
415.769,3590.00
416.777,3834.00
417.785,3559.00
418.795,3398.00
419.803,3609.00
420.811,3284.00
421.818,3921.00
422.828,3439.00
423.835,3444.00
424.842,3370.00
425.852,3264.00
426.859,3674.00
427.866,3711.00
428.874,3576.00
429.881,3512.00
430.888,3801.00
431.894,3584.00
432.902,3554.00
433.909,4520.00
434.915,3645.00
435.923,4286.00
436.929,3040.00
437.935,3513.00
438.942,3396.00
439.948,3555.00
440.953,4088.00
441.959,3189.00
442.966,3939.00
443.971,3721.00
444.976,3219.00
445.983,3604.00
446.988,3439.00
447.993,4011.00
448.999,3635.00
450.004,3538.00
451.008,3388.00
452.014,4058.00
453.019,3850.00
454.023,3203.00
455.029,3237.00
456.032,3956.00
457.036,3496.00
458.042,2928.00
459.045,3459.00
460.049,3726.00
461.052,4041.00
462.057,3744.00
463.060,4012.00
464.063,3378.00
465.068,3452.00
466.071,3299.00
467.073,3900.00
468.078,3124.00
469.080,3105.00
470.082,3532.00
471.087,3383.00
472.089,3569.00
473.091,3768.00
474.095,3979.00
475.096,3432.00
476.098,3371.00
477.101,3726.00
478.103,3257.00
479.104,4195.00
480.107,3464.00
481.108,2998.00
482.109,4220.00
483.112,4195.00
484.113,4582.00
485.114,3773.00
486.116,3581.00
487.117,3857.00
488.117,3578.00
489.119,3668.00
490.119,3730.00
491.121,3226.00
492.121,3023.00
493.121,2897.00
494.123,3616.00
495.122,3668.00
496.122,3529.00
497.123,4526.00
498.122,3359.00
499.121,3621.00
500.122,3601.00
501.121,3183.00
502.120,3128.00
503.121,3243.00
504.119,3211.00
505.118,3747.00
506.118,3302.00
507.117,3304.00
508.115,3699.00
509.115,3535.00
510.113,3070.00
511.112,3777.00
512.110,3481.00
513.108,3807.00
514.107,3878.00
515.105,3804.00
516.102,3994.00
517.101,3506.00
518.098,3546.00
519.095,4069.00
520.094,3397.00
521.091,3420.00
522.089,3704.00
523.086,3345.00
524.082,3722.00
525.081,3658.00
526.077,4757.00
527.073,4513.00
528.071,3506.00
529.067,3357.00
530.064,3389.00
531.060,3167.00
532.056,3398.00
533.053,3897.00
534.048,3759.00
535.044,3563.00
536.041,3711.00
537.036,3553.00
538.030,3675.00
539.027,3798.00
540.022,3126.00
541.019,3506.00
542.013,3795.00
543.007,3659.00
544.004,3476.00
544.998,3541.00
545.994,4140.00
546.988,3975.00
547.981,3443.00
548.977,4137.00
549.971,3718.00
550.964,3805.00
551.960,3615.00
552.953,3575.00
553.948,3851.00
554.941,3365.00
555.934,3299.00
556.929,3706.00
557.922,3287.00
558.916,3831.00
559.909,4014.00
560.901,3607.00
561.895,3597.00
562.888,3258.00
563.880,3750.00
564.874,3916.00
565.865,3783.00
566.859,3266.00
567.851,4024.00
568.842,3484.00
569.836,3532.00
570.827,3223.00
571.820,3640.00
572.811,3720.00
573.802,3565.00
574.795,3289.00
575.786,3862.00
576.779,3689.00
577.769,3201.00
578.760,3598.00
579.752,3203.00
580.742,3317.00
581.735,3687.00
582.725,3335.00
583.714,3789.00
584.706,3218.00
585.696,3511.00
586.688,3755.00
587.677,3515.00
588.667,3734.00
589.658,3500.00
590.647,3643.00
591.638,3599.00
592.627,3339.00
593.616,3088.00
594.607,3624.00
595.595,3531.00
596.586,3167.00
597.574,3879.00
598.562,3897.00
599.553,3165.00
600.541,3566.00
601.531,3679.00
602.519,3419.00
603.508,3643.00
604.496,3699.00
605.484,3593.00
606.473,3491.00
607.460,3375.00
608.450,3427.00
609.437,3730.00
610.424,3883.00
611.413,3083.00
612.400,3298.00
613.388,3582.00
614.375,3416.00
615.361,3450.00
616.350,3282.00
617.336,8360.00
618.324,3897.00
619.310,3321.00
620.298,3140.00
621.284,3621.00
622.270,3233.00
623.257,3586.00
624.243,3559.00
625.230,3788.00
626.216,3498.00
627.203,3919.00
628.188,3440.00
629.173,3378.00
630.160,3285.00
631.145,2680.00
632.131,3350.00
633.116,3149.00
634.102,3593.00
635.087,3822.00
636.071,3809.00
637.057,3336.00
638.041,3135.00
639.027,3270.00
640.011,3405.00
640.995,3266.00
641.980,3253.00
642.964,3423.00
643.949,3888.00
644.932,2786.00
645.918,3317.00
646.901,3538.00
647.886,3339.00
648.868,3425.00
649.851,3141.00
650.836,2922.00
651.818,3177.00
652.803,3690.00
653.785,3519.00
654.769,3651.00
655.751,3749.00
656.733,3894.00
657.717,3049.00
658.699,3547.00
659.683,3243.00
660.664,3163.00
661.648,3392.00
662.629,3315.00
663.611,3326.00
664.594,3118.00
665.575,3082.00
666.558,3396.00
667.539,3094.00
668.521,3377.00
669.502,3329.00
670.484,3316.00
671.465,3268.00
672.445,3469.00
673.427,3190.00
674.407,3170.00
675.390,3556.00
676.369,3308.00
677.351,2959.00
678.331,3588.00
679.312,3424.00
680.292,3257.00
681.271,2969.00
682.253,3562.00
683.232,3077.00
684.213,3253.00
685.192,3682.00
686.172,3910.00
687.151,3369.00
688.132,3451.00
689.110,3551.00
690.089,3748.00
691.069,2904.00
692.047,2850.00
693.027,2978.00
694.005,3414.00
694.985,3989.00
695.963,3461.00
696.943,3264.00
697.920,3032.00
698.898,3812.00
699.877,3595.00
700.854,3255.00
701.833,3224.00
702.810,3756.00
703.789,3456.00
704.766,4458.00
705.745,3942.00
706.721,3233.00
707.698,3704.00
708.676,3040.00
709.653,3248.00
710.631,3657.00
711.607,3350.00
712.585,3396.00
713.561,3129.00
714.539,3905.00
715.514,3275.00
716.492,3068.00
717.467,3824.00
718.443,3050.00
719.420,3722.00
720.395,3766.00
721.372,3477.00
722.347,3681.00
723.324,3213.00
724.298,3369.00
725.275,3113.00
726.250,3306.00
727.226,3162.00
728.200,2958.00
729.176,3295.00
730.151,3571.00
731.125,3768.00
732.100,2936.00
733.074,3288.00
734.050,3175.00
735.023,3026.00
735.999,3261.00
736.972,3228.00
737.947,3692.00
738.921,3467.00
739.896,3540.00
740.869,3415.00
741.841,3276.00
742.816,3805.00
743.789,3074.00
744.763,3057.00
745.736,3307.00
746.710,3172.00
747.682,3055.00
748.656,3277.00
749.628,3278.00
750.602,3298.00
751.574,3364.00
752.548,4191.00
753.519,3442.00
754.491,2944.00
755.464,3172.00
756.435,3989.00
757.408,3579.00
758.379,3484.00
759.352,2936.00
760.323,2993.00
761.296,3243.00
762.267,3351.00
763.239,3073.00
764.209,3540.00
765.182,4427.00
766.152,3682.00
767.124,3110.00
768.094,3062.00
769.064,3512.00
770.036,2974.00
771.005,3621.00
771.977,3172.00
772.947,3216.00
773.918,3756.00
774.887,3265.00
775.858,3083.00
776.827,3236.00
777.798,3236.00
778.767,3792.00
779.738,3255.00
780.707,3218.00
781.677,3348.00
782.646,3112.00
783.614,3689.00
784.584,3414.00
785.552,3504.00
786.522,2961.00
787.490,3308.00
788.460,3183.00
789.428,3189.00
790.397,3649.00
791.365,2970.00
792.334,3188.00
793.302,3398.00
794.271,3427.00
795.238,3174.00
796.207,3145.00
797.174,3596.00
798.143,2993.00
799.109,3679.00
800.076,3216.00
801.044,2870.00
802.011,3100.00
802.979,3131.00
803.945,3286.00
804.913,3877.00
805.879,3224.00
806.847,2913.00
807.813,3639.00
808.780,3249.00
809.746,3242.00
810.713,3649.00
811.678,2930.00
812.646,3186.00
813.611,3231.00
814.578,2968.00
815.543,3655.00
816.510,2840.00
817.474,3193.00
818.439,3231.00
819.405,3465.00
820.370,3079.00
821.336,3032.00
822.300,3431.00
823.266,3215.00
824.230,3439.00
825.196,3290.00
826.160,3652.00
827.126,3619.00
828.089,4015.00
829.055,3270.00
830.018,3356.00
830.983,4057.00
831.946,3062.00
832.911,3078.00
833.874,3888.00
834.837,3148.00
835.802,3175.00
836.765,3753.00
837.729,3108.00
838.691,3216.00
839.656,3601.00
840.618,3375.00
841.582,3506.00
842.544,3549.00
843.508,3737.00
844.470,2990.00
845.434,2874.00
846.395,2721.00
847.359,3146.00
848.320,2890.00
849.283,3024.00
850.245,3141.00
851.208,3486.00
852.169,3204.00
853.130,2992.00
854.092,3425.00
855.053,3250.00
856.016,3221.00
856.976,4324.00
857.938,3217.00
858.899,3262.00
859.861,2948.00
860.821,3143.00
861.783,2549.00
862.743,3235.00
863.704,3509.00
864.664,2741.00
865.626,3310.00
866.585,3063.00
867.546,3323.00
868.506,3323.00
869.467,2782.00
870.426,3297.00
871.387,3490.00
872.346,3519.00
873.304,3350.00
874.265,3416.00
875.223,3258.00
876.184,3333.00
877.142,3091.00
878.102,3212.00
879.060,3196.00
880.021,3309.00
880.978,2863.00
881.938,3218.00
882.896,3540.00
883.856,3400.00
884.813,3142.00
885.772,3114.00
886.730,3436.00
887.689,3388.00
888.646,3032.00
889.603,3557.00
890.562,3568.00
891.519,3340.00
892.477,3389.00
893.434,3281.00
894.392,2858.00
895.349,3248.00
896.307,3341.00
897.263,3447.00
898.221,3311.00
899.177,3084.00
900.135,3449.00
901.091,3187.00
902.048,3675.00
903.004,3166.00
903.961,3077.00
904.917,3235.00
905.874,3259.00
906.829,2954.00
907.784,3260.00
908.741,3246.00
909.696,3083.00
910.653,2755.00
911.607,3157.00
912.564,3132.00
913.518,3137.00
914.475,3274.00
915.429,4939.00
916.385,2919.00
917.339,3660.00
918.295,3362.00
919.249,3396.00
920.205,3270.00
921.158,3298.00
922.114,3136.00
923.067,3277.00
924.020,3256.00
924.976,3088.00
925.929,3337.00
926.884,3369.00
927.837,3538.00
928.791,3453.00
929.744,2933.00
930.699,3227.00
931.651,3270.00
932.606,2888.00
933.558,3087.00
934.512,3418.00
935.464,3310.00
936.418,3612.00
937.370,3404.00
938.322,3007.00
939.276,3124.00
940.227,3228.00
941.181,3308.00
942.132,3689.00
943.085,3815.00
944.036,2833.00
944.990,3560.00
945.941,3040.00
946.893,3103.00
947.844,2883.00
948.797,3399.00
949.747,3997.00
950.700,3133.00
951.650,2682.00
952.601,3363.00
953.553,3015.00
954.503,3430.00
955.455,3206.00
956.405,3220.00
957.356,2858.00
958.306,3515.00
959.258,3217.00
960.207,3629.00
961.158,3524.00
962.108,3253.00
963.059,2958.00
964.008,2875.00
964.959,3842.00
965.908,3152.00
966.856,2975.00
967.807,2800.00
968.756,3563.00
969.706,3252.00
970.654,3152.00
971.605,3179.00
972.553,3276.00
973.503,3186.00
974.451,3489.00
975.401,3309.00
976.348,3254.00
977.296,3129.00
978.246,3444.00
979.193,3667.00
980.142,2994.00
981.090,3349.00
982.039,3199.00
982.986,3300.00
983.935,3567.00
984.882,3256.00
985.830,3426.00
986.777,3382.00
987.725,3060.00
988.672,3035.00
989.618,3213.00
990.567,3000.00
991.513,3136.00
992.461,3013.00
993.407,3451.00
994.354,3331.00
995.300,3341.00
996.248,3296.00
997.193,3362.00
998.141,3123.00
999.086,3302.00
1000.031,3291.00
1000.978,2821.00
1001.924,3209.00
1002.870,3351.00
1003.815,2612.00
1004.762,3043.00
1005.707,3231.00
1006.653,3119.00
1007.598,3195.00
1008.542,2884.00
1009.488,2814.00
1010.432,3078.00
1011.378,2995.00
1012.322,3590.00
1013.268,2860.00
1014.212,3192.00
1015.157,3289.00
1016.101,3654.00
1017.046,2916.00
1017.990,2953.00
1018.933,3204.00
1019.878,2967.00
1020.821,3000.00
1021.766,2852.00
1022.709,3078.00
1023.654,3148.00
1024.596,3450.00
1025.541,3648.00
1026.483,3624.00
1027.425,3281.00
1028.370,3376.00
1029.312,3432.00
1030.256,3093.00
1031.198,3072.00
1032.141,3091.00
1033.083,3612.00
1034.027,3261.00
1034.968,3367.00
1035.910,2749.00
1036.853,3210.00
1037.794,3284.00
1038.738,2935.00
1039.679,3527.00
1040.621,3059.00
1041.562,3121.00
1042.503,3532.00
1043.446,2935.00
1044.386,3470.00
1045.329,3211.00
1046.269,3330.00
1047.211,3129.00
1048.151,3254.00
1049.093,2969.00
1050.033,3970.00
1050.973,3324.00
1051.915,3118.00
1052.854,3117.00
1053.796,3402.00
1054.735,3033.00
1055.677,3053.00
1056.616,3241.00
1057.555,3263.00
1058.496,2861.00
1059.435,3443.00
1060.376,3034.00
1061.315,2982.00
1062.255,2915.00
1063.194,3106.00
1064.132,2854.00
1065.073,3301.00
1066.011,3189.00
1066.951,3178.00
1067.889,2952.00
1068.829,3329.00
1069.767,3271.00
1070.705,2598.00
1071.644,3112.00
1072.582,2805.00
1073.521,3059.00
1074.459,3127.00
1075.398,3304.00
1076.335,3041.00
1077.272,3838.00
1078.211,3334.00
1079.148,3723.00
1080.087,3204.00
1081.023,3658.00
1081.962,3441.00
1082.898,2692.00
1083.835,3071.00
1084.773,2820.00
1085.709,2808.00
1086.647,3194.00
1087.583,3033.00
1088.519,3302.00
1089.457,3284.00
1090.392,2740.00
1091.330,3173.00
1092.266,3134.00
1093.203,3412.00
1094.138,2812.00
1095.073,3665.00
1096.010,3450.00
1096.945,3112.00
1097.882,2817.00
1098.817,2653.00
1099.752,4074.00
1100.688,3204.00
1101.623,3296.00
1102.559,3250.00
1103.493,3499.00
1104.430,2729.00
1105.364,2832.00
1106.298,3080.00
1107.234,3721.00
1108.167,2875.00
1109.094,3067.00
1110.019,3128.00
1110.945,3269.00
1111.869,3134.00
1112.795,3023.00
1113.720,3170.00
1114.646,3160.00
1115.571,2594.00
1116.495,3181.00
1117.420,3235.00
1118.345,2940.00
1119.270,3132.00
1120.195,3264.00
1121.118,3546.00
1122.042,3434.00
1122.967,3117.00
1123.891,3217.00
1124.816,3225.00
1125.738,3180.00
1126.663,2565.00
1127.587,3099.00
1128.511,3019.00
1129.435,3158.00
1130.357,3241.00
1131.280,3023.00
1132.204,2946.00
1133.128,2990.00
1134.051,3013.00
1134.972,3767.00
1135.896,3038.00
1136.819,3412.00
1137.742,3024.00
1138.665,3287.00
1139.586,3130.00
1140.509,2680.00
1141.431,2948.00
1142.354,3569.00
1143.276,3171.00
1144.197,3577.00
1145.119,3228.00
1146.041,2901.00
1146.964,3283.00
1147.885,3266.00
1148.806,3070.00
1149.727,3149.00
1150.649,2778.00
1151.571,3166.00
1152.492,3380.00
1153.412,3256.00
1154.333,3174.00
1155.254,3013.00
1156.175,3029.00
1157.095,3596.00
1158.016,3121.00
1158.936,3032.00
1159.857,3239.00
1160.778,3074.00
1161.697,2776.00
1162.617,3218.00
1163.537,3821.00
1164.458,3599.00
1165.376,2948.00
1166.296,3413.00
1167.216,3469.00
1168.136,3019.00
1169.056,2855.00
1169.974,3093.00
1170.893,3678.00
1171.813,3302.00
1172.732,3035.00
1173.650,3223.00
1174.569,3987.00
1175.488,3312.00
1176.407,2856.00
1177.326,2914.00
1178.243,3142.00
1179.161,3002.00
1180.080,3073.00
1180.999,3256.00
1181.915,3069.00
1182.834,2721.00
1183.752,3357.00
1184.670,3686.00
1185.586,2660.00
1186.504,2979.00
1187.422,3122.00
1188.340,2823.00
1189.258,3277.00
1190.173,3148.00
1191.091,3479.00
1192.008,2937.00
1192.926,2978.00
1193.841,3194.00
1194.758,3276.00
1195.675,2902.00
1196.592,3434.00
1197.507,2888.00
1198.424,3329.00
1199.340,3613.00
1200.257,3085.00
1201.172,3252.00
1202.088,2588.00
1203.004,3219.00
1203.920,3403.00
1204.835,3706.00
1205.750,3497.00
1206.666,3521.00
1207.582,2911.00
1208.496,2986.00
1209.412,3085.00
1210.327,3022.00
1211.243,3634.00
1212.156,2903.00
1213.071,2941.00
1213.986,3134.00
1214.901,2805.00
1215.814,2768.00
1216.729,2899.00
1217.644,2918.00
1218.559,2901.00
1219.471,3882.00
1220.386,3493.00
1221.300,2959.00
1222.213,3316.00
1223.127,3087.00
1224.041,3512.00
1224.955,2883.00
1225.867,3235.00
1226.781,3400.00
1227.694,3550.00
1228.608,3045.00
1229.520,3362.00
1230.433,3302.00
1231.346,2892.00
1232.260,3320.00
1233.171,2923.00
1234.084,3273.00
1234.997,3528.00
1235.908,3001.00
1236.821,3256.00
1237.733,4338.00
1238.646,3354.00
1239.556,3216.00
1240.469,3139.00
1241.381,2944.00
1242.293,2909.00
1243.203,3633.00
1244.115,3684.00
1245.027,3206.00
1245.937,3025.00
1246.849,3051.00
1247.761,3142.00
1248.672,2917.00
1249.582,3032.00
1250.493,3691.00
1251.404,3151.00
1252.313,3369.00
1253.225,3450.00
1254.135,4096.00
1255.046,3278.00
1255.955,3382.00
1256.866,3626.00
1257.777,3029.00
1258.685,2796.00
1259.596,2597.00
1260.506,3512.00
1261.416,3113.00
1262.324,3402.00
1263.234,3124.00
1264.144,3370.00
1265.052,3256.00
1265.962,3154.00
1266.872,3501.00
1267.779,3373.00
1268.689,2728.00
1269.598,2849.00
1270.507,3088.00
1271.415,3034.00
1272.324,3206.00
1273.233,3160.00
1274.140,3062.00
1275.048,2872.00
1275.957,2645.00
1276.864,2945.00
1277.772,2997.00
1278.681,2644.00
1279.587,2900.00
1280.496,3271.00
1281.404,3911.00
1282.312,3330.00
1283.218,2888.00
1284.126,2905.00
1285.033,3663.00
1285.939,3103.00
1286.847,3212.00
1287.754,3060.00
1288.660,2890.00
1289.567,3690.00
1290.474,3218.00
1291.380,3405.00
1292.286,2812.00
1293.193,3177.00
1294.098,3164.00
1295.005,2921.00
1295.912,3490.00
1296.816,3189.00
1297.723,3130.00
1298.629,2920.00
1299.534,3539.00
1300.440,3256.00
1301.346,2971.00
1302.250,2968.00
1303.156,2704.00
1304.062,3567.00
1304.966,3681.00
1305.871,3431.00
1306.777,2961.00
1307.680,3109.00
1308.586,3231.00
1309.491,3390.00
1310.394,3138.00
1311.299,3394.00
1312.204,3655.00
1313.107,3311.00
1314.012,3176.00
1314.917,2876.00
1315.819,3293.00
1316.724,3603.00
1317.628,3242.00
1318.531,3116.00
1319.435,3485.00
1320.339,4043.00
1321.241,3087.00
1322.145,3149.00
1323.049,3236.00
1323.951,2911.00
1324.854,2930.00
1325.756,3379.00
1326.659,3163.00
1327.563,2932.00
1328.464,3283.00
1329.367,3125.00
1330.271,3522.00
1331.172,2867.00
1332.074,3148.00
1332.977,2979.00
1333.878,3290.00
1334.781,3376.00
1335.683,2899.00
1336.584,3085.00
1337.486,2723.00
1338.387,3289.00
1339.289,2833.00
1340.191,2966.00
1341.091,3058.00
1341.993,2867.00
1342.895,2978.00
1343.794,3234.00
1344.696,3337.00
1345.596,3281.00
1346.497,2886.00
1347.398,3096.00
1348.298,2625.00
1349.199,3686.00
1350.100,3031.00
1350.999,3497.00
1351.900,3324.00
1352.799,3506.00
1353.699,3213.00
1354.600,3099.00
1355.499,3226.00
1356.399,2732.00
1357.297,3092.00
1358.198,3166.00
1359.098,2926.00
1359.996,2832.00
1360.896,3648.00
1361.796,3408.00
1362.694,3245.00
1363.593,3117.00
1364.491,3324.00
1365.391,3680.00
1366.290,3044.00
1367.187,2970.00
1368.086,3362.00
1368.984,3225.00
1369.883,2745.00
1370.782,3144.00
1371.679,3308.00
1372.577,3641.00
1373.474,3142.00
1374.373,3083.00
1375.269,3164.00
1376.168,3100.00
1377.066,3387.00
1377.962,3365.00
1378.860,3523.00
1379.756,3536.00
1380.654,3688.00
1381.552,3410.00
1382.448,3279.00
1383.346,3179.00
1384.241,3325.00
1385.139,3397.00
1386.036,3053.00
1386.931,2718.00
1387.829,3226.00
1388.724,3370.00
1389.621,3027.00
1390.516,3175.00
1391.413,3008.00
1392.309,2933.00
1393.204,3444.00
1394.101,3363.00
1394.995,3327.00
1395.891,3329.00
1396.786,2919.00
1397.682,3116.00
1398.578,3258.00
1399.472,3475.00
1400.368,3150.00
1401.262,3098.00
1402.158,3324.00
1403.051,3081.00
1403.947,3011.00
1404.840,3420.00
1405.736,3333.00
1406.631,2913.00
1407.524,3578.00
1408.419,3187.00
1409.312,3012.00
1410.207,3263.00
1411.100,2998.00
1411.995,3008.00
1412.888,3335.00
1413.782,2805.00
1414.675,3490.00
1415.569,2888.00
1416.463,3109.00
1417.355,3170.00
1418.249,2938.00
1419.141,3245.00
1420.035,3301.00
1420.927,3091.00
1421.821,3481.00
1422.713,3032.00
1423.606,3314.00
1424.498,3226.00
1425.391,3750.00
1426.282,2974.00
1427.175,3113.00
1428.068,2640.00
1428.960,3200.00
1429.852,3296.00
1430.743,2880.00
1431.636,3183.00
1432.527,3452.00
1433.419,3313.00
1434.310,3316.00
1435.202,2944.00
1436.092,3103.00
1436.984,3093.00
1437.875,3551.00
1438.767,3145.00
1439.657,3004.00
1440.548,3346.00
1441.438,3263.00
1442.330,3282.00
1443.219,3106.00
1444.111,3377.00
1445.000,2993.00
1445.891,2875.00
1446.781,2908.00
1447.672,3212.00
1448.561,3538.00
1449.452,3262.00
1450.340,2927.00
1451.231,2945.00
1452.120,2893.00
1453.010,3400.00
1453.899,3025.00
1454.789,3386.00
1455.677,3566.00
1456.568,3206.00
1457.456,3169.00
1458.346,3214.00
1459.234,3268.00
1460.123,3497.00
1461.011,3172.00
1461.901,3539.00
1462.788,3548.00
1463.678,3288.00
1464.565,3210.00
1465.454,3073.00
1466.342,3290.00
1467.231,2512.00
1468.118,3457.00
1469.006,3601.00
1469.893,2839.00
1470.782,3304.00
1471.669,3500.00
1472.557,3407.00
1473.444,3202.00
1474.330,3370.00
1475.218,3520.00
1476.105,3084.00
1476.993,3211.00
1477.879,3409.00
1478.767,3049.00
1479.652,2933.00
1480.540,3228.00
1481.426,3330.00
1482.313,3311.00
1483.199,3595.00
1484.086,3410.00
1484.972,2936.00
1485.857,2880.00
1486.744,3279.00
1487.629,2826.00
1488.516,3077.00
1489.401,3348.00
1490.287,3204.00
1491.172,2767.00
1492.058,3112.00
1492.943,2971.00
1493.828,2976.00
1494.714,3348.00
1495.598,3562.00
1496.484,3977.00
1497.368,2795.00
1498.254,3133.00
1499.138,3209.00
1500.022,3209.00
1500.907,3307.00
1501.791,3939.00
1502.676,3154.00
1503.560,3038.00
1504.445,3715.00
1505.328,3310.00
1506.211,3563.00
1507.096,3132.00
1507.979,3441.00
1508.864,3111.00
1509.747,3321.00
1510.631,3239.00
1511.514,3376.00
1512.397,3450.00
1513.281,3683.00
1514.163,3455.00
1515.047,3078.00
1515.930,2920.00
1516.812,3192.00
1517.696,3355.00
1518.578,3098.00
1519.461,3216.00
1520.343,3689.00
1521.225,3000.00
1522.108,3142.00
1522.990,3489.00
1523.873,3632.00
1524.754,2807.00
1525.635,2652.00
1526.518,3296.00
1527.399,3118.00
1528.282,3184.00
1529.163,3299.00
1530.044,3172.00
1530.926,2848.00
1531.807,2925.00
1532.689,3220.00
1533.569,2959.00
1534.450,4244.00
1535.332,3376.00
1536.212,3071.00
1537.092,3437.00
1537.974,2847.00
1538.854,3132.00
1539.735,3681.00
1540.615,3394.00
1541.495,2967.00
1542.376,3611.00
1543.255,2909.00
1544.135,3146.00
1545.016,3221.00
1545.895,2978.00
1546.774,3426.00
1547.655,2766.00
1548.534,3157.00
1549.414,3051.00
1550.293,2893.00
1551.172,3245.00
1552.052,3156.00
1552.930,3050.00
1553.809,3671.00
1554.689,3043.00
1555.567,3078.00
1556.445,3080.00
1557.325,3468.00
1558.203,2766.00
1559.080,3190.00
1559.960,3104.00
1560.838,3833.00
1561.715,3068.00
1562.594,3485.00
1563.472,3373.00
1564.349,3328.00
1565.228,2747.00
1566.105,2948.00
1566.982,3210.00
1567.861,3442.00
1568.738,3113.00
1569.615,2795.00
1570.493,3016.00
1571.370,3029.00
1572.246,2605.00
1573.124,3138.00
1574.000,3118.00
1574.877,3380.00
1575.755,3074.00
1576.631,2942.00
1577.507,3485.00
1578.384,3545.00
1579.260,3285.00
1580.136,3740.00
1581.011,3144.00
1581.889,3166.00
1582.764,3142.00
1583.639,3495.00
1584.516,3340.00
1585.391,3036.00
1586.266,3204.00
1587.143,3660.00
1588.018,3351.00
1588.893,3513.00
1589.768,3953.00
1590.644,3909.00
1591.519,2925.00
1592.393,3306.00
1593.269,3435.00
1594.143,2967.00
1595.018,3135.00
1595.892,3054.00
1596.767,2696.00
1597.641,2734.00
1598.515,2843.00
1599.391,3286.00
1600.264,3008.00
1601.138,2953.00
1602.011,2561.00
1602.886,3691.00
1603.760,3468.00
1604.633,3448.00
1605.508,3355.00
1606.381,3255.00
1607.254,3151.00
1608.127,3288.00
1609.001,2892.00
1609.874,3459.00
1610.746,3438.00
1611.619,3142.00
1612.493,3401.00
1613.365,2980.00
1614.238,3207.00
1615.110,3181.00
1615.984,3184.00
1616.855,2983.00
1617.727,3408.00
1618.599,3011.00
1619.473,3494.00
1620.344,2548.00
1621.216,3178.00
1622.087,3261.00
1622.960,3202.00
1623.832,3148.00
1624.703,3293.00
1625.574,3389.00
1626.445,3179.00
1627.317,3221.00
1628.188,3393.00
1629.059,3071.00
1629.930,3502.00
1630.802,3130.00
1631.672,3351.00
1632.543,3287.00
1633.413,3163.00
1634.283,3661.00
1635.155,3216.00
1636.025,3295.00
1636.895,3255.00
1637.765,2707.00
1638.636,3151.00
1639.506,3340.00
1640.376,3967.00
1641.245,3082.00
1642.114,3235.00
1642.985,2666.00
1643.855,2980.00
1644.724,3070.00
1645.593,3377.00
1646.462,3310.00
1647.333,3172.00
1648.201,3057.00
1649.070,3244.00
1649.939,3322.00
1650.807,2961.00
1651.676,3397.00
1652.546,3395.00
1653.414,3501.00
1654.282,3185.00
1655.150,3031.00
1656.018,3159.00
1656.888,3850.00
1657.756,3203.00
1658.623,2827.00
1659.491,2762.00
1660.359,3543.00
1661.226,3052.00
1662.095,3398.00
1662.962,3058.00
1663.830,3112.00
1664.697,3003.00
1665.564,3145.00
1666.431,3321.00
1667.297,2885.00
1668.166,2920.00
1669.033,2810.00
1669.899,3031.00
1670.766,2855.00
1671.632,3067.00
1672.499,3549.00
1673.367,3185.00
1674.233,3387.00
1675.099,3199.00
1675.965,2867.00
1676.831,3127.00
1677.696,3519.00
1678.562,5694.00
1679.430,2763.00
1680.295,2823.00
1681.161,2947.00
1682.026,2983.00
1682.891,3032.00
1683.756,3082.00
1684.621,3226.00
1685.486,3191.00
1686.353,3162.00
1687.218,3292.00
1688.083,3189.00
1688.947,3436.00
1689.812,3091.00
1690.677,3040.00
1691.541,3220.00
1692.405,2463.00
1693.269,3616.00
1694.135,3346.00
1694.999,3205.00
1695.863,3688.00
1696.727,3018.00
1697.591,3029.00
1698.455,3368.00
1699.318,3030.00
1700.182,4472.00
1701.045,3192.00
1701.909,3202.00
1702.772,3692.00
1703.637,3040.00
1704.500,2761.00
1705.363,3385.00
1706.226,3229.00
1707.089,3329.00
1707.951,3340.00
1708.814,3874.00
1709.677,3915.00
1710.539,3451.00
1711.402,3418.00
1712.264,3164.00
1713.126,3060.00
1713.988,3442.00
1714.852,3403.00
1715.714,2589.00
1716.576,2780.00
1717.438,3408.00
1718.299,2720.00
1719.161,3558.00
1720.023,3167.00
1720.884,3633.00
1721.745,3121.00
1722.607,3072.00
1723.468,2688.00
1724.329,3474.00
1725.190,3151.00
1726.051,3350.00
1726.912,2992.00
1727.772,3233.00
1728.633,3136.00
1729.494,3267.00
1730.354,3416.00
1731.214,2912.00
1732.075,3035.00
1732.935,3057.00
1733.797,3027.00
1734.657,3648.00
1735.517,3892.00
1736.377,3459.00
1737.237,3150.00
1738.096,3867.00
1738.956,3084.00
1739.816,3149.00
1740.675,3142.00
1741.534,2696.00
1742.394,3223.00
1743.253,2952.00
1744.112,3179.00
1744.971,3012.00
1745.830,3289.00
1746.689,3339.00
1747.547,3429.00
1748.406,2806.00
1749.265,3069.00
1750.123,3086.00
1750.982,3350.00
1751.840,3118.00
1752.698,3213.00
1753.556,3038.00
1754.414,3196.00
1755.272,3121.00
1756.130,3229.00
1756.988,3095.00
1757.846,3365.00
1758.703,3032.00
1759.559,3459.00
1760.417,2918.00
1761.274,3834.00
1762.131,3626.00
1762.989,3701.00
1763.846,3614.00
1764.703,3265.00
1765.560,3713.00
1766.417,3217.00
1767.273,2967.00
1768.130,3153.00
1768.987,3043.00
1769.843,3414.00
1770.700,3511.00
1771.556,3082.00
1772.412,3543.00
1773.268,3090.00
1774.125,3496.00
1774.980,3218.00
1775.836,3545.00
1776.692,3090.00
1777.546,3024.00
1778.402,3373.00
1779.257,3232.00
1780.113,3019.00
1780.968,3281.00
1781.824,3445.00
1782.679,2802.00
1783.534,3048.00
1784.389,3627.00
1785.244,3291.00
1786.099,3138.00
1786.954,3393.00
1787.808,3181.00
1788.661,3218.00
1789.516,3591.00
1790.370,3245.00
1791.225,3031.00
1792.079,2839.00
1792.933,3976.00
1793.787,3331.00
1794.641,3250.00
1795.495,3159.00
1796.349,3258.00
1797.201,3040.00
1798.055,2998.00
1798.908,3169.00
1799.762,3594.00
1800.615,3369.00
1801.469,3449.00
1802.322,3612.00
1803.175,3027.00
1804.028,2784.00
1804.880,3687.00
1805.732,3391.00
1806.585,3176.00
1807.438,3226.00
1808.291,2717.00
1809.143,2966.00
1809.996,2835.00
1810.846,3961.00
1811.699,3312.00
1812.551,3139.00
1813.403,3401.00
1814.255,3223.00
1815.107,3251.00
1815.959,3836.00
1816.809,3315.00
1817.661,3350.00
1818.512,3159.00
1819.364,3258.00
1820.215,3296.00
1821.067,2986.00
1821.918,3056.00
1822.768,3482.00
1823.619,3433.00
1824.470,3096.00
1825.321,3373.00
1826.172,3129.00
1827.021,3292.00
1827.871,3482.00
1828.722,3244.00
1829.572,3190.00
1830.423,3183.00
1831.273,3080.00
1832.122,3184.00
1832.972,3172.00
1833.822,2868.00
1834.672,3350.00
1835.522,3356.00
1836.370,3016.00
1837.220,3385.00
1838.070,2756.00
1838.919,2545.00
1839.769,3005.00
1840.616,3401.00
1841.466,3358.00
1842.315,2900.00
1843.164,3838.00
1844.013,3027.00
1844.860,2886.00
1845.709,2969.00
1846.558,3469.00
1847.407,2840.00
1848.254,3278.00
1849.102,3284.00
1849.951,2955.00
1850.799,2663.00
1851.648,3044.00
1852.494,3216.00
1853.342,3284.00
1854.190,3555.00
1855.038,3507.00
1855.884,3217.00
1856.732,4088.00
1857.580,3624.00
1858.428,3039.00
1859.273,2919.00
1860.121,2946.00
1860.968,4041.00
1861.816,3541.00
1862.661,3587.00
1863.508,3810.00
1864.355,3456.00
1865.202,3523.00
1866.047,3267.00
1866.894,3570.00
1867.741,3785.00
1868.586,3324.00
1869.432,3263.00
1870.279,3158.00
1871.125,3032.00
1871.970,3807.00
1872.816,3321.00
1873.662,2735.00
1874.506,3296.00
1875.352,3525.00
1876.198,3655.00
1877.044,3786.00
1877.888,3166.00
1878.734,3232.00
1879.579,3058.00
1880.423,2858.00
1881.268,3117.00
1882.113,3504.00
1882.959,3172.00
1883.802,2989.00
1884.647,3573.00
1885.492,3215.00
1886.335,3165.00
1887.180,3021.00
1888.025,3226.00
1888.867,2987.00
1889.712,3318.00
1890.556,2958.00
1891.399,3514.00
1892.243,3537.00
1893.087,3070.00
1893.930,3376.00
1894.774,3325.00
1895.618,3565.00
1896.460,2822.00
1897.304,3129.00
1898.147,3044.00
1898.989,2911.00
1899.833,3414.00
1900.676,3037.00
1901.518,3498.00
1902.361,3552.00
1903.202,3082.00
1904.046,3081.00
1904.889,3166.00
1905.730,3168.00
1906.573,2889.00
1907.415,3224.00
1908.256,3638.00
1909.099,3352.00
1909.941,3372.00
1910.782,3299.00
1911.624,3021.00
1912.465,3393.00
1913.307,3313.00
1914.149,2972.00
1914.989,3530.00
1915.831,3179.00
1916.671,3614.00
1917.513,3139.00
1918.355,3317.00
1919.195,3457.00
1920.036,3299.00
1920.876,3224.00
1921.717,3419.00
1922.558,3230.00
1923.398,3287.00
1924.239,3234.00
1925.078,3492.00
1925.919,2918.00
1926.760,3397.00
1927.599,3078.00
1928.440,3425.00
1929.279,3228.00
1930.119,3705.00
1930.958,3134.00
1931.798,3204.00
1932.638,3123.00
1933.477,3224.00
1934.317,3010.00
1935.155,3104.00
1935.995,3353.00
1936.833,3046.00
1937.673,3013.00
1938.512,3705.00
1939.350,2816.00
1940.190,3163.00
1941.027,3089.00
1941.867,3099.00
1942.704,3227.00
1943.543,3176.00
1944.381,3415.00
1945.220,3602.00
1946.057,3299.00
1946.896,3502.00
1947.733,3256.00
1948.572,2994.00
1949.408,3576.00
1950.247,3283.00
1951.085,3436.00
1951.922,3541.00
1952.760,3012.00
1953.597,3632.00
1954.435,2590.00
1955.271,3365.00
1956.109,3143.00
1956.945,2836.00
1957.783,3388.00
1958.619,3085.00
1959.456,3218.00
1960.292,3279.00
1961.129,3569.00
1961.965,3728.00
1962.802,3007.00
1963.638,2989.00
1964.475,3267.00
1965.310,3255.00
1966.145,3252.00
1966.982,3095.00
1967.817,2958.00
1968.654,3235.00
1969.489,3010.00
1970.325,3241.00
1971.160,2959.00
1971.996,3409.00
1972.831,3463.00
1973.667,3152.00
1974.501,3630.00
1975.337,3506.00
1976.171,3098.00
1977.006,3530.00
1977.841,3125.00
1978.675,3473.00
1979.511,3868.00
1980.345,3036.00
1981.180,3413.00
1982.014,3214.00
1982.849,2947.00
1983.682,3077.00
1984.516,3072.00
1985.351,2847.00
1986.184,2709.00
1987.019,2731.00
1987.852,2515.00
1988.687,2800.00
1989.519,3007.00
1990.352,3214.00
1991.187,2694.00
1992.019,3035.00
1992.854,3388.00
1993.686,2918.00
1994.518,3020.00
1995.352,2561.00
1996.185,2271.00
1997.019,2873.00
1997.851,2696.00
1998.682,2741.00
1999.516,2775.00
2000.348,2463.00
