RamanScope Measure Spectrum Data V3.72

<< MEASURE CONDITION >>
Exposure Type,Aver
Exposure Time [sec],20
Exposure Count,2
Measure Time,2024/02/15 21:24:39
Data Name,""
Data Comment,""
Rayleigh Wave[nm],532.0

<< SAMPLE SPECTRUM >>
Wave[dcm-1],No48
96.716,-17.00
97.759,30.00
98.802,-8.50
99.846,-1.50
100.886,-6.50
101.929,-36.50
102.972,31.00
104.015,-43.50
105.057,-17.00
106.100,18.00
107.142,21.50
108.184,9.50
109.226,11.50
110.268,-22.50
111.310,16.50
112.352,11.50
113.393,63.00
114.435,29.00
115.476,14.50
116.517,35.00
117.558,4.00
118.599,-0.50
119.640,1.50
120.681,-41.50
121.722,-28.00
122.762,-7.50
123.803,19.50
124.843,29.50
125.883,-13.00
126.923,32.00
127.963,-7.00
129.001,32.00
130.041,58.50
131.080,-34.00
132.120,-30.00
133.159,1.00
134.199,20.50
135.238,50.50
136.277,-11.50
137.316,61.00
138.355,28.00
139.393,25.50
140.432,32.00
141.470,45.50
142.509,12.50
143.547,0.00
144.585,42.00
145.623,49.00
146.661,53.50
147.699,124.00
148.736,143.50
149.774,140.00
150.811,275.50
151.849,295.50
152.886,384.00
153.923,493.50
154.960,628.50
155.997,762.50
157.034,948.50
158.072,1069.50
159.109,1195.50
160.145,1347.00
161.182,1489.00
162.218,1571.00
163.254,1766.00
164.290,1945.00
165.326,2116.50
166.361,2100.00
167.397,2243.50
168.432,2350.00
169.468,2366.00
170.503,2465.50
171.538,2505.00
172.573,2517.50
173.608,2515.50
174.643,2618.50
175.677,2619.50
176.712,2684.00
177.746,2696.00
178.781,2791.50
179.815,2847.50
180.849,2855.50
181.883,2883.00
182.917,2994.00
183.951,3004.00
184.984,3046.50
186.020,3101.00
187.053,3135.00
188.087,3073.50
189.120,3021.00
190.153,2962.00
191.186,3009.00
192.219,2959.00
193.251,2880.50
194.284,2877.00
195.317,2879.00
196.349,2950.00
197.381,2884.00
198.413,2915.50
199.445,2910.50
200.477,2860.50
201.509,2985.00
202.543,2932.50
203.575,3011.50
204.606,2971.50
205.637,3045.00
206.669,3108.00
207.700,2998.50
208.731,3147.00
209.762,3178.00
210.792,3183.00
211.823,3268.00
212.854,3243.00
213.884,3279.50
214.914,3345.00
215.947,3373.00
216.977,3396.50
218.007,3500.00
219.037,3522.50
220.066,3603.50
221.096,3693.00
222.126,3649.50
223.155,3873.50
224.184,3785.50
225.214,3883.00
226.245,3958.00
227.274,4069.50
228.302,4075.50
229.331,4078.50
230.360,4054.00
231.388,4094.50
232.417,4074.50
233.445,4086.50
234.473,4004.50
235.501,3922.50
236.531,3946.50
237.559,3867.50
238.587,3801.50
239.614,3704.00
240.642,3595.50
241.669,3615.50
242.696,3569.50
243.724,3527.50
244.753,3460.00
245.780,3431.00
246.806,3421.50
247.833,3414.50
248.860,3343.50
249.886,3351.00
250.913,3389.50
251.939,3360.50
252.967,3385.50
253.993,3355.00
255.019,3471.00
256.045,3469.50
257.070,3544.50
258.096,3416.50
259.121,3456.00
260.147,3450.00
261.174,3409.00
262.199,3399.50
263.224,3413.50
264.249,3401.50
265.274,3374.50
266.298,3341.00
267.323,3478.00
268.349,3473.00
269.374,3437.50
270.398,3418.00
271.422,3538.00
272.446,3472.00
273.470,3513.50
274.496,3514.50
275.519,3461.00
276.543,3433.00
277.566,3594.00
278.589,3575.50
279.613,3642.00
280.636,3685.00
281.661,3747.00
282.684,3750.50
283.706,3686.50
284.729,3761.00
285.751,3800.50
286.774,3872.50
287.798,3836.50
288.820,3844.00
289.842,3875.00
290.864,3767.00
291.886,3875.00
292.910,3849.00
293.932,3794.00
294.953,3782.50
295.974,3785.00
296.996,3728.00
298.017,3622.50
299.040,3635.50
300.061,3616.50
301.082,3454.50
302.102,3557.50
303.123,3398.50
304.143,3434.00
305.166,3317.50
306.186,3312.50
307.206,3349.00
308.226,3310.00
309.246,3264.00
310.268,3200.00
311.288,3107.50
312.307,3172.50
313.327,2994.50
314.346,3082.50
315.368,3023.50
316.387,2960.50
317.406,3019.50
318.425,3002.50
319.443,2929.50
320.464,2910.00
321.483,2894.50
322.501,2837.50
323.520,2841.50
324.538,2847.00
325.558,2787.00
326.576,2749.00
327.594,2778.50
328.612,2741.50
329.629,2771.00
330.649,2747.00
331.666,2714.00
332.684,2702.00
333.701,2721.00
334.718,2664.00
335.737,2652.00
336.754,2667.50
337.771,2629.50
338.787,2633.50
339.806,2665.00
340.823,2629.00
341.839,2639.00
342.855,2632.50
343.871,2616.50
344.889,2622.50
345.905,2631.50
346.921,2564.00
347.937,2593.00
348.954,2541.00
349.970,2593.00
350.985,2578.00
352.000,2556.00
353.017,2533.50
354.032,2547.50
355.047,2547.00
356.062,2544.50
357.077,2542.50
358.093,2525.00
359.108,2580.50
360.122,2551.50
361.136,2491.00
362.152,2517.00
363.166,2499.00
364.180,2522.50
365.194,2568.00
366.210,2446.00
367.223,2553.50
368.237,2490.50
369.250,2502.50
370.265,2510.00
371.278,2540.00
372.291,2506.50
373.304,2499.00
374.319,2547.00
375.332,2555.50
376.344,2579.00
377.357,2533.00
378.371,2551.00
379.383,2523.50
380.395,2560.00
381.407,2520.50
382.421,2549.00
383.433,2593.00
384.445,2590.00
385.456,2628.50
386.470,2660.00
387.481,2607.00
388.492,2646.50
389.505,2652.50
390.516,2649.00
391.527,2678.50
392.538,2577.00
393.551,2645.50
394.561,2672.00
395.572,2597.00
396.582,2680.50
397.594,2602.50
398.604,2650.00
399.614,2645.50
400.624,2637.00
401.636,2641.00
402.646,2637.50
403.655,2650.00
404.667,2655.50
405.676,2606.50
406.685,2653.50
407.694,2610.50
408.705,2635.50
409.714,2583.50
410.723,2588.00
411.734,2589.50
412.742,2578.50
413.751,2602.50
414.759,2556.00
415.769,2509.50
416.777,2556.00
417.785,2531.00
418.795,2557.00
419.803,2534.00
420.811,2552.00
421.818,2554.50
422.828,2436.50
423.835,2518.00
424.842,2446.00
425.852,2481.50
426.859,2527.00
427.866,2448.50
428.874,2400.50
429.881,2419.50
430.888,2448.00
431.894,2449.00
432.902,2398.00
433.909,2403.50
434.915,2404.50
435.923,2424.00
436.929,2392.00
437.935,2414.00
438.942,2371.50
439.948,2406.00
440.953,2397.50
441.959,2391.50
442.966,2369.00
443.971,2391.50
444.976,2413.50
445.983,2397.00
446.988,2357.00
447.993,2410.00
448.999,2357.00
450.004,2345.00
451.008,2366.50
452.014,2352.00
453.019,2394.50
454.023,2356.00
455.029,2374.50
456.032,2342.50
457.036,2325.00
458.042,2347.50
459.045,2406.00
460.049,2361.50
461.052,2438.50
462.057,2416.00
463.060,2387.50
464.063,2351.00
465.068,2370.00
466.071,2372.00
467.073,2356.50
468.078,2381.00
469.080,2411.50
470.082,2381.00
471.087,2402.00
472.089,2366.50
473.091,2439.00
474.095,2397.00
475.096,2376.50
476.098,2390.50
477.101,2435.00
478.103,2399.00
479.104,2464.50
480.107,2412.50
481.108,2372.50
482.109,2365.50
483.112,2333.00
484.113,2329.50
485.114,2405.00
486.116,2371.50
487.117,2438.50
488.117,2441.50
489.119,2410.50
490.119,2370.50
491.121,2395.50
492.121,2420.00
493.121,2425.50
494.123,2390.00
495.122,2475.00
496.122,2417.50
497.123,2406.50
498.122,2394.00
499.121,2440.50
500.122,2435.00
501.121,2375.50
502.120,2366.50
503.121,2398.00
504.119,2422.00
505.118,2426.00
506.118,2426.50
507.117,2410.50
508.115,2405.00
509.115,2366.00
510.113,2420.50
511.112,2328.50
512.110,2369.50
513.108,2361.00
514.107,2376.00
515.105,2376.00
516.102,2340.50
517.101,2304.00
518.098,2306.50
519.095,2316.50
520.094,2245.00
521.091,2356.00
522.089,2348.00
523.086,2281.00
524.082,2291.50
525.081,2301.00
526.077,2311.50
527.073,2337.00
528.071,2271.00
529.067,2350.50
530.064,2297.00
531.060,2344.50
532.056,2288.00
533.053,2330.00
534.048,2297.50
535.044,2302.50
536.041,2236.50
537.036,2307.00
538.030,2355.50
539.027,2298.50
540.022,2345.00
541.019,2329.00
542.013,2304.50
543.007,2329.50
544.004,2301.50
544.998,2281.50
545.994,2324.50
546.988,2357.50
547.981,2335.50
548.977,2362.00
549.971,2367.50
550.964,2288.00
551.960,2319.00
552.953,2343.50
553.948,2328.50
554.941,2356.00
555.934,2337.00
556.929,2278.50
557.922,2246.00
558.916,2324.50
559.909,2239.00
560.901,2315.50
561.895,2314.50
562.888,2343.50
563.880,2288.00
564.874,2271.50
565.865,2330.50
566.859,2303.50
567.851,2356.00
568.842,2316.00
569.836,2303.00
570.827,2302.50
571.820,2282.50
572.811,2289.50
573.802,2281.50
574.795,2249.00
575.786,2337.50
576.779,2281.50
577.769,2336.50
578.760,2297.00
579.752,2332.50
580.742,2313.50
581.735,2229.50
582.725,2297.50
583.714,2264.00
584.706,2281.50
585.696,2363.00
586.688,2327.50
587.677,2305.00
588.667,2287.00
589.658,2315.00
590.647,2400.50
591.638,2310.50
592.627,2319.00
593.616,2275.50
594.607,2352.50
595.595,2316.50
596.586,2345.00
597.574,2359.00
598.562,2287.00
599.553,2314.00
600.541,2336.50
601.531,2290.50
602.519,2352.50
603.508,2307.50
604.496,2257.00
605.484,2307.00
606.473,2282.00
607.460,2311.50
608.450,2305.00
609.437,2311.50
610.424,2313.50
611.413,2317.50
612.400,2325.50
613.388,2308.50
614.375,2255.50
615.361,2286.00
616.350,2291.00
617.336,2317.50
618.324,2260.50
619.310,2286.50
620.298,2211.00
621.284,2225.50
622.270,2241.50
623.257,2262.00
624.243,2271.50
625.230,2198.00
626.216,2228.50
627.203,2175.00
628.188,2150.50
629.173,2204.50
630.160,2168.00
631.145,2174.50
632.131,2139.00
633.116,2189.00
634.102,2179.00
635.087,2144.50
636.071,2019.50
637.057,2056.50
638.041,2038.00
639.027,2052.00
640.011,2121.50
640.995,2027.00
641.980,2043.50
642.964,2053.00
643.949,1988.50
644.932,2036.50
645.918,1996.50
646.901,1940.00
647.886,1956.50
648.868,1975.00
649.851,1968.00
650.836,1967.00
651.818,1870.00
652.803,1906.50
653.785,1896.50
654.769,1900.00
655.751,1896.00
656.733,1891.50
657.717,1833.00
658.699,1879.00
659.683,1833.00
660.664,1859.50
661.648,1841.50
662.629,1849.00
663.611,1849.50
664.594,1843.00
665.575,1788.00
666.558,1834.00
667.539,1778.00
668.521,1769.50
669.502,1794.50
670.484,1815.50
671.465,1722.50
672.445,1734.00
673.427,1808.50
674.407,1774.50
675.390,1757.00
676.369,1740.50
677.351,1753.00
678.331,1712.50
679.312,1702.50
680.292,1741.00
681.271,1706.00
682.253,1760.50
683.232,1712.00
684.213,1729.00
685.192,1715.00
686.172,1698.50
687.151,1722.00
688.132,1662.50
689.110,1682.50
690.089,1584.00
691.069,1634.50
692.047,1635.50
693.027,1625.50
694.005,1688.00
694.985,1573.00
695.963,1628.00
696.943,1620.00
697.920,1594.50
698.898,1573.50
699.877,1585.00
700.854,1623.00
701.833,1583.50
702.810,1558.50
703.789,1502.50
704.766,1547.50
705.745,1505.50
706.721,1502.00
707.698,1502.50
708.676,1539.50
709.653,1495.00
710.631,1493.00
711.607,1522.50
712.585,1517.50
713.561,1468.50
714.539,1444.50
715.514,1473.00
716.492,1453.00
717.467,1483.00
718.443,1439.00
719.420,1370.00
720.395,1399.00
721.372,1405.00
722.347,1411.50
723.324,1433.50
724.298,1372.00
725.275,1395.50
726.250,1492.00
727.226,1365.50
728.200,1395.00
729.176,1405.50
730.151,1386.00
731.125,1429.00
732.100,1358.00
733.074,1393.50
734.050,1388.00
735.023,1393.00
735.999,1428.00
736.972,1361.50
737.947,1377.50
738.921,1381.50
739.896,1326.50
740.869,1386.50
741.841,1328.50
742.816,1313.50
743.789,1313.50
744.763,1316.50
745.736,1350.50
746.710,1356.00
747.682,1338.00
748.656,1325.50
749.628,1337.50
750.602,1298.00
751.574,1323.00
752.548,1274.50
753.519,1300.50
754.491,1275.00
755.464,1247.50
756.435,1349.50
757.408,1291.50
758.379,1267.50
759.352,1264.50
760.323,1300.50
761.296,1232.00
762.267,1313.00
763.239,1269.00
764.209,1272.50
765.182,1283.50
766.152,1245.50
767.124,1253.00
768.094,1225.00
769.064,1192.00
770.036,1203.50
771.005,1231.00
771.977,1236.00
772.947,1207.00
773.918,1209.50
774.887,1174.00
775.858,1166.00
776.827,1204.00
777.798,1175.50
778.767,1239.00
779.738,1206.50
780.707,1170.00
781.677,1175.50
782.646,1210.00
783.614,1194.50
784.584,1137.00
785.552,1180.00
786.522,1245.50
787.490,1164.00
788.460,1205.50
789.428,1210.00
790.397,1153.50
791.365,1156.50
792.334,1177.00
793.302,1116.50
794.271,1186.00
795.238,1150.00
796.207,1162.50
797.174,1157.00
798.143,1081.50
799.109,1083.50
800.076,1083.00
801.044,1154.50
802.011,1137.00
802.979,1104.00
803.945,1133.00
804.913,1117.00
805.879,1126.50
806.847,1085.00
807.813,1072.50
808.780,1143.50
809.746,1103.00
810.713,1128.00
811.678,1105.50
812.646,1087.50
813.611,1086.00
814.578,1085.00
815.543,1054.00
816.510,1021.00
817.474,1116.50
818.439,1078.00
819.405,1081.00
820.370,1091.00
821.336,1015.00
822.300,1080.50
823.266,1017.50
824.230,1056.00
825.196,1043.00
826.160,1077.50
827.126,1010.00
828.089,1058.00
829.055,1081.50
830.018,1047.50
830.983,1075.00
831.946,1102.00
832.911,1099.00
833.874,1064.00
834.837,1046.00
835.802,1027.50
836.765,1072.50
837.729,984.00
838.691,995.50
839.656,1067.50
840.618,1073.00
841.582,1008.00
842.544,1039.50
843.508,1062.00
844.470,1011.00
845.434,1084.50
846.395,1053.50
847.359,1036.50
848.320,1038.50
849.283,1047.50
850.245,1076.00
851.208,1075.50
852.169,1013.50
853.130,1092.50
854.092,1108.00
855.053,1094.50
856.016,1103.50
856.976,911.00
857.938,1077.50
858.899,1095.50
859.861,1057.50
860.821,1056.00
861.783,1072.50
862.743,1110.00
863.704,1118.50
864.664,1072.50
865.626,1056.00
866.585,1100.00
867.546,1083.50
868.506,1149.00
869.467,1119.50
870.426,1069.00
871.387,1086.50
872.346,1122.00
873.304,1063.50
874.265,1097.50
875.223,1110.50
876.184,1091.00
877.142,1034.00
878.102,1116.50
879.060,1064.50
880.021,1134.50
880.978,1048.50
881.938,1097.00
882.896,1094.00
883.856,1070.00
884.813,1083.00
885.772,1077.50
886.730,1142.00
887.689,1104.50
888.646,1099.00
889.603,1088.00
890.562,1077.50
891.519,1070.50
892.477,1083.00
893.434,1110.00
894.392,1128.50
895.349,1094.50
896.307,1150.00
897.263,1131.00
898.221,1063.00
899.177,1135.50
900.135,1126.00
901.091,1103.00
902.048,1100.00
903.004,1069.50
903.961,1098.50
904.917,1165.50
905.874,1122.50
906.829,1083.50
907.784,1122.50
908.741,1114.50
909.696,1119.00
910.653,1113.50
911.607,1054.00
912.564,1134.00
913.518,1073.50
914.475,1101.50
915.429,1139.50
916.385,1109.50
917.339,1077.50
918.295,1139.00
919.249,1072.00
920.205,1130.50
921.158,1128.00
922.114,1133.00
923.067,1076.00
924.020,1086.00
924.976,1122.00
925.929,1172.00
926.884,1128.50
927.837,1086.50
928.791,1135.50
929.744,1097.00
930.699,1122.00
931.651,1084.00
932.606,1154.50
933.558,1125.00
934.512,1058.50
935.464,1156.50
936.418,1073.00
937.370,1100.00
938.322,1071.00
939.276,1095.50
940.227,1128.50
941.181,1052.50
942.132,1146.50
943.085,1087.50
944.036,1099.00
944.990,1172.50
945.941,1115.50
946.893,1105.00
947.844,1099.50
948.797,1103.50
949.747,1045.00
950.700,1131.00
951.650,1137.00
952.601,1066.50
953.553,1072.00
954.503,1095.00
955.455,1079.50
956.405,1093.50
957.356,1102.00
958.306,1065.00
959.258,1024.00
960.207,1053.00
961.158,1007.00
962.108,1073.00
963.059,1092.50
964.008,1096.50
964.959,1034.50
965.908,1090.00
966.856,1039.00
967.807,1098.50
968.756,1070.50
969.706,1046.50
970.654,1065.50
971.605,1020.00
972.553,1079.00
973.503,984.50
974.451,1031.00
975.401,1068.00
976.348,1035.00
977.296,1049.00
978.246,1055.00
979.193,1017.50
980.142,1074.50
981.090,1025.00
982.039,1048.50
982.986,1011.50
983.935,1056.00
984.882,1066.50
985.830,1019.50
986.777,1066.50
987.725,1048.00
988.672,1037.00
989.618,1000.50
990.567,1065.00
991.513,995.50
992.461,1038.00
993.407,1011.50
994.354,1074.00
995.300,1064.00
996.248,1046.50
997.193,1038.50
998.141,993.00
999.086,1012.50
1000.031,1086.50
1000.978,1018.00
1001.924,988.50
1002.870,1029.00
1003.815,1004.50
1004.762,989.50
1005.707,1005.50
1006.653,958.00
1007.598,1023.50
1008.542,1020.00
1009.488,1044.50
1010.432,1043.00
1011.378,970.00
1012.322,987.50
1013.268,993.50
1014.212,1033.00
1015.157,1020.00
1016.101,1033.50
1017.046,993.50
1017.990,1002.00
1018.933,1012.50
1019.878,1010.00
1020.821,1018.50
1021.766,983.50
1022.709,1027.50
1023.654,1049.00
1024.596,1013.50
1025.541,1043.00
1026.483,1024.00
1027.425,1017.00
1028.370,1048.50
1029.312,972.50
1030.256,1027.00
1031.198,1021.00
1032.141,1039.50
1033.083,1028.50
1034.027,1010.00
1034.968,1048.50
1035.910,1058.00
1036.853,1029.50
1037.794,1022.50
1038.738,1014.00
1039.679,1006.00
1040.621,1040.00
1041.562,1050.00
1042.503,1044.50
1043.446,1030.00
1044.386,973.50
1045.329,1015.00
1046.269,1081.50
1047.211,1001.50
1048.151,1038.50
1049.093,1026.50
1050.033,1016.50
1050.973,1023.50
1051.915,1026.00
1052.854,1021.00
1053.796,995.50
1054.735,1023.00
1055.677,1025.50
1056.616,1042.00
1057.555,1097.00
1058.496,1011.00
1059.435,1102.00
1060.376,1066.50
1061.315,1007.50
1062.255,1076.00
1063.194,1080.50
1064.132,1056.50
1065.073,1020.00
1066.011,1075.00
1066.951,1068.50
1067.889,1057.50
1068.829,1020.00
1069.767,1067.00
1070.705,1095.00
1071.644,1081.50
1072.582,1067.50
1073.521,1058.50
1074.459,1029.00
1075.398,1123.50
1076.335,1044.50
1077.272,1127.50
1078.211,1062.50
1079.148,1092.00
1080.087,1078.50
1081.023,1111.50
1081.962,1019.00
1082.898,1080.50
1083.835,1061.00
1084.773,1107.50
1085.709,1097.50
1086.647,1121.50
1087.583,1079.00
1088.519,1073.50
1089.457,1109.50
1090.392,1043.50
1091.330,1114.00
1092.266,1112.50
1093.203,1088.50
1094.138,1141.00
1095.073,1065.00
1096.010,1083.00
1096.945,1060.50
1097.882,1060.00
1098.817,1086.50
1099.752,1060.00
1100.688,1108.50
1101.623,1062.00
1102.559,1068.00
1103.493,1060.00
1104.430,1067.50
1105.364,1099.00
1106.298,1100.50
1107.234,1004.50
1108.167,1052.50
1109.094,1024.00
1110.019,1057.00
1110.945,1023.50
1111.869,1058.50
1112.795,1010.50
1113.720,1050.00
1114.646,1022.50
1115.571,1019.00
1116.495,1002.50
1117.420,1012.50
1118.345,1028.00
1119.270,1019.50
1120.195,996.00
1121.118,962.00
1122.042,1025.00
1122.967,944.00
1123.891,978.50
1124.816,1031.00
1125.738,996.00
1126.663,980.50
1127.587,1020.50
1128.511,967.00
1129.435,1000.00
1130.357,920.00
1131.280,930.50
1132.204,990.00
1133.128,921.00
1134.051,930.00
1134.972,975.50
1135.896,915.50
1136.819,924.00
1137.742,898.00
1138.665,971.50
1139.586,945.50
1140.509,955.50
1141.431,916.50
1142.354,897.00
1143.276,883.50
1144.197,876.50
1145.119,932.00
1146.041,891.50
1146.964,835.00
1147.885,875.00
1148.806,838.50
1149.727,898.50
1150.649,884.50
1151.571,924.50
1152.492,904.50
1153.412,880.50
1154.333,863.00
1155.254,815.50
1156.175,903.50
1157.095,867.00
1158.016,825.00
1158.936,852.00
1159.857,863.00
1160.778,841.00
1161.697,821.50
1162.617,849.50
1163.537,864.50
1164.458,828.00
1165.376,843.50
1166.296,857.00
1167.216,861.50
1168.136,840.50
1169.056,804.50
1169.974,821.50
1170.893,824.50
1171.813,819.00
1172.732,793.00
1173.650,804.00
1174.569,814.50
1175.488,847.50
1176.407,808.50
1177.326,832.50
1178.243,833.00
1179.161,799.00
1180.080,861.50
1180.999,770.00
1181.915,825.00
1182.834,829.50
1183.752,757.00
1184.670,796.50
1185.586,797.00
1186.504,785.50
1187.422,779.50
1188.340,799.50
1189.258,806.50
1190.173,837.00
1191.091,807.00
1192.008,836.00
1192.926,793.50
1193.841,761.50
1194.758,801.00
1195.675,790.50
1196.592,765.50
1197.507,792.50
1198.424,776.00
1199.340,811.00
1200.257,792.00
1201.172,783.00
1202.088,778.00
1203.004,793.50
1203.920,789.00
1204.835,789.00
1205.750,769.00
1206.666,834.00
1207.582,779.50
1208.496,766.00
1209.412,761.50
1210.327,797.00
1211.243,791.50
1212.156,767.00
1213.071,792.00
1213.986,802.50
1214.901,781.00
1215.814,721.50
1216.729,802.00
1217.644,816.00
1218.559,779.00
1219.471,756.50
1220.386,743.50
1221.300,731.00
1222.213,799.50
1223.127,793.50
1224.041,822.00
1224.955,753.50
1225.867,777.00
1226.781,757.00
1227.694,742.50
1228.608,786.00
1229.520,801.00
1230.433,863.00
1231.346,778.00
1232.260,773.50
1233.171,832.00
1234.084,775.50
1234.997,756.50
1235.908,796.00
1236.821,803.00
1237.733,745.50
1238.646,826.50
1239.556,801.00
1240.469,826.50
1241.381,827.50
1242.293,794.50
1243.203,774.00
1244.115,791.50
1245.027,836.00
1245.937,784.50
1246.849,772.50
1247.761,812.50
1248.672,802.50
1249.582,798.50
1250.493,843.00
1251.404,792.50
1252.313,808.50
1253.225,816.00
1254.135,846.50
1255.046,805.00
1255.955,840.00
1256.866,798.00
1257.777,795.50
1258.685,794.00
1259.596,861.00
1260.506,814.00
1261.416,833.50
1262.324,822.00
1263.234,802.50
1264.144,805.00
1265.052,758.50
1265.962,855.50
1266.872,793.50
1267.779,871.50
1268.689,816.00
1269.598,863.00
1270.507,828.00
1271.415,793.50
1272.324,857.50
1273.233,855.00
1274.140,816.00
1275.048,792.00
1275.957,861.00
1276.864,839.50
1277.772,811.00
1278.681,821.00
1279.587,876.50
1280.496,845.50
1281.404,821.00
1282.312,832.50
1283.218,871.50
1284.126,888.50
1285.033,842.50
1285.939,837.00
1286.847,856.50
1287.754,847.00
1288.660,814.50
1289.567,871.00
1290.474,819.50
1291.380,821.50
1292.286,840.00
1293.193,838.50
1294.098,890.00
1295.005,835.50
1295.912,873.50
1296.816,770.00
1297.723,854.50
1298.629,881.50
1299.534,836.50
1300.440,822.50
1301.346,809.50
1302.250,884.00
1303.156,873.00
1304.062,818.50
1304.966,792.50
1305.871,788.50
1306.777,826.00
1307.680,806.00
1308.586,831.50
1309.491,834.50
1310.394,821.00
1311.299,830.00
1312.204,843.50
1313.107,815.50
1314.012,808.50
1314.917,823.50
1315.819,811.00
1316.724,812.50
1317.628,797.00
1318.531,832.50
1319.435,827.50
1320.339,816.50
1321.241,804.00
1322.145,808.00
1323.049,834.00
1323.951,802.50
1324.854,810.00
1325.756,755.00
1326.659,843.00
1327.563,771.50
1328.464,815.50
1329.367,723.00
1330.271,809.50
1331.172,768.00
1332.074,746.50
1332.977,763.50
1333.878,790.00
1334.781,742.00
1335.683,758.00
1336.584,783.50
1337.486,776.50
1338.387,795.00
1339.289,744.00
1340.191,770.50
1341.091,747.50
1341.993,706.50
1342.895,743.00
1343.794,776.50
1344.696,713.50
1345.596,755.00
1346.497,790.00
1347.398,740.50
1348.298,728.00
1349.199,723.00
1350.100,761.00
1350.999,696.50
1351.900,672.00
1352.799,746.50
1353.699,680.50
1354.600,690.50
1355.499,738.00
1356.399,687.50
1357.297,717.50
1358.198,770.00
1359.098,736.00
1359.996,692.00
1360.896,687.00
1361.796,726.00
1362.694,745.50
1363.593,675.50
1364.491,667.50
1365.391,689.50
1366.290,639.00
1367.187,766.00
1368.086,739.50
1368.984,639.00
1369.883,652.50
1370.782,670.50
1371.679,680.00
1372.577,745.50
1373.474,656.00
1374.373,684.00
1375.269,661.00
1376.168,642.50
1377.066,637.50
1377.962,625.00
1378.860,660.00
1379.756,654.00
1380.654,653.00
1381.552,668.00
1382.448,688.00
1383.346,638.00
1384.241,634.00
1385.139,622.50
1386.036,710.50
1386.931,685.50
1387.829,699.00
1388.724,631.50
1389.621,637.50
1390.516,644.50
1391.413,678.50
1392.309,602.00
1393.204,619.00
1394.101,599.50
1394.995,644.50
1395.891,649.00
1396.786,636.50
1397.682,585.50
1398.578,642.50
1399.472,660.00
1400.368,605.50
1401.262,619.50
1402.158,590.00
1403.051,638.50
1403.947,624.50
1404.840,554.00
1405.736,583.50
1406.631,584.50
1407.524,594.50
1408.419,613.00
1409.312,619.00
1410.207,581.50
1411.100,596.50
1411.995,646.50
1412.888,562.00
1413.782,642.00
1414.675,617.50
1415.569,637.00
1416.463,589.50
1417.355,618.00
1418.249,560.00
1419.141,530.00
1420.035,620.50
1420.927,609.50
1421.821,568.00
1422.713,577.00
1423.606,612.00
1424.498,590.00
1425.391,561.50
1426.282,564.50
1427.175,588.00
1428.068,573.00
1428.960,622.00
1429.852,619.50
1430.743,584.00
1431.636,601.00
1432.527,599.00
1433.419,571.50
1434.310,551.50
1435.202,567.00
1436.092,501.50
1436.984,529.00
1437.875,572.00
1438.767,552.00
1439.657,619.00
1440.548,612.00
1441.438,600.00
1442.330,589.50
1443.219,576.50
1444.111,592.00
1445.000,578.50
1445.891,566.50
1446.781,572.00
1447.672,591.00
1448.561,548.00
1449.452,550.00
1450.340,516.00
1451.231,526.00
1452.120,502.50
1453.010,586.00
1453.899,605.00
1454.789,576.50
1455.677,559.50
1456.568,614.50
1457.456,565.50
1458.346,544.00
1459.234,504.50
1460.123,609.50
1461.011,540.00
1461.901,577.50
1462.788,530.50
1463.678,594.00
1464.565,538.00
1465.454,511.00
1466.342,538.00
1467.231,534.50
1468.118,490.50
1469.006,532.00
1469.893,591.50
1470.782,554.50
1471.669,552.00
1472.557,542.50
1473.444,538.50
1474.330,501.50
1475.218,504.50
1476.105,535.50
1476.993,523.00
1477.879,482.00
1478.767,528.00
1479.652,502.50
1480.540,528.00
1481.426,515.50
1482.313,575.00
1483.199,550.00
1484.086,527.00
1484.972,537.50
1485.857,488.00
1486.744,509.00
1487.629,525.50
1488.516,530.00
1489.401,486.50
1490.287,480.00
1491.172,532.00
1492.058,542.00
1492.943,563.50
1493.828,500.00
1494.714,557.50
1495.598,570.00
1496.484,430.50
1497.368,482.00
1498.254,518.50
1499.138,511.50
1500.022,500.00
1500.907,469.50
1501.791,530.00
1502.676,550.00
1503.560,509.00
1504.445,501.00
1505.328,490.00
1506.211,536.00
1507.096,501.50
1507.979,460.00
1508.864,503.00
1509.747,510.00
1510.631,496.00
1511.514,520.50
1512.397,548.00
1513.281,530.00
1514.163,513.50
1515.047,470.50
1515.930,522.00
1516.812,517.00
1517.696,503.50
1518.578,491.50
1519.461,481.00
1520.343,477.00
1521.225,489.00
1522.108,457.00
1522.990,550.50
1523.873,457.00
1524.754,465.00
1525.635,466.50
1526.518,472.00
1527.399,521.00
1528.282,458.50
1529.163,514.50
1530.044,489.00
1530.926,502.50
1531.807,422.50
1532.689,457.00
1533.569,496.00
1534.450,473.50
1535.332,501.00
1536.212,459.50
1537.092,464.00
1537.974,415.00
1538.854,491.50
1539.735,482.50
1540.615,444.50
1541.495,426.50
1542.376,473.50
1543.255,466.50
1544.135,477.50
1545.016,489.00
1545.895,439.50
1546.774,443.50
1547.655,495.50
1548.534,508.50
1549.414,473.50
1550.293,489.00
1551.172,479.00
1552.052,441.50
1552.930,481.50
1553.809,484.50
1554.689,487.50
1555.567,481.50
1556.445,433.00
1557.325,497.50
1558.203,487.00
1559.080,435.00
1559.960,490.50
1560.838,417.50
1561.715,452.50
1562.594,450.00
1563.472,448.00
1564.349,438.00
1565.228,450.50
1566.105,458.50
1566.982,519.00
1567.861,431.00
1568.738,499.00
1569.615,445.50
1570.493,505.50
1571.370,440.50
1572.246,454.50
1573.124,513.50
1574.000,420.00
1574.877,477.00
1575.755,414.00
1576.631,456.50
1577.507,466.50
1578.384,443.00
1579.260,483.00
1580.136,478.50
1581.011,474.00
1581.889,515.50
1582.764,457.00
1583.639,468.50
1584.516,453.50
1585.391,463.00
1586.266,493.50
1587.143,418.00
1588.018,450.50
1588.893,445.50
1589.768,475.00
1590.644,459.50
1591.519,475.00
1592.393,481.50
1593.269,497.00
1594.143,488.50
1595.018,472.00
1595.892,483.00
1596.767,411.50
1597.641,434.00
1598.515,450.50
1599.391,504.00
1600.264,463.00
1601.138,463.50
1602.011,411.50
1602.886,493.00
1603.760,413.00
1604.633,466.50
1605.508,447.50
1606.381,467.50
1607.254,468.50
1608.127,453.00
1609.001,396.50
1609.874,387.00
1610.746,431.50
1611.619,462.50
1612.493,469.50
1613.365,397.50
1614.238,435.00
1615.110,440.50
1615.984,473.00
1616.855,479.00
1617.727,462.50
1618.599,428.50
1619.473,467.00
1620.344,408.00
1621.216,423.50
1622.087,456.00
1622.960,483.50
1623.832,388.00
1624.703,449.00
1625.574,365.50
1626.445,482.50
1627.317,431.50
1628.188,503.00
1629.059,455.00
1629.930,441.50
1630.802,412.50
1631.672,428.00
1632.543,473.00
1633.413,440.00
1634.283,411.50
1635.155,469.50
1636.025,421.00
1636.895,411.00
1637.765,432.50
1638.636,430.00
1639.506,397.50
1640.376,445.00
1641.245,405.00
1642.114,451.50
1642.985,407.50
1643.855,473.00
1644.724,440.00
1645.593,419.50
1646.462,442.00
1647.333,387.50
1648.201,370.00
1649.070,436.50
1649.939,413.50
1650.807,435.00
1651.676,443.00
1652.546,467.00
1653.414,393.00
1654.282,448.00
1655.150,415.00
1656.018,448.50
1656.888,418.50
1657.756,408.00
1658.623,419.50
1659.491,405.00
1660.359,400.00
1661.226,439.00
1662.095,412.00
1662.962,417.00
1663.830,423.50
1664.697,431.50
1665.564,464.00
1666.431,409.50
1667.297,396.00
1668.166,432.00
1669.033,414.00
1669.899,430.00
1670.766,392.50
1671.632,459.50
1672.499,473.00
1673.367,385.50
1674.233,428.50
1675.099,444.00
1675.965,458.50
1676.831,467.50
1677.696,425.50
1678.562,401.00
1679.430,437.50
1680.295,419.00
1681.161,444.00
1682.026,383.50
1682.891,478.00
1683.756,366.00
1684.621,419.50
1685.486,373.50
1686.353,419.50
1687.218,386.50
1688.083,442.00
1688.947,409.50
1689.812,414.50
1690.677,350.00
1691.541,476.50
1692.405,385.00
1693.269,437.50
1694.135,422.50
1694.999,377.50
1695.863,397.00
1696.727,379.50
1697.591,429.00
1698.455,378.50
1699.318,396.00
1700.182,462.00
1701.045,417.00
1701.909,411.00
1702.772,438.00
1703.637,396.50
1704.500,419.00
1705.363,390.00
1706.226,418.00
1707.089,393.50
1707.951,350.50
1708.814,367.50
1709.677,401.50
1710.539,386.00
1711.402,430.00
1712.264,395.50
1713.126,405.50
1713.988,385.00
1714.852,396.00
1715.714,371.00
1716.576,464.50
1717.438,391.00
1718.299,390.50
1719.161,481.50
1720.023,403.50
1720.884,430.50
1721.745,370.50
1722.607,414.50
1723.468,456.50
1724.329,361.50
1725.190,404.00
1726.051,406.50
1726.912,418.50
1727.772,376.00
1728.633,367.00
1729.494,407.00
1730.354,394.50
1731.214,426.50
1732.075,439.00
1732.935,405.50
1733.797,371.00
1734.657,436.50
1735.517,342.50
1736.377,391.00
1737.237,369.50
1738.096,389.00
1738.956,430.00
1739.816,386.00
1740.675,377.50
1741.534,377.50
1742.394,397.50
1743.253,389.00
1744.112,379.00
1744.971,373.00
1745.830,412.50
1746.689,385.00
1747.547,387.50
1748.406,371.00
1749.265,383.00
1750.123,372.50
1750.982,406.00
1751.840,384.50
1752.698,464.00
1753.556,455.00
1754.414,381.00
1755.272,379.00
1756.130,393.50
1756.988,401.50
1757.846,406.00
1758.703,412.00
1759.559,395.50
1760.417,382.00
1761.274,376.00
1762.131,413.00
1762.989,369.50
1763.846,418.50
1764.703,356.00
1765.560,416.50
1766.417,419.50
1767.273,385.50
1768.130,401.50
1768.987,440.00
1769.843,423.50
1770.700,377.50
1771.556,354.50
1772.412,435.50
1773.268,387.00
1774.125,396.50
1774.980,364.50
1775.836,400.00
1776.692,399.50
1777.546,394.00
1778.402,455.50
1779.257,357.50
1780.113,386.00
1780.968,387.00
1781.824,349.50
1782.679,376.00
1783.534,414.00
1784.389,400.00
1785.244,366.50
1786.099,342.00
1786.954,368.50
1787.808,353.00
1788.661,392.50
1789.516,353.00
1790.370,403.00
1791.225,377.00
1792.079,344.50
1792.933,389.50
1793.787,432.50
1794.641,363.50
1795.495,423.00
1796.349,390.00
1797.201,387.50
1798.055,338.50
1798.908,372.00
1799.762,394.00
1800.615,345.00
1801.469,332.00
1802.322,373.00
1803.175,352.50
1804.028,370.00
1804.880,395.00
1805.732,376.50
1806.585,386.50
1807.438,379.00
1808.291,370.00
1809.143,347.50
1809.996,367.50
1810.846,375.00
1811.699,380.50
1812.551,378.50
1813.403,399.50
1814.255,397.00
1815.107,324.00
1815.959,362.00
1816.809,422.00
1817.661,388.00
1818.512,425.50
1819.364,374.50
1820.215,398.00
1821.067,385.50
1821.918,373.50
1822.768,378.00
1823.619,395.50
1824.470,367.00
1825.321,370.00
1826.172,367.50
1827.021,373.50
1827.871,347.50
1828.722,354.50
1829.572,415.50
1830.423,343.00
1831.273,336.00
1832.122,342.50
1832.972,380.50
1833.822,387.50
1834.672,376.00
1835.522,373.50
1836.370,371.50
1837.220,386.00
1838.070,319.50
1838.919,377.50
1839.769,344.50
1840.616,374.00
1841.466,356.50
1842.315,306.00
1843.164,380.50
1844.013,333.50
1844.860,398.50
1845.709,355.50
1846.558,348.50
1847.407,355.00
1848.254,359.00
1849.102,334.00
1849.951,371.50
1850.799,411.50
1851.648,431.00
1852.494,372.50
1853.342,418.00
1854.190,311.50
1855.038,362.00
1855.884,336.00
1856.732,342.00
1857.580,312.50
1858.428,342.00
1859.273,315.50
1860.121,354.00
1860.968,343.50
1861.816,342.50
1862.661,329.50
1863.508,402.50
1864.355,375.00
1865.202,318.00
1866.047,343.00
1866.894,351.50
1867.741,408.50
1868.586,348.00
1869.432,341.50
1870.279,285.50
1871.125,310.50
1871.970,314.00
1872.816,268.50
1873.662,374.00
1874.506,412.00
1875.352,409.00
1876.198,418.00
1877.044,362.00
1877.888,369.00
1878.734,401.50
1879.579,386.00
1880.423,358.50
1881.268,326.50
1882.113,371.50
1882.959,367.00
1883.802,352.00
1884.647,336.00
1885.492,350.00
1886.335,334.00
1887.180,383.00
1888.025,421.50
1888.867,337.50
1889.712,365.00
1890.556,315.00
1891.399,402.00
1892.243,366.50
1893.087,347.00
1893.930,310.50
1894.774,344.50
1895.618,295.00
1896.460,347.50
1897.304,401.50
1898.147,321.00
1898.989,326.50
1899.833,371.00
1900.676,341.00
1901.518,392.00
1902.361,316.50
1903.202,321.50
1904.046,317.00
1904.889,373.50
1905.730,376.50
1906.573,349.00
1907.415,322.50
1908.256,349.50
1909.099,421.50
1909.941,347.00
1910.782,331.50
1911.624,411.50
1912.465,357.00
1913.307,364.00
1914.149,335.50
1914.989,357.50
1915.831,347.50
1916.671,376.50
1917.513,344.00
1918.355,394.00
1919.195,360.50
1920.036,380.50
1920.876,323.00
1921.717,402.50
1922.558,368.50
1923.398,360.50
1924.239,370.00
1925.078,346.50
1925.919,385.00
1926.760,383.50
1927.599,344.50
1928.440,369.50
1929.279,349.00
1930.119,357.00
1930.958,332.50
1931.798,383.50
1932.638,332.50
1933.477,321.50
1934.317,388.50
1935.155,358.00
1935.995,344.00
1936.833,355.00
1937.673,347.50
1938.512,356.00
1939.350,387.00
1940.190,353.00
1941.027,368.50
1941.867,354.00
1942.704,385.50
1943.543,336.00
1944.381,357.50
1945.220,316.50
1946.057,344.50
1946.896,388.50
1947.733,337.00
1948.572,339.00
1949.408,371.00
1950.247,352.00
1951.085,346.00
1951.922,373.50
1952.760,380.50
1953.597,395.50
1954.435,362.00
1955.271,388.00
1956.109,392.50
1956.945,324.00
1957.783,303.00
1958.619,351.00
1959.456,368.00
1960.292,396.00
1961.129,374.00
1961.965,308.50
1962.802,378.00
1963.638,279.50
1964.475,336.50
1965.310,352.50
1966.145,352.00
1966.982,285.00
1967.817,347.00
1968.654,343.00
1969.489,354.00
1970.325,370.00
1971.160,341.00
1971.996,352.00
1972.831,332.50
1973.667,329.50
1974.501,384.50
1975.337,296.50
1976.171,379.50
1977.006,370.00
1977.841,360.50
1978.675,406.50
1979.511,317.00
1980.345,304.50
1981.180,372.50
1982.014,279.00
1982.849,347.00
1983.682,341.50
1984.516,374.50
1985.351,352.50
1986.184,324.00
1987.019,317.50
1987.852,342.50
1988.687,373.00
1989.519,337.50
1990.352,376.50
1991.187,359.00
1992.019,360.50
1992.854,401.50
1993.686,316.50
1994.518,294.00
1995.352,347.00
1996.185,295.00
1997.019,352.50
1997.851,327.00
1998.682,382.50
1999.516,383.00
2000.348,372.00

<< BACKGROUND SPECTRUM >>
Wave[dcm-1],No48
96.716,2568.00
97.759,2354.00
98.802,2306.00
99.846,2929.00
100.886,2566.00
101.929,2777.00
102.972,2740.00
104.015,2673.00
105.057,2771.00
106.100,2216.00
107.142,2630.00
108.184,3013.00
109.226,2862.00
110.268,3051.00
111.310,3340.00
112.352,2912.00
113.393,2919.00
114.435,2809.00
115.476,3063.00
116.517,3081.00
117.558,2620.00
118.599,2959.00
119.640,3291.00
120.681,3283.00
121.722,3223.00
122.762,2916.00
123.803,2758.00
124.843,3134.00
125.883,3382.00
126.923,3567.00
127.963,3308.00
129.001,3585.00
130.041,3981.00
131.080,3296.00
132.120,3174.00
133.159,3552.00
134.199,3582.00
135.238,3163.00
136.277,3544.00
137.316,3681.00
138.355,3612.00
139.393,3192.00
140.432,3299.00
141.470,3428.00
142.509,3210.00
143.547,3808.00
144.585,2988.00
145.623,3398.00
146.661,3140.00
147.699,3480.00
148.736,3597.00
149.774,3277.00
150.811,3477.00
151.849,3932.00
152.886,3445.00
153.923,3666.00
154.960,3122.00
155.997,3927.00
157.034,4889.00
158.072,3559.00
159.109,4072.00
160.145,4208.00
161.182,3255.00
162.218,3555.00
163.254,3366.00
164.290,3296.00
165.326,4012.00
166.361,3898.00
167.397,3503.00
168.432,3745.00
169.468,3465.00
170.503,3668.00
171.538,3400.00
172.573,3750.00
173.608,3267.00
174.643,3738.00
175.677,3652.00
176.712,3805.00
177.746,3845.00
178.781,3342.00
179.815,2696.00
180.849,3812.00
181.883,3358.00
182.917,2838.00
183.951,3112.00
184.984,3849.00
186.020,3293.00
187.053,3628.00
188.087,3257.00
189.120,3532.00
190.153,3719.00
191.186,3678.00
192.219,3757.00
193.251,3723.00
194.284,3796.00
195.317,3871.00
196.349,10604.00
197.381,3439.00
198.413,3486.00
199.445,3280.00
200.477,3634.00
201.509,3549.00
202.543,3570.00
203.575,3920.00
204.606,3700.00
205.637,5281.00
206.669,3163.00
207.700,3777.00
208.731,3588.00
209.762,3220.00
210.792,3259.00
211.823,3658.00
212.854,3279.00
213.884,4417.00
214.914,3693.00
215.947,3599.00
216.977,3712.00
218.007,3563.00
219.037,3867.00
220.066,3343.00
221.096,3823.00
222.126,3232.00
223.155,3355.00
224.184,3798.00
225.214,3347.00
226.245,3914.00
227.274,3316.00
228.302,3686.00
229.331,3721.00
230.360,3471.00
231.388,3440.00
232.417,3237.00
233.445,3621.00
234.473,3427.00
235.501,3782.00
236.531,3761.00
237.559,3686.00
238.587,3314.00
239.614,3267.00
240.642,3672.00
241.669,3682.00
242.696,3708.00
243.724,3668.00
244.753,4070.00
245.780,3448.00
246.806,3236.00
247.833,3633.00
248.860,3488.00
249.886,3617.00
250.913,3233.00
251.939,3581.00
252.967,3510.00
253.993,3564.00
255.019,3935.00
256.045,3594.00
257.070,4035.00
258.096,3345.00
259.121,3708.00
260.147,3535.00
261.174,3484.00
262.199,3446.00
263.224,3602.00
264.249,3945.00
265.274,4146.00
266.298,3601.00
267.323,3616.00
268.349,3841.00
269.374,3246.00
270.398,3297.00
271.422,3666.00
272.446,3349.00
273.470,3135.00
274.496,3773.00
275.519,3791.00
276.543,3925.00
277.566,3935.00
278.589,3918.00
279.613,3770.00
280.636,3763.00
281.661,3827.00
282.684,3838.00
283.706,4005.00
284.729,4160.00
285.751,3022.00
286.774,3990.00
287.798,3401.00
288.820,3023.00
289.842,3316.00
290.864,3396.00
291.886,3673.00
292.910,3463.00
293.932,4106.00
294.953,3532.00
295.974,3553.00
296.996,3751.00
298.017,3602.00
299.040,3409.00
300.061,3677.00
301.082,3430.00
302.102,3219.00
303.123,3841.00
304.143,3563.00
305.166,3530.00
306.186,3785.00
307.206,3339.00
308.226,3723.00
309.246,3095.00
310.268,3844.00
311.288,3542.00
312.307,3218.00
313.327,3562.00
314.346,3790.00
315.368,3041.00
316.387,3713.00
317.406,3628.00
318.425,3553.00
319.443,3460.00
320.464,3171.00
321.483,4031.00
322.501,3376.00
323.520,3994.00
324.538,3473.00
325.558,4058.00
326.576,3631.00
327.594,3553.00
328.612,3380.00
329.629,3155.00
330.649,3808.00
331.666,3550.00
332.684,3183.00
333.701,3740.00
334.718,3234.00
335.737,3444.00
336.754,3729.00
337.771,3831.00
338.787,3225.00
339.806,3480.00
340.823,3465.00
341.839,3543.00
342.855,3483.00
343.871,3595.00
344.889,3360.00
345.905,3875.00
346.921,3819.00
347.937,4359.00
348.954,4178.00
349.970,3681.00
350.985,3586.00
352.000,3158.00
353.017,3775.00
354.032,3161.00
355.047,3894.00
356.062,3484.00
357.077,3416.00
358.093,3990.00
359.108,3695.00
360.122,3617.00
361.136,3513.00
362.152,3953.00
363.166,3317.00
364.180,3167.00
365.194,3942.00
366.210,3443.00
367.223,3307.00
368.237,3422.00
369.250,3603.00
370.265,3392.00
371.278,3898.00
372.291,3703.00
373.304,3072.00
374.319,3739.00
375.332,3825.00
376.344,4089.00
377.357,3442.00
378.371,3817.00
379.383,3407.00
380.395,4315.00
381.407,4126.00
382.421,3436.00
383.433,3414.00
384.445,3398.00
385.456,3498.00
386.470,3088.00
387.481,3932.00
388.492,3916.00
389.505,3260.00
390.516,3981.00
391.527,3484.00
392.538,3512.00
393.551,3712.00
394.561,4324.00
395.572,3731.00
396.582,3601.00
397.594,3820.00
398.604,3432.00
399.614,3645.00
400.624,3398.00
401.636,3442.00
402.646,3580.00
403.655,3216.00
404.667,3406.00
405.676,3404.00
406.685,4357.00
407.694,3941.00
408.705,3021.00
409.714,3152.00
410.723,3288.00
411.734,3326.00
412.742,3399.00
413.751,3611.00
414.759,3665.00
415.769,3589.00
416.777,3828.00
417.785,3550.00
418.795,3370.00
419.803,3603.00
420.811,3278.00
421.818,3944.00
422.828,3516.00
423.835,3437.00
424.842,3458.00
425.852,3309.00
426.859,3636.00
427.866,3713.00
428.874,3638.00
429.881,3513.00
430.888,3778.00
431.894,3640.00
432.902,3595.00
433.909,4516.00
434.915,3663.00
435.923,4268.00
436.929,3089.00
437.935,3503.00
438.942,3424.00
439.948,3543.00
440.953,4097.00
441.959,3187.00
442.966,3966.00
443.971,3748.00
444.976,3207.00
445.983,3635.00
446.988,3491.00
447.993,3996.00
448.999,3617.00
450.004,3566.00
451.008,3378.00
452.014,4074.00
453.019,3848.00
454.023,3283.00
455.029,3228.00
456.032,4017.00
457.036,3532.00
458.042,2932.00
459.045,3422.00
460.049,3764.00
461.052,4023.00
462.057,3780.00
463.060,3988.00
464.063,3432.00
465.068,3460.00
466.071,3302.00
467.073,3928.00
468.078,3149.00
469.080,3093.00
470.082,3588.00
471.087,3457.00
472.089,3637.00
473.091,3791.00
474.095,4007.00
475.096,3492.00
476.098,3386.00
477.101,3734.00
478.103,3323.00
479.104,4186.00
480.107,3465.00
481.108,3073.00
482.109,4253.00
483.112,4222.00
484.113,3796.00
485.114,3782.00
486.116,3602.00
487.117,3875.00
488.117,3637.00
489.119,3713.00
490.119,3780.00
491.121,3248.00
492.121,3058.00
493.121,2902.00
494.123,3630.00
495.122,3645.00
496.122,3588.00
497.123,4532.00
498.122,3389.00
499.121,3620.00
500.122,3571.00
501.121,3180.00
502.120,3177.00
503.121,3295.00
504.119,3261.00
505.118,3787.00
506.118,3261.00
507.117,3291.00
508.115,3706.00
509.115,3574.00
510.113,3122.00
511.112,3847.00
512.110,3478.00
513.108,3832.00
514.107,3901.00
515.105,3797.00
516.102,3935.00
517.101,3548.00
518.098,3628.00
519.095,4070.00
520.094,3430.00
521.091,3391.00
522.089,3713.00
523.086,3400.00
524.082,3708.00
525.081,3641.00
526.077,4767.00
527.073,4522.00
528.071,3569.00
529.067,3381.00
530.064,3438.00
531.060,3135.00
532.056,3441.00
533.053,3859.00
534.048,3758.00
535.044,3576.00
536.041,3739.00
537.036,3571.00
538.030,3691.00
539.027,3829.00
540.022,3137.00
541.019,3515.00
542.013,3830.00
543.007,3674.00
544.004,3526.00
544.998,3531.00
545.994,4114.00
546.988,3924.00
547.981,3416.00
548.977,4173.00
549.971,3714.00
550.964,3828.00
551.960,3632.00
552.953,3536.00
553.948,3814.00
554.941,3373.00
555.934,3260.00
556.929,3824.00
557.922,3361.00
558.916,3869.00
559.909,4115.00
560.901,3621.00
561.895,3629.00
562.888,3271.00
563.880,3791.00
564.874,3947.00
565.865,3795.00
566.859,3210.00
567.851,4034.00
568.842,3466.00
569.836,3574.00
570.827,3255.00
571.820,3661.00
572.811,3753.00
573.802,3609.00
574.795,3380.00
575.786,3846.00
576.779,3706.00
577.769,3199.00
578.760,3663.00
579.752,3212.00
580.742,3408.00
581.735,3784.00
582.725,3346.00
583.714,3822.00
584.706,3272.00
585.696,3512.00
586.688,3760.00
587.677,3516.00
588.667,3732.00
589.658,3516.00
590.647,3640.00
591.638,3601.00
592.627,3393.00
593.616,3177.00
594.607,3696.00
595.595,3565.00
596.586,3171.00
597.574,3906.00
598.562,3927.00
599.553,3192.00
600.541,3563.00
601.531,3750.00
602.519,3448.00
603.508,3715.00
604.496,3761.00
605.484,3643.00
606.473,3548.00
607.460,3404.00
608.450,3450.00
609.437,3747.00
610.424,3947.00
611.413,3141.00
612.400,3268.00
613.388,3612.00
614.375,3450.00
615.361,3447.00
616.350,3306.00
617.336,8416.00
618.324,3929.00
619.310,3357.00
620.298,3262.00
621.284,3681.00
622.270,3260.00
623.257,3586.00
624.243,3578.00
625.230,3820.00
626.216,3543.00
627.203,3961.00
628.188,3528.00
629.173,3421.00
630.160,3293.00
631.145,2699.00
632.131,3362.00
633.116,3164.00
634.102,3631.00
635.087,3790.00
636.071,3834.00
637.057,3356.00
638.041,3133.00
639.027,3275.00
640.011,3400.00
640.995,3276.00
641.980,3252.00
642.964,3394.00
643.949,3942.00
644.932,2793.00
645.918,3356.00
646.901,3569.00
647.886,3332.00
648.868,3405.00
649.851,3174.00
650.836,2952.00
651.818,3235.00
652.803,3717.00
653.785,3522.00
654.769,3697.00
655.751,3693.00
656.733,3951.00
657.717,3090.00
658.699,3593.00
659.683,3334.00
660.664,3135.00
661.648,3378.00
662.629,3340.00
663.611,3279.00
664.594,3077.00
665.575,3131.00
666.558,3424.00
667.539,3116.00
668.521,3398.00
669.502,3402.00
670.484,3351.00
671.465,3268.00
672.445,3497.00
673.427,3205.00
674.407,3185.00
675.390,3578.00
676.369,3357.00
677.351,2955.00
678.331,3647.00
679.312,3439.00
680.292,3261.00
681.271,2983.00
682.253,3550.00
683.232,3075.00
684.213,3254.00
685.192,3658.00
686.172,3914.00
687.151,3389.00
688.132,3450.00
689.110,3580.00
690.089,3769.00
691.069,2901.00
692.047,2831.00
693.027,2988.00
694.005,3372.00
694.985,4011.00
695.963,3495.00
696.943,3254.00
697.920,3013.00
698.898,3833.00
699.877,3623.00
700.854,3255.00
701.833,3201.00
702.810,3755.00
703.789,3499.00
704.766,4455.00
705.745,3939.00
706.721,3218.00
707.698,3731.00
708.676,3070.00
709.653,3291.00
710.631,3658.00
711.607,3368.00
712.585,3382.00
713.561,3125.00
714.539,3894.00
715.514,3276.00
716.492,3097.00
717.467,3793.00
718.443,3047.00
719.420,3725.00
720.395,3789.00
721.372,3534.00
722.347,3683.00
723.324,3215.00
724.298,3374.00
725.275,3183.00
726.250,3245.00
727.226,3194.00
728.200,2975.00
729.176,3297.00
730.151,3606.00
731.125,3798.00
732.100,3001.00
733.074,3323.00
734.050,3178.00
735.023,3000.00
735.999,3252.00
736.972,3223.00
737.947,3710.00
738.921,3409.00
739.896,3568.00
740.869,3392.00
741.841,3247.00
742.816,3784.00
743.789,3118.00
744.763,3113.00
745.736,3325.00
746.710,3186.00
747.682,3081.00
748.656,3304.00
749.628,3262.00
750.602,3303.00
751.574,3389.00
752.548,4222.00
753.519,3489.00
754.491,2936.00
755.464,3171.00
756.435,3967.00
757.408,3588.00
758.379,3490.00
759.352,2916.00
760.323,2987.00
761.296,3270.00
762.267,3325.00
763.239,3069.00
764.209,3561.00
765.182,4430.00
766.152,3617.00
767.124,3090.00
768.094,3147.00
769.064,3543.00
770.036,3016.00
771.005,3634.00
771.977,3157.00
772.947,3231.00
773.918,3735.00
774.887,3273.00
775.858,3141.00
776.827,3230.00
777.798,3267.00
778.767,3806.00
779.738,3266.00
780.707,3227.00
781.677,3369.00
782.646,3103.00
783.614,3708.00
784.584,3413.00
785.552,3506.00
786.522,2930.00
787.490,3283.00
788.460,3148.00
789.428,3147.00
790.397,3713.00
791.365,2981.00
792.334,3195.00
793.302,3393.00
794.271,3410.00
795.238,3170.00
796.207,3123.00
797.174,3538.00
798.143,3038.00
799.109,3701.00
800.076,3244.00
801.044,2835.00
802.011,3045.00
802.979,3097.00
803.945,3322.00
804.913,3929.00
805.879,3223.00
806.847,2934.00
807.813,3638.00
808.780,3213.00
809.746,3251.00
810.713,3647.00
811.678,2949.00
812.646,3220.00
813.611,3203.00
814.578,3023.00
815.543,3670.00
816.510,2907.00
817.474,3109.00
818.439,3211.00
819.405,3518.00
820.370,3109.00
821.336,3042.00
822.300,3395.00
823.266,3231.00
824.230,3469.00
825.196,3307.00
826.160,3637.00
827.126,3627.00
828.089,3994.00
829.055,3319.00
830.018,3383.00
830.983,4047.00
831.946,3042.00
832.911,3057.00
833.874,3907.00
834.837,3106.00
835.802,3191.00
836.765,3744.00
837.729,3158.00
838.691,3275.00
839.656,3553.00
840.618,3410.00
841.582,3533.00
842.544,3537.00
843.508,3723.00
844.470,3035.00
845.434,2860.00
846.395,2775.00
847.359,3183.00
848.320,2910.00
849.283,3051.00
850.245,3129.00
851.208,3498.00
852.169,3254.00
853.130,3021.00
854.092,3406.00
855.053,3174.00
856.016,3204.00
856.976,4340.00
857.938,3254.00
858.899,3261.00
859.861,2956.00
860.821,3169.00
861.783,2584.00
862.743,3208.00
863.704,3515.00
864.664,2753.00
865.626,3378.00
866.585,3045.00
867.546,3321.00
868.506,3282.00
869.467,2738.00
870.426,3313.00
871.387,3474.00
872.346,3519.00
873.304,3365.00
874.265,3392.00
875.223,3286.00
876.184,3364.00
877.142,3150.00
878.102,3195.00
879.060,3237.00
880.021,3289.00
880.978,2880.00
881.938,3228.00
882.896,3583.00
883.856,3455.00
884.813,3154.00
885.772,3160.00
886.730,3404.00
887.689,3398.00
888.646,3062.00
889.603,3609.00
890.562,3632.00
891.519,3372.00
892.477,3400.00
893.434,3293.00
894.392,2814.00
895.349,3297.00
896.307,3337.00
897.263,3460.00
898.221,3354.00
899.177,3076.00
900.135,3399.00
901.091,3187.00
902.048,3712.00
903.004,3221.00
903.961,3073.00
904.917,3175.00
905.874,3262.00
906.829,2929.00
907.784,3279.00
908.741,3283.00
909.696,3122.00
910.653,2788.00
911.607,3214.00
912.564,3139.00
913.518,3174.00
914.475,3289.00
915.429,4936.00
916.385,2953.00
917.339,3607.00
918.295,3357.00
919.249,3459.00
920.205,3285.00
921.158,3350.00
922.114,3130.00
923.067,3282.00
924.020,3314.00
924.976,3130.00
925.929,3341.00
926.884,3288.00
927.837,3536.00
928.791,3433.00
929.744,2965.00
930.699,3266.00
931.651,3261.00
932.606,2837.00
933.558,3107.00
934.512,3490.00
935.464,3296.00
936.418,3655.00
937.370,3391.00
938.322,3042.00
939.276,3160.00
940.227,3225.00
941.181,3362.00
942.132,3658.00
943.085,3845.00
944.036,2804.00
944.990,3507.00
945.941,3052.00
946.893,3133.00
947.844,2926.00
948.797,3389.00
949.747,4031.00
950.700,3113.00
951.650,2658.00
952.601,3365.00
953.553,3027.00
954.503,3431.00
955.455,3203.00
956.405,3245.00
957.356,2899.00
958.306,3526.00
959.258,3242.00
960.207,3671.00
961.158,3578.00
962.108,3251.00
963.059,2904.00
964.008,2880.00
964.959,3870.00
965.908,3165.00
966.856,2998.00
967.807,2789.00
968.756,3569.00
969.706,3293.00
970.654,3115.00
971.605,3228.00
972.553,3335.00
973.503,3247.00
974.451,3506.00
975.401,3250.00
976.348,3253.00
977.296,3114.00
978.246,3486.00
979.193,3673.00
980.142,2988.00
981.090,3314.00
982.039,3212.00
982.986,3349.00
983.935,3558.00
984.882,3301.00
985.830,3433.00
986.777,3345.00
987.725,3118.00
988.672,3056.00
989.618,3279.00
990.567,2967.00
991.513,3158.00
992.461,3009.00
993.407,3485.00
994.354,3302.00
995.300,3362.00
996.248,3297.00
997.193,3382.00
998.141,3151.00
999.086,3384.00
1000.031,3300.00
1000.978,2842.00
1001.924,3245.00
1002.870,3338.00
1003.815,2665.00
1004.762,3072.00
1005.707,3249.00
1006.653,3191.00
1007.598,3173.00
1008.542,2887.00
1009.488,2861.00
1010.432,3095.00
1011.378,2998.00
1012.322,3614.00
1013.268,2931.00
1014.212,3210.00
1015.157,3303.00
1016.101,3641.00
1017.046,2912.00
1017.990,2974.00
1018.933,3172.00
1019.878,2998.00
1020.821,3011.00
1021.766,2884.00
1022.709,3081.00
1023.654,3172.00
1024.596,3481.00
1025.541,3623.00
1026.483,3609.00
1027.425,3299.00
1028.370,3376.00
1029.312,3451.00
1030.256,3115.00
1031.198,3042.00
1032.141,3067.00
1033.083,3617.00
1034.027,3322.00
1034.968,3342.00
1035.910,2736.00
1036.853,3206.00
1037.794,3291.00
1038.738,2936.00
1039.679,3516.00
1040.621,3048.00
1041.562,3125.00
1042.503,3511.00
1043.446,2933.00
1044.386,3497.00
1045.329,3228.00
1046.269,3279.00
1047.211,3162.00
1048.151,3266.00
1049.093,2935.00
1050.033,3984.00
1050.973,3338.00
1051.915,3188.00
1052.854,3136.00
1053.796,3398.00
1054.735,3061.00
1055.677,3084.00
1056.616,3260.00
1057.555,3224.00
1058.496,2869.00
1059.435,3395.00
1060.376,3045.00
1061.315,3061.00
1062.255,2884.00
1063.194,3126.00
1064.132,2886.00
1065.073,3294.00
1066.011,3230.00
1066.951,3188.00
1067.889,2932.00
1068.829,3361.00
1069.767,3252.00
1070.705,2565.00
1071.644,3088.00
1072.582,2780.00
1073.521,3102.00
1074.459,3173.00
1075.398,3279.00
1076.335,3045.00
1077.272,3780.00
1078.211,3333.00
1079.148,3706.00
1080.087,3199.00
1081.023,3594.00
1081.962,3464.00
1082.898,2731.00
1083.835,3064.00
1084.773,2766.00
1085.709,2812.00
1086.647,3157.00
1087.583,3079.00
1088.519,3309.00
1089.457,3308.00
1090.392,2796.00
1091.330,3186.00
1092.266,3098.00
1093.203,3471.00
1094.138,2796.00
1095.073,3701.00
1096.010,3428.00
1096.945,3113.00
1097.882,2807.00
1098.817,2644.00
1099.752,4059.00
1100.688,3176.00
1101.623,3250.00
1102.559,3262.00
1103.493,3500.00
1104.430,2723.00
1105.364,2829.00
1106.298,3080.00
1107.234,3784.00
1108.167,2928.00
1109.094,3123.00
1110.019,3134.00
1110.945,3304.00
1111.869,3169.00
1112.795,3085.00
1113.720,3171.00
1114.646,3192.00
1115.571,2620.00
1116.495,3275.00
1117.420,3263.00
1118.345,2966.00
1119.270,3124.00
1120.195,3281.00
1121.118,3570.00
1122.042,3395.00
1122.967,3205.00
1123.891,3229.00
1124.816,3214.00
1125.738,3168.00
1126.663,2590.00
1127.587,3038.00
1128.511,3034.00
1129.435,3173.00
1130.357,3289.00
1131.280,4013.00
1132.204,2921.00
1133.128,3020.00
1134.051,3050.00
1134.972,3751.00
1135.896,3066.00
1136.819,3462.00
1137.742,3004.00
1138.665,3265.00
1139.586,3142.00
1140.509,2696.00
1141.431,2992.00
1142.354,3605.00
1143.276,3178.00
1144.197,3581.00
1145.119,3225.00
1146.041,2896.00
1146.964,3395.00
1147.885,3272.00
1148.806,3115.00
1149.727,3190.00
1150.649,2757.00
1151.571,3142.00
1152.492,3344.00
1153.412,3259.00
1154.333,3152.00
1155.254,3050.00
1156.175,3036.00
1157.095,3613.00
1158.016,3190.00
1158.936,3001.00
1159.857,3260.00
1160.778,3085.00
1161.697,2767.00
1162.617,3265.00
1163.537,3794.00
1164.458,3632.00
1165.376,2947.00
1166.296,3359.00
1167.216,3458.00
1168.136,2993.00
1169.056,2896.00
1169.974,3086.00
1170.893,3678.00
1171.813,3304.00
1172.732,3091.00
1173.650,3236.00
1174.569,3969.00
1175.488,3304.00
1176.407,2880.00
1177.326,2914.00
1178.243,3141.00
1179.161,3007.00
1180.080,3052.00
1180.999,3308.00
1181.915,3081.00
1182.834,2711.00
1183.752,3342.00
1184.670,3717.00
1185.586,2677.00
1186.504,3011.00
1187.422,3090.00
1188.340,2833.00
1189.258,3275.00
1190.173,3091.00
1191.091,3471.00
1192.008,2932.00
1192.926,3002.00
1193.841,3266.00
1194.758,3247.00
1195.675,2910.00
1196.592,3465.00
1197.507,2925.00
1198.424,3317.00
1199.340,3582.00
1200.257,3056.00
1201.172,3291.00
1202.088,2598.00
1203.004,3195.00
1203.920,3420.00
1204.835,3748.00
1205.750,3483.00
1206.666,3525.00
1207.582,2922.00
1208.496,2969.00
1209.412,3073.00
1210.327,2991.00
1211.243,3635.00
1212.156,2961.00
1213.071,2915.00
1213.986,3151.00
1214.901,2818.00
1215.814,2822.00
1216.729,2890.00
1217.644,2894.00
1218.559,2907.00
1219.471,3944.00
1220.386,3500.00
1221.300,2981.00
1222.213,3281.00
1223.127,3119.00
1224.041,3517.00
1224.955,2916.00
1225.867,3247.00
1226.781,3418.00
1227.694,3551.00
1228.608,3091.00
1229.520,3348.00
1230.433,3278.00
1231.346,2917.00
1232.260,3310.00
1233.171,2886.00
1234.084,3237.00
1234.997,3564.00
1235.908,2994.00
1236.821,3277.00
1237.733,4349.00
1238.646,3415.00
1239.556,3244.00
1240.469,3124.00
1241.381,2927.00
1242.293,2931.00
1243.203,3647.00
1244.115,3709.00
1245.027,3205.00
1245.937,3007.00
1246.849,3079.00
1247.761,3202.00
1248.672,2927.00
1249.582,3058.00
1250.493,3706.00
1251.404,3171.00
1252.313,3337.00
1253.225,3451.00
1254.135,4061.00
1255.046,3320.00
1255.955,3350.00
1256.866,3675.00
1257.777,3047.00
1258.685,2835.00
1259.596,2573.00
1260.506,3529.00
1261.416,3075.00
1262.324,3418.00
1263.234,3154.00
1264.144,3375.00
1265.052,3298.00
1265.962,3142.00
1266.872,3485.00
1267.779,3356.00
1268.689,2742.00
1269.598,2825.00
1270.507,3089.00
1271.415,3050.00
1272.324,3204.00
1273.233,3120.00
1274.140,3026.00
1275.048,2926.00
1275.957,2644.00
1276.864,2968.00
1277.772,3017.00
1278.681,2645.00
1279.587,2888.00
1280.496,3273.00
1281.404,3905.00
1282.312,3330.00
1283.218,2887.00
1284.126,2865.00
1285.033,3627.00
1285.939,3114.00
1286.847,3237.00
1287.754,3070.00
1288.660,2927.00
1289.567,3751.00
1290.474,3209.00
1291.380,3386.00
1292.286,2841.00
1293.193,3195.00
1294.098,3143.00
1295.005,2962.00
1295.912,3440.00
1296.816,3258.00
1297.723,3115.00
1298.629,2935.00
1299.534,3501.00
1300.440,3261.00
1301.346,2945.00
1302.250,2934.00
1303.156,2671.00
1304.062,3599.00
1304.966,3727.00
1305.871,3475.00
1306.777,2965.00
1307.680,3123.00
1308.586,3258.00
1309.491,3387.00
1310.394,3158.00
1311.299,3418.00
1312.204,3655.00
1313.107,3320.00
1314.012,3219.00
1314.917,2873.00
1315.819,3272.00
1316.724,3687.00
1317.628,3252.00
1318.531,3115.00
1319.435,3498.00
1320.339,5124.00
1321.241,3163.00
1322.145,3160.00
1323.049,3182.00
1323.951,2913.00
1324.854,2909.00
1325.756,3426.00
1326.659,3185.00
1327.563,2909.00
1328.464,3274.00
1329.367,3159.00
1330.271,3485.00
1331.172,2895.00
1332.074,3167.00
1332.977,2964.00
1333.878,3314.00
1334.781,3447.00
1335.683,2943.00
1336.584,3078.00
1337.486,2733.00
1338.387,3292.00
1339.289,2874.00
1340.191,2990.00
1341.091,3068.00
1341.993,2927.00
1342.895,2997.00
1343.794,3232.00
1344.696,3392.00
1345.596,3280.00
1346.497,2870.00
1347.398,3106.00
1348.298,2685.00
1349.199,3692.00
1350.100,3036.00
1350.999,3512.00
1351.900,3372.00
1352.799,3466.00
1353.699,3248.00
1354.600,3144.00
1355.499,3221.00
1356.399,2757.00
1357.297,3092.00
1358.198,3153.00
1359.098,2908.00
1359.996,2830.00
1360.896,3618.00
1361.796,3401.00
1362.694,3259.00
1363.593,3153.00
1364.491,3369.00
1365.391,3685.00
1366.290,3110.00
1367.187,2882.00
1368.086,3342.00
1368.984,3255.00
1369.883,2763.00
1370.782,3188.00
1371.679,3336.00
1372.577,3616.00
1373.474,3203.00
1374.373,3075.00
1375.269,3197.00
1376.168,3136.00
1377.066,3416.00
1377.962,3387.00
1378.860,3522.00
1379.756,3523.00
1380.654,3717.00
1381.552,3393.00
1382.448,3290.00
1383.346,3220.00
1384.241,3347.00
1385.139,3422.00
1386.036,3026.00
1386.931,2721.00
1387.829,3212.00
1388.724,3435.00
1389.621,3016.00
1390.516,3213.00
1391.413,3043.00
1392.309,2924.00
1393.204,3470.00
1394.101,3392.00
1394.995,3319.00
1395.891,3302.00
1396.786,2920.00
1397.682,3137.00
1398.578,3225.00
1399.472,3435.00
1400.368,3205.00
1401.262,3152.00
1402.158,3335.00
1403.051,3095.00
1403.947,3038.00
1404.840,3466.00
1405.736,3420.00
1406.631,2958.00
1407.524,3603.00
1408.419,3225.00
1409.312,3040.00
1410.207,3296.00
1411.100,3033.00
1411.995,2991.00
1412.888,3402.00
1413.782,2781.00
1414.675,3488.00
1415.569,2871.00
1416.463,3106.00
1417.355,3116.00
1418.249,2978.00
1419.141,3293.00
1420.035,3262.00
1420.927,3104.00
1421.821,3497.00
1422.713,3052.00
1423.606,3295.00
1424.498,3193.00
1425.391,3764.00
1426.282,2982.00
1427.175,3108.00
1428.068,2655.00
1428.960,3219.00
1429.852,3228.00
1430.743,2921.00
1431.636,3172.00
1432.527,3455.00
1433.419,3331.00
1434.310,3368.00
1435.202,2954.00
1436.092,3161.00
1436.984,3147.00
1437.875,3558.00
1438.767,3164.00
1439.657,2936.00
1440.548,3331.00
1441.438,3214.00
1442.330,3293.00
1443.219,3112.00
1444.111,3424.00
1445.000,3002.00
1445.891,2904.00
1446.781,2954.00
1447.672,3217.00
1448.561,3537.00
1449.452,3321.00
1450.340,2957.00
1451.231,2997.00
1452.120,2954.00
1453.010,3411.00
1453.899,2998.00
1454.789,3338.00
1455.677,3571.00
1456.568,3165.00
1457.456,3219.00
1458.346,3205.00
1459.234,3265.00
1460.123,3482.00
1461.011,3218.00
1461.901,3494.00
1462.788,3578.00
1463.678,3263.00
1464.565,3208.00
1465.454,3117.00
1466.342,3276.00
1467.231,2533.00
1468.118,3474.00
1469.006,3585.00
1469.893,2851.00
1470.782,3328.00
1471.669,3491.00
1472.557,3425.00
1473.444,3158.00
1474.330,3398.00
1475.218,3541.00
1476.105,3111.00
1476.993,3215.00
1477.879,3461.00
1478.767,3109.00
1479.652,2939.00
1480.540,3247.00
1481.426,3355.00
1482.313,3282.00
1483.199,3562.00
1484.086,3422.00
1484.972,2887.00
1485.857,2914.00
1486.744,3281.00
1487.629,2773.00
1488.516,3041.00
1489.401,3407.00
1490.287,3228.00
1491.172,2799.00
1492.058,3115.00
1492.943,2959.00
1493.828,3011.00
1494.714,3309.00
1495.598,3526.00
1496.484,4018.00
1497.368,2855.00
1498.254,3142.00
1499.138,3230.00
1500.022,3193.00
1500.907,3356.00
1501.791,3922.00
1502.676,3169.00
1503.560,3020.00
1504.445,3723.00
1505.328,3356.00
1506.211,3573.00
1507.096,3131.00
1507.979,3501.00
1508.864,3115.00
1509.747,3321.00
1510.631,3259.00
1511.514,3331.00
1512.397,3390.00
1513.281,3667.00
1514.163,3451.00
1515.047,3090.00
1515.930,2903.00
1516.812,3185.00
1517.696,3359.00
1518.578,3138.00
1519.461,3245.00
1520.343,3690.00
1521.225,3019.00
1522.108,3127.00
1522.990,3453.00
1523.873,3606.00
1524.754,2845.00
1525.635,2702.00
1526.518,3338.00
1527.399,3110.00
1528.282,3220.00
1529.163,3306.00
1530.044,3164.00
1530.926,2840.00
1531.807,2972.00
1532.689,3256.00
1533.569,2996.00
1534.450,4277.00
1535.332,3384.00
1536.212,3124.00
1537.092,3476.00
1537.974,2916.00
1538.854,3102.00
1539.735,3712.00
1540.615,3409.00
1541.495,2992.00
1542.376,3625.00
1543.255,2917.00
1544.135,3128.00
1545.016,3227.00
1545.895,3016.00
1546.774,3442.00
1547.655,2742.00
1548.534,3185.00
1549.414,3099.00
1550.293,2865.00
1551.172,3260.00
1552.052,3168.00
1552.930,3046.00
1553.809,3683.00
1554.689,3067.00
1555.567,3125.00
1556.445,3125.00
1557.325,3480.00
1558.203,2786.00
1559.080,3234.00
1559.960,3099.00
1560.838,3895.00
1561.715,3137.00
1562.594,3525.00
1563.472,3376.00
1564.349,3359.00
1565.228,2791.00
1566.105,2959.00
1566.982,3231.00
1567.861,3476.00
1568.738,3102.00
1569.615,2806.00
1570.493,3018.00
1571.370,3074.00
1572.246,2640.00
1573.124,3113.00
1574.000,3133.00
1574.877,3425.00
1575.755,3105.00
1576.631,2965.00
1577.507,3575.00
1578.384,3551.00
1579.260,3278.00
1580.136,3758.00
1581.011,3178.00
1581.889,3098.00
1582.764,3178.00
1583.639,3468.00
1584.516,3320.00
1585.391,3053.00
1586.266,3188.00
1587.143,3700.00
1588.018,3333.00
1588.893,3572.00
1589.768,3955.00
1590.644,3900.00
1591.519,2933.00
1592.393,3318.00
1593.269,3429.00
1594.143,2970.00
1595.018,3136.00
1595.892,3059.00
1596.767,2744.00
1597.641,2718.00
1598.515,2869.00
1599.391,3276.00
1600.264,3006.00
1601.138,2964.00
1602.011,2589.00
1602.886,3687.00
1603.760,3493.00
1604.633,3436.00
1605.508,3396.00
1606.381,3246.00
1607.254,3198.00
1608.127,3323.00
1609.001,2957.00
1609.874,3540.00
1610.746,3428.00
1611.619,3177.00
1612.493,3427.00
1613.365,3030.00
1614.238,3232.00
1615.110,3213.00
1615.984,3183.00
1616.855,3007.00
1617.727,3401.00
1618.599,3064.00
1619.473,3502.00
1620.344,2591.00
1621.216,3207.00
1622.087,3211.00
1622.960,3204.00
1623.832,3217.00
1624.703,3323.00
1625.574,3398.00
1626.445,3166.00
1627.317,3232.00
1628.188,3379.00
1629.059,3103.00
1629.930,3540.00
1630.802,3169.00
1631.672,3364.00
1632.543,3303.00
1633.413,3211.00
1634.283,3676.00
1635.155,3250.00
1636.025,3288.00
1636.895,3266.00
1637.765,2726.00
1638.636,3164.00
1639.506,3340.00
1640.376,3949.00
1641.245,3141.00
1642.114,3204.00
1642.985,2657.00
1643.855,2921.00
1644.724,3091.00
1645.593,3367.00
1646.462,3321.00
1647.333,3282.00
1648.201,3102.00
1649.070,3250.00
1649.939,3394.00
1650.807,2986.00
1651.676,3377.00
1652.546,3388.00
1653.414,3533.00
1654.282,3189.00
1655.150,3084.00
1656.018,3158.00
1656.888,3848.00
1657.756,3219.00
1658.623,2863.00
1659.491,2753.00
1660.359,3600.00
1661.226,3048.00
1662.095,3387.00
1662.962,3058.00
1663.830,3139.00
1664.697,2977.00
1665.564,3168.00
1666.431,3363.00
1667.297,2921.00
1668.166,2934.00
1669.033,2774.00
1669.899,3060.00
1670.766,2863.00
1671.632,3031.00
1672.499,3485.00
1673.367,3253.00
1674.233,3404.00
1675.099,3155.00
1675.965,2867.00
1676.831,3103.00
1677.696,3538.00
1678.562,6052.00
1679.430,2739.00
1680.295,2846.00
1681.161,2958.00
1682.026,3000.00
1682.891,3017.00
1683.756,3118.00
1684.621,3213.00
1685.486,3221.00
1686.353,3188.00
1687.218,3358.00
1688.083,3117.00
1688.947,3506.00
1689.812,3139.00
1690.677,3088.00
1691.541,3241.00
1692.405,2563.00
1693.269,3652.00
1694.135,3363.00
1694.999,3245.00
1695.863,3719.00
1696.727,3083.00
1697.591,3061.00
1698.455,3343.00
1699.318,3054.00
1700.182,4418.00
1701.045,3187.00
1701.909,3259.00
1702.772,3655.00
1703.637,3056.00
1704.500,2749.00
1705.363,3422.00
1706.226,3270.00
1707.089,3323.00
1707.951,3413.00
1708.814,3919.00
1709.677,3953.00
1710.539,3452.00
1711.402,3467.00
1712.264,3190.00
1713.126,3110.00
1713.988,3479.00
1714.852,3461.00
1715.714,2618.00
1716.576,2745.00
1717.438,3449.00
1718.299,2746.00
1719.161,3567.00
1720.023,3141.00
1720.884,3623.00
1721.745,3206.00
1722.607,3081.00
1723.468,2679.00
1724.329,3478.00
1725.190,3186.00
1726.051,3365.00
1726.912,3039.00
1727.772,3267.00
1728.633,3145.00
1729.494,3261.00
1730.354,3451.00
1731.214,2891.00
1732.075,3018.00
1732.935,3043.00
1733.797,3090.00
1734.657,3647.00
1735.517,3923.00
1736.377,3500.00
1737.237,3170.00
1738.096,3877.00
1738.956,3114.00
1739.816,3095.00
1740.675,3129.00
1741.534,2680.00
1742.394,3235.00
1743.253,2968.00
1744.112,3234.00
1744.971,3051.00
1745.830,3297.00
1746.689,3339.00
1747.547,3413.00
1748.406,2817.00
1749.265,3075.00
1750.123,3127.00
1750.982,3391.00
1751.840,3159.00
1752.698,3227.00
1753.556,2962.00
1754.414,3199.00
1755.272,3150.00
1756.130,3210.00
1756.988,3179.00
1757.846,3377.00
1758.703,2995.00
1759.559,3489.00
1760.417,2920.00
1761.274,3867.00
1762.131,3587.00
1762.989,3727.00
1763.846,3615.00
1764.703,3336.00
1765.560,3758.00
1766.417,3235.00
1767.273,2978.00
1768.130,3190.00
1768.987,3013.00
1769.843,3420.00
1770.700,3554.00
1771.556,3109.00
1772.412,3552.00
1773.268,3102.00
1774.125,3521.00
1774.980,3257.00
1775.836,3530.00
1776.692,3120.00
1777.546,3024.00
1778.402,3342.00
1779.257,3310.00
1780.113,3020.00
1780.968,3336.00
1781.824,3509.00
1782.679,2836.00
1783.534,3036.00
1784.389,3657.00
1785.244,3356.00
1786.099,3183.00
1786.954,3420.00
1787.808,3236.00
1788.661,3218.00
1789.516,3641.00
1790.370,3242.00
1791.225,3077.00
1792.079,2876.00
1792.933,3948.00
1793.787,3318.00
1794.641,3297.00
1795.495,3146.00
1796.349,3248.00
1797.201,3056.00
1798.055,3041.00
1798.908,3199.00
1799.762,3597.00
1800.615,3456.00
1801.469,3456.00
1802.322,3614.00
1803.175,3066.00
1804.028,2787.00
1804.880,3741.00
1805.732,3404.00
1806.585,3200.00
1807.438,3217.00
1808.291,2715.00
1809.143,3015.00
1809.996,2868.00
1810.846,3993.00
1811.699,3330.00
1812.551,3098.00
1813.403,3402.00
1814.255,3241.00
1815.107,3295.00
1815.959,3848.00
1816.809,3288.00
1817.661,3332.00
1818.512,3183.00
1819.364,3246.00
1820.215,3324.00
1821.067,2965.00
1821.918,3053.00
1822.768,3479.00
1823.619,3452.00
1824.470,3136.00
1825.321,3363.00
1826.172,3142.00
1827.021,3339.00
1827.871,3536.00
1828.722,3296.00
1829.572,3247.00
1830.423,3264.00
1831.273,3083.00
1832.122,3233.00
1832.972,3169.00
1833.822,2882.00
1834.672,3420.00
1835.522,3415.00
1836.370,3046.00
1837.220,3347.00
1838.070,2820.00
1838.919,2561.00
1839.769,3059.00
1840.616,3457.00
1841.466,3410.00
1842.315,2989.00
1843.164,3851.00
1844.013,3050.00
1844.860,2890.00
1845.709,2952.00
1846.558,3526.00
1847.407,2879.00
1848.254,3348.00
1849.102,3313.00
1849.951,2992.00
1850.799,2612.00
1851.648,3034.00
1852.494,3268.00
1853.342,3274.00
1854.190,3616.00
1855.038,3565.00
1855.884,3213.00
1856.732,4096.00
1857.580,3668.00
1858.428,3089.00
1859.273,2963.00
1860.121,3022.00
1860.968,4089.00
1861.816,3605.00
1862.661,3611.00
1863.508,3799.00
1864.355,3441.00
1865.202,3550.00
1866.047,3318.00
1866.894,3622.00
1867.741,3759.00
1868.586,3346.00
1869.432,3357.00
1870.279,3229.00
1871.125,3061.00
1871.970,3910.00
1872.816,3404.00
1873.662,2750.00
1874.506,3335.00
1875.352,3543.00
1876.198,3608.00
1877.044,3825.00
1877.888,3176.00
1878.734,3251.00
1879.579,3051.00
1880.423,2868.00
1881.268,3150.00
1882.113,3485.00
1882.959,3198.00
1883.802,3030.00
1884.647,3613.00
1885.492,3268.00
1886.335,3187.00
1887.180,3056.00
1888.025,3225.00
1888.867,3035.00
1889.712,3381.00
1890.556,3035.00
1891.399,3517.00
1892.243,3575.00
1893.087,3078.00
1893.930,3410.00
1894.774,3382.00
1895.618,3634.00
1896.460,2846.00
1897.304,3145.00
1898.147,3112.00
1898.989,2957.00
1899.833,3409.00
1900.676,3064.00
1901.518,3506.00
1902.361,3584.00
1903.202,3154.00
1904.046,3083.00
1904.889,3189.00
1905.730,3128.00
1906.573,2900.00
1907.415,3325.00
1908.256,3675.00
1909.099,3314.00
1909.941,3365.00
1910.782,3361.00
1911.624,3046.00
1912.465,3415.00
1913.307,3277.00
1914.149,2987.00
1914.989,3530.00
1915.831,3184.00
1916.671,3630.00
1917.513,3175.00
1918.355,3286.00
1919.195,3485.00
1920.036,3285.00
1920.876,3248.00
1921.717,3382.00
1922.558,3252.00
1923.398,3263.00
1924.239,3251.00
1925.078,3576.00
1925.919,2957.00
1926.760,3336.00
1927.599,3127.00
1928.440,3467.00
1929.279,3264.00
1930.119,3702.00
1930.958,3157.00
1931.798,3258.00
1932.638,3155.00
1933.477,3277.00
1934.317,2996.00
1935.155,3079.00
1935.995,3364.00
1936.833,3075.00
1937.673,3042.00
1938.512,3684.00
1939.350,2810.00
1940.190,3156.00
1941.027,3130.00
1941.867,3125.00
1942.704,3221.00
1943.543,3229.00
1944.381,3421.00
1945.220,3641.00
1946.057,3322.00
1946.896,3515.00
1947.733,3266.00
1948.572,3014.00
1949.408,3619.00
1950.247,3345.00
1951.085,3411.00
1951.922,3609.00
1952.760,3008.00
1953.597,3599.00
1954.435,2619.00
1955.271,3383.00
1956.109,3087.00
1956.945,2876.00
1957.783,3435.00
1958.619,3074.00
1959.456,3203.00
1960.292,3274.00
1961.129,3577.00
1961.965,3814.00
1962.802,3016.00
1963.638,3063.00
1964.475,3300.00
1965.310,3286.00
1966.145,3273.00
1966.982,3113.00
1967.817,2982.00
1968.654,3248.00
1969.489,3012.00
1970.325,3254.00
1971.160,2986.00
1971.996,3440.00
1972.831,3500.00
1973.667,3157.00
1974.501,3620.00
1975.337,3584.00
1976.171,3113.00
1977.006,3508.00
1977.841,3143.00
1978.675,3445.00
1979.511,3909.00
1980.345,3035.00
1981.180,3444.00
1982.014,3327.00
1982.849,2974.00
1983.682,3103.00
1984.516,3099.00
1985.351,2853.00
1986.184,2758.00
1987.019,2761.00
1987.852,2563.00
1988.687,2747.00
1989.519,3014.00
1990.352,3244.00
1991.187,2734.00
1992.019,2991.00
1992.854,3367.00
1993.686,3009.00
1994.518,3097.00
1995.352,2556.00
1996.185,2378.00
1997.019,2903.00
1997.851,2699.00
1998.682,2750.00
1999.516,2733.00
2000.348,2497.00
