RamanScope Measure Spectrum Data V3.72

<< MEASURE CONDITION >>
Exposure Type,Aver
Exposure Time [sec],15
Exposure Count,30
Measure Time,2023/07/12 20:23:13
Data Name,""
Data Comment,""
Rayleigh Wave[nm],532.0

<< SAMPLE SPECTRUM >>
Wave[dcm-1],No44
146.591,998.73
147.626,1172.23
148.664,1343.90
149.699,1495.13
150.737,1743.50
151.772,1928.47
152.809,2081.47
153.846,2179.77
154.881,2304.13
155.918,2459.80
156.953,2541.50
157.989,2661.20
159.026,2713.00
160.060,2769.63
161.096,2807.93
162.130,2868.60
163.167,2947.57
164.200,2967.83
165.236,3001.77
166.272,3075.90
167.305,3131.90
168.341,3154.87
169.374,3216.13
170.409,3297.17
171.445,3337.80
172.477,3421.87
173.512,3386.87
174.545,3435.90
175.580,3445.53
176.614,3431.10
177.647,3486.03
178.681,3448.87
179.713,3430.13
180.747,3408.57
181.781,3378.07
182.813,3377.77
183.847,3383.70
184.878,3400.20
185.912,3361.93
186.945,3398.10
187.976,3417.93
189.010,3487.17
190.043,3457.27
191.073,3460.83
192.106,3527.07
193.137,3594.37
194.170,3602.70
195.202,3614.53
196.232,3630.20
197.265,3686.23
198.297,3755.73
199.327,3835.80
200.359,3859.20
201.388,3911.33
202.420,3948.63
203.452,4075.37
204.481,4111.47
205.512,4223.23
206.544,4319.80
207.573,4404.53
208.604,4515.33
209.635,4674.90
210.663,4742.67
211.694,4903.47
212.725,4986.73
213.753,5148.60
214.783,5219.57
215.813,5335.73
216.841,5374.70
217.871,5460.50
218.899,5473.50
219.929,5434.33
220.959,5377.43
221.986,5299.83
223.016,5149.83
224.045,5068.23
225.072,4960.30
226.101,4816.30
227.130,4701.77
228.157,4614.27
229.185,4513.13
230.214,4498.70
231.241,4373.23
232.269,4323.80
233.297,4278.97
234.323,4233.03
235.351,4223.90
236.379,4188.37
237.407,4214.23
238.433,4160.10
239.460,4263.43
240.488,4251.87
241.513,4294.97
242.540,4292.40
243.568,4402.83
244.592,4449.93
245.619,4473.40
246.646,4480.13
247.671,4486.03
248.697,4422.17
249.724,4413.70
250.748,4358.67
251.774,4290.47
252.801,4314.87
253.827,4341.13
254.850,4319.27
255.876,4290.17
256.902,4314.83
257.925,4362.33
258.951,4360.87
259.976,4393.33
260.999,4467.90
262.024,4469.03
263.049,4465.97
264.074,4514.93
265.097,4588.47
266.122,4588.90
267.146,4642.10
268.168,4693.27
269.193,4744.80
270.217,4785.90
271.241,4812.47
272.263,4862.60
273.287,4910.20
274.311,4960.23
275.332,5044.63
276.356,5015.67
277.379,5031.43
278.402,5034.70
279.424,5027.33
280.447,4968.77
281.470,4911.93
282.492,4865.90
283.513,4839.43
284.536,4754.00
285.558,4743.83
286.581,4642.67
287.601,4566.90
288.623,4525.40
289.645,4480.07
290.665,4447.37
291.687,4352.03
292.709,4268.43
293.730,4231.77
294.750,4135.17
295.771,4098.93
296.792,4063.10
297.813,3989.70
298.832,3951.00
299.853,3911.53
300.874,3902.73
301.895,3856.27
302.913,3748.50
303.934,3712.23
304.954,3693.60
305.975,3136.40
306.993,3620.77
308.013,3596.77
309.033,3546.90
310.052,3519.57
311.072,3525.07
312.090,3477.23
313.109,3493.07
314.129,3446.33
315.148,3436.83
316.165,3440.30
317.184,3396.77
318.203,3365.67
319.222,3361.13
320.238,3347.93
321.257,3354.53
322.275,3310.17
323.294,3301.77
324.312,3283.20
325.328,3254.37
326.346,3270.30
327.364,3228.87
328.382,3246.73
329.397,3232.60
330.415,3175.53
331.432,3242.60
332.450,3140.90
333.467,3189.23
334.482,3167.57
335.499,3129.87
336.516,3189.10
337.533,3155.67
338.547,3173.33
339.564,3103.17
340.580,3146.10
341.597,3179.43
342.613,3153.00
343.627,3135.03
344.643,3118.63
345.659,3113.67
346.675,3133.23
347.690,3103.00
348.704,3075.10
349.719,3078.17
350.735,3076.90
351.750,3087.80
352.765,3050.77
353.778,3078.30
354.793,3070.40
355.808,3046.30
356.822,3057.03
357.837,3083.83
358.851,3100.87
359.864,3100.87
360.878,3091.97
361.892,3066.83
362.906,3111.13
363.920,3111.17
364.932,3099.20
365.945,3059.23
366.959,3080.60
367.972,3123.87
368.986,3097.47
369.999,3090.70
371.010,3114.93
372.023,3128.77
373.036,3165.50
374.049,3128.50
375.061,3148.27
376.072,3158.40
377.084,3230.50
378.097,3256.43
379.109,3218.23
380.121,3230.43
381.133,3219.67
382.143,3248.40
383.155,3268.73
384.166,3280.60
385.178,3223.53
386.189,3239.50
387.201,3277.10
388.212,3274.93
389.221,3296.13
390.232,3252.97
391.243,3237.70
392.254,3228.67
393.264,3252.97
394.275,3185.17
395.283,3202.30
396.294,3195.37
397.304,3167.60
398.314,3144.73
399.324,3146.87
400.334,3130.33
401.344,3082.40
402.351,3137.63
403.361,3103.30
404.370,3101.63
405.380,3094.93
406.389,3043.50
407.398,3018.90
408.407,3028.87
409.414,3415.17
410.423,2985.37
411.431,2982.03
412.440,2967.13
413.448,3010.23
414.457,2997.70
415.465,2939.77
416.471,2938.40
417.479,2892.77
418.487,2910.73
419.495,2951.97
420.503,2870.80
421.510,2923.37
422.518,2933.50
423.525,2897.47
424.530,2916.97
425.537,2867.63
426.544,2928.93
427.551,2856.33
428.558,2883.93
429.565,2859.03
430.571,2837.87
431.578,2871.83
432.582,2870.73
433.588,2870.27
434.595,2907.67
435.601,2905.83
436.607,2862.57
437.612,2883.53
438.618,2861.07
439.624,2860.00
440.627,2867.57
441.633,2899.73
442.638,2829.23
443.643,2863.30
444.648,2862.03
445.653,2876.37
446.658,2849.53
447.663,2886.07
448.667,2906.37
449.672,2878.83
450.674,2844.23
451.678,2893.50
452.682,2906.57
453.687,2907.30
454.690,2896.73
455.694,2961.97
456.698,2938.60
457.702,2892.40
458.705,2892.50
459.709,2916.40
460.710,2940.50
461.713,2984.20
462.716,2910.07
463.719,2907.43
464.722,2926.80
465.725,3028.50
466.727,2946.10
467.730,2984.50
468.732,2934.93
469.735,2934.20
470.737,2958.53
471.737,2979.47
472.739,3022.07
473.741,2993.97
474.742,2961.57
475.744,2984.17
476.746,2964.47
477.747,2988.93
478.748,2963.73
479.750,2985.73
480.751,2981.30
481.752,3012.87
482.753,3007.67
483.751,2968.00
484.752,2984.60
485.753,2998.43
486.753,3021.33
487.753,3009.20
488.754,2991.27
489.754,2958.80
490.754,3003.30
491.754,3007.37
492.754,2983.23
493.753,3006.50
494.753,2986.03
495.752,3017.50
496.752,2991.50
497.749,2972.90
498.748,2959.87
499.747,2952.87
500.746,2952.80
501.745,2992.93
502.744,2935.00
503.742,2931.33
504.741,2886.73
505.739,2922.50
506.737,2958.33
507.735,2920.00
508.734,2933.03
509.732,2921.33
510.729,2920.10
511.727,2905.63
512.725,2910.33
513.720,2891.77
514.718,2879.50
515.715,2828.23
516.712,2857.07
517.709,2870.00
518.706,2843.47
519.703,2872.77
520.700,2860.30
521.696,2857.90
522.693,2926.13
523.689,2873.17
524.686,2905.03
525.682,2868.73
526.678,2865.83
527.674,2891.97
528.670,2904.67
529.666,2919.90
530.661,2895.93
531.657,2878.73
532.652,2937.90
533.648,2891.50
534.641,2914.40
535.636,2903.07
536.631,2908.80
537.626,2975.87
538.621,2966.70
539.616,2910.97
540.610,2907.03
541.605,2940.30
542.599,2928.70
543.593,2923.37
544.587,2955.13
545.581,2930.13
546.575,2905.40
547.569,2955.93
548.563,2907.17
549.557,2955.30
550.550,2922.33
551.543,2909.80
552.537,2972.00
553.530,2955.93
554.523,2973.50
555.516,2928.20
556.509,2927.93
557.502,2922.93
558.494,2927.70
559.487,2930.87
560.479,2905.53
561.472,2913.10
562.464,2869.33
563.456,2917.50
564.448,2929.20
565.440,2963.97
566.432,2903.13
567.423,2957.03
568.415,2887.67
569.404,3003.93
570.396,2974.10
571.387,2976.73
572.378,2989.13
573.369,2958.07
574.360,3013.17
575.351,3037.53
576.341,3009.13
577.332,3012.37
578.323,2983.07
579.313,3029.37
580.303,3043.30
581.293,3038.07
582.283,3040.90
583.273,3066.93
584.263,3057.53
585.253,3056.83
586.243,3086.97
587.232,3085.87
588.222,3078.93
589.211,3055.97
590.200,3106.90
591.189,3140.67
592.178,3121.53
593.167,3068.97
594.156,3078.47
595.145,3135.77
596.133,3122.30
597.122,3141.33
598.110,3102.03
599.098,3143.47
600.086,3142.27
601.074,3151.23
602.062,3160.70
603.050,3161.13
604.038,3163.87
605.025,3147.73
606.013,3182.00
607.000,3167.63
607.987,3142.00
608.975,3158.53
609.962,3163.20
610.949,3137.70
611.936,3151.60
612.922,3103.60
613.909,3085.73
614.895,3100.63
615.882,3039.73
616.868,3084.33
617.854,3057.00
618.841,3022.33
619.826,2977.03
620.812,2990.83
621.798,2969.20
622.784,2935.93
623.769,2904.30
624.755,2887.80
625.740,2883.10
626.725,2860.40
627.711,2819.47
628.698,2789.10
629.683,2772.67
630.667,2779.87
631.652,2774.00
632.637,2752.53
633.621,2735.40
634.606,2705.93
635.590,2668.50
636.574,2689.80
637.558,2665.33
638.542,2658.23
639.526,2598.43
640.510,2578.60
641.493,2560.50
642.477,2600.90
643.460,2581.67
644.444,2567.07
645.427,2580.33
646.410,2491.47
647.393,2500.80
648.376,2549.23
649.359,2493.13
650.341,2483.50
651.324,2495.23
652.307,2449.33
653.289,2441.47
654.271,2485.57
655.253,2406.13
656.235,2381.60
657.217,2404.43
658.199,2418.47
659.181,2400.13
660.163,2364.07
661.144,2393.87
662.126,2397.00
663.107,2378.37
664.088,2381.70
665.069,2373.00
666.050,2409.40
667.033,2341.33
668.014,2320.40
668.995,2301.00
669.975,2333.27
670.956,2314.33
671.936,2294.07
672.916,2260.97
673.896,2289.33
674.876,2262.97
675.856,2280.87
676.836,2268.40
677.816,2232.37
678.795,2184.37
679.775,2202.80
680.754,2167.30
681.734,2156.73
682.713,2178.40
683.692,2156.50
684.671,2138.80
685.650,2114.07
686.629,2049.10
687.607,2054.50
688.586,2059.97
689.564,2067.03
690.543,2033.83
691.523,2036.03
692.501,2030.70
693.479,2016.43
694.457,1983.43
695.435,1995.57
696.413,2001.50
697.390,1978.73
698.368,1985.70
699.345,1987.07
700.322,1985.20
701.300,1907.37
702.277,1925.90
703.254,1922.03
704.231,1914.97
705.207,1936.07
706.184,1942.03
707.161,1881.57
708.137,1901.03
709.113,1877.23
710.090,1859.90
711.068,1873.40
712.044,1867.73
713.020,1872.33
713.996,1863.63
714.971,1834.10
715.947,1823.03
716.922,1822.67
717.898,1815.00
718.873,1798.93
719.848,1858.23
720.823,1804.23
721.798,1771.67
722.773,1730.00
723.748,1775.90
724.723,1773.47
725.697,1764.97
726.672,1778.47
727.646,1765.57
728.622,1772.27
729.596,1760.40
730.570,1715.07
731.544,1765.03
732.518,1726.77
733.492,1742.03
734.466,1731.20
735.439,1742.63
736.413,1720.10
737.386,1696.87
738.359,1692.87
739.332,1714.60
740.305,1695.37
741.278,1687.47
742.251,1667.27
743.224,1666.30
744.196,1678.50
745.171,1676.50
746.143,1685.17
747.115,1706.70
748.087,1647.93
749.059,1647.37
750.031,1611.33
751.003,1608.27
751.975,1618.07
752.947,1650.40
753.918,1641.67
754.890,1588.33
755.861,1623.63
756.832,1613.43
757.803,1611.37
758.774,1614.30
759.747,1580.20
760.718,1593.87
761.689,1591.30
762.659,1589.73
763.630,1556.00
764.600,1551.20
765.570,1552.53
766.540,1558.40
767.510,1548.10
768.480,1510.30
769.450,1544.57
770.420,1573.20
771.390,1504.00
772.359,1557.70
773.329,1517.83
774.300,1541.27
775.269,1493.50
776.238,1535.37
777.207,1505.47
778.176,1481.70
779.145,1510.63
780.114,1461.70
781.083,1474.47
782.051,1481.60
783.019,1478.13
783.988,1497.53
784.956,1458.13
785.924,1465.37
786.894,1437.40
787.862,1499.60
788.830,1433.57
789.797,1450.20
790.765,1453.33
791.732,1445.93
792.700,1473.37
793.667,1446.03
794.634,1457.73
795.601,1422.57
796.568,1417.60
797.535,1427.57
798.502,1401.57
799.468,1446.50
800.437,1430.60
801.403,1389.10
802.370,1432.60
803.336,1395.43
804.302,1407.73
805.268,1386.80
806.234,1373.10
807.200,1404.00
808.166,1393.13
809.131,1380.57
810.097,1390.43
811.062,1401.00
812.027,1388.10
812.994,1369.00
813.960,1360.13
814.925,1401.57
815.889,1371.60
816.854,1387.70
817.819,1368.27
818.783,1341.33
819.748,1377.00
820.712,1346.47
821.677,1374.63
822.641,1321.03
823.605,1367.23
824.571,1371.50
825.534,1330.67
826.498,1343.37
827.462,1366.07
828.425,1338.93
829.389,1348.17
830.352,1310.97
831.315,1308.80
832.279,1346.50
833.242,1366.07
834.204,1339.10
835.167,1351.83
836.132,1355.57
837.095,1343.23
838.057,1322.90
839.020,1334.67
839.982,1330.77
840.944,1334.67
841.906,1365.47
842.868,1286.77
843.830,1316.20
844.792,1322.73
845.753,1375.20
846.715,1315.50
847.679,1346.63
848.640,1321.90
849.601,1320.77
850.562,1358.60
851.523,1284.97
852.484,1313.17
853.445,1296.23
854.406,1301.27
855.367,1332.63
856.327,1331.53
857.288,1293.73
858.248,1299.13
859.210,1351.37
860.170,1303.50
861.130,1295.63
862.090,1299.20
863.050,1311.03
864.010,1305.47
864.969,1295.80
865.929,1289.43
866.888,1302.43
867.848,1305.00
868.807,1321.50
869.766,1288.43
870.727,1312.90
871.686,1299.33
872.645,1307.93
873.604,1307.07
874.562,1305.20
875.521,1284.03
876.479,1312.90
877.437,1311.83
878.396,1311.97
879.354,1321.47
880.312,1313.90
881.270,1264.37
882.229,1312.67
883.187,1266.53
884.145,1359.33
885.102,1295.30
886.059,1245.27
887.017,1241.97
887.974,1287.23
888.931,1332.87
889.888,1307.47
890.845,1330.93
891.802,1321.33
892.758,1340.50
893.717,1317.90
894.673,1328.37
895.630,1282.57
896.586,1331.70
897.542,1306.97
898.498,1320.43
899.454,1315.80
900.410,1304.53
901.366,1292.53
902.321,1326.90
903.277,1328.33
904.232,1278.03
905.189,1314.73
906.145,1299.20
907.100,1325.30
908.055,1312.20
909.010,1368.83
909.965,1319.70
910.919,1319.97
911.874,1307.60
912.828,1321.37
913.783,1294.97
914.737,1330.47
915.693,1322.97
916.648,1304.07
917.602,1270.37
918.555,1318.07
919.509,1298.43
920.463,1283.87
921.417,1273.63
922.370,1293.67
923.324,1303.07
924.277,1305.37
925.230,1336.13
926.183,1313.70
927.138,1295.83
928.091,1308.97
929.044,1294.57
929.996,1305.63
930.949,1339.67
931.902,1297.90
932.854,1308.87
933.806,1338.90
934.758,1347.13
935.711,1308.67
936.663,1303.20
937.614,1308.57
938.568,1296.47
939.520,1329.03
940.471,1356.03
941.423,1314.97
942.374,1318.10
943.326,1324.20
944.277,1326.97
945.228,1298.53
946.179,1323.93
947.130,1312.43
948.080,1286.57
949.031,1308.13
949.984,1307.47
950.934,1330.07
951.884,1281.30
952.835,1289.17
953.785,1285.17
954.735,1316.43
955.685,1313.07
956.635,1326.63
957.585,1318.40
958.534,1323.73
959.484,1283.63
960.433,1227.60
961.383,1255.50
962.334,1235.50
963.283,1298.57
964.232,1283.20
965.181,1269.47
966.130,1284.00
967.079,1252.40
968.027,1294.10
968.976,1280.27
969.924,1282.60
970.873,1270.87
971.821,1275.30
972.769,1326.47
973.719,1279.60
974.667,1260.23
975.615,1285.23
976.562,1293.77
977.510,1300.00
978.458,1284.80
979.405,1280.37
980.352,1318.50
981.300,1286.27
982.247,1313.30
983.194,1318.93
984.141,1295.27
985.088,1327.13
986.036,1271.03
986.983,1241.37
987.930,1272.60
988.876,1281.50
989.822,1314.83
990.769,1272.93
991.715,1287.33
992.661,1281.77
993.607,1302.47
994.553,1261.33
995.498,1308.13
996.444,1292.87
997.389,1308.47
998.337,1288.90
999.282,1280.70
1000.227,1304.03
1001.173,1289.77
1002.118,1289.10
1003.062,1283.53
1004.007,1297.60
1004.952,1279.77
1005.897,1317.37
1006.841,1275.87
1007.786,1303.63
1008.730,1322.57
1009.674,1354.17
1010.618,1300.73
1011.564,1267.23
1012.508,1316.67
1013.452,1303.37
1014.396,1341.43
1015.339,1317.60
1016.283,1290.53
1017.226,1321.90
1018.170,1299.73
1019.113,1304.93
1020.056,1313.30
1020.999,1305.33
1021.942,1281.17
1022.885,1345.13
1023.828,1308.43
1024.770,1327.60
1025.715,1318.03
1026.657,1329.03
1027.600,1325.73
1028.542,1342.33
1029.484,1377.53
1030.426,1323.93
1031.368,1360.17
1032.310,1361.83
1033.251,1311.23
1034.193,1359.70
1035.135,1343.07
1036.076,1317.57
1037.017,1387.00
1037.959,1358.90
1038.900,1335.77
1039.843,1332.73
1040.784,1379.27
1041.725,1358.90
1042.665,1361.73
1043.606,1324.43
1044.547,1352.63
1045.487,1385.03
1046.427,1371.77
1047.368,1401.67
1048.308,1361.77
1049.248,1388.87
1050.188,1344.17
1051.128,1394.03
1052.067,1362.53
1053.007,1407.83
1053.947,1375.57
1054.886,1397.23
1055.827,1421.13
1056.766,1451.80
1057.706,1410.47
1058.645,1382.80
1059.584,1380.57
1060.522,1416.13
1061.461,1450.23
1062.400,1413.60
1063.338,1430.20
1064.277,1442.90
1065.215,1416.70
1066.154,1437.27
1067.092,1463.27
1068.030,1445.20
1068.968,1441.77
1069.906,1457.97
1070.843,1403.80
1071.781,1437.07
1072.720,1479.23
1073.658,1447.03
1074.595,1508.23
1075.533,1481.70
1076.470,1463.53
1077.407,1497.27
1078.344,1501.60
1079.281,1478.20
1080.217,1457.67
1081.154,1445.13
1082.091,1500.33
1083.027,1478.90
1083.964,1477.60
1084.900,1500.70
1085.836,1462.83
1086.772,1478.60
1087.708,1467.27
1088.644,1470.73
1089.580,1479.47
1090.515,1473.33
1091.451,1453.47
1092.388,1453.70
1093.324,1474.30
1094.259,1473.33
1095.194,1457.90
1096.129,1478.67
1097.064,1493.70
1097.999,1472.20
1098.934,1411.17
1099.869,1464.83
1100.803,1438.60
1101.738,1417.37
1102.672,1422.90
1103.607,1412.47
1104.541,1448.83
1105.475,1412.57
1106.409,1399.10
1107.343,1407.50
1108.277,1358.27
1109.210,1420.40
1110.144,1387.63
1111.078,1372.93
1112.011,1406.87
1112.944,1382.17
1113.878,1353.13
1114.811,1370.93
1115.744,1351.60
1116.678,1387.30
1117.611,1355.20
1118.544,1317.37
1119.477,1341.30
1120.409,1321.97
1121.342,1336.03
1122.274,1314.27
1123.206,1304.93
1124.138,1322.90
1125.070,1304.30
1126.002,1301.03
1126.934,1269.63
1127.866,1309.40
1128.798,1297.80
1129.729,1265.93
1130.661,1286.03
1131.592,1257.93
1132.523,1234.73
1133.454,1272.53
1134.385,1244.73
1135.317,1236.67
1136.247,1262.97
1137.178,1257.53
1138.109,1237.93
1139.039,1221.43
1139.970,1203.83
1140.900,1201.27
1141.831,1210.00
1142.761,1220.73
1143.691,826.43
1144.621,1170.30
1145.551,1226.93
1146.480,1202.83
1147.410,1222.67
1148.340,1213.63
1149.269,1189.73
1150.199,1188.57
1151.128,1098.57
1152.057,1182.73
1152.979,1150.70
1153.898,1164.53
1154.819,1175.53
1155.739,1200.63
1156.658,1153.27
1157.579,1155.53
1158.498,1187.83
1159.419,1165.83
1160.338,1158.13
1161.256,1153.30
1162.177,1163.07
1163.095,1165.90
1164.016,1122.10
1164.934,1157.73
1165.852,1132.83
1166.772,1145.73
1167.690,1169.97
1168.610,1112.37
1169.528,1162.23
1170.446,1159.37
1171.365,1117.20
1172.283,1146.83
1173.202,1136.67
1174.120,1118.10
1175.037,1099.43
1175.956,1097.63
1176.873,1122.90
1177.792,1115.03
1178.709,1120.33
1179.626,1106.43
1180.544,1134.70
1181.461,1103.23
1182.379,1084.27
1183.296,1132.10
1184.212,1108.67
1185.130,1091.20
1186.046,1065.67
1186.962,1089.10
1187.880,1080.40
1188.796,1120.90
1189.714,1095.17
1190.629,1134.37
1191.545,1089.13
1192.462,1133.47
1193.378,1114.07
1194.295,1079.40
1195.210,1053.77
1196.125,1084.13
1197.042,1106.97
1197.957,1105.27
1198.872,1088.63
1199.788,1085.87
1200.703,1116.03
1201.619,1068.37
1202.534,1093.43
1203.448,1088.13
1204.364,1046.93
1205.278,1080.43
1206.192,1073.23
1207.108,1115.60
1208.022,1102.37
1208.938,1109.97
1209.851,1119.03
1210.765,1074.30
1211.680,1121.13
1212.594,1110.40
1213.507,1110.67
1214.422,1082.27
1215.335,1116.53
1216.248,1104.67
1217.163,1139.40
1218.076,1114.97
1218.990,1123.07
1219.903,1108.10
1220.816,1145.30
1221.730,1124.63
1222.642,1060.03
1223.554,1117.00
1224.469,1132.73
1225.380,1097.67
1226.292,1135.93
1227.206,1084.00
1228.118,1093.30
1229.032,1135.43
1229.943,1123.80
1230.855,1138.93
1231.768,1125.07
1232.679,1121.83
1233.590,1123.83
1234.503,1133.07
1235.414,1157.50
1236.325,1120.43
1237.238,1074.93
1238.149,1107.30
1239.059,1132.17
1239.972,1122.07
1240.882,1142.13
1241.793,1145.77
1242.705,1142.37
1243.615,1152.70
1244.525,1142.13
1245.437,1138.53
1246.347,1154.03
1247.259,1149.27
1248.168,1109.33
1249.078,1124.97
1249.989,1167.73
1250.899,1128.23
1251.808,1120.00
1252.719,1141.93
1253.628,1161.23
1254.537,1144.80
1255.448,1146.37
1256.357,1149.93
1257.266,1157.07
1258.176,1164.80
1259.085,1142.97
1259.993,1141.27
1260.904,1216.70
1261.812,1167.27
1262.720,1171.93
1263.630,1144.90
1264.538,1178.10
1265.446,1199.63
1266.356,1161.47
1267.263,1169.10
1268.171,1183.83
1269.080,1181.70
1269.988,1182.17
1270.895,1175.10
1271.804,1174.67
1272.711,1165.63
1273.619,1140.53
1274.527,1158.53
1275.434,1195.43
1276.341,1155.50
1277.248,1149.87
1278.156,1179.00
1279.063,1186.63
1279.969,1179.07
1280.877,1149.67
1281.783,1140.33
1282.690,1162.87
1283.598,1161.57
1284.503,1134.60
1285.409,1160.80
1286.317,1188.47
1287.223,1171.30
1288.128,1159.70
1289.036,1164.53
1289.941,1121.73
1290.846,1127.67
1291.751,1153.63
1292.658,1103.90
1293.563,1145.77
1294.468,1113.90
1295.375,1134.20
1296.280,1148.30
1297.184,1132.63
1298.091,1122.97
1298.995,1136.33
1299.900,1125.83
1300.806,1100.50
1301.710,1068.70
1302.614,1115.77
1303.518,1094.50
1304.424,1106.50
1305.327,1100.23
1306.231,1082.80
1307.137,1101.30
1308.040,1109.17
1308.943,1085.00
1309.847,1094.80
1310.752,1085.27
1311.655,1076.53
1312.558,1091.00
1313.463,1067.87
1314.366,1063.10
1315.269,1053.63
1316.171,1059.83
1317.076,1044.60
1317.978,1055.83
1318.881,1038.00
1319.785,1048.37
1320.687,1047.47
1321.589,1024.73
1322.491,1022.60
1323.395,1055.23
1324.297,1029.50
1325.198,1038.83
1326.102,1017.73
1327.004,1044.53
1327.905,1029.13
1328.806,1015.60
1329.709,1039.43
1330.611,994.77
1331.512,1052.00
1332.413,1030.50
1333.316,996.77
1334.216,969.00
1335.117,991.03
1336.020,974.57
1336.920,999.10
1337.821,973.13
1338.721,1024.60
1339.623,968.03
1340.523,967.83
1341.423,962.53
1342.323,1030.67
1343.225,951.57
1344.125,954.80
1345.025,986.67
1345.924,962.87
1346.826,954.10
1347.725,971.43
1348.624,962.73
1349.524,960.63
1350.425,913.57
1351.324,962.27
1352.223,975.00
1353.121,941.00
1354.022,941.67
1354.921,914.57
1355.819,924.77
1356.718,911.93
1357.618,940.13
1358.516,942.80
1359.415,889.10
1360.313,905.47
1361.213,921.00
1362.111,895.60
1363.008,904.77
1363.906,913.13
1364.806,900.20
1365.703,914.87
1366.601,901.33
1367.498,901.07
1368.397,886.87
1369.295,894.43
1370.192,884.83
1371.089,889.20
1371.987,902.27
1372.884,893.67
1373.781,869.60
1374.678,869.87
1375.574,890.20
1376.473,911.33
1377.369,882.43
1378.265,870.70
1379.161,869.67
1380.059,857.63
1380.955,874.83
1381.851,874.83
1382.747,885.30
1383.643,838.30
1384.540,848.50
1385.436,829.80
1386.331,874.17
1387.227,802.57
1388.124,860.60
1389.019,823.57
1389.914,861.57
1390.809,839.73
1391.704,805.20
1392.601,800.53
1393.495,814.93
1394.390,855.67
1395.285,864.33
1396.179,841.87
1397.075,829.13
1397.969,811.13
1398.864,806.40
1399.758,830.30
1400.652,814.77
1401.547,831.53
1402.441,790.27
1403.335,807.13
1404.229,837.63
1405.122,806.70
1406.017,829.77
1406.911,805.47
1407.804,800.77
1408.697,818.27
1409.590,806.77
1410.485,770.03
1411.378,816.70
1412.271,804.80
1413.163,768.83
1414.056,787.90
1414.949,766.20
1415.843,774.43
1416.735,794.03
1417.627,785.73
1418.520,782.63
1419.412,811.90
1420.306,788.47
1421.197,778.70
1422.089,806.87
1422.981,794.83
1423.873,799.83
1424.764,810.27
1425.657,792.97
1426.549,793.27
1427.440,814.30
1428.331,765.13
1429.222,774.13
1430.113,776.80
1431.006,794.13
1431.897,757.97
1432.787,779.23
1433.678,773.30
1434.568,743.43
1435.459,774.93
1436.351,756.20
1437.241,734.83
1438.131,796.90
1439.021,749.57
1439.911,790.70
1440.801,766.67
1441.693,751.00
1442.583,724.50
1443.472,733.10
1444.362,764.87
1445.251,749.93
1446.140,767.67
1447.030,752.53
1447.921,773.77
1448.810,759.27
1449.699,716.37
1450.588,758.70
1451.476,753.73
1452.365,737.17
1453.254,708.70
1454.144,701.30
1455.032,760.53
1455.921,749.87
1456.809,752.40
1457.697,731.20
1458.585,728.93
1459.473,768.50
1460.361,715.03
1461.251,741.50
1462.138,749.53
1463.026,754.23
1463.913,723.50
1464.801,716.50
1465.688,773.13
1466.575,718.37
1467.463,757.90
1468.351,731.67
1469.238,681.63
1470.125,748.53
1471.012,729.13
1471.899,743.73
1472.785,722.37
1473.672,719.07
1474.558,725.43
1475.446,725.33
1476.333,705.17
1477.219,706.77
1478.105,715.07
1478.991,679.50
1479.877,703.70
1480.762,697.93
1481.648,701.07
1482.534,704.60
1483.419,680.50
1484.307,721.13
1485.192,715.83
1486.077,659.07
1486.962,731.70
1487.847,734.70
1488.732,655.90
1489.617,699.67
1490.502,683.17
1491.387,679.53
1492.271,672.53
1493.156,691.97
1494.042,718.27
1494.927,728.63
1495.811,673.43
1496.695,667.23
1497.579,719.30
1498.463,657.80
1499.347,674.33
1500.231,696.50
1501.114,676.23
1501.998,663.90
1502.881,677.37
1503.765,677.97
1504.648,670.30
1505.533,658.00
1506.417,700.57
1507.300,663.20
1508.183,670.67
1509.066,658.00
1509.948,626.83
1510.831,651.23
1511.714,652.87
1512.596,668.67
1513.479,688.23
1514.361,675.00
1515.243,696.37
1516.125,651.70
1517.008,629.70
1517.890,663.00
1518.771,640.93
1519.655,668.13
1520.537,667.67
1521.419,666.00
1522.300,679.90
1523.182,664.43
1524.063,643.37
1524.944,695.33
1525.825,666.93
1526.707,636.67
1527.588,638.80
1528.468,654.77
1529.349,656.47
1530.230,658.33
1531.111,627.97
1531.991,630.70
1532.872,609.90
1533.752,613.97
1534.632,676.57
1535.513,615.47
1536.393,663.10
1537.273,671.07
1538.153,660.70
1539.032,670.87
1539.912,664.47
1540.792,636.03
1541.672,641.73
1542.551,663.27
1543.430,649.50
1544.310,570.37
1545.189,603.30
1546.068,610.33
1546.947,649.50
1547.826,653.63
1548.705,625.80
1549.584,635.17
1550.462,653.53
1551.341,644.13
1552.219,637.17
1553.098,678.83
1553.976,605.97
1554.854,593.47
1555.733,621.07
1556.611,659.40
1557.489,631.87
1558.367,634.37
1559.244,619.87
1560.122,644.43
1561.000,616.77
1561.877,652.00
1562.755,618.53
1563.632,612.30
1564.509,658.87
1565.386,638.63
1566.264,610.07
1567.141,625.10
1568.017,637.63
1568.894,596.23
1569.771,635.73
1570.648,640.50
1571.524,586.27
1572.401,620.73
1573.277,586.63
1574.153,627.43
1575.029,609.70
1575.906,617.20
1576.781,589.23
1577.657,618.90
1578.533,600.00
1579.409,605.83
1580.285,577.47
1581.160,612.27
1582.036,586.93
1582.911,568.50
1583.786,573.33
1584.662,575.53
1585.537,591.27
1586.412,581.93
1587.287,559.17
1588.160,603.20
1589.035,586.10
1589.909,642.80
1590.784,612.90
1591.658,578.77
1592.533,599.10
1593.407,589.63
1594.281,633.23
1595.155,629.00
1596.029,555.13
1596.903,590.00
1597.777,575.60
1598.651,595.50
1599.525,583.37
1600.398,585.27
1601.272,587.53
1602.144,578.10
1603.017,598.93
1603.890,586.60
1604.763,605.27
1605.636,591.80
1606.509,592.47
1607.382,558.00
1608.255,575.53
1609.128,604.10
1610.000,588.47
1610.873,578.90
1611.746,565.43
1612.616,617.23
1613.488,573.67
1614.361,591.20
1615.233,581.53
1616.105,548.23
1616.977,545.93
1617.849,569.13
1618.720,589.23
1619.592,610.40
1620.464,564.83
1621.333,580.47
1622.205,599.27
1623.076,583.10
1623.947,566.77
1624.818,596.20
1625.689,557.70
1626.560,563.90
1627.431,552.07
1628.302,608.57
1629.171,584.30
1630.042,551.73
1630.912,562.47
1631.782,560.23
1632.653,586.77
1633.523,547.63
1634.393,578.67
1635.263,559.70
1636.131,535.43
1637.001,604.40
1637.871,549.00
1638.741,551.83
1639.611,592.80
1640.480,542.77
1641.350,558.17
1642.219,591.77
1643.087,565.30
1643.956,551.63
1644.825,581.60
1645.694,581.33
1646.563,562.37
1647.432,571.90
1648.299,561.50
1649.167,602.37
1650.036,547.80
1650.904,577.87
1651.773,585.03
1652.641,585.93
1653.509,573.50
1654.376,541.20
1655.244,508.63
1656.112,552.70
1656.980,557.37
1657.847,533.80
1658.715,558.10
1659.581,573.23
1660.448,575.70
1661.316,535.90
1662.183,550.93
1663.051,563.27
1663.918,512.33
1664.783,566.50
1665.650,544.17
1666.517,558.93
1667.384,563.17
1668.251,531.47
1669.115,548.77
1669.982,564.73
1670.849,563.43
1671.715,534.30
1672.581,566.33
1673.446,526.47
1674.312,535.50
1675.178,555.10
1676.044,566.73
1676.910,550.40
1677.774,565.80
1678.639,546.90
1679.505,540.60
1680.370,611.50
1681.236,554.93
1682.099,531.57
1682.965,559.33
1683.830,563.27
1684.695,537.50
1685.560,553.07
1686.423,544.63
1687.288,542.13
1688.153,559.93
1689.017,553.73
1689.880,544.27
1690.745,544.50
1691.609,530.00
1692.473,555.90
1693.338,530.33
1694.200,516.07
1695.064,502.83
1695.928,527.50
1696.792,519.77
1697.654,554.43
1698.517,527.43
1699.381,560.10
1700.245,541.60
1701.106,534.30
1701.969,537.27
1702.833,537.20
1703.696,558.07
1704.557,538.67
1705.420,550.60
1706.283,533.97
1707.146,529.93
1708.007,525.83
1708.870,511.70
1709.732,576.80
1710.595,562.03
1711.455,526.77
1712.318,512.50
1713.180,538.63
1714.040,497.53
1714.902,555.17
1715.764,554.57
1716.626,512.37
1717.486,545.80
1718.348,542.00
1719.209,593.60
1720.071,521.37
1720.930,507.43
1721.792,525.73
1722.653,526.80
1723.512,505.70
1724.374,516.93
1725.234,526.07
1726.095,536.70
1726.954,528.07
1727.815,558.30
1728.676,504.83
1729.535,539.70
1730.395,521.67
1731.256,524.70
1732.114,544.80
1732.974,538.50
1733.834,531.80
1734.693,538.17
1735.553,515.57
1736.413,543.90
1737.272,517.47
1738.130,489.13
1738.990,537.57
1739.849,522.20
1740.707,513.33
1741.566,519.27
1742.426,498.83
1743.283,509.53
1744.142,520.40
1745.001,514.20
1745.858,532.20
1746.717,512.07
1747.576,525.83
1748.433,513.47
1749.292,544.17
1750.150,476.93
1751.007,484.70
1751.865,499.50
1752.723,513.23
1753.579,534.03
1754.438,517.73
1755.296,514.97
1756.152,521.13
1757.010,530.17
1757.865,522.27
1758.723,546.20
1759.581,518.63
1760.436,523.30
1761.294,556.60
1762.151,500.83
1763.006,513.17
1763.864,468.03
1764.721,525.83
1765.576,508.17
1766.433,536.43
1767.288,518.50
1768.144,518.17
1769.001,544.93
1769.856,469.97
1770.712,512.33
1771.568,521.73
1772.423,511.33
1773.279,545.03
1774.133,525.10
1774.989,499.70
1775.845,496.23
1776.699,521.67
1777.555,473.63
1778.409,513.60
1779.265,512.07
1780.120,482.50
1780.974,513.23
1781.829,516.43
1782.682,517.83
1783.538,527.00
1784.393,534.73
1785.246,501.13
1786.101,486.57
1786.954,520.70
1787.808,509.50
1788.661,532.47
1789.516,479.07
1790.370,481.50
1791.223,499.37
1792.077,513.60
1792.930,527.50
1793.784,491.83
1794.636,518.83
1795.490,490.93
1796.344,507.27
1797.196,509.73
1798.049,504.20
1798.901,489.17
1799.755,503.40
1800.606,491.07
1801.460,474.93
1802.311,507.50
1803.165,512.63
1804.018,511.17
1804.869,499.70
1805.722,531.70
1806.573,522.10
1807.426,525.33
1808.276,509.47
1809.129,510.33
1809.980,462.33
1810.832,484.67
1811.683,501.37
1812.535,538.43
1813.385,463.73
1814.237,494.93
1815.089,524.87
1815.940,500.17
1816.791,512.67
1817.641,498.00
1818.493,505.97
1819.343,496.67
1820.194,507.83
1821.044,502.23
1821.895,506.87
1822.745,476.83
1823.596,493.93
1824.445,468.10
1825.296,501.33
1826.145,473.90
1826.996,491.47
1827.845,474.50
1828.695,464.97
1829.544,476.27
1830.395,470.70
1831.243,501.50
1832.094,477.67
1832.942,491.07
1833.792,489.60
1834.640,516.07
1835.490,505.33
1836.338,490.53
1837.186,500.57
1838.036,509.27
1838.884,508.33
1839.733,522.13
1840.581,518.93
1841.430,465.63
1842.278,510.43
1843.127,496.73
1843.974,472.27
1844.823,504.97
1845.671,487.10
1846.519,456.60
1847.366,494.40
1848.213,497.10
1849.062,501.70
1849.909,490.70
1850.757,462.57
1851.604,443.93
1852.452,529.80
1853.298,446.90
1854.146,483.40
1854.993,474.67
1855.839,494.97
1856.687,487.73
1857.532,465.67
1858.380,473.47
1859.226,483.73
1860.073,472.67
1860.919,494.33
1861.765,499.20
1862.612,509.83
1863.457,472.17
1864.304,499.40
1865.150,493.70
1865.995,485.80
1866.842,474.83
1867.686,447.03
1868.533,476.87
1869.378,458.73
1870.223,475.07
1871.069,468.63
1871.914,446.30
1872.760,492.20
1873.604,492.37
1874.448,446.87
1875.294,494.13
1876.139,540.57
1876.984,485.03
1877.828,494.53
1878.672,477.37
1879.518,451.70
1880.361,463.07
1881.205,467.30
1882.050,478.10
1882.894,509.20
1883.739,501.00
1884.582,452.27
1885.425,445.80
1886.270,477.97
1887.113,506.80
1887.956,473.70
1888.801,477.60
1889.644,469.33
1890.486,471.03
1891.331,481.87
1892.173,472.10
1893.017,484.60
1893.860,434.07
1894.702,478.40
1895.546,496.80
1896.388,451.07
1897.230,475.97
1898.074,482.63
1898.916,475.80
1899.757,469.73
1900.601,478.53
1901.443,470.13
1902.284,457.57
1903.125,467.23
1903.969,477.80
1904.810,473.77
1905.651,439.97
1906.494,462.87
1907.335,477.60
1908.176,467.23
1909.018,457.43
1909.859,465.73
1910.700,453.57
1911.542,424.67
1912.383,456.07
1913.223,485.20
1914.064,485.27
1914.906,493.27
1915.746,473.80
1916.586,472.93
1917.428,472.53
1918.268,470.10
1919.107,494.37
1919.947,456.67
1920.789,478.37
1921.628,490.30
1922.468,512.80
1923.309,496.07
1924.148,503.33
1924.988,486.13
1925.827,484.97
1926.667,521.70
1927.507,436.07
1928.345,429.63
1929.184,480.53
1930.025,456.70
1930.864,470.43
1931.702,474.57
1932.541,486.70
1933.381,465.10
1934.219,513.23
1935.057,471.83
1935.896,468.23
1936.735,452.83
1937.573,473.10
1938.411,479.57
1939.249,442.73
1940.089,471.87
1940.927,520.90
1941.764,508.77
1942.602,475.90
1943.439,432.17
1944.278,482.03
1945.115,444.10
1945.953,503.50
1946.790,485.20
1947.628,463.40
1948.465,492.10
1949.302,481.23
1950.139,457.93
1950.976,434.13
1951.814,483.20
1952.651,453.43
1953.487,469.17
1954.323,446.63
1955.160,468.40
1955.998,493.13
1956.834,461.93
1957.670,422.03
1958.506,449.30
1959.342,465.23
1960.177,468.17
1961.015,422.23
1961.850,456.40
1962.686,456.60
1963.521,471.40
1964.357,447.30
1965.192,484.03
1966.029,414.57
1966.864,443.27
1967.699,450.63
1968.534,454.30
1969.369,488.23
1970.204,496.33
1971.040,468.23
1971.875,400.57
1972.709,430.60
1973.544,412.13
1974.378,442.07
1975.212,483.70
1976.047,460.53
1976.882,458.33
1977.716,481.83
1978.550,468.43
1979.384,476.83
1980.218,443.53
1981.052,450.20
1981.885,426.20
1982.719,428.00
1983.554,455.40
1984.388,433.07
1985.221,450.97
1986.054,460.23
1986.887,464.03
1987.720,419.90
1988.553,431.53
1989.386,475.07
1990.219,468.80
1991.053,446.47
1991.886,476.77
1992.719,458.77
1993.551,435.47
1994.383,484.97
1995.216,463.17
1996.048,468.90
1996.880,478.30
1997.712,484.17
1998.544,449.33
1999.376,404.67
2000.208,435.33
2001.040,479.53
2001.873,454.53
2002.705,456.67
2003.536,450.00
2004.367,466.93
2005.199,426.33
2006.030,446.97
2006.861,450.63
2007.692,441.77
2008.523,431.47
2009.354,443.30
2010.185,452.03
2011.016,472.73
2011.846,433.50
2012.677,432.87
2013.507,483.83
2014.338,451.43
2015.168,447.63
2015.999,495.60
2016.829,454.07
2017.659,482.20
2018.489,447.23
2019.319,460.93
2020.149,443.13
2020.980,430.70
2021.810,448.07
2022.639,414.80
2023.469,447.83
2024.298,449.60
2025.128,449.00
2025.957,447.57
2026.786,455.43
2027.615,448.83
2028.444,448.47
2029.273,449.17
2030.102,499.33
2030.931,434.57
2031.758,415.57
2032.586,472.30
2033.415,445.63
2034.243,465.33
2035.072,469.53
2035.900,464.60
2036.728,448.53
2037.556,455.40
2038.385,455.93
2039.213,472.23
2040.040,467.07
2040.868,464.33
2041.696,459.40
2042.524,440.27
2043.351,478.00
2044.179,460.90
2045.006,444.27
2045.006,444.27

Max Intensity Wave.,218.899
Max Intensity Data,5473.50
Min Intensity Wave.,1971.875
Min Intensity Data,400.57
FWHM Wave.,409.391
FWHM Value,0.87
Pressure Wave.,684.671
Pressure Value [GPa],-24.91530
G/D Ratio,0.60869
G/D Gband Wave.,1552.978
G/D Gband Intensity,679.90
G/D Dband Wave.,1302.784
G/D Dband Intensity,1116.98

<< BACKGROUND SPECTRUM >>
Wave[dcm-1],No44
146.591,2250.00
147.626,2086.00
148.664,2055.00
149.699,2575.00
150.737,2249.00
151.772,2369.00
152.809,2376.00
153.846,2335.00
154.881,2435.00
155.918,1959.00
156.953,2295.00
157.989,2577.00
159.026,2450.00
160.060,2626.00
161.096,2866.00
162.130,2503.00
163.167,2543.00
164.200,2452.00
165.236,2649.00
166.272,2665.00
167.305,2274.00
168.341,2567.00
169.374,2781.00
170.409,2770.00
171.445,2734.00
172.477,2500.00
173.512,2423.00
174.545,2678.00
175.580,2860.00
176.614,3037.00
177.647,2776.00
178.681,3015.00
179.713,3325.00
180.747,2796.00
181.781,2727.00
182.813,2989.00
183.847,3078.00
184.878,2702.00
185.912,2980.00
186.945,3147.00
187.976,3074.00
189.010,2676.00
190.043,2840.00
191.073,2952.00
192.106,2702.00
193.137,3149.00
194.170,2548.00
195.202,2904.00
196.232,2708.00
197.265,3005.00
198.297,3063.00
199.327,2728.00
200.359,2932.00
201.388,3308.00
202.420,2918.00
203.452,3055.00
204.481,2684.00
205.512,3288.00
206.544,3048.00
207.573,3048.00
208.604,3386.00
209.635,3493.00
210.663,2957.00
211.694,2949.00
212.725,2869.00
213.753,2808.00
214.783,3414.00
215.813,3246.00
216.841,3019.00
217.871,3151.00
218.899,2904.00
219.929,3128.00
220.959,2872.00
221.986,3111.00
223.016,2758.00
224.045,3140.00
225.072,3088.00
226.101,3193.00
227.130,3227.00
228.157,2797.00
229.185,2345.00
230.214,3140.00
231.241,2818.00
232.269,2446.00
233.297,2675.00
234.323,3235.00
235.351,2804.00
236.379,3109.00
237.407,2765.00
238.433,2970.00
239.460,3058.00
240.488,3128.00
241.513,3195.00
242.540,3138.00
243.568,3204.00
244.592,3232.00
245.619,3201.00
246.646,2927.00
247.671,2920.00
248.697,2812.00
249.724,2992.00
250.748,2995.00
251.774,3026.00
252.801,3280.00
253.827,3077.00
254.850,3080.00
255.876,2719.00
256.902,3156.00
257.925,2949.00
258.951,2747.00
259.976,2760.00
260.999,3054.00
262.024,2769.00
263.049,3638.00
264.074,3111.00
265.097,2992.00
266.122,3093.00
267.146,3023.00
268.168,3209.00
269.193,2862.00
270.217,3224.00
271.241,2715.00
272.263,2882.00
273.287,3159.00
274.311,2776.00
275.332,3257.00
276.356,2871.00
277.379,3073.00
278.402,3122.00
279.424,2933.00
280.447,2918.00
281.470,2754.00
282.492,3106.00
283.513,2904.00
284.536,3202.00
285.558,3145.00
286.581,3117.00
287.601,2852.00
288.623,2792.00
289.645,3049.00
290.665,3075.00
291.687,3122.00
292.709,3117.00
293.730,3373.00
294.750,2927.00
295.771,2766.00
296.792,3073.00
297.813,2926.00
298.832,3050.00
299.853,2742.00
300.874,2964.00
301.895,2918.00
302.913,2992.00
303.934,3285.00
304.954,3032.00
305.975,4221.00
306.993,2744.00
308.013,3097.00
309.033,3022.00
310.052,2945.00
311.072,2895.00
312.090,3064.00
313.109,3250.00
314.129,3404.00
315.148,2994.00
316.165,3042.00
317.184,3233.00
318.203,2760.00
319.222,2752.00
320.238,3129.00
321.257,2813.00
322.275,2706.00
323.294,2976.00
324.312,3132.00
325.328,3263.00
326.346,3283.00
327.364,3249.00
328.382,3160.00
329.397,3105.00
330.415,3262.00
331.432,3194.00
332.450,3310.00
333.467,3444.00
334.482,2599.00
335.499,3396.00
336.516,2876.00
337.533,2592.00
338.547,2825.00
339.564,2883.00
340.580,3085.00
341.597,2920.00
342.613,3421.00
343.627,2966.00
344.643,2999.00
345.659,3091.00
346.675,2952.00
347.690,2894.00
348.704,3088.00
349.719,2887.00
350.735,2758.00
351.750,3172.00
352.765,3029.00
353.778,2973.00
354.793,3118.00
355.808,2860.00
356.822,3208.00
357.837,2647.00
358.851,3223.00
359.864,2928.00
360.878,2728.00
361.892,2972.00
362.906,3147.00
363.920,2562.00
364.932,3076.00
365.945,3113.00
366.959,3017.00
367.972,2926.00
368.986,2712.00
369.999,3397.00
371.010,2854.00
372.023,3363.00
373.036,2952.00
374.049,3417.00
375.061,3099.00
376.072,3005.00
377.084,2842.00
378.097,2669.00
379.109,3195.00
380.121,2987.00
381.133,2690.00
382.143,3128.00
383.155,2691.00
384.166,2866.00
385.178,3127.00
386.189,3196.00
387.201,2701.00
388.212,2911.00
389.221,2877.00
390.232,3010.00
391.243,2921.00
392.254,3039.00
393.264,2819.00
394.275,3246.00
395.283,3177.00
396.294,3598.00
397.304,3482.00
398.314,3138.00
399.324,3052.00
400.334,2666.00
401.344,3188.00
402.351,2645.00
403.361,3220.00
404.370,2956.00
405.380,2893.00
406.389,3341.00
407.398,3143.00
408.407,3085.00
409.414,3132.00
410.423,3335.00
411.431,2782.00
412.440,2682.00
413.448,3311.00
414.457,2844.00
415.465,2819.00
416.471,2857.00
417.479,3048.00
418.487,2835.00
419.495,3292.00
420.503,3154.00
421.510,2606.00
422.518,3117.00
423.525,3187.00
424.530,3373.00
425.537,2924.00
426.544,3188.00
427.551,2875.00
428.558,3583.00
429.565,3471.00
430.571,2909.00
431.578,2893.00
432.582,2871.00
433.588,2959.00
434.595,2582.00
435.601,3267.00
436.607,3234.00
437.612,2735.00
438.618,3327.00
439.624,2949.00
440.627,2947.00
441.633,3069.00
442.638,3618.00
443.643,3091.00
444.648,3034.00
445.653,3187.00
446.658,2918.00
447.663,3016.00
448.667,2855.00
449.672,2916.00
450.674,3003.00
451.678,2720.00
452.682,2864.00
453.687,2835.00
454.690,3612.00
455.694,3230.00
456.698,2545.00
457.702,2688.00
458.705,2810.00
459.709,2824.00
460.710,2872.00
461.713,2991.00
462.716,3076.00
463.719,3020.00
464.722,3181.00
465.725,2884.00
466.727,2850.00
467.730,3020.00
468.732,2804.00
469.735,3311.00
470.737,2936.00
471.737,2889.00
472.739,2860.00
473.741,2780.00
474.742,3070.00
475.744,3096.00
476.746,3059.00
477.747,2949.00
478.748,3172.00
479.750,2924.00
480.751,3008.00
481.752,3718.00
482.753,3075.00
483.751,3557.00
484.752,2629.00
485.753,2964.00
486.753,2845.00
487.753,2994.00
488.754,3423.00
489.754,2723.00
490.754,3301.00
491.754,3118.00
492.754,2704.00
493.753,2998.00
494.753,2914.00
495.752,3295.00
496.752,3032.00
497.749,2997.00
498.748,2888.00
499.747,3389.00
500.746,3102.00
501.745,2752.00
502.744,2799.00
503.742,3329.00
504.741,2987.00
505.739,2488.00
506.737,2868.00
507.735,3151.00
508.734,3334.00
509.732,3130.00
510.729,3308.00
511.727,2892.00
512.725,2891.00
513.720,2768.00
514.718,3224.00
515.715,2689.00
516.712,2637.00
517.709,2995.00
518.706,2904.00
519.703,3020.00
520.700,3171.00
521.696,3363.00
522.693,2866.00
523.689,2848.00
524.686,3125.00
525.682,2795.00
526.678,3459.00
527.674,2917.00
528.670,2581.00
529.666,3479.00
530.661,3458.00
531.657,3150.00
532.652,3147.00
533.648,3051.00
534.641,3211.00
535.636,3048.00
536.631,3116.00
537.626,3127.00
538.621,2719.00
539.616,2615.00
540.610,2529.00
541.605,2985.00
542.599,3067.00
543.593,3014.00
544.587,3882.00
545.581,2843.00
546.575,3062.00
547.569,2995.00
548.563,2736.00
549.557,2656.00
550.550,2771.00
551.543,2768.00
552.537,3106.00
553.530,2741.00
554.523,2748.00
555.516,3103.00
556.509,2944.00
557.502,2632.00
558.494,3187.00
559.487,2924.00
560.479,3199.00
561.472,3232.00
562.464,3184.00
563.456,3291.00
564.448,2940.00
565.440,2974.00
566.432,3421.00
567.423,2884.00
568.415,2951.00
569.404,3068.00
570.396,2808.00
571.387,3102.00
572.378,2992.00
573.369,3963.00
574.360,3641.00
575.351,2936.00
576.341,2828.00
577.332,2860.00
578.323,2718.00
579.313,2859.00
580.303,3232.00
581.293,3113.00
582.283,2976.00
583.273,3088.00
584.263,3006.00
585.253,3116.00
586.243,3159.00
587.232,2645.00
588.222,2944.00
589.211,3196.00
590.200,3048.00
591.189,2922.00
592.178,2951.00
593.167,3444.00
594.156,3293.00
595.145,2888.00
596.133,3453.00
597.122,3102.00
598.110,3212.00
599.098,3071.00
600.086,3005.00
601.074,3167.00
602.062,2812.00
603.050,2716.00
604.038,3075.00
605.025,2811.00
606.013,3178.00
607.000,3368.00
607.987,3004.00
608.975,3031.00
609.962,2735.00
610.949,3136.00
611.936,3221.00
612.922,3164.00
613.909,2691.00
614.895,3338.00
615.882,2877.00
616.868,2983.00
617.854,2749.00
618.841,3011.00
619.826,3124.00
620.812,2971.00
621.798,2790.00
622.784,3183.00
623.769,3087.00
624.755,2712.00
625.740,3055.00
626.725,2720.00
627.711,2871.00
628.698,3083.00
629.683,2812.00
630.667,3162.00
631.652,2752.00
632.637,2955.00
633.621,3150.00
634.606,2924.00
635.590,3136.00
636.574,2920.00
637.558,3063.00
638.542,3020.00
639.526,2849.00
640.510,2657.00
641.493,3084.00
642.477,2967.00
643.460,2685.00
644.444,3215.00
645.427,3203.00
646.410,2704.00
647.393,2995.00
648.376,3035.00
649.359,2903.00
650.341,3079.00
651.324,3068.00
652.307,3063.00
653.289,2955.00
654.271,2827.00
655.253,2930.00
656.235,3152.00
657.217,3267.00
658.199,2623.00
659.181,2759.00
660.163,3020.00
661.144,2852.00
662.126,2871.00
663.107,2791.00
664.088,4654.00
665.069,3213.00
666.050,2756.00
667.033,2710.00
668.014,3051.00
668.995,2616.00
669.975,2978.00
670.956,2984.00
671.936,3132.00
672.916,2978.00
673.896,3084.00
674.876,2908.00
675.856,2829.00
676.836,2704.00
677.816,2304.00
678.795,2853.00
679.775,2681.00
680.754,3047.00
681.734,3141.00
682.713,3117.00
683.692,2755.00
684.671,2622.00
685.650,2746.00
686.629,2883.00
687.607,2758.00
688.586,2767.00
689.564,2841.00
690.543,3257.00
691.523,2378.00
692.501,2821.00
693.479,2922.00
694.457,2811.00
695.435,2858.00
696.413,2641.00
697.390,2502.00
698.368,2665.00
699.345,3066.00
700.322,2924.00
701.300,3094.00
702.277,3041.00
703.254,3254.00
704.231,2568.00
705.207,2929.00
706.184,2736.00
707.161,2662.00
708.137,2817.00
709.113,2801.00
710.090,2799.00
711.068,2593.00
712.044,2592.00
713.020,2855.00
713.996,2591.00
714.971,2806.00
715.947,2838.00
716.922,2797.00
717.898,2723.00
718.873,2890.00
719.848,2668.00
720.823,2689.00
721.798,2983.00
722.773,2786.00
723.748,2516.00
724.723,3000.00
725.697,2847.00
726.672,2730.00
727.646,2481.00
728.622,2952.00
729.596,2584.00
730.570,2754.00
731.544,3037.00
732.518,3262.00
733.492,2796.00
734.466,2845.00
735.439,2956.00
736.413,3091.00
737.386,2465.00
738.359,2420.00
739.332,2494.00
740.305,2832.00
741.278,3302.00
742.251,2942.00
743.224,2729.00
744.196,2541.00
745.171,3116.00
746.143,3001.00
747.115,2708.00
748.087,2715.00
749.059,3094.00
750.031,2924.00
751.003,3698.00
751.975,3260.00
752.947,2679.00
753.918,3057.00
754.890,2585.00
755.861,2749.00
756.832,3020.00
757.803,2818.00
758.774,2823.00
759.747,2611.00
760.718,3190.00
761.689,2725.00
762.659,2588.00
763.630,3155.00
764.600,2562.00
765.570,3061.00
766.540,3110.00
767.510,2928.00
768.480,3071.00
769.450,2717.00
770.420,2786.00
771.390,2676.00
772.359,2741.00
773.329,2671.00
774.300,2483.00
775.269,2764.00
776.238,2980.00
777.207,3155.00
778.176,2538.00
779.145,2790.00
780.114,2709.00
781.083,2569.00
782.051,2743.00
783.019,2685.00
783.988,3077.00
784.956,2850.00
785.924,2975.00
786.894,2910.00
787.862,2666.00
788.830,3162.00
789.797,2624.00
790.765,2579.00
791.732,2753.00
792.700,2628.00
793.667,2585.00
794.634,2732.00
795.601,2759.00
796.568,2787.00
797.535,2832.00
798.502,3451.00
799.468,2884.00
800.437,2403.00
801.403,2667.00
802.370,3253.00
803.336,3002.00
804.302,2869.00
805.268,2443.00
806.234,2566.00
807.200,2719.00
808.166,2765.00
809.131,2591.00
810.097,2971.00
811.062,3632.00
812.027,2994.00
812.994,2606.00
813.960,2623.00
814.925,2910.00
815.889,2504.00
816.854,2984.00
817.819,2632.00
818.783,2739.00
819.748,3076.00
820.712,2736.00
821.677,2588.00
822.641,2716.00
823.605,2691.00
824.571,3116.00
825.534,2772.00
826.498,2685.00
827.462,2785.00
828.425,2626.00
829.389,3053.00
830.352,2844.00
831.315,2938.00
832.279,2491.00
833.242,2724.00
834.204,2654.00
835.167,2632.00
836.132,3041.00
837.095,2507.00
838.057,2688.00
839.020,2804.00
839.982,2848.00
840.944,2675.00
841.906,2603.00
842.868,2996.00
843.830,2556.00
844.792,3048.00
845.753,2647.00
846.715,2447.00
847.679,2568.00
848.640,2612.00
849.601,2748.00
850.562,3214.00
851.523,2730.00
852.484,2481.00
853.445,3008.00
854.406,2721.00
855.367,2700.00
856.327,3024.00
857.288,2522.00
858.248,2689.00
859.210,2655.00
860.170,2524.00
861.130,3017.00
862.090,2428.00
863.050,2607.00
864.010,2690.00
864.969,2904.00
865.929,2611.00
866.888,2525.00
867.848,2831.00
868.807,2632.00
869.766,2857.00
870.727,2719.00
871.686,2999.00
872.645,2990.00
873.604,3292.00
874.562,2758.00
875.521,2807.00
876.479,3350.00
877.437,2581.00
878.396,2593.00
879.354,3141.00
880.312,2598.00
881.270,2708.00
882.229,3099.00
883.187,2646.00
884.145,2623.00
885.102,2925.00
886.059,2877.00
887.017,2955.00
887.974,2968.00
888.931,3030.00
889.888,2503.00
890.845,2410.00
891.802,2318.00
892.758,2612.00
893.717,2424.00
894.673,2542.00
895.630,2648.00
896.586,2869.00
897.542,2685.00
898.498,2509.00
899.454,2841.00
900.410,2676.00
901.366,2671.00
902.321,2599.00
903.277,2666.00
904.232,2782.00
905.189,2484.00
906.145,2646.00
907.100,2199.00
908.055,2700.00
909.010,2868.00
909.965,2329.00
910.919,2792.00
911.874,2567.00
912.828,2756.00
913.783,2788.00
914.737,2334.00
915.693,2745.00
916.648,2879.00
917.602,2981.00
918.555,2784.00
919.509,2864.00
920.463,2779.00
921.417,2810.00
922.370,2566.00
923.324,2685.00
924.277,2669.00
925.230,2742.00
926.183,2413.00
927.138,2708.00
928.091,2935.00
929.044,2838.00
929.996,2673.00
930.949,2627.00
931.902,2833.00
932.854,2838.00
933.806,2569.00
934.758,2938.00
935.711,3002.00
936.663,2778.00
937.614,2801.00
938.568,2767.00
939.520,2380.00
940.471,2677.00
941.423,2789.00
942.374,2895.00
943.326,2734.00
944.277,2589.00
945.228,2858.00
946.179,2679.00
947.130,3031.00
948.080,2680.00
949.031,2570.00
949.984,2685.00
950.934,2695.00
951.884,2490.00
952.835,2728.00
953.785,2749.00
954.735,2586.00
955.685,2354.00
956.635,2592.00
957.585,2620.00
958.534,2607.00
959.484,2749.00
960.433,2661.00
961.383,2509.00
962.334,3013.00
963.283,2758.00
964.232,2855.00
965.181,2735.00
966.130,2798.00
967.079,2658.00
968.027,2713.00
968.976,2719.00
969.924,2618.00
970.873,2817.00
971.821,2752.00
972.769,2887.00
973.719,2859.00
974.667,2508.00
975.615,2710.00
976.562,2716.00
977.510,2418.00
978.458,2619.00
979.405,2829.00
980.352,2721.00
981.300,2972.00
982.247,2777.00
983.194,2511.00
984.141,2626.00
985.088,2691.00
986.036,2789.00
986.983,3047.00
987.930,3127.00
988.876,2373.00
989.822,2930.00
990.769,2570.00
991.715,2607.00
992.661,2438.00
993.607,2779.00
994.553,3289.00
995.498,2577.00
996.444,2279.00
997.389,2753.00
998.337,2538.00
999.282,2870.00
1000.227,2638.00
1001.173,2695.00
1002.118,2446.00
1003.062,2904.00
1004.007,2685.00
1004.952,2997.00
1005.897,2902.00
1006.841,2701.00
1007.786,2452.00
1008.730,2406.00
1009.674,3115.00
1010.618,2644.00
1011.564,2522.00
1012.508,2373.00
1013.452,2933.00
1014.396,2695.00
1015.339,2605.00
1016.283,2700.00
1017.226,2727.00
1018.170,2719.00
1019.113,2890.00
1020.056,2727.00
1020.999,2721.00
1021.942,2615.00
1022.885,2830.00
1023.828,2996.00
1024.770,2503.00
1025.715,2759.00
1026.657,2675.00
1027.600,2741.00
1028.542,2901.00
1029.484,2706.00
1030.426,2859.00
1031.368,2750.00
1032.310,2547.00
1033.251,2559.00
1034.193,2677.00
1035.135,2490.00
1036.076,2649.00
1037.017,2499.00
1037.959,2810.00
1038.900,2771.00
1039.843,2816.00
1040.784,2722.00
1041.725,2795.00
1042.665,2613.00
1043.606,2802.00
1044.547,2749.00
1045.487,2349.00
1046.427,2671.00
1047.368,2746.00
1048.308,2249.00
1049.248,2503.00
1050.188,2730.00
1051.128,2611.00
1052.067,2697.00
1053.007,2383.00
1053.947,2403.00
1054.886,2568.00
1055.827,2475.00
1056.766,2911.00
1057.706,2442.00
1058.645,2682.00
1059.584,2773.00
1060.522,2974.00
1061.461,2431.00
1062.400,2489.00
1063.338,2645.00
1064.277,2502.00
1065.215,2529.00
1066.154,2403.00
1067.092,2571.00
1068.030,2639.00
1068.968,2873.00
1069.906,3007.00
1070.843,2990.00
1071.781,2759.00
1072.720,2791.00
1073.658,2839.00
1074.595,2567.00
1075.533,2541.00
1076.470,2595.00
1077.407,2955.00
1078.344,2742.00
1079.281,2791.00
1080.217,2323.00
1081.154,2695.00
1082.091,2710.00
1083.027,2461.00
1083.964,2918.00
1084.900,2546.00
1085.836,2623.00
1086.772,2880.00
1087.708,2467.00
1088.644,2849.00
1089.580,2688.00
1090.515,2751.00
1091.451,2617.00
1092.388,2730.00
1093.324,2455.00
1094.259,3240.00
1095.194,2758.00
1096.129,2603.00
1097.064,2536.00
1097.999,2794.00
1098.934,2577.00
1099.869,2528.00
1100.803,2722.00
1101.738,2728.00
1102.672,2412.00
1103.607,2838.00
1104.541,2528.00
1105.475,2549.00
1106.409,2440.00
1107.343,2593.00
1108.277,2476.00
1109.210,2680.00
1110.144,2678.00
1111.078,2668.00
1112.011,2418.00
1112.944,2753.00
1113.878,2732.00
1114.811,2176.00
1115.744,2580.00
1116.678,2292.00
1117.611,2571.00
1118.544,2613.00
1119.477,2732.00
1120.409,2556.00
1121.342,3120.00
1122.274,2742.00
1123.206,2991.00
1124.138,2653.00
1125.070,2969.00
1126.002,2832.00
1126.934,2316.00
1127.866,2534.00
1128.798,2314.00
1129.729,2387.00
1130.661,2632.00
1131.592,2569.00
1132.523,2764.00
1133.454,2733.00
1134.385,2290.00
1135.317,2649.00
1136.247,2559.00
1137.178,2841.00
1138.109,2362.00
1139.039,3000.00
1139.970,2850.00
1140.900,2598.00
1141.831,2354.00
1142.761,2229.00
1143.691,3269.00
1144.621,2685.00
1145.551,2664.00
1146.480,2693.00
1147.410,2815.00
1148.340,2278.00
1149.269,2374.00
1150.199,2588.00
1151.128,3123.00
1152.057,2443.00
1152.979,2600.00
1153.898,2624.00
1154.819,2705.00
1155.739,2595.00
1156.658,2566.00
1157.579,2684.00
1158.498,2609.00
1159.419,2174.00
1160.338,2682.00
1161.256,2696.00
1162.177,2493.00
1163.095,2603.00
1164.016,2717.00
1164.934,2864.00
1165.852,2833.00
1166.772,2603.00
1167.690,2614.00
1168.610,2714.00
1169.528,2613.00
1170.446,2166.00
1171.365,2555.00
1172.283,2504.00
1173.202,2617.00
1174.120,2679.00
1175.037,2512.00
1175.956,2482.00
1176.873,2496.00
1177.792,2530.00
1178.709,3090.00
1179.626,2533.00
1180.544,2809.00
1181.461,2512.00
1182.379,2752.00
1183.296,2596.00
1184.212,2279.00
1185.130,2490.00
1186.046,2988.00
1186.962,2637.00
1187.880,2925.00
1188.796,2662.00
1189.714,2441.00
1190.629,2724.00
1191.545,2711.00
1192.462,2531.00
1193.378,2577.00
1194.295,2367.00
1195.210,2688.00
1196.125,2783.00
1197.042,2687.00
1197.957,2631.00
1198.872,2522.00
1199.788,2548.00
1200.703,2942.00
1201.619,2675.00
1202.534,2502.00
1203.448,2720.00
1204.364,2632.00
1205.278,2321.00
1206.192,2695.00
1207.108,3112.00
1208.022,2984.00
1208.938,2460.00
1209.851,2758.00
1210.765,2874.00
1211.680,2513.00
1212.594,2396.00
1213.507,2557.00
1214.422,3037.00
1215.335,2728.00
1216.248,2559.00
1217.163,2613.00
1218.076,3199.00
1218.990,2723.00
1219.903,2429.00
1220.816,2423.00
1221.730,2578.00
1222.642,2558.00
1223.554,2538.00
1224.469,2698.00
1225.380,2595.00
1226.292,2269.00
1227.206,2781.00
1228.118,2973.00
1229.032,2253.00
1229.943,2502.00
1230.855,2558.00
1231.768,2374.00
1232.679,2715.00
1233.590,2591.00
1234.503,2828.00
1235.414,2468.00
1236.325,2505.00
1237.238,2754.00
1238.149,2743.00
1239.059,2445.00
1239.972,2824.00
1240.882,2423.00
1241.793,2749.00
1242.705,2974.00
1243.615,2575.00
1244.525,2696.00
1245.437,2207.00
1246.347,2662.00
1247.259,2781.00
1248.168,3091.00
1249.078,2888.00
1249.989,2871.00
1250.899,2469.00
1251.808,2538.00
1252.719,2570.00
1253.628,2484.00
1254.537,3011.00
1255.448,2466.00
1256.357,2476.00
1257.266,2624.00
1258.176,2361.00
1259.085,2354.00
1259.993,2449.00
1260.904,2409.00
1261.812,2440.00
1262.720,3130.00
1263.630,2817.00
1264.538,2454.00
1265.446,2699.00
1266.356,2589.00
1267.263,2889.00
1268.171,2415.00
1269.080,2676.00
1269.988,2771.00
1270.895,2535.00
1271.804,2579.00
1272.711,2803.00
1273.619,2797.00
1274.527,2434.00
1275.434,2706.00
1276.341,2438.00
1277.248,2674.00
1278.156,2891.00
1279.063,2461.00
1279.969,2709.00
1280.877,3509.00
1281.783,2840.00
1282.690,2683.00
1283.598,2583.00
1284.503,2491.00
1285.409,2446.00
1286.317,2937.00
1287.223,2998.00
1288.128,2666.00
1289.036,2499.00
1289.941,2584.00
1290.846,2634.00
1291.751,2420.00
1292.658,2584.00
1293.563,3050.00
1294.468,2660.00
1295.375,2764.00
1296.280,2844.00
1297.184,3333.00
1298.091,2717.00
1298.995,2769.00
1299.900,2992.00
1300.806,2533.00
1301.710,2411.00
1302.614,2206.00
1303.518,2883.00
1304.424,2564.00
1305.327,2826.00
1306.231,2627.00
1307.137,2776.00
1308.040,2667.00
1308.943,2665.00
1309.847,2833.00
1310.752,2806.00
1311.655,2297.00
1312.558,2402.00
1313.463,2571.00
1314.366,2526.00
1315.269,2677.00
1316.171,2610.00
1317.076,2533.00
1317.978,2426.00
1318.881,2253.00
1319.785,2491.00
1320.687,2504.00
1321.589,2255.00
1322.491,2484.00
1323.395,2686.00
1324.297,3187.00
1325.198,2749.00
1326.102,2450.00
1327.004,2424.00
1327.905,3012.00
1328.806,2602.00
1329.709,2683.00
1330.611,2584.00
1331.512,2424.00
1332.413,3049.00
1333.316,2681.00
1334.216,2830.00
1335.117,2396.00
1336.020,2685.00
1336.920,2635.00
1337.821,2510.00
1338.721,2844.00
1339.623,2701.00
1340.523,2599.00
1341.423,2506.00
1342.323,2841.00
1343.225,2724.00
1344.125,2474.00
1345.025,2486.00
1345.924,2297.00
1346.826,2986.00
1347.725,3020.00
1348.624,2840.00
1349.524,2485.00
1350.425,2615.00
1351.324,2697.00
1352.223,2765.00
1353.121,2604.00
1354.022,2818.00
1354.921,3031.00
1355.819,2746.00
1356.718,2691.00
1357.618,2372.00
1358.516,2724.00
1359.415,3039.00
1360.313,2729.00
1361.213,2579.00
1362.111,2929.00
1363.008,3265.00
1363.906,2606.00
1364.806,2639.00
1365.703,2698.00
1366.601,2447.00
1367.498,2462.00
1368.397,2816.00
1369.295,2674.00
1370.192,2457.00
1371.089,2715.00
1371.987,2592.00
1372.884,2873.00
1373.781,2437.00
1374.678,2650.00
1375.574,2462.00
1376.473,2716.00
1377.369,2834.00
1378.265,2467.00
1379.161,2596.00
1380.059,2333.00
1380.955,2724.00
1381.851,2384.00
1382.747,2491.00
1383.643,2584.00
1384.540,2434.00
1385.436,2541.00
1386.331,2665.00
1387.227,2830.00
1388.124,2732.00
1389.019,2453.00
1389.914,2595.00
1390.809,2283.00
1391.704,3072.00
1392.601,2577.00
1393.495,2923.00
1394.390,2771.00
1395.285,2831.00
1396.179,2701.00
1397.075,2602.00
1397.969,2694.00
1398.864,2346.00
1399.758,2571.00
1400.652,2658.00
1401.547,2437.00
1402.441,2437.00
1403.335,2981.00
1404.229,2642.00
1405.122,2701.00
1406.017,2594.00
1406.911,2771.00
1407.804,3035.00
1408.697,2608.00
1409.590,2454.00
1410.485,2832.00
1411.378,2674.00
1412.271,2334.00
1413.163,2720.00
1414.056,2789.00
1414.949,3040.00
1415.843,2696.00
1416.735,2589.00
1417.627,2644.00
1418.520,2614.00
1419.412,2836.00
1420.306,2785.00
1421.197,2923.00
1422.089,2824.00
1422.981,3072.00
1423.873,2789.00
1424.764,2714.00
1425.657,2658.00
1426.549,2760.00
1427.440,2808.00
1428.331,2551.00
1429.222,2332.00
1430.113,2680.00
1431.006,2808.00
1431.897,2549.00
1432.787,2647.00
1433.678,2561.00
1434.568,2476.00
1435.459,2852.00
1436.351,2831.00
1437.241,2799.00
1438.131,2759.00
1439.021,2409.00
1439.911,2564.00
1440.801,2694.00
1441.693,2862.00
1442.583,2706.00
1443.472,2670.00
1444.362,2753.00
1445.251,2581.00
1446.140,2540.00
1447.030,2828.00
1447.921,2816.00
1448.810,2455.00
1449.699,3039.00
1450.588,2664.00
1451.476,2540.00
1452.365,2752.00
1453.254,2571.00
1454.144,2558.00
1455.032,2748.00
1455.921,2369.00
1456.809,2921.00
1457.697,2459.00
1458.585,2593.00
1459.473,2549.00
1460.361,2491.00
1461.251,2703.00
1462.138,2694.00
1463.026,2590.00
1463.913,2882.00
1464.801,2559.00
1465.688,2687.00
1466.575,2672.00
1467.463,3053.00
1468.351,2492.00
1469.238,2647.00
1470.125,2230.00
1471.012,2680.00
1471.899,2715.00
1472.785,2457.00
1473.672,2631.00
1474.558,2852.00
1475.446,2765.00
1476.333,2810.00
1477.219,2455.00
1478.105,2619.00
1478.991,2620.00
1479.877,2943.00
1480.762,2641.00
1481.648,2510.00
1482.534,2775.00
1483.419,2729.00
1484.307,2739.00
1485.192,2606.00
1486.077,2540.00
1486.962,2479.00
1487.847,2354.00
1488.732,2515.00
1489.617,2641.00
1490.502,2917.00
1491.387,2795.00
1492.271,2480.00
1493.156,2486.00
1494.042,2427.00
1494.927,2818.00
1495.811,2546.00
1496.695,2796.00
1497.579,2892.00
1498.463,2671.00
1499.347,2704.00
1500.231,2656.00
1501.114,2720.00
1501.998,2928.00
1502.881,2686.00
1503.765,2933.00
1504.648,3052.00
1505.533,2776.00
1506.417,2633.00
1507.300,2621.00
1508.183,2723.00
1509.066,2153.00
1509.948,2916.00
1510.831,3019.00
1511.714,2463.00
1512.596,2786.00
1513.479,2879.00
1514.361,2836.00
1515.243,2643.00
1516.125,2823.00
1517.008,2949.00
1517.890,2602.00
1518.771,2704.00
1519.655,2838.00
1520.537,2594.00
1521.419,2487.00
1522.300,2673.00
1523.182,2785.00
1524.063,2788.00
1524.944,2900.00
1525.825,2831.00
1526.707,2487.00
1527.588,2451.00
1528.468,2741.00
1529.349,2321.00
1530.230,2567.00
1531.111,2839.00
1531.991,2718.00
1532.872,2407.00
1533.752,2655.00
1534.632,2487.00
1535.513,2535.00
1536.393,2784.00
1537.273,2935.00
1538.153,3275.00
1539.032,2374.00
1539.912,2610.00
1540.792,2672.00
1541.672,2675.00
1542.551,2743.00
1543.430,3224.00
1544.310,2741.00
1545.189,2581.00
1546.068,3091.00
1546.947,2746.00
1547.826,2949.00
1548.705,2659.00
1549.584,2874.00
1550.462,2595.00
1551.341,2805.00
1552.219,2714.00
1553.098,2759.00
1553.976,2880.00
1554.854,3086.00
1555.733,2863.00
1556.611,2552.00
1557.489,2462.00
1558.367,2648.00
1559.244,2808.00
1560.122,2630.00
1561.000,2729.00
1561.877,2921.00
1562.755,2537.00
1563.632,2633.00
1564.509,2873.00
1565.386,3006.00
1566.264,2431.00
1567.141,2275.00
1568.017,2782.00
1568.894,2670.00
1569.771,2689.00
1570.648,2746.00
1571.524,2703.00
1572.401,2409.00
1573.277,2460.00
1574.153,2690.00
1575.029,2521.00
1575.906,3383.00
1576.781,2847.00
1577.657,2597.00
1578.533,2912.00
1579.409,2306.00
1580.285,2650.00
1581.160,3067.00
1582.036,2851.00
1582.911,2516.00
1583.786,3025.00
1584.662,2485.00
1585.537,2630.00
1586.412,2719.00
1587.287,2536.00
1588.160,2838.00
1589.035,2331.00
1589.909,2641.00
1590.784,2623.00
1591.658,2489.00
1592.533,2708.00
1593.407,2683.00
1594.281,2523.00
1595.155,3027.00
1596.029,2634.00
1596.903,2613.00
1597.777,2607.00
1598.651,2910.00
1599.525,2375.00
1600.398,2704.00
1601.272,2631.00
1602.144,3214.00
1603.017,2616.00
1603.890,2923.00
1604.763,2729.00
1605.636,2802.00
1606.509,2373.00
1607.382,2528.00
1608.255,2742.00
1609.128,2862.00
1610.000,2625.00
1610.873,2378.00
1611.746,2592.00
1612.616,2561.00
1613.488,2260.00
1614.361,2659.00
1615.233,2621.00
1616.105,2900.00
1616.977,2603.00
1617.849,2520.00
1618.720,2974.00
1619.592,2947.00
1620.464,2761.00
1621.333,3130.00
1622.205,2644.00
1623.076,2637.00
1623.947,2667.00
1624.818,2887.00
1625.689,2809.00
1626.560,2581.00
1627.431,2730.00
1628.302,3031.00
1629.171,2782.00
1630.042,3003.00
1630.912,3310.00
1631.782,3252.00
1632.653,2470.00
1633.523,2853.00
1634.393,2890.00
1635.263,2553.00
1636.131,2677.00
1637.001,2564.00
1637.871,2322.00
1638.741,2325.00
1639.611,2391.00
1640.480,2807.00
1641.350,2541.00
1642.219,2473.00
1643.087,2174.00
1643.956,3102.00
1644.825,2895.00
1645.694,2858.00
1646.563,2834.00
1647.432,2697.00
1648.299,2688.00
1649.167,2767.00
1650.036,2509.00
1650.904,2837.00
1651.773,2863.00
1652.641,2652.00
1653.509,2838.00
1654.376,2562.00
1655.244,2758.00
1656.112,2727.00
1656.980,2684.00
1657.847,2556.00
1658.715,2852.00
1659.581,2565.00
1660.448,2886.00
1661.316,2212.00
1662.183,2717.00
1663.051,2712.00
1663.918,2746.00
1664.783,2668.00
1665.650,2769.00
1666.517,2826.00
1667.384,2689.00
1668.251,2724.00
1669.115,2900.00
1669.982,2622.00
1670.849,2932.00
1671.715,2674.00
1672.581,2796.00
1673.446,2824.00
1674.312,2709.00
1675.178,3069.00
1676.044,2749.00
1676.910,2756.00
1677.774,2701.00
1678.639,2342.00
1679.505,2679.00
1680.370,2754.00
1681.236,3300.00
1682.099,2642.00
1682.965,2685.00
1683.830,2274.00
1684.695,2505.00
1685.560,2592.00
1686.423,2801.00
1687.288,2799.00
1688.153,2721.00
1689.017,2603.00
1689.880,2748.00
1690.745,2826.00
1691.609,2534.00
1692.473,2815.00
1693.338,2903.00
1694.200,2965.00
1695.064,2720.00
1695.928,2597.00
1696.792,2699.00
1697.654,3150.00
1698.517,2722.00
1699.381,2413.00
1700.245,2331.00
1701.106,2970.00
1701.969,2580.00
1702.833,2832.00
1703.696,2575.00
1704.557,2650.00
1705.420,2533.00
1706.283,2705.00
1707.146,2829.00
1708.007,2499.00
1708.870,2505.00
1709.732,2323.00
1710.595,2551.00
1711.455,2450.00
1712.318,2622.00
1713.180,2934.00
1714.040,2754.00
1714.902,2830.00
1715.764,2668.00
1716.626,2481.00
1717.486,2656.00
1718.348,2924.00
1719.209,3904.00
1720.071,2365.00
1720.930,2458.00
1721.792,2532.00
1722.653,2532.00
1723.512,2605.00
1724.374,2647.00
1725.234,2732.00
1726.095,2696.00
1726.954,2689.00
1727.815,2774.00
1728.676,2682.00
1729.535,2885.00
1730.395,2656.00
1731.256,2598.00
1732.114,2721.00
1732.974,2145.00
1733.834,3031.00
1734.693,2836.00
1735.553,2708.00
1736.413,3074.00
1737.272,2575.00
1738.130,2650.00
1738.990,2741.00
1739.849,2580.00
1740.707,3677.00
1741.566,2715.00
1742.426,2749.00
1743.283,3086.00
1744.142,2576.00
1745.001,2367.00
1745.858,2850.00
1746.717,2767.00
1747.576,2784.00
1748.433,2844.00
1749.292,3254.00
1750.150,3333.00
1751.007,2906.00
1751.865,2909.00
1752.723,2696.00
1753.579,2596.00
1754.438,2907.00
1755.296,2900.00
1756.152,2259.00
1757.010,2360.00
1757.865,2881.00
1758.723,2323.00
1759.581,2997.00
1760.436,2663.00
1761.294,2996.00
1762.151,2683.00
1763.006,2615.00
1763.864,2398.00
1764.721,2878.00
1765.576,2720.00
1766.433,2814.00
1767.288,2591.00
1768.144,2728.00
1769.001,2613.00
1769.856,2820.00
1770.712,2901.00
1771.568,2471.00
1772.423,2589.00
1773.279,2575.00
1774.133,2572.00
1774.989,3090.00
1775.845,3075.00
1776.699,2915.00
1777.555,2706.00
1778.409,3212.00
1779.265,2641.00
1780.120,2666.00
1780.974,2662.00
1781.829,2301.00
1782.682,2733.00
1783.538,2502.00
1784.393,2697.00
1785.246,2588.00
1786.101,2803.00
1786.954,2798.00
1787.808,2889.00
1788.661,2375.00
1789.516,2625.00
1790.370,2651.00
1791.223,2880.00
1792.077,2671.00
1792.930,2751.00
1793.784,2582.00
1794.636,2695.00
1795.490,2664.00
1796.344,2719.00
1797.196,2671.00
1798.049,2836.00
1798.901,2582.00
1799.755,2924.00
1800.606,2498.00
1801.460,3235.00
1802.311,2997.00
1803.165,3080.00
1804.018,3017.00
1804.869,2772.00
1805.722,3118.00
1806.573,2710.00
1807.426,2500.00
1808.276,2671.00
1809.129,2588.00
1809.980,2932.00
1810.832,2985.00
1811.683,2624.00
1812.535,2979.00
1813.385,2653.00
1814.237,2964.00
1815.089,2702.00
1815.940,2965.00
1816.791,2631.00
1817.641,2558.00
1818.493,2825.00
1819.343,2764.00
1820.194,2555.00
1821.044,2790.00
1821.895,2901.00
1822.745,2447.00
1823.596,2588.00
1824.445,3122.00
1825.296,2789.00
1826.145,2679.00
1826.996,2903.00
1827.845,2752.00
1828.695,2788.00
1829.544,2707.00
1830.395,2763.00
1831.243,2611.00
1832.094,2469.00
1832.942,3296.00
1833.792,2823.00
1834.640,2735.00
1835.490,2699.00
1836.338,2758.00
1837.186,2585.00
1838.036,2547.00
1838.884,2671.00
1839.733,2983.00
1840.581,2864.00
1841.430,2843.00
1842.278,3014.00
1843.127,2586.00
1843.974,2399.00
1844.823,3101.00
1845.671,2863.00
1846.519,2745.00
1847.366,2757.00
1848.213,2343.00
1849.062,2510.00
1849.909,2446.00
1850.757,3367.00
1851.604,2850.00
1852.452,2582.00
1853.298,2913.00
1854.146,2753.00
1854.993,2746.00
1855.839,3197.00
1856.687,2809.00
1857.532,2835.00
1858.380,2727.00
1859.226,2773.00
1860.073,2831.00
1860.919,2519.00
1861.765,2578.00
1862.612,2907.00
1863.457,2930.00
1864.304,2647.00
1865.150,2811.00
1865.995,2672.00
1866.842,2823.00
1867.686,2965.00
1868.533,2790.00
1869.378,2787.00
1870.223,2732.00
1871.069,2627.00
1871.914,2771.00
1872.760,2689.00
1873.604,2494.00
1874.448,2869.00
1875.294,2867.00
1876.139,2527.00
1876.984,2827.00
1877.828,2361.00
1878.672,2231.00
1879.518,2611.00
1880.361,2907.00
1881.205,2867.00
1882.050,2527.00
1882.894,3186.00
1883.739,2559.00
1884.582,2498.00
1885.425,2562.00
1886.270,2955.00
1887.113,2429.00
1887.956,2818.00
1888.801,2761.00
1889.644,2532.00
1890.486,2322.00
1891.331,2630.00
1892.173,2752.00
1893.017,2770.00
1893.860,3032.00
1894.702,2993.00
1895.546,2704.00
1896.388,3412.00
1897.230,3065.00
1898.074,2604.00
1898.916,2510.00
1899.757,2553.00
1900.601,3360.00
1901.443,2998.00
1902.284,3021.00
1903.125,3184.00
1903.969,2903.00
1904.810,2945.00
1905.651,2833.00
1906.494,3030.00
1907.335,3145.00
1908.176,2843.00
1909.018,2819.00
1909.859,2695.00
1910.700,2608.00
1911.542,3298.00
1912.383,2794.00
1913.223,2335.00
1914.064,2843.00
1914.906,2965.00
1915.746,3049.00
1916.586,3176.00
1917.428,2706.00
1918.268,2755.00
1919.107,2595.00
1919.947,2491.00
1920.789,2637.00
1921.628,2944.00
1922.468,2678.00
1923.309,2543.00
1924.148,3003.00
1924.988,2770.00
1925.827,2681.00
1926.667,2601.00
1927.507,2795.00
1928.345,2599.00
1929.184,2873.00
1930.025,2547.00
1930.864,2975.00
1931.702,3006.00
1932.541,2610.00
1933.381,2858.00
1934.219,2842.00
1935.057,3006.00
1935.896,2436.00
1936.735,2704.00
1937.573,2617.00
1938.411,2505.00
1939.249,2904.00
1940.089,2609.00
1940.927,2913.00
1941.764,2970.00
1942.602,2646.00
1943.439,2644.00
1944.278,2674.00
1945.115,2678.00
1945.953,2437.00
1946.790,2776.00
1947.628,3064.00
1948.465,2805.00
1949.302,2852.00
1950.139,2850.00
1950.976,2621.00
1951.814,2868.00
1952.651,2787.00
1953.487,2516.00
1954.323,3001.00
1955.160,2694.00
1955.998,3053.00
1956.834,2714.00
1957.670,2837.00
1958.506,2959.00
1959.342,2820.00
1960.177,2762.00
1961.015,2905.00
1961.850,2782.00
1962.686,2779.00
1963.521,2768.00
1964.357,3021.00
1965.192,2490.00
1966.029,2921.00
1966.864,2663.00
1967.699,2957.00
1968.534,2770.00
1969.369,2973.00
1970.204,2654.00
1971.040,2751.00
1971.875,2707.00
1972.709,2797.00
1973.544,2619.00
1974.378,2648.00
1975.212,2815.00
1976.047,2634.00
1976.882,2598.00
1977.716,3098.00
1978.550,2424.00
1979.384,2654.00
1980.218,2701.00
1981.052,2673.00
1981.885,2788.00
1982.719,2764.00
1983.554,2885.00
1984.388,3063.00
1985.221,2810.00
1986.054,2984.00
1986.887,2777.00
1987.720,2606.00
1988.553,3062.00
1989.386,2804.00
1990.219,2852.00
1991.053,3039.00
1991.886,2584.00
1992.719,2924.00
1993.551,2305.00
1994.383,2856.00
1995.216,2647.00
1996.048,2449.00
1996.880,2889.00
1997.712,2578.00
1998.544,2736.00
1999.376,2862.00
2000.208,3035.00
2001.040,3158.00
2001.873,2564.00
2002.705,2572.00
2003.536,2789.00
2004.367,2766.00
2005.199,2796.00
2006.030,2640.00
2006.861,2545.00
2007.692,2766.00
2008.523,2621.00
2009.354,2784.00
2010.185,2549.00
2011.016,2858.00
2011.846,2968.00
2012.677,2702.00
2013.507,3041.00
2014.338,2970.00
2015.168,2681.00
2015.999,3217.00
2016.829,2680.00
2017.659,2939.00
2018.489,3260.00
2019.319,2555.00
2020.149,2930.00
2020.980,2792.00
2021.810,2558.00
2022.639,2665.00
2023.469,2643.00
2024.298,2448.00
2025.128,2376.00
2025.957,2372.00
2026.786,2199.00
2027.615,2402.00
2028.444,2593.00
2029.273,2769.00
2030.102,2329.00
2030.931,2619.00
2031.758,2900.00
2032.586,2522.00
2033.415,2610.00
2034.243,2214.00
2035.072,2015.00
2035.900,2488.00
2036.728,2332.00
2037.556,2360.00
2038.385,2380.00
2039.213,2179.00
2040.040,2168.00
2040.868,2141.00
2041.696,2204.00
2042.524,2229.00
2043.351,2383.00
2044.179,2220.00
2045.006,2014.00
