RamanScope Measure Spectrum Data V3.72

<< MEASURE CONDITION >>
Exposure Type,Aver
Exposure Time [sec],15
Exposure Count,4
Measure Time,2023/07/15 15:43:02
Data Name,""
Data Comment,""
Rayleigh Wave[nm],532.0

<< SAMPLE SPECTRUM >>
Wave[dcm-1],No150
146.591,888.75
147.626,990.75
148.664,1194.00
149.699,1368.50
150.737,1587.75
151.772,1733.25
152.809,1908.25
153.846,2025.50
154.881,2128.75
155.918,2253.25
156.953,2353.00
157.989,2460.00
159.026,2533.75
160.060,2578.75
161.096,2649.50
162.130,2688.50
163.167,2711.75
164.200,2754.75
165.236,2777.00
166.272,2876.75
167.305,2883.25
168.341,2934.25
169.374,3003.50
170.409,3075.25
171.445,3117.25
172.477,3202.75
173.512,3265.50
174.545,3257.25
175.580,3298.25
176.614,3246.25
177.647,3298.00
178.681,3303.50
179.713,3235.75
180.747,3216.25
181.781,3186.75
182.813,3164.75
183.847,3207.25
184.878,3183.50
185.912,3108.00
186.945,3168.25
187.976,3222.00
189.010,3153.75
190.043,3253.50
191.073,3275.00
192.106,3231.50
193.137,3296.75
194.170,3407.75
195.202,3388.00
196.232,3443.50
197.265,3468.50
198.297,3513.75
199.327,3591.00
200.359,3676.25
201.388,3712.50
202.420,3789.25
203.452,3875.75
204.481,3957.00
205.512,4028.50
206.544,4134.00
207.573,4212.25
208.604,4300.25
209.635,4428.75
210.663,4561.25
211.694,4678.25
212.725,4764.50
213.753,4927.75
214.783,4924.00
215.813,4985.00
216.841,5035.25
217.871,5107.50
218.899,5018.75
219.929,5000.50
220.959,4917.50
221.986,4832.75
223.016,4713.00
224.045,4622.25
225.072,4549.25
226.101,4477.25
227.130,4312.25
228.157,4304.50
229.185,4253.00
230.214,4149.75
231.241,4028.00
232.269,4042.00
233.297,4021.00
234.323,4006.25
235.351,4000.25
236.379,3965.75
237.407,3983.00
238.433,3985.75
239.460,3946.00
240.488,4082.00
241.513,4032.25
242.540,4104.25
243.568,4112.50
244.592,4208.50
245.619,4234.25
246.646,4168.00
247.671,4124.75
248.697,4113.25
249.724,4103.75
250.748,4133.00
251.774,4066.50
252.801,4091.00
253.827,4125.00
254.850,4112.00
255.876,4148.25
256.902,4150.50
257.925,4151.50
258.951,4206.75
259.976,4219.25
260.999,4297.25
262.024,4311.50
263.049,4374.25
264.074,4409.00
265.097,4446.00
266.122,4443.25
267.146,4570.25
268.168,4585.75
269.193,4602.25
270.217,4640.75
271.241,4663.50
272.263,4701.25
273.287,4738.00
274.311,4784.75
275.332,4802.00
276.356,4765.50
277.379,4742.75
278.402,4771.50
279.424,4775.00
280.447,4738.75
281.470,4618.75
282.492,4620.50
283.513,4563.75
284.536,4514.50
285.558,4436.25
286.581,4337.50
287.601,4263.50
288.623,4299.50
289.645,4225.50
290.665,4135.00
291.687,4043.25
292.709,3984.75
293.730,3931.25
294.750,3966.00
295.771,3886.00
296.792,3831.75
297.813,3868.25
298.832,3758.00
299.853,3677.50
300.874,3666.75
301.895,3617.00
302.913,3519.25
303.934,3494.25
304.954,3460.00
305.975,3481.50
306.993,3422.00
308.013,3374.50
309.033,3379.25
310.052,3286.50
311.072,3336.75
312.090,3328.75
313.109,3236.50
314.129,3236.75
315.148,3203.75
316.165,3287.50
317.184,3197.00
318.203,3212.50
319.222,3156.75
320.238,3168.00
321.257,3158.50
322.275,3124.00
323.294,3134.75
324.312,3103.00
325.328,3066.50
326.346,3060.50
327.364,3080.50
328.382,3050.75
329.397,3069.75
330.415,3006.50
331.432,3025.25
332.450,3063.25
333.467,3017.00
334.482,2972.00
335.499,3019.25
336.516,2983.25
337.533,3025.75
338.547,3032.75
339.564,2999.50
340.580,3021.00
341.597,2989.25
342.613,2970.00
343.627,3001.50
344.643,2908.50
345.659,2990.50
346.675,2951.00
347.690,2989.50
348.704,2940.75
349.719,2910.50
350.735,2948.50
351.750,2996.25
352.765,2964.00
353.778,2971.75
354.793,2939.00
355.808,2969.50
356.822,2952.00
357.837,2922.75
358.851,2971.50
359.864,3030.00
360.878,2972.50
361.892,2982.75
362.906,2959.25
363.920,2990.75
364.932,2972.25
365.945,2969.25
366.959,2975.00
367.972,2997.75
368.986,3022.25
369.999,2991.50
371.010,3047.75
372.023,3009.25
373.036,3005.00
374.049,3039.00
375.061,3086.25
376.072,3084.00
377.084,3114.75
378.097,3113.25
379.109,3072.75
380.121,3126.25
381.133,3065.75
382.143,3150.75
383.155,3093.00
384.166,3081.25
385.178,3046.25
386.189,3071.00
387.201,3158.00
388.212,3104.50
389.221,3049.25
390.232,3042.25
391.243,3034.25
392.254,3030.25
393.264,3061.00
394.275,2972.00
395.283,3042.25
396.294,2997.25
397.304,2933.25
398.314,2959.25
399.324,2936.25
400.334,2958.00
401.344,2944.25
402.351,2915.00
403.361,2918.25
404.370,2947.00
405.380,2975.75
406.389,2876.00
407.398,2846.75
408.407,2848.75
409.414,2590.75
410.423,2853.00
411.431,2835.75
412.440,2780.25
413.448,2788.50
414.457,2779.00
415.465,2709.50
416.471,2735.75
417.479,2765.25
418.487,2746.50
419.495,2727.75
420.503,2805.50
421.510,2762.75
422.518,2736.50
423.525,2736.75
424.530,2749.50
425.537,2745.50
426.544,2648.00
427.551,2733.50
428.558,2718.75
429.565,2720.50
430.571,2690.75
431.578,2686.75
432.582,2667.25
433.588,2671.00
434.595,2689.50
435.601,2725.25
436.607,2689.75
437.612,2690.75
438.618,2694.75
439.624,2663.75
440.627,2706.75
441.633,2679.00
442.638,2701.50
443.643,2686.25
444.648,2657.25
445.653,2647.00
446.658,2712.00
447.663,2705.75
448.667,2654.75
449.672,2679.50
450.674,2770.25
451.678,2708.75
452.682,2713.00
453.687,2681.00
454.690,2671.25
455.694,2695.75
456.698,2686.75
457.702,2686.00
458.705,2685.25
459.709,2674.25
460.710,2706.25
461.713,2720.00
462.716,2699.00
463.719,2673.50
464.722,2702.75
465.725,2710.25
466.727,2758.50
467.730,2795.25
468.732,2752.50
469.735,2697.25
470.737,2728.25
471.737,2759.50
472.739,2776.00
473.741,2753.00
474.742,2762.00
475.744,2676.75
476.746,2730.25
477.747,2755.50
478.748,2764.25
479.750,2780.50
480.751,2696.75
481.752,2711.00
482.753,2732.50
483.751,2714.50
484.752,2732.25
485.753,2718.75
486.753,2694.50
487.753,2714.75
488.754,2696.25
489.754,2637.25
490.754,2714.00
491.754,2744.25
492.754,2738.00
493.753,2696.00
494.753,2729.00
495.752,2665.75
496.752,2688.00
497.749,2728.00
498.748,2721.25
499.747,2667.50
500.746,2674.25
501.745,2632.00
502.744,2660.00
503.742,2682.00
504.741,2596.50
505.739,2640.25
506.737,2582.50
507.735,2610.00
508.734,2633.75
509.732,2571.25
510.729,2662.75
511.727,2533.75
512.725,2628.50
513.720,2584.50
514.718,2569.00
515.715,2557.00
516.712,2586.75
517.709,2541.50
518.706,2547.00
519.703,2569.75
520.700,2535.25
521.696,2530.00
522.693,2589.25
523.689,2553.50
524.686,2556.00
525.682,2576.00
526.678,2553.50
527.674,2598.00
528.670,2589.00
529.666,2593.50
530.661,2569.75
531.657,2586.50
532.652,2549.50
533.648,2596.50
534.641,2632.25
535.636,2552.75
536.631,2580.25
537.626,2680.75
538.621,2578.25
539.616,2612.75
540.610,2582.75
541.605,2610.50
542.599,2612.25
543.593,2607.75
544.587,2595.25
545.581,2614.50
546.575,2576.75
547.569,2614.50
548.563,2591.00
549.557,2651.75
550.550,2591.50
551.543,2541.50
552.537,2586.25
553.530,2566.50
554.523,2635.00
555.516,2561.50
556.509,2582.50
557.502,2584.50
558.494,2614.00
559.487,2587.25
560.479,2569.75
561.472,2587.75
562.464,2596.50
563.456,2610.00
564.448,2662.00
565.440,2662.75
566.432,2613.50
567.423,2638.75
568.415,2666.50
569.404,2662.25
570.396,2632.75
571.387,2655.75
572.378,2644.25
573.369,2669.25
574.360,2647.00
575.351,2699.25
576.341,2726.25
577.332,2709.75
578.323,2681.25
579.313,2662.25
580.303,2734.75
581.293,2727.75
582.283,2702.25
583.273,2742.25
584.263,2707.00
585.253,2689.00
586.243,2739.00
587.232,2677.00
588.222,2669.00
589.211,2726.00
590.200,2757.25
591.189,2797.50
592.178,2696.25
593.167,2729.75
594.156,2756.25
595.145,2713.50
596.133,2760.50
597.122,2714.00
598.110,2728.75
599.098,2740.50
600.086,2698.25
601.074,2767.00
602.062,2646.75
603.050,2685.50
604.038,2687.75
605.025,2650.00
606.013,2650.75
607.000,2707.50
607.987,2684.25
608.975,2613.25
609.962,2635.50
610.949,2653.75
611.936,2642.75
612.922,2558.50
613.909,2581.25
614.895,2607.50
615.882,2580.00
616.868,2567.00
617.854,2572.75
618.841,2543.25
619.826,2520.50
620.812,2529.75
621.798,2516.25
622.784,2515.75
623.769,2477.75
624.755,2490.50
625.740,2401.25
626.725,2427.00
627.711,2381.00
628.698,2459.50
629.683,2406.50
630.667,2340.25
631.652,2388.00
632.637,2362.75
633.621,2330.50
634.606,2279.50
635.590,2309.00
636.574,2272.75
637.558,2276.00
638.542,2273.25
639.526,2257.25
640.510,2245.00
641.493,2258.25
642.477,2234.50
643.460,2225.25
644.444,2226.75
645.427,2147.75
646.410,2208.00
647.393,2208.50
648.376,2246.00
649.359,2196.50
650.341,2145.25
651.324,2199.00
652.307,2136.50
653.289,2140.75
654.271,2152.50
655.253,2118.75
656.235,2101.75
657.217,2169.25
658.199,2083.25
659.181,2114.25
660.163,2131.75
661.144,2143.00
662.126,2044.75
663.107,2140.00
664.088,2032.25
665.069,2056.75
666.050,2056.25
667.033,2085.75
668.014,2084.50
668.995,2064.00
669.975,2051.00
670.956,2033.00
671.936,2068.00
672.916,2013.50
673.896,1983.50
674.876,2005.25
675.856,1934.50
676.836,1925.50
677.816,1973.50
678.795,1937.50
679.775,1933.75
680.754,1950.25
681.734,1938.75
682.713,1877.50
683.692,1876.00
684.671,1940.50
685.650,1894.50
686.629,1886.75
687.607,1855.50
688.586,1864.25
689.564,1868.00
690.543,1814.25
691.523,1815.00
692.501,1849.50
693.479,1859.25
694.457,1797.50
695.435,1794.00
696.413,1771.75
697.390,1781.00
698.368,1804.00
699.345,1812.50
700.322,1760.50
701.300,1768.50
702.277,1739.50
703.254,1741.50
704.231,1749.75
705.207,1760.75
706.184,1752.75
707.161,1714.25
708.137,1740.75
709.113,1724.75
710.090,1779.25
711.068,1735.00
712.044,1695.75
713.020,1686.00
713.996,1731.00
714.971,1700.00
715.947,1721.50
716.922,1622.50
717.898,1648.25
718.873,1673.00
719.848,1682.50
720.823,1656.50
721.798,1689.00
722.773,1640.00
723.748,1666.50
724.723,1643.50
725.697,1606.50
726.672,1632.50
727.646,1595.50
728.622,1635.75
729.596,1600.25
730.570,1614.25
731.544,1642.50
732.518,1648.50
733.492,1646.00
734.466,1611.75
735.439,1607.50
736.413,1624.75
737.386,1571.25
738.359,1614.50
739.332,1609.75
740.305,1570.25
741.278,1557.00
742.251,1564.50
743.224,1595.75
744.196,1545.00
745.171,1553.00
746.143,1597.25
747.115,1567.00
748.087,1532.00
749.059,1538.25
750.031,1507.50
751.003,1557.50
751.975,1559.25
752.947,1522.25
753.918,1522.25
754.890,1497.50
755.861,1526.25
756.832,1524.75
757.803,1475.00
758.774,1477.00
759.747,1491.25
760.718,1506.25
761.689,1472.25
762.659,1486.75
763.630,1434.50
764.600,1467.00
765.570,1478.75
766.540,1454.00
767.510,1491.75
768.480,1493.75
769.450,1480.50
770.420,1412.00
771.390,1435.25
772.359,1444.50
773.329,1486.25
774.300,1429.25
775.269,1439.00
776.238,1414.00
777.207,1428.50
778.176,1435.25
779.145,1423.50
780.114,1415.75
781.083,1381.50
782.051,1404.50
783.019,1411.25
783.988,1404.75
784.956,1373.75
785.924,1361.50
786.894,1415.00
787.862,1413.75
788.830,1402.50
789.797,1342.75
790.765,1351.25
791.732,1363.75
792.700,1334.00
793.667,1367.75
794.634,1353.25
795.601,1383.25
796.568,1330.75
797.535,1337.50
798.502,1334.50
799.468,1380.75
800.437,1336.00
801.403,1366.00
802.370,1299.00
803.336,1303.50
804.302,1339.25
805.268,1305.50
806.234,1306.00
807.200,1298.00
808.166,1299.75
809.131,1347.25
810.097,1303.50
811.062,1302.75
812.027,1322.50
812.994,1283.00
813.960,1311.50
814.925,1295.75
815.889,1294.75
816.854,1302.50
817.819,1284.50
818.783,1301.00
819.748,1268.25
820.712,1280.75
821.677,1295.50
822.641,1236.25
823.605,1289.50
824.571,1300.00
825.534,1292.75
826.498,1256.50
827.462,1275.00
828.425,1257.50
829.389,1283.50
830.352,1269.00
831.315,1240.50
832.279,1289.25
833.242,1220.75
834.204,1266.50
835.167,1241.50
836.132,1288.25
837.095,1249.00
838.057,1249.00
839.020,1252.50
839.982,1252.25
840.944,1261.00
841.906,1241.50
842.868,1245.75
843.830,1184.75
844.792,1219.75
845.753,1261.25
846.715,1236.50
847.679,1237.25
848.640,1257.25
849.601,1233.75
850.562,1184.25
851.523,1267.25
852.484,1217.75
853.445,1249.25
854.406,1223.75
855.367,1191.75
856.327,1238.00
857.288,1228.50
858.248,1186.25
859.210,1212.00
860.170,1197.25
861.130,1193.75
862.090,1213.50
863.050,1229.75
864.010,1232.50
864.969,1182.00
865.929,1184.75
866.888,1220.25
867.848,1191.75
868.807,1198.00
869.766,1209.00
870.727,1147.75
871.686,1167.25
872.645,1181.25
873.604,1178.50
874.562,1149.50
875.521,1167.00
876.479,1220.25
877.437,1189.75
878.396,1201.75
879.354,1227.50
880.312,1162.75
881.270,1197.75
882.229,1199.25
883.187,1219.25
884.145,1214.00
885.102,1212.00
886.059,1219.75
887.017,1190.25
887.974,1247.00
888.931,1192.25
889.888,1239.50
890.845,1168.75
891.802,1197.00
892.758,1201.50
893.717,1213.75
894.673,1210.25
895.630,1214.25
896.586,1231.50
897.542,1212.25
898.498,1190.75
899.454,1197.50
900.410,1226.00
901.366,1207.00
902.321,1189.25
903.277,1214.00
904.232,1231.75
905.189,1237.00
906.145,1219.25
907.100,1259.00
908.055,1204.00
909.010,1219.75
909.965,1188.75
910.919,1237.25
911.874,1209.75
912.828,1245.50
913.783,1207.75
914.737,1250.00
915.693,1272.00
916.648,1236.25
917.602,1220.75
918.555,1264.25
919.509,1180.50
920.463,1174.75
921.417,1214.00
922.370,1205.75
923.324,1209.25
924.277,1229.50
925.230,1175.75
926.183,1234.50
927.138,1248.50
928.091,1205.50
929.044,1255.50
929.996,1226.25
930.949,1258.50
931.902,1247.50
932.854,1210.50
933.806,1224.75
934.758,1188.25
935.711,1234.75
936.663,1230.75
937.614,1241.50
938.568,1188.75
939.520,1217.75
940.471,1249.25
941.423,1249.50
942.374,1257.00
943.326,1229.75
944.277,1240.75
945.228,1219.00
946.179,1198.50
947.130,1209.00
948.080,1193.00
949.031,1217.75
949.984,1191.50
950.934,1243.50
951.884,1210.75
952.835,1209.00
953.785,1240.75
954.735,1195.75
955.685,1213.50
956.635,1193.75
957.585,1207.50
958.534,1167.25
959.484,1172.50
960.433,1173.25
961.383,1154.25
962.334,1209.75
963.283,1198.00
964.232,1219.00
965.181,1144.75
966.130,1185.00
967.079,1191.75
968.027,1218.50
968.976,1161.00
969.924,1167.75
970.873,1138.50
971.821,1184.00
972.769,1177.50
973.719,1177.50
974.667,1149.50
975.615,1153.75
976.562,1181.50
977.510,1186.25
978.458,1139.50
979.405,1167.50
980.352,1186.00
981.300,1124.50
982.247,1162.25
983.194,1172.50
984.141,1182.25
985.088,1150.00
986.036,1105.25
986.983,1178.25
987.930,1188.00
988.876,1171.00
989.822,1088.75
990.769,1160.75
991.715,1140.00
992.661,1128.25
993.607,1117.50
994.553,1185.00
995.498,1145.25
996.444,1130.00
997.389,1132.50
998.337,1167.75
999.282,1164.75
1000.227,1095.00
1001.173,1162.00
1002.118,1117.75
1003.062,1105.00
1004.007,1141.00
1004.952,1120.25
1005.897,1149.75
1006.841,1098.50
1007.786,1133.50
1008.730,1116.75
1009.674,1117.75
1010.618,1122.25
1011.564,1137.75
1012.508,1174.25
1013.452,1125.50
1014.396,1121.50
1015.339,1191.25
1016.283,1137.75
1017.226,1151.00
1018.170,1190.75
1019.113,1132.50
1020.056,1111.00
1020.999,1140.75
1021.942,1171.25
1022.885,1130.75
1023.828,1087.25
1024.770,1151.75
1025.715,1130.00
1026.657,1180.25
1027.600,1119.25
1028.542,1146.75
1029.484,1112.00
1030.426,1171.75
1031.368,1158.25
1032.310,1152.25
1033.251,1107.00
1034.193,1117.50
1035.135,1112.00
1036.076,1125.75
1037.017,1128.00
1037.959,1171.50
1038.900,1116.50
1039.843,1137.25
1040.784,1180.50
1041.725,1158.25
1042.665,1122.25
1043.606,1110.50
1044.547,1117.00
1045.487,1123.50
1046.427,1176.25
1047.368,1133.75
1048.308,1146.75
1049.248,1115.75
1050.188,1139.50
1051.128,1150.00
1052.067,1150.00
1053.007,1132.50
1053.947,1145.25
1054.886,1155.75
1055.827,1140.25
1056.766,1152.25
1057.706,1126.75
1058.645,1145.75
1059.584,1171.00
1060.522,1137.25
1061.461,1132.25
1062.400,1131.50
1063.338,1153.00
1064.277,1186.75
1065.215,1178.25
1066.154,1154.75
1067.092,1157.25
1068.030,1232.75
1068.968,1178.25
1069.906,1151.00
1070.843,1161.50
1071.781,1186.00
1072.720,1178.25
1073.658,1238.00
1074.595,1207.00
1075.533,1148.75
1076.470,1140.50
1077.407,1161.25
1078.344,1179.00
1079.281,1187.75
1080.217,1222.00
1081.154,1145.75
1082.091,1218.50
1083.027,1220.50
1083.964,1187.00
1084.900,1185.25
1085.836,1210.00
1086.772,1196.00
1087.708,1192.00
1088.644,1206.25
1089.580,1188.25
1090.515,1161.75
1091.451,1162.50
1092.388,1173.50
1093.324,1189.75
1094.259,1167.00
1095.194,1200.00
1096.129,1197.50
1097.064,1192.00
1097.999,1167.00
1098.934,1186.75
1099.869,1182.50
1100.803,1138.75
1101.738,1205.75
1102.672,1134.25
1103.607,1194.25
1104.541,1162.50
1105.475,1150.25
1106.409,1185.75
1107.343,1149.00
1108.277,1125.50
1109.210,1140.25
1110.144,1117.00
1111.078,1142.50
1112.011,1133.50
1112.944,1141.75
1113.878,1110.25
1114.811,1093.00
1115.744,1120.75
1116.678,1101.50
1117.611,1095.00
1118.544,1105.25
1119.477,1113.50
1120.409,1136.00
1121.342,1100.75
1122.274,1107.25
1123.206,1112.50
1124.138,1097.00
1125.070,1086.50
1126.002,1093.75
1126.934,1098.25
1127.866,1064.50
1128.798,1096.00
1129.729,1075.50
1130.661,1034.50
1131.592,1076.50
1132.523,1007.75
1133.454,1082.50
1134.385,1047.00
1135.317,1058.25
1136.247,1039.75
1137.178,1076.25
1138.109,1075.75
1139.039,1039.00
1139.970,1024.75
1140.900,1012.25
1141.831,1044.25
1142.761,1032.25
1143.691,1055.75
1144.621,1077.00
1145.551,1042.00
1146.480,1038.25
1147.410,1025.00
1148.340,1047.50
1149.269,1042.50
1150.199,1008.25
1151.128,1007.00
1152.057,1049.50
1152.979,1052.25
1153.898,1005.50
1154.819,1029.00
1155.739,1011.50
1156.658,1021.00
1157.579,996.00
1158.498,983.25
1159.419,994.25
1160.338,968.25
1161.256,979.50
1162.177,1026.25
1163.095,1003.00
1164.016,1018.25
1164.934,981.00
1165.852,1012.75
1166.772,1072.00
1167.690,1020.00
1168.610,986.75
1169.528,1023.75
1170.446,985.00
1171.365,995.25
1172.283,999.25
1173.202,1015.75
1174.120,995.75
1175.037,978.25
1175.956,973.00
1176.873,995.75
1177.792,981.75
1178.709,969.00
1179.626,1018.25
1180.544,990.25
1181.461,992.25
1182.379,1004.00
1183.296,1016.50
1184.212,1040.25
1185.130,1008.25
1186.046,938.50
1186.962,987.00
1187.880,981.25
1188.796,941.25
1189.714,997.00
1190.629,981.75
1191.545,975.50
1192.462,978.25
1193.378,999.75
1194.295,952.75
1195.210,971.50
1196.125,957.50
1197.042,969.00
1197.957,969.25
1198.872,959.00
1199.788,982.25
1200.703,958.50
1201.619,974.50
1202.534,996.00
1203.448,997.75
1204.364,1046.25
1205.278,957.50
1206.192,987.25
1207.108,979.50
1208.022,1004.75
1208.938,1022.75
1209.851,994.50
1210.765,970.00
1211.680,963.50
1212.594,941.50
1213.507,961.25
1214.422,984.50
1215.335,1004.75
1216.248,976.50
1217.163,974.25
1218.076,986.75
1218.990,1004.00
1219.903,1003.75
1220.816,948.50
1221.730,993.00
1222.642,988.00
1223.554,990.00
1224.469,1021.00
1225.380,980.00
1226.292,967.75
1227.206,980.25
1228.118,1035.50
1229.032,1030.50
1229.943,1020.25
1230.855,996.75
1231.768,1001.25
1232.679,1001.25
1233.590,971.75
1234.503,981.25
1235.414,1015.75
1236.325,998.00
1237.238,1016.25
1238.149,989.00
1239.059,991.00
1239.972,982.00
1240.882,1012.75
1241.793,1001.00
1242.705,974.25
1243.615,1029.25
1244.525,976.50
1245.437,986.25
1246.347,983.25
1247.259,1008.50
1248.168,1045.75
1249.078,1011.00
1249.989,1015.75
1250.899,1019.75
1251.808,1012.50
1252.719,1008.00
1253.628,1007.00
1254.537,1026.25
1255.448,1002.75
1256.357,995.75
1257.266,1035.50
1258.176,989.50
1259.085,1008.25
1259.993,991.25
1260.904,1053.50
1261.812,999.75
1262.720,1044.75
1263.630,972.75
1264.538,989.75
1265.446,1028.00
1266.356,1021.00
1267.263,990.75
1268.171,990.75
1269.080,1020.75
1269.988,1032.25
1270.895,1034.00
1271.804,1011.25
1272.711,1000.00
1273.619,1026.75
1274.527,1016.75
1275.434,1022.50
1276.341,1014.75
1277.248,969.50
1278.156,1070.75
1279.063,994.00
1279.969,988.00
1280.877,932.25
1281.783,965.75
1282.690,1008.75
1283.598,1009.25
1284.503,1021.00
1285.409,1007.00
1286.317,1034.00
1287.223,986.75
1288.128,988.00
1289.036,981.50
1289.941,951.50
1290.846,969.75
1291.751,977.25
1292.658,987.25
1293.563,962.75
1294.468,973.50
1295.375,939.25
1296.280,988.00
1297.184,976.75
1298.091,950.25
1298.995,980.75
1299.900,963.75
1300.806,944.00
1301.710,973.75
1302.614,977.25
1303.518,988.75
1304.424,1015.00
1305.327,954.50
1306.231,918.50
1307.137,935.00
1308.040,887.00
1308.943,940.50
1309.847,956.25
1310.752,956.50
1311.655,927.50
1312.558,944.75
1313.463,925.75
1314.366,979.75
1315.269,928.50
1316.171,911.50
1317.076,938.25
1317.978,879.25
1318.881,930.50
1319.785,947.50
1320.687,922.00
1321.589,932.75
1322.491,870.25
1323.395,899.00
1324.297,916.50
1325.198,899.50
1326.102,894.25
1327.004,928.00
1327.905,922.50
1328.806,926.75
1329.709,934.50
1330.611,881.00
1331.512,889.75
1332.413,852.25
1333.316,900.50
1334.216,890.75
1335.117,857.50
1336.020,857.75
1336.920,880.00
1337.821,856.50
1338.721,855.75
1339.623,872.25
1340.523,865.25
1341.423,905.75
1342.323,921.25
1343.225,910.25
1344.125,865.50
1345.025,848.00
1345.924,872.75
1346.826,877.00
1347.725,852.00
1348.624,854.00
1349.524,854.50
1350.425,840.00
1351.324,871.25
1352.223,854.50
1353.121,889.50
1354.022,835.50
1354.921,831.75
1355.819,795.00
1356.718,828.75
1357.618,836.75
1358.516,842.25
1359.415,851.25
1360.313,794.25
1361.213,849.00
1362.111,830.00
1363.008,813.00
1363.906,819.25
1364.806,825.75
1365.703,850.25
1366.601,788.25
1367.498,827.25
1368.397,811.00
1369.295,784.75
1370.192,752.75
1371.089,798.00
1371.987,815.25
1372.884,814.25
1373.781,825.25
1374.678,826.25
1375.574,783.25
1376.473,781.75
1377.369,786.00
1378.265,784.25
1379.161,816.00
1380.059,767.75
1380.955,778.00
1381.851,757.75
1382.747,767.00
1383.643,782.00
1384.540,780.25
1385.436,761.50
1386.331,800.75
1387.227,755.50
1388.124,780.25
1389.019,751.50
1389.914,806.25
1390.809,775.25
1391.704,788.25
1392.601,757.50
1393.495,749.75
1394.390,694.00
1395.285,728.75
1396.179,742.00
1397.075,784.75
1397.969,773.00
1398.864,741.75
1399.758,722.75
1400.652,754.75
1401.547,735.75
1402.441,732.50
1403.335,718.25
1404.229,703.00
1405.122,766.00
1406.017,773.75
1406.911,714.75
1407.804,732.50
1408.697,708.50
1409.590,746.75
1410.485,722.75
1411.378,730.00
1412.271,733.50
1413.163,764.50
1414.056,719.25
1414.949,739.00
1415.843,752.25
1416.735,737.25
1417.627,718.25
1418.520,760.25
1419.412,743.50
1420.306,700.25
1421.197,767.00
1422.089,720.75
1422.981,697.00
1423.873,697.25
1424.764,722.25
1425.657,724.25
1426.549,715.75
1427.440,736.25
1428.331,698.00
1429.222,729.50
1430.113,698.75
1431.006,708.00
1431.897,673.75
1432.787,701.50
1433.678,690.50
1434.568,703.25
1435.459,708.00
1436.351,757.25
1437.241,706.25
1438.131,721.75
1439.021,700.00
1439.911,716.50
1440.801,703.00
1441.693,733.50
1442.583,714.75
1443.472,714.00
1444.362,756.25
1445.251,727.75
1446.140,667.25
1447.030,674.00
1447.921,700.50
1448.810,724.00
1449.699,686.75
1450.588,709.50
1451.476,703.50
1452.365,716.50
1453.254,687.50
1454.144,711.75
1455.032,707.00
1455.921,688.50
1456.809,712.50
1457.697,671.00
1458.585,670.75
1459.473,638.25
1460.361,650.25
1461.251,659.25
1462.138,658.25
1463.026,639.75
1463.913,664.75
1464.801,667.00
1465.688,653.75
1466.575,682.00
1467.463,676.75
1468.351,701.00
1469.238,670.50
1470.125,651.75
1471.012,657.50
1471.899,677.25
1472.785,698.75
1473.672,610.50
1474.558,649.75
1475.446,670.75
1476.333,676.75
1477.219,685.75
1478.105,660.25
1478.991,621.25
1479.877,679.25
1480.762,610.50
1481.648,648.00
1482.534,643.00
1483.419,632.75
1484.307,642.75
1485.192,633.25
1486.077,656.00
1486.962,636.75
1487.847,656.00
1488.732,642.00
1489.617,647.00
1490.502,659.50
1491.387,672.00
1492.271,614.25
1493.156,685.00
1494.042,651.25
1494.927,640.50
1495.811,626.50
1496.695,638.50
1497.579,655.75
1498.463,604.25
1499.347,616.25
1500.231,638.00
1501.114,618.00
1501.998,629.50
1502.881,667.50
1503.765,613.00
1504.648,634.50
1505.533,633.75
1506.417,646.25
1507.300,581.75
1508.183,622.75
1509.066,622.50
1509.948,629.25
1510.831,635.25
1511.714,639.00
1512.596,581.25
1513.479,600.25
1514.361,664.25
1515.243,595.75
1516.125,615.50
1517.008,630.25
1517.890,630.75
1518.771,643.00
1519.655,661.50
1520.537,630.50
1521.419,647.75
1522.300,649.50
1523.182,611.50
1524.063,631.75
1524.944,645.00
1525.825,597.00
1526.707,612.25
1527.588,623.75
1528.468,581.75
1529.349,600.50
1530.230,635.00
1531.111,625.25
1531.991,606.75
1532.872,591.25
1533.752,603.75
1534.632,546.50
1535.513,565.00
1536.393,588.00
1537.273,594.25
1538.153,551.50
1539.032,602.75
1539.912,625.00
1540.792,595.50
1541.672,612.25
1542.551,603.50
1543.430,617.25
1544.310,587.25
1545.189,612.00
1546.068,611.00
1546.947,618.25
1547.826,621.00
1548.705,560.25
1549.584,603.50
1550.462,597.75
1551.341,609.25
1552.219,573.50
1553.098,593.50
1553.976,566.50
1554.854,593.25
1555.733,598.25
1556.611,602.50
1557.489,598.25
1558.367,605.75
1559.244,539.75
1560.122,608.25
1561.000,595.00
1561.877,598.25
1562.755,584.75
1563.632,533.25
1564.509,548.25
1565.386,610.50
1566.264,574.50
1567.141,595.75
1568.017,578.50
1568.894,599.25
1569.771,580.75
1570.648,566.25
1571.524,591.75
1572.401,560.50
1573.277,545.00
1574.153,543.25
1575.029,606.00
1575.906,592.00
1576.781,574.50
1577.657,582.25
1578.533,552.00
1579.409,524.75
1580.285,610.50
1581.160,525.75
1582.036,574.00
1582.911,592.50
1583.786,530.00
1584.662,580.75
1585.537,587.75
1586.412,564.25
1587.287,584.75
1588.160,570.75
1589.035,550.00
1589.909,585.75
1590.784,547.00
1591.658,546.75
1592.533,542.00
1593.407,577.25
1594.281,582.25
1595.155,600.50
1596.029,554.50
1596.903,567.25
1597.777,513.50
1598.651,542.00
1599.525,574.00
1600.398,575.50
1601.272,533.25
1602.144,537.50
1603.017,549.25
1603.890,548.75
1604.763,545.00
1605.636,582.75
1606.509,559.50
1607.382,565.75
1608.255,536.00
1609.128,552.75
1610.000,572.50
1610.873,569.50
1611.746,535.00
1612.616,556.50
1613.488,551.25
1614.361,533.00
1615.233,591.75
1616.105,548.00
1616.977,538.50
1617.849,599.75
1618.720,543.25
1619.592,549.00
1620.464,539.25
1621.333,548.25
1622.205,533.00
1623.076,559.50
1623.947,572.75
1624.818,548.75
1625.689,544.75
1626.560,551.75
1627.431,529.50
1628.302,521.75
1629.171,543.00
1630.042,514.00
1630.912,563.50
1631.782,577.50
1632.653,551.00
1633.523,552.50
1634.393,591.00
1635.263,548.75
1636.131,510.50
1637.001,596.25
1637.871,529.75
1638.741,556.50
1639.611,536.50
1640.480,545.50
1641.350,520.00
1642.219,542.75
1643.087,484.75
1643.956,538.50
1644.825,552.75
1645.694,519.00
1646.563,584.25
1647.432,531.00
1648.299,494.75
1649.167,546.25
1650.036,517.25
1650.904,563.75
1651.773,500.75
1652.641,538.25
1653.509,510.75
1654.376,492.25
1655.244,532.75
1656.112,509.25
1656.980,524.50
1657.847,504.75
1658.715,538.00
1659.581,586.25
1660.448,536.75
1661.316,512.50
1662.183,535.75
1663.051,568.75
1663.918,537.75
1664.783,550.00
1665.650,563.25
1666.517,569.00
1667.384,513.00
1668.251,499.00
1669.115,572.50
1669.982,526.75
1670.849,508.25
1671.715,526.25
1672.581,507.00
1673.446,484.50
1674.312,513.00
1675.178,553.75
1676.044,497.75
1676.910,516.25
1677.774,489.00
1678.639,512.25
1679.505,535.00
1680.370,519.00
1681.236,508.00
1682.099,537.75
1682.965,504.50
1683.830,517.25
1684.695,484.50
1685.560,517.75
1686.423,494.75
1687.288,495.75
1688.153,512.75
1689.017,532.25
1689.880,480.25
1690.745,550.25
1691.609,513.00
1692.473,469.00
1693.338,524.00
1694.200,506.00
1695.064,504.50
1695.928,514.50
1696.792,505.75
1697.654,517.25
1698.517,548.25
1699.381,545.25
1700.245,491.00
1701.106,490.75
1701.969,497.25
1702.833,510.00
1703.696,503.00
1704.557,548.25
1705.420,546.75
1706.283,520.50
1707.146,455.00
1708.007,525.50
1708.870,520.75
1709.732,498.25
1710.595,511.75
1711.455,511.50
1712.318,496.50
1713.180,477.75
1714.040,455.00
1714.902,493.00
1715.764,474.75
1716.626,514.50
1717.486,536.50
1718.348,536.50
1719.209,464.75
1720.071,457.75
1720.930,519.25
1721.792,486.75
1722.653,486.50
1723.512,533.00
1724.374,509.25
1725.234,512.00
1726.095,553.25
1726.954,468.00
1727.815,488.50
1728.676,489.75
1729.535,494.50
1730.395,542.25
1731.256,512.50
1732.114,540.75
1732.974,497.25
1733.834,515.00
1734.693,520.00
1735.553,497.25
1736.413,531.00
1737.272,516.25
1738.130,504.75
1738.990,409.50
1739.849,535.75
1740.707,528.00
1741.566,486.25
1742.426,525.00
1743.283,532.75
1744.142,499.25
1745.001,489.00
1745.858,515.00
1746.717,478.25
1747.576,465.75
1748.433,507.00
1749.292,487.25
1750.150,478.00
1751.007,504.00
1751.865,517.00
1752.723,459.50
1753.579,503.25
1754.438,496.25
1755.296,478.50
1756.152,510.25
1757.010,548.50
1757.865,484.00
1758.723,508.00
1759.581,480.25
1760.436,473.00
1761.294,511.75
1762.151,495.25
1763.006,485.75
1763.864,473.75
1764.721,478.50
1765.576,509.00
1766.433,510.25
1767.288,492.50
1768.144,509.75
1769.001,466.50
1769.856,485.50
1770.712,479.50
1771.568,481.50
1772.423,500.00
1773.279,514.50
1774.133,480.00
1774.989,497.75
1775.845,542.75
1776.699,490.50
1777.555,485.50
1778.409,476.25
1779.265,470.00
1780.120,490.50
1780.974,437.00
1781.829,490.50
1782.682,492.25
1783.538,483.25
1784.393,483.25
1785.246,507.50
1786.101,502.75
1786.954,482.75
1787.808,480.75
1788.661,485.75
1789.516,470.50
1790.370,484.75
1791.223,470.75
1792.077,496.00
1792.930,469.75
1793.784,496.25
1794.636,511.00
1795.490,469.75
1796.344,494.50
1797.196,450.25
1798.049,490.25
1798.901,448.50
1799.755,500.50
1800.606,484.25
1801.460,485.00
1802.311,475.50
1803.165,451.25
1804.018,504.25
1804.869,460.25
1805.722,506.50
1806.573,478.25
1807.426,515.00
1808.276,488.25
1809.129,443.00
1809.980,466.25
1810.832,454.75
1811.683,452.25
1812.535,451.50
1813.385,503.75
1814.237,494.50
1815.089,506.75
1815.940,445.75
1816.791,449.25
1817.641,505.25
1818.493,490.50
1819.343,483.00
1820.194,479.75
1821.044,441.00
1821.895,431.75
1822.745,459.75
1823.596,478.50
1824.445,515.00
1825.296,499.50
1826.145,472.75
1826.996,519.00
1827.845,448.25
1828.695,426.75
1829.544,438.25
1830.395,481.25
1831.243,504.50
1832.094,483.50
1832.942,435.00
1833.792,491.00
1834.640,467.25
1835.490,454.50
1836.338,487.25
1837.186,478.50
1838.036,476.75
1838.884,480.00
1839.733,464.50
1840.581,469.25
1841.430,489.25
1842.278,485.00
1843.127,496.00
1843.974,437.50
1844.823,469.00
1845.671,456.00
1846.519,472.50
1847.366,509.25
1848.213,508.50
1849.062,447.25
1849.909,463.50
1850.757,477.75
1851.604,459.50
1852.452,456.50
1853.298,464.25
1854.146,489.50
1854.993,477.00
1855.839,520.50
1856.687,477.00
1857.532,450.25
1858.380,469.50
1859.226,491.25
1860.073,508.75
1860.919,479.00
1861.765,437.00
1862.612,455.00
1863.457,470.00
1864.304,487.00
1865.150,468.50
1865.995,455.50
1866.842,477.50
1867.686,493.50
1868.533,421.25
1869.378,495.50
1870.223,474.25
1871.069,443.75
1871.914,449.75
1872.760,473.25
1873.604,455.75
1874.448,473.00
1875.294,501.25
1876.139,426.25
1876.984,484.50
1877.828,462.75
1878.672,461.50
1879.518,437.00
1880.361,468.50
1881.205,480.75
1882.050,438.00
1882.894,487.50
1883.739,486.25
1884.582,448.50
1885.425,429.50
1886.270,455.75
1887.113,456.00
1887.956,468.00
1888.801,490.25
1889.644,465.75
1890.486,474.00
1891.331,409.50
1892.173,444.50
1893.017,464.75
1893.860,455.25
1894.702,416.25
1895.546,484.75
1896.388,425.50
1897.230,440.50
1898.074,436.25
1898.916,451.75
1899.757,502.00
1900.601,471.75
1901.443,472.25
1902.284,458.75
1903.125,438.25
1903.969,480.75
1904.810,440.00
1905.651,468.25
1906.494,457.75
1907.335,462.75
1908.176,468.75
1909.018,419.25
1909.859,457.00
1910.700,470.00
1911.542,458.75
1912.383,455.50
1913.223,427.00
1914.064,473.50
1914.906,454.75
1915.746,478.25
1916.586,461.25
1917.428,434.75
1918.268,430.25
1919.107,460.00
1919.947,475.00
1920.789,423.75
1921.628,476.75
1922.468,417.25
1923.309,473.50
1924.148,449.00
1924.988,453.50
1925.827,454.00
1926.667,477.75
1927.507,413.25
1928.345,446.25
1929.184,489.00
1930.025,496.50
1930.864,423.25
1931.702,406.00
1932.541,463.25
1933.381,423.75
1934.219,457.50
1935.057,450.25
1935.896,448.50
1936.735,453.25
1937.573,461.00
1938.411,416.25
1939.249,418.00
1940.089,453.50
1940.927,444.75
1941.764,429.25
1942.602,445.75
1943.439,428.50
1944.278,509.25
1945.115,462.25
1945.953,444.00
1946.790,446.75
1947.628,450.50
1948.465,467.25
1949.302,456.50
1950.139,427.50
1950.976,474.75
1951.814,417.75
1952.651,455.00
1953.487,445.00
1954.323,457.00
1955.160,472.50
1955.998,420.75
1956.834,407.50
1957.670,451.75
1958.506,429.75
1959.342,450.75
1960.177,454.75
1961.015,437.25
1961.850,439.00
1962.686,457.00
1963.521,467.00
1964.357,485.50
1965.192,455.25
1966.029,414.75
1966.864,440.50
1967.699,471.00
1968.534,426.25
1969.369,438.75
1970.204,418.50
1971.040,443.75
1971.875,450.50
1972.709,474.75
1973.544,437.75
1974.378,441.50
1975.212,490.75
1976.047,430.25
1976.882,457.75
1977.716,395.75
1978.550,459.50
1979.384,470.00
1980.218,462.00
1981.052,453.75
1981.885,452.75
1982.719,428.50
1983.554,455.25
1984.388,451.25
1985.221,432.00
1986.054,410.00
1986.887,456.00
1987.720,415.00
1988.553,432.00
1989.386,441.75
1990.219,432.75
1991.053,450.50
1991.886,441.50
1992.719,434.75
1993.551,471.25
1994.383,459.25
1995.216,402.25
1996.048,452.50
1996.880,418.00
1997.712,419.00
1998.544,387.75
1999.376,438.50
2000.208,440.50
2001.040,458.25
2001.873,442.25
2002.705,458.75
2003.536,466.25
2004.367,476.50
2005.199,439.00
2006.030,448.75
2006.861,406.00
2007.692,458.00
2008.523,434.25
2009.354,450.50
2010.185,417.25
2011.016,493.50
2011.846,431.50
2012.677,451.75
2013.507,472.75
2014.338,426.25
2015.168,433.50
2015.999,454.50
2016.829,417.25
2017.659,433.50
2018.489,413.00
2019.319,465.00
2020.149,472.00
2020.980,450.50
2021.810,447.75
2022.639,426.25
2023.469,465.75
2024.298,431.50
2025.128,454.25
2025.957,441.25
2026.786,433.25
2027.615,476.75
2028.444,480.25
2029.273,453.00
2030.102,416.75
2030.931,413.00
2031.758,487.50
2032.586,458.75
2033.415,432.75
2034.243,425.25
2035.072,475.00
2035.900,478.25
2036.728,443.75
2037.556,481.75
2038.385,493.75
2039.213,467.25
2040.040,424.25
2040.868,426.75
2041.696,473.25
2042.524,447.00
2043.351,425.00
2044.179,468.00
2045.006,465.00
2045.006,465.00

Max Intensity Wave.,217.871
Max Intensity Data,5107.50
Min Intensity Wave.,1998.544
Min Intensity Data,387.75
FWHM Wave.,404.885
FWHM Value,1.79
Pressure Wave.,684.671
Pressure Value [GPa],-24.91530
G/D Ratio,0.61731
G/D Gband Wave.,1547.425
G/D Gband Intensity,627.62
G/D Dband Wave.,1304.244
G/D Dband Intensity,1016.71

<< BACKGROUND SPECTRUM >>
Wave[dcm-1],No150
146.591,2288.00
147.626,2187.00
148.664,2104.00
149.699,2571.00
150.737,2268.00
151.772,2437.00
152.809,2426.00
153.846,2325.00
154.881,2451.00
155.918,2013.00
156.953,2351.00
157.989,2660.00
159.026,2519.00
160.060,2690.00
161.096,2902.00
162.130,2543.00
163.167,2629.00
164.200,2514.00
165.236,2708.00
166.272,2692.00
167.305,2315.00
168.341,2606.00
169.374,2865.00
170.409,2833.00
171.445,2793.00
172.477,2570.00
173.512,2433.00
174.545,2718.00
175.580,2918.00
176.614,3126.00
177.647,2864.00
178.681,3055.00
179.713,3380.00
180.747,2872.00
181.781,2769.00
182.813,3068.00
183.847,3119.00
184.878,2793.00
185.912,3093.00
186.945,3198.00
187.976,3117.00
189.010,2827.00
190.043,2891.00
191.073,2970.00
192.106,2816.00
193.137,3275.00
194.170,2567.00
195.202,2982.00
196.232,2757.00
197.265,3077.00
198.297,3151.00
199.327,2815.00
200.359,3004.00
201.388,3390.00
202.420,2962.00
203.452,3163.00
204.481,2722.00
205.512,3377.00
206.544,3128.00
207.573,3124.00
208.604,3502.00
209.635,3584.00
210.663,3006.00
211.694,3024.00
212.725,2941.00
213.753,2844.00
214.783,3500.00
215.813,3329.00
216.841,3049.00
217.871,3167.00
218.899,2993.00
219.929,3181.00
220.959,2938.00
221.986,3211.00
223.016,2819.00
224.045,3178.00
225.072,3163.00
226.101,3292.00
227.130,3335.00
228.157,2890.00
229.185,2376.00
230.214,3258.00
231.241,2936.00
232.269,2503.00
233.297,2721.00
234.323,3297.00
235.351,2860.00
236.379,3168.00
237.407,2802.00
238.433,3022.00
239.460,3211.00
240.488,3165.00
241.513,3296.00
242.540,3173.00
243.568,3285.00
244.592,3266.00
245.619,3247.00
246.646,2988.00
247.671,3042.00
248.697,2863.00
249.724,3093.00
250.748,3042.00
251.774,3076.00
252.801,3369.00
253.827,3159.00
254.850,3147.00
255.876,2768.00
256.902,3200.00
257.925,3055.00
258.951,2802.00
259.976,2826.00
260.999,3136.00
262.024,2853.00
263.049,3699.00
264.074,3145.00
265.097,3081.00
266.122,3133.00
267.146,3034.00
268.168,3247.00
269.193,2891.00
270.217,3307.00
271.241,2755.00
272.263,2948.00
273.287,3198.00
274.311,2827.00
275.332,3346.00
276.356,2915.00
277.379,3184.00
278.402,3176.00
279.424,3003.00
280.447,2928.00
281.470,2807.00
282.492,3152.00
283.513,2972.00
284.536,3182.00
285.558,3221.00
286.581,3203.00
287.601,2932.00
288.623,2825.00
289.645,3129.00
290.665,3158.00
291.687,3203.00
292.709,3184.00
293.730,3470.00
294.750,2931.00
295.771,2776.00
296.792,3134.00
297.813,2932.00
298.832,3081.00
299.853,2798.00
300.874,3029.00
301.895,3041.00
302.913,3057.00
303.934,3370.00
304.954,3089.00
305.975,3222.00
306.993,2798.00
308.013,3190.00
309.033,3061.00
310.052,3019.00
311.072,2948.00
312.090,3093.00
313.109,3360.00
314.129,3498.00
315.148,3087.00
316.165,3073.00
317.184,3318.00
318.203,2788.00
319.222,2812.00
320.238,3162.00
321.257,2875.00
322.275,2737.00
323.294,3013.00
324.312,3185.00
325.328,3340.00
326.346,3363.00
327.364,3319.00
328.382,3230.00
329.397,3154.00
330.415,3341.00
331.432,3279.00
332.450,3299.00
333.467,3544.00
334.482,2653.00
335.499,3435.00
336.516,2927.00
337.533,2619.00
338.547,2884.00
339.564,2878.00
340.580,3119.00
341.597,3018.00
342.613,3523.00
343.627,3028.00
344.643,3109.00
345.659,3134.00
346.675,3076.00
347.690,2935.00
348.704,3140.00
349.719,2978.00
350.735,2820.00
351.750,3228.00
352.765,3050.00
353.778,3049.00
354.793,3229.00
355.808,2864.00
356.822,3229.00
357.837,2737.00
358.851,3319.00
359.864,2975.00
360.878,2797.00
361.892,3019.00
362.906,3227.00
363.920,2634.00
364.932,3178.00
365.945,3163.00
366.959,3095.00
367.972,3014.00
368.986,2744.00
369.999,3469.00
371.010,2883.00
372.023,3427.00
373.036,3049.00
374.049,3460.00
375.061,3154.00
376.072,3022.00
377.084,2907.00
378.097,2727.00
379.109,3272.00
380.121,3025.00
381.133,2760.00
382.143,3170.00
383.155,2775.00
384.166,2952.00
385.178,3182.00
386.189,3257.00
387.201,2724.00
388.212,2954.00
389.221,3000.00
390.232,3101.00
391.243,2990.00
392.254,3108.00
393.264,2872.00
394.275,3317.00
395.283,3230.00
396.294,3704.00
397.304,3585.00
398.314,3188.00
399.324,3115.00
400.334,2732.00
401.344,3193.00
402.351,2731.00
403.361,3264.00
404.370,3010.00
405.380,2913.00
406.389,3427.00
407.398,3227.00
408.407,3169.00
409.414,3764.00
410.423,3362.00
411.431,2807.00
412.440,2739.00
413.448,3395.00
414.457,2936.00
415.465,2913.00
416.471,2950.00
417.479,3067.00
418.487,2898.00
419.495,3392.00
420.503,3154.00
421.510,2661.00
422.518,3206.00
423.525,3253.00
424.530,3449.00
425.537,2941.00
426.544,3339.00
427.551,2901.00
428.558,3654.00
429.565,3494.00
430.571,2935.00
431.578,2994.00
432.582,2950.00
433.588,3017.00
434.595,2689.00
435.601,3371.00
436.607,3309.00
437.612,2805.00
438.618,3375.00
439.624,3030.00
440.627,2983.00
441.633,3186.00
442.638,3646.00
443.643,3162.00
444.648,3085.00
445.653,3255.00
446.658,2944.00
447.663,3052.00
448.667,2945.00
449.672,2974.00
450.674,2982.00
451.678,2761.00
452.682,2920.00
453.687,2875.00
454.690,3708.00
455.694,3312.00
456.698,2630.00
457.702,2729.00
458.705,2850.00
459.709,2892.00
460.710,2941.00
461.713,3088.00
462.716,3106.00
463.719,3089.00
464.722,3269.00
465.725,3046.00
466.727,2892.00
467.730,3056.00
468.732,2795.00
469.735,3334.00
470.737,2984.00
471.737,2908.00
472.739,2937.00
473.741,2850.00
474.742,3093.00
475.744,3212.00
476.746,3084.00
477.747,2998.00
478.748,3204.00
479.750,2959.00
480.751,3093.00
481.752,3825.00
482.753,3149.00
483.751,3620.00
484.752,2666.00
485.753,3039.00
486.753,2927.00
487.753,3067.00
488.754,3505.00
489.754,2809.00
490.754,3370.00
491.754,3162.00
492.754,2726.00
493.753,3102.00
494.753,2951.00
495.752,3409.00
496.752,3093.00
497.749,3033.00
498.748,2884.00
499.747,3483.00
500.746,3142.00
501.745,2859.00
502.744,2810.00
503.742,3353.00
504.741,3019.00
505.739,2524.00
506.737,2987.00
507.735,3221.00
508.734,3435.00
509.732,3214.00
510.729,3365.00
511.727,2967.00
512.725,2970.00
513.720,2827.00
514.718,3309.00
515.715,2743.00
516.712,2650.00
517.709,3064.00
518.706,2970.00
519.703,3094.00
520.700,3266.00
521.696,3444.00
522.693,2948.00
523.689,2909.00
524.686,3204.00
525.682,2837.00
526.678,3529.00
527.674,2945.00
528.670,2635.00
529.666,3565.00
530.661,3534.00
531.657,3207.00
532.652,3235.00
533.648,3066.00
534.641,3258.00
535.636,3125.00
536.631,3186.00
537.626,3159.00
538.621,2781.00
539.616,2640.00
540.610,2575.00
541.605,3048.00
542.599,3095.00
543.593,3034.00
544.587,3965.00
545.581,2870.00
546.575,3097.00
547.569,3058.00
548.563,2732.00
549.557,2662.00
550.550,2808.00
551.543,2790.00
552.537,3216.00
553.530,2824.00
554.523,2800.00
555.516,3189.00
556.509,3024.00
557.502,2704.00
558.494,3244.00
559.487,2989.00
560.479,3270.00
561.472,3297.00
562.464,3185.00
563.456,3356.00
564.448,2978.00
565.440,3037.00
566.432,3427.00
567.423,2934.00
568.415,2932.00
569.404,3173.00
570.396,2855.00
571.387,3198.00
572.378,3076.00
573.369,4020.00
574.360,3775.00
575.351,3015.00
576.341,2885.00
577.332,2912.00
578.323,2744.00
579.313,2966.00
580.303,3290.00
581.293,3175.00
582.283,3045.00
583.273,3165.00
584.263,3049.00
585.253,3160.00
586.243,3223.00
587.232,2719.00
588.222,3055.00
589.211,3206.00
590.200,3113.00
591.189,2955.00
592.178,3023.00
593.167,3482.00
594.156,3325.00
595.145,2935.00
596.133,3499.00
597.122,3166.00
598.110,3236.00
599.098,3107.00
600.086,3066.00
601.074,3210.00
602.062,2940.00
603.050,2809.00
604.038,3171.00
605.025,2841.00
606.013,3281.00
607.000,3417.00
607.987,3095.00
608.975,3143.00
609.962,2834.00
610.949,3187.00
611.936,3307.00
612.922,3258.00
613.909,2766.00
614.895,3409.00
615.882,2874.00
616.868,3070.00
617.854,2796.00
618.841,3072.00
619.826,3158.00
620.812,3024.00
621.798,2857.00
622.784,3205.00
623.769,3164.00
624.755,2728.00
625.740,3128.00
626.725,2759.00
627.711,2938.00
628.698,3116.00
629.683,2853.00
630.667,3228.00
631.652,2786.00
632.637,3005.00
633.621,3228.00
634.606,2987.00
635.590,3177.00
636.574,3020.00
637.558,3150.00
638.542,3072.00
639.526,2870.00
640.510,2671.00
641.493,3077.00
642.477,3061.00
643.460,2724.00
644.444,3292.00
645.427,3370.00
646.410,2698.00
647.393,2986.00
648.376,3085.00
649.359,2945.00
650.341,3141.00
651.324,3105.00
652.307,3132.00
653.289,2994.00
654.271,2919.00
655.253,2935.00
656.235,3203.00
657.217,3261.00
658.199,2716.00
659.181,2807.00
660.163,3019.00
661.144,2855.00
662.126,2950.00
663.107,2792.00
664.088,4802.00
665.069,3310.00
666.050,2878.00
667.033,2748.00
668.014,3037.00
668.995,2609.00
669.975,3041.00
670.956,3044.00
671.936,3168.00
672.916,2991.00
673.896,3178.00
674.876,2970.00
675.856,2933.00
676.836,2809.00
677.816,2315.00
678.795,2897.00
679.775,2737.00
680.754,3063.00
681.734,3183.00
682.713,3234.00
683.692,2855.00
684.671,2659.00
685.650,2810.00
686.629,2878.00
687.607,2816.00
688.586,2815.00
689.564,2883.00
690.543,3349.00
691.523,2420.00
692.501,2853.00
693.479,2955.00
694.457,2862.00
695.435,2938.00
696.413,2712.00
697.390,2550.00
698.368,2703.00
699.345,3121.00
700.322,2980.00
701.300,3117.00
702.277,3129.00
703.254,3326.00
704.231,2599.00
705.207,3001.00
706.184,2818.00
707.161,2730.00
708.137,2897.00
709.113,2818.00
710.090,2807.00
711.068,2632.00
712.044,2673.00
713.020,2919.00
713.996,2616.00
714.971,2831.00
715.947,2848.00
716.922,2878.00
717.898,2791.00
718.873,2925.00
719.848,2759.00
720.823,2760.00
721.798,3004.00
722.773,2787.00
723.748,2522.00
724.723,3035.00
725.697,2937.00
726.672,2784.00
727.646,2558.00
728.622,3025.00
729.596,2654.00
730.570,2795.00
731.544,3100.00
732.518,3288.00
733.492,2838.00
734.466,2928.00
735.439,3043.00
736.413,3124.00
737.386,2520.00
738.359,2448.00
739.332,2576.00
740.305,2891.00
741.278,3365.00
742.251,2984.00
743.224,2737.00
744.196,2581.00
745.171,3199.00
746.143,3042.00
747.115,2801.00
748.087,2782.00
749.059,3134.00
750.031,2947.00
751.003,3753.00
751.975,3243.00
752.947,2725.00
753.918,3128.00
754.890,2611.00
755.861,2782.00
756.832,3055.00
757.803,2878.00
758.774,2885.00
759.747,2619.00
760.718,3221.00
761.689,2782.00
762.659,2632.00
763.630,3222.00
764.600,2606.00
765.570,3102.00
766.540,3181.00
767.510,2972.00
768.480,3076.00
769.450,2741.00
770.420,2905.00
771.390,2686.00
772.359,2808.00
773.329,2684.00
774.300,2574.00
775.269,2770.00
776.238,3044.00
777.207,3196.00
778.176,2553.00
779.145,2836.00
780.114,2725.00
781.083,2613.00
782.051,2785.00
783.019,2711.00
783.988,3121.00
784.956,2887.00
785.924,3058.00
786.894,2890.00
787.862,2714.00
788.830,3163.00
789.797,2699.00
790.765,2656.00
791.732,2812.00
792.700,2712.00
793.667,2622.00
794.634,2810.00
795.601,2773.00
796.568,2853.00
797.535,2857.00
798.502,3488.00
799.468,2932.00
800.437,2414.00
801.403,2659.00
802.370,3362.00
803.336,3069.00
804.302,2889.00
805.268,2488.00
806.234,2599.00
807.200,2761.00
808.166,2830.00
809.131,2587.00
810.097,3028.00
811.062,3731.00
812.027,3050.00
812.994,2648.00
813.960,2635.00
814.925,2985.00
815.889,2555.00
816.854,3052.00
817.819,2688.00
818.783,2754.00
819.748,3142.00
820.712,2762.00
821.677,2656.00
822.641,2781.00
823.605,2753.00
824.571,3161.00
825.534,2777.00
826.498,2724.00
827.462,2847.00
828.425,2667.00
829.389,3091.00
830.352,2863.00
831.315,2965.00
832.279,2510.00
833.242,2831.00
834.204,2674.00
835.167,2702.00
836.132,3062.00
837.095,2569.00
838.057,2726.00
839.020,2816.00
839.982,2861.00
840.944,2697.00
841.906,2647.00
842.868,2980.00
843.830,2604.00
844.792,3122.00
845.753,2707.00
846.715,2462.00
847.679,2620.00
848.640,2629.00
849.601,2792.00
850.562,3319.00
851.523,2737.00
852.484,2512.00
853.445,3031.00
854.406,2761.00
855.367,2778.00
856.327,3074.00
857.288,2525.00
858.248,2739.00
859.210,2727.00
860.170,2568.00
861.130,3061.00
862.090,2458.00
863.050,2643.00
864.010,2699.00
864.969,2960.00
865.929,2631.00
866.888,2532.00
867.848,2871.00
868.807,2690.00
869.766,2880.00
870.727,2798.00
871.686,3073.00
872.645,3058.00
873.604,3361.00
874.562,2845.00
875.521,2856.00
876.479,3386.00
877.437,2641.00
878.396,2622.00
879.354,3175.00
880.312,2668.00
881.270,2704.00
882.229,3167.00
883.187,2640.00
884.145,2695.00
885.102,2953.00
886.059,2869.00
887.017,2923.00
887.974,2941.00
888.931,3110.00
889.888,2527.00
890.845,2486.00
891.802,2374.00
892.758,2666.00
893.717,2453.00
894.673,2571.00
895.630,2652.00
896.586,2888.00
897.542,2709.00
898.498,2566.00
899.454,2899.00
900.410,2704.00
901.366,2700.00
902.321,3794.00
903.277,2708.00
904.232,2775.00
905.189,2501.00
906.145,2680.00
907.100,2212.00
908.055,2773.00
909.010,2938.00
909.965,2374.00
910.919,2821.00
911.874,2604.00
912.828,2775.00
913.783,2825.00
914.737,2341.00
915.693,2762.00
916.648,2908.00
917.602,2979.00
918.555,2794.00
919.509,2899.00
920.463,2836.00
921.417,2800.00
922.370,2610.00
923.324,2728.00
924.277,2727.00
925.230,2829.00
926.183,2413.00
927.138,2716.00
928.091,3005.00
929.044,2839.00
929.996,2671.00
930.949,2646.00
931.902,2849.00
932.854,2890.00
933.806,2635.00
934.758,3019.00
935.711,3017.00
936.663,2795.00
937.614,2813.00
938.568,2795.00
939.520,2430.00
940.471,2722.00
941.423,2783.00
942.374,2915.00
943.326,2782.00
944.277,2620.00
945.228,2868.00
946.179,2731.00
947.130,3091.00
948.080,2720.00
949.031,2581.00
949.984,2741.00
950.934,2707.00
951.884,2495.00
952.835,2733.00
953.785,2727.00
954.735,2646.00
955.685,2379.00
956.635,2650.00
957.585,2666.00
958.534,2699.00
959.484,2780.00
960.433,2666.00
961.383,2513.00
962.334,2972.00
963.283,2823.00
964.232,2852.00
965.181,2764.00
966.130,2831.00
967.079,2661.00
968.027,2731.00
968.976,2760.00
969.924,2661.00
970.873,2859.00
971.821,2755.00
972.769,2959.00
973.719,2861.00
974.667,2527.00
975.615,2763.00
976.562,2735.00
977.510,2419.00
978.458,2686.00
979.405,2863.00
980.352,2766.00
981.300,3039.00
982.247,2823.00
983.194,2557.00
984.141,2638.00
985.088,2781.00
986.036,2838.00
986.983,3006.00
987.930,3122.00
988.876,2381.00
989.822,3038.00
990.769,2580.00
991.715,2637.00
992.661,2505.00
993.607,2854.00
994.553,3285.00
995.498,2633.00
996.444,2322.00
997.389,2823.00
998.337,2553.00
999.282,2890.00
1000.227,2731.00
1001.173,2709.00
1002.118,2487.00
1003.062,2975.00
1004.007,2700.00
1004.952,3031.00
1005.897,2935.00
1006.841,2746.00
1007.786,2470.00
1008.730,2465.00
1009.674,3207.00
1010.618,2667.00
1011.564,2520.00
1012.508,2389.00
1013.452,2954.00
1014.396,2759.00
1015.339,2603.00
1016.283,2716.00
1017.226,2758.00
1018.170,2697.00
1019.113,2930.00
1020.056,2767.00
1020.999,2737.00
1021.942,2620.00
1022.885,2878.00
1023.828,3065.00
1024.770,2506.00
1025.715,2794.00
1026.657,2681.00
1027.600,2805.00
1028.542,2938.00
1029.484,2793.00
1030.426,2832.00
1031.368,2791.00
1032.310,2611.00
1033.251,2572.00
1034.193,2743.00
1035.135,2548.00
1036.076,2650.00
1037.017,2566.00
1037.959,2836.00
1038.900,2802.00
1039.843,2821.00
1040.784,2749.00
1041.725,2804.00
1042.665,2664.00
1043.606,2801.00
1044.547,2830.00
1045.487,2415.00
1046.427,2664.00
1047.368,2792.00
1048.308,2282.00
1049.248,2565.00
1050.188,2750.00
1051.128,2640.00
1052.067,2688.00
1053.007,2456.00
1053.947,2427.00
1054.886,2600.00
1055.827,2520.00
1056.766,3012.00
1057.706,2500.00
1058.645,2679.00
1059.584,2761.00
1060.522,3017.00
1061.461,2504.00
1062.400,2520.00
1063.338,2651.00
1064.277,2522.00
1065.215,2527.00
1066.154,2444.00
1067.092,2620.00
1068.030,2614.00
1068.968,2896.00
1069.906,3043.00
1070.843,2985.00
1071.781,2777.00
1072.720,2833.00
1073.658,2808.00
1074.595,2618.00
1075.533,2618.00
1076.470,2639.00
1077.407,3026.00
1078.344,2801.00
1079.281,2836.00
1080.217,2313.00
1081.154,2710.00
1082.091,2728.00
1083.027,2451.00
1083.964,2964.00
1084.900,2579.00
1085.836,2628.00
1086.772,2912.00
1087.708,2474.00
1088.644,2836.00
1089.580,2707.00
1090.515,2805.00
1091.451,2633.00
1092.388,2740.00
1093.324,2449.00
1094.259,3275.00
1095.194,2758.00
1096.129,2627.00
1097.064,2604.00
1097.999,2843.00
1098.934,2538.00
1099.869,2556.00
1100.803,2766.00
1101.738,2728.00
1102.672,2447.00
1103.607,2816.00
1104.541,2569.00
1105.475,2568.00
1106.409,2440.00
1107.343,2638.00
1108.277,2484.00
1109.210,2715.00
1110.144,2725.00
1111.078,2693.00
1112.011,2492.00
1112.944,2781.00
1113.878,2751.00
1114.811,2218.00
1115.744,2610.00
1116.678,2321.00
1117.611,2614.00
1118.544,2631.00
1119.477,2793.00
1120.409,2541.00
1121.342,3159.00
1122.274,2764.00
1123.206,4230.00
1124.138,2694.00
1125.070,3031.00
1126.002,2886.00
1126.934,2301.00
1127.866,2589.00
1128.798,2325.00
1129.729,2394.00
1130.661,2708.00
1131.592,2594.00
1132.523,2814.00
1133.454,2786.00
1134.385,2336.00
1135.317,2657.00
1136.247,2616.00
1137.178,2884.00
1138.109,2380.00
1139.039,3029.00
1139.970,2878.00
1140.900,2621.00
1141.831,2357.00
1142.761,2256.00
1143.691,2791.00
1144.621,2649.00
1145.551,2723.00
1146.480,2722.00
1147.410,2888.00
1148.340,2319.00
1149.269,2391.00
1150.199,2646.00
1151.128,3085.00
1152.057,2449.00
1152.979,2595.00
1153.898,2654.00
1154.819,2752.00
1155.739,2658.00
1156.658,2583.00
1157.579,2727.00
1158.498,2672.00
1159.419,2228.00
1160.338,2736.00
1161.256,2755.00
1162.177,2494.00
1163.095,2637.00
1164.016,2725.00
1164.934,2944.00
1165.852,2826.00
1166.772,2593.00
1167.690,2654.00
1168.610,2730.00
1169.528,2652.00
1170.446,2229.00
1171.365,2586.00
1172.283,2528.00
1173.202,2632.00
1174.120,2704.00
1175.037,2534.00
1175.956,2508.00
1176.873,2529.00
1177.792,2573.00
1178.709,3169.00
1179.626,2525.00
1180.544,2877.00
1181.461,2534.00
1182.379,2766.00
1183.296,2646.00
1184.212,2258.00
1185.130,2483.00
1186.046,3028.00
1186.962,2656.00
1187.880,2944.00
1188.796,2721.00
1189.714,2454.00
1190.629,2809.00
1191.545,2728.00
1192.462,2593.00
1193.378,2607.00
1194.295,2397.00
1195.210,2690.00
1196.125,2804.00
1197.042,2746.00
1197.957,2663.00
1198.872,2551.00
1199.788,2560.00
1200.703,3029.00
1201.619,2689.00
1202.534,2534.00
1203.448,2735.00
1204.364,2560.00
1205.278,2335.00
1206.192,2714.00
1207.108,3161.00
1208.022,3011.00
1208.938,2481.00
1209.851,2778.00
1210.765,2908.00
1211.680,2591.00
1212.594,2467.00
1213.507,2618.00
1214.422,3052.00
1215.335,2753.00
1216.248,2594.00
1217.163,2698.00
1218.076,3280.00
1218.990,2745.00
1219.903,2435.00
1220.816,2532.00
1221.730,2621.00
1222.642,2524.00
1223.554,2574.00
1224.469,2727.00
1225.380,2613.00
1226.292,2330.00
1227.206,2792.00
1228.118,2933.00
1229.032,2263.00
1229.943,2510.00
1230.855,2593.00
1231.768,2401.00
1232.679,2735.00
1233.590,2670.00
1234.503,2901.00
1235.414,2499.00
1236.325,2523.00
1237.238,2714.00
1238.149,2773.00
1239.059,2470.00
1239.972,2847.00
1240.882,2454.00
1241.793,2784.00
1242.705,3003.00
1243.615,2605.00
1244.525,2758.00
1245.437,2236.00
1246.347,2708.00
1247.259,2826.00
1248.168,3054.00
1249.078,2909.00
1249.989,2917.00
1250.899,2476.00
1251.808,2525.00
1252.719,2572.00
1253.628,2538.00
1254.537,3035.00
1255.448,2508.00
1256.357,2483.00
1257.266,2641.00
1258.176,2404.00
1259.085,2391.00
1259.993,2476.00
1260.904,2454.00
1261.812,2470.00
1262.720,3156.00
1263.630,2859.00
1264.538,2513.00
1265.446,2740.00
1266.356,2597.00
1267.263,2952.00
1268.171,2455.00
1269.080,2726.00
1269.988,2805.00
1270.895,2558.00
1271.804,2588.00
1272.711,2855.00
1273.619,2777.00
1274.527,2458.00
1275.434,2748.00
1276.341,2452.00
1277.248,2710.00
1278.156,2875.00
1279.063,2536.00
1279.969,2760.00
1280.877,3604.00
1281.783,2860.00
1282.690,2727.00
1283.598,2609.00
1284.503,2509.00
1285.409,2464.00
1286.317,3005.00
1287.223,3067.00
1288.128,2719.00
1289.036,2563.00
1289.941,2636.00
1290.846,2687.00
1291.751,2490.00
1292.658,2594.00
1293.563,3102.00
1294.468,2661.00
1295.375,2870.00
1296.280,2880.00
1297.184,3364.00
1298.091,2765.00
1298.995,2819.00
1299.900,3041.00
1300.806,2577.00
1301.710,2396.00
1302.614,2226.00
1303.518,2890.00
1304.424,2559.00
1305.327,2850.00
1306.231,2684.00
1307.137,2821.00
1308.040,2777.00
1308.943,2674.00
1309.847,2865.00
1310.752,2857.00
1311.655,2330.00
1312.558,2414.00
1313.463,2593.00
1314.366,2511.00
1315.269,2707.00
1316.171,2656.00
1317.076,2529.00
1317.978,2494.00
1318.881,2271.00
1319.785,2510.00
1320.687,2540.00
1321.589,2243.00
1322.491,2508.00
1323.395,2722.00
1324.297,3216.00
1325.198,2809.00
1326.102,2475.00
1327.004,2464.00
1327.905,3028.00
1328.806,2596.00
1329.709,2694.00
1330.611,2590.00
1331.512,2465.00
1332.413,3156.00
1333.316,2700.00
1334.216,2824.00
1335.117,2429.00
1336.020,2714.00
1336.920,2676.00
1337.821,2537.00
1338.721,2933.00
1339.623,2702.00
1340.523,2612.00
1341.423,2489.00
1342.323,2887.00
1343.225,2703.00
1344.125,2493.00
1345.025,2556.00
1345.924,2302.00
1346.826,2994.00
1347.725,3078.00
1348.624,2890.00
1349.524,2517.00
1350.425,2621.00
1351.324,2729.00
1352.223,2840.00
1353.121,2616.00
1354.022,2867.00
1354.921,3079.00
1355.819,2799.00
1356.718,2700.00
1357.618,2409.00
1358.516,2766.00
1359.415,3031.00
1360.313,2799.00
1361.213,2592.00
1362.111,2942.00
1363.008,3316.00
1363.906,2626.00
1364.806,2678.00
1365.703,2732.00
1366.601,2492.00
1367.498,2485.00
1368.397,2849.00
1369.295,2729.00
1370.192,2524.00
1371.089,2752.00
1371.987,2619.00
1372.884,2878.00
1373.781,2438.00
1374.678,2640.00
1375.574,2497.00
1376.473,2802.00
1377.369,2888.00
1378.265,2505.00
1379.161,2613.00
1380.059,2366.00
1380.955,2776.00
1381.851,2453.00
1382.747,2554.00
1383.643,2579.00
1384.540,2428.00
1385.436,2577.00
1386.331,2706.00
1387.227,2809.00
1388.124,2782.00
1389.019,2493.00
1389.914,2619.00
1390.809,2304.00
1391.704,3055.00
1392.601,2580.00
1393.495,2931.00
1394.390,2851.00
1395.285,2941.00
1396.179,2758.00
1397.075,2592.00
1397.969,2711.00
1398.864,2351.00
1399.758,2631.00
1400.652,2689.00
1401.547,2481.00
1402.441,2442.00
1403.335,3054.00
1404.229,2835.00
1405.122,2731.00
1406.017,2618.00
1406.911,2820.00
1407.804,3089.00
1408.697,2679.00
1409.590,2490.00
1410.485,2832.00
1411.378,2737.00
1412.271,2334.00
1413.163,2719.00
1414.056,2833.00
1414.949,3053.00
1415.843,2691.00
1416.735,2617.00
1417.627,2687.00
1418.520,2606.00
1419.412,2886.00
1420.306,2835.00
1421.197,2898.00
1422.089,2898.00
1422.981,3161.00
1423.873,2868.00
1424.764,2791.00
1425.657,2688.00
1426.549,2816.00
1427.440,2863.00
1428.331,2573.00
1429.222,2347.00
1430.113,2709.00
1431.006,2841.00
1431.897,2618.00
1432.787,2698.00
1433.678,2607.00
1434.568,2487.00
1435.459,2902.00
1436.351,2813.00
1437.241,2797.00
1438.131,2814.00
1439.021,2435.00
1439.911,2633.00
1440.801,2751.00
1441.693,2882.00
1442.583,2685.00
1443.472,2638.00
1444.362,2751.00
1445.251,2607.00
1446.140,2641.00
1447.030,2887.00
1447.921,2864.00
1448.810,2474.00
1449.699,3035.00
1450.588,2706.00
1451.476,2582.00
1452.365,2757.00
1453.254,2580.00
1454.144,2535.00
1455.032,2796.00
1455.921,2404.00
1456.809,2939.00
1457.697,2489.00
1458.585,2614.00
1459.473,2661.00
1460.361,2524.00
1461.251,2758.00
1462.138,2747.00
1463.026,2688.00
1463.913,2927.00
1464.801,2593.00
1465.688,2773.00
1466.575,2699.00
1467.463,3121.00
1468.351,2507.00
1469.238,2659.00
1470.125,2302.00
1471.012,2754.00
1471.899,2767.00
1472.785,2467.00
1473.672,2723.00
1474.558,2897.00
1475.446,2820.00
1476.333,2843.00
1477.219,2454.00
1478.105,2643.00
1478.991,2679.00
1479.877,2960.00
1480.762,2698.00
1481.648,2553.00
1482.534,2827.00
1483.419,2775.00
1484.307,2821.00
1485.192,2676.00
1486.077,2527.00
1486.962,2563.00
1487.847,2410.00
1488.732,2535.00
1489.617,2685.00
1490.502,2934.00
1491.387,2807.00
1492.271,2540.00
1493.156,2491.00
1494.042,2475.00
1494.927,2880.00
1495.811,2583.00
1496.695,2857.00
1497.579,2971.00
1498.463,2703.00
1499.347,2764.00
1500.231,2699.00
1501.114,2755.00
1501.998,2955.00
1502.881,2714.00
1503.765,3005.00
1504.648,3111.00
1505.533,2802.00
1506.417,2695.00
1507.300,2688.00
1508.183,2754.00
1509.066,2171.00
1509.948,2921.00
1510.831,3018.00
1511.714,2469.00
1512.596,2860.00
1513.479,2962.00
1514.361,2838.00
1515.243,2712.00
1516.125,2838.00
1517.008,2965.00
1517.890,2656.00
1518.771,2692.00
1519.655,2865.00
1520.537,2616.00
1521.419,2511.00
1522.300,2717.00
1523.182,2828.00
1524.063,2823.00
1524.944,2964.00
1525.825,2898.00
1526.707,2511.00
1527.588,2485.00
1528.468,2810.00
1529.349,2372.00
1530.230,2592.00
1531.111,2854.00
1531.991,2738.00
1532.872,2413.00
1533.752,2660.00
1534.632,2593.00
1535.513,2568.00
1536.393,2865.00
1537.273,3014.00
1538.153,3373.00
1539.032,2435.00
1539.912,2661.00
1540.792,2698.00
1541.672,2713.00
1542.551,2814.00
1543.430,3306.00
1544.310,2719.00
1545.189,2585.00
1546.068,3118.00
1546.947,2772.00
1547.826,3000.00
1548.705,2722.00
1549.584,2938.00
1550.462,2641.00
1551.341,2825.00
1552.219,2785.00
1553.098,2820.00
1553.976,2928.00
1554.854,3099.00
1555.733,2895.00
1556.611,2602.00
1557.489,2480.00
1558.367,2681.00
1559.244,2895.00
1560.122,2666.00
1561.000,2777.00
1561.877,2989.00
1562.755,2567.00
1563.632,2699.00
1564.509,2988.00
1565.386,3042.00
1566.264,2467.00
1567.141,2310.00
1568.017,2855.00
1568.894,2672.00
1569.771,2745.00
1570.648,2818.00
1571.524,2717.00
1572.401,2471.00
1573.277,2512.00
1574.153,2767.00
1575.029,2540.00
1575.906,3407.00
1576.781,2863.00
1577.657,2612.00
1578.533,2974.00
1579.409,2376.00
1580.285,2650.00
1581.160,3166.00
1582.036,2885.00
1582.911,2516.00
1583.786,3096.00
1584.662,2481.00
1585.537,2640.00
1586.412,2779.00
1587.287,2544.00
1588.160,2884.00
1589.035,2370.00
1589.909,2692.00
1590.784,2687.00
1591.658,2508.00
1592.533,2761.00
1593.407,2713.00
1594.281,2592.00
1595.155,3086.00
1596.029,2621.00
1596.903,2679.00
1597.777,2638.00
1598.651,2969.00
1599.525,2404.00
1600.398,2723.00
1601.272,2690.00
1602.144,3253.00
1603.017,2670.00
1603.890,2960.00
1604.763,2822.00
1605.636,2829.00
1606.509,2402.00
1607.382,2537.00
1608.255,2801.00
1609.128,2933.00
1610.000,2654.00
1610.873,2396.00
1611.746,2630.00
1612.616,2654.00
1613.488,2295.00
1614.361,2736.00
1615.233,2624.00
1616.105,2916.00
1616.977,2629.00
1617.849,2510.00
1618.720,3040.00
1619.592,2996.00
1620.464,2804.00
1621.333,3183.00
1622.205,2712.00
1623.076,2669.00
1623.947,2677.00
1624.818,2969.00
1625.689,2826.00
1626.560,2620.00
1627.431,2771.00
1628.302,3131.00
1629.171,2866.00
1630.042,3041.00
1630.912,3381.00
1631.782,3267.00
1632.653,2526.00
1633.523,2868.00
1634.393,2934.00
1635.263,2566.00
1636.131,2727.00
1637.001,2593.00
1637.871,2345.00
1638.741,2333.00
1639.611,2448.00
1640.480,2818.00
1641.350,2590.00
1642.219,2543.00
1643.087,2238.00
1643.956,3141.00
1644.825,2961.00
1645.694,2936.00
1646.563,2823.00
1647.432,2780.00
1648.299,2759.00
1649.167,2815.00
1650.036,2548.00
1650.904,2830.00
1651.773,2965.00
1652.641,2726.00
1653.509,2938.00
1654.376,2628.00
1655.244,2737.00
1656.112,2751.00
1656.980,2729.00
1657.847,2593.00
1658.715,2885.00
1659.581,2567.00
1660.448,2939.00
1661.316,2258.00
1662.183,2730.00
1663.051,2742.00
1663.918,2762.00
1664.783,2703.00
1665.650,2764.00
1666.517,2840.00
1667.384,2736.00
1668.251,2772.00
1669.115,2923.00
1669.982,2656.00
1670.849,3004.00
1671.715,2688.00
1672.581,2873.00
1673.446,2866.00
1674.312,2769.00
1675.178,3092.00
1676.044,2837.00
1676.910,2787.00
1677.774,2784.00
1678.639,2379.00
1679.505,2705.00
1680.370,2866.00
1681.236,3395.00
1682.099,2665.00
1682.965,2743.00
1683.830,2346.00
1684.695,2560.00
1685.560,2638.00
1686.423,2890.00
1687.288,2863.00
1688.153,2769.00
1689.017,2653.00
1689.880,2816.00
1690.745,2857.00
1691.609,2566.00
1692.473,2923.00
1693.338,2926.00
1694.200,2996.00
1695.064,2746.00
1695.928,2632.00
1696.792,2759.00
1697.654,3208.00
1698.517,2740.00
1699.381,2428.00
1700.245,2412.00
1701.106,3018.00
1701.969,2641.00
1702.833,2876.00
1703.696,2644.00
1704.557,2673.00
1705.420,2573.00
1706.283,2743.00
1707.146,2908.00
1708.007,2528.00
1708.870,2527.00
1709.732,2414.00
1710.595,2622.00
1711.455,2488.00
1712.318,2652.00
1713.180,3015.00
1714.040,2808.00
1714.902,2929.00
1715.764,2756.00
1716.626,2505.00
1717.486,2678.00
1718.348,2972.00
1719.209,4138.00
1720.071,2429.00
1720.930,2483.00
1721.792,2581.00
1722.653,2588.00
1723.512,2601.00
1724.374,2678.00
1725.234,2783.00
1726.095,2727.00
1726.954,2764.00
1727.815,2879.00
1728.676,2684.00
1729.535,2955.00
1730.395,2683.00
1731.256,2637.00
1732.114,2766.00
1732.974,2200.00
1733.834,3098.00
1734.693,2898.00
1735.553,2727.00
1736.413,3128.00
1737.272,2621.00
1738.130,2657.00
1738.990,2901.00
1739.849,2610.00
1740.707,3728.00
1741.566,2771.00
1742.426,2758.00
1743.283,3110.00
1744.142,2620.00
1745.001,2408.00
1745.858,2895.00
1746.717,2828.00
1747.576,2864.00
1748.433,2888.00
1749.292,3320.00
1750.150,3387.00
1751.007,2924.00
1751.865,2920.00
1752.723,2769.00
1753.579,2629.00
1754.438,2983.00
1755.296,2956.00
1756.152,2264.00
1757.010,2387.00
1757.865,2943.00
1758.723,2382.00
1759.581,3081.00
1760.436,2713.00
1761.294,3083.00
1762.151,2710.00
1763.006,2673.00
1763.864,2410.00
1764.721,2951.00
1765.576,2738.00
1766.433,2901.00
1767.288,2631.00
1768.144,2785.00
1769.001,2718.00
1769.856,2848.00
1770.712,2970.00
1771.568,2534.00
1772.423,2639.00
1773.279,2621.00
1774.133,2644.00
1774.989,3125.00
1775.845,3101.00
1776.699,2995.00
1777.555,2702.00
1778.409,3281.00
1779.265,2687.00
1780.120,2703.00
1780.974,2739.00
1781.829,2345.00
1782.682,2811.00
1783.538,2582.00
1784.393,2775.00
1785.246,2614.00
1786.101,2818.00
1786.954,2878.00
1787.808,2948.00
1788.661,2482.00
1789.516,2652.00
1790.370,2685.00
1791.223,2953.00
1792.077,2725.00
1792.930,2828.00
1793.784,2593.00
1794.636,2751.00
1795.490,2727.00
1796.344,2775.00
1797.196,2753.00
1798.049,2907.00
1798.901,2654.00
1799.755,2963.00
1800.606,2519.00
1801.460,3258.00
1802.311,3075.00
1803.165,3177.00
1804.018,3078.00
1804.869,2838.00
1805.722,3189.00
1806.573,2775.00
1807.426,2535.00
1808.276,2724.00
1809.129,2644.00
1809.980,2970.00
1810.832,3031.00
1811.683,2682.00
1812.535,3092.00
1813.385,2637.00
1814.237,3013.00
1815.089,2766.00
1815.940,3061.00
1816.791,2717.00
1817.641,2594.00
1818.493,2899.00
1819.343,2801.00
1820.194,2615.00
1821.044,2891.00
1821.895,2997.00
1822.745,2482.00
1823.596,2643.00
1824.445,3139.00
1825.296,2827.00
1826.145,2718.00
1826.996,2917.00
1827.845,2803.00
1828.695,2838.00
1829.544,2766.00
1830.395,2796.00
1831.243,2659.00
1832.094,2474.00
1832.942,3377.00
1833.792,2856.00
1834.640,2816.00
1835.490,2755.00
1836.338,2805.00
1837.186,2622.00
1838.036,2617.00
1838.884,2720.00
1839.733,3106.00
1840.581,2955.00
1841.430,2880.00
1842.278,3106.00
1843.127,2625.00
1843.974,2441.00
1844.823,3166.00
1845.671,2945.00
1846.519,2757.00
1847.366,2795.00
1848.213,2375.00
1849.062,2581.00
1849.909,2486.00
1850.757,3410.00
1851.604,2874.00
1852.452,2678.00
1853.298,2939.00
1854.146,2804.00
1854.993,2797.00
1855.839,3236.00
1856.687,2868.00
1857.532,2895.00
1858.380,2741.00
1859.226,2814.00
1860.073,2844.00
1860.919,2568.00
1861.765,2666.00
1862.612,3015.00
1863.457,2985.00
1864.304,2672.00
1865.150,2857.00
1865.995,2744.00
1866.842,2858.00
1867.686,2979.00
1868.533,2860.00
1869.378,2790.00
1870.223,2769.00
1871.069,2673.00
1871.914,2795.00
1872.760,2740.00
1873.604,2556.00
1874.448,2907.00
1875.294,2939.00
1876.139,2666.00
1876.984,2896.00
1877.828,2424.00
1878.672,2266.00
1879.518,2658.00
1880.361,2929.00
1881.205,2925.00
1882.050,2581.00
1882.894,3252.00
1883.739,2613.00
1884.582,2527.00
1885.425,2619.00
1886.270,3023.00
1887.113,2528.00
1887.956,2870.00
1888.801,2807.00
1889.644,2571.00
1890.486,2343.00
1891.331,2745.00
1892.173,2801.00
1893.017,2823.00
1893.860,3042.00
1894.702,3082.00
1895.546,2759.00
1896.388,3506.00
1897.230,3155.00
1898.074,2672.00
1898.916,2553.00
1899.757,2590.00
1900.601,3417.00
1901.443,3063.00
1902.284,3060.00
1903.125,3243.00
1903.969,2944.00
1904.810,3034.00
1905.651,2851.00
1906.494,3116.00
1907.335,3210.00
1908.176,2880.00
1909.018,2897.00
1909.859,2738.00
1910.700,2628.00
1911.542,3277.00
1912.383,2852.00
1913.223,2418.00
1914.064,2893.00
1914.906,3053.00
1915.746,3099.00
1916.586,3253.00
1917.428,2776.00
1918.268,2835.00
1919.107,2666.00
1919.947,2506.00
1920.789,2726.00
1921.628,2980.00
1922.468,2822.00
1923.309,2605.00
1924.148,3092.00
1924.988,2841.00
1925.827,2744.00
1926.667,2652.00
1927.507,2842.00
1928.345,2613.00
1929.184,2899.00
1930.025,2576.00
1930.864,3044.00
1931.702,3116.00
1932.541,2678.00
1933.381,2959.00
1934.219,2921.00
1935.057,3084.00
1935.896,2481.00
1936.735,2749.00
1937.573,2678.00
1938.411,2610.00
1939.249,2977.00
1940.089,2659.00
1940.927,3035.00
1941.764,3080.00
1942.602,2684.00
1943.439,2698.00
1944.278,2706.00
1945.115,2707.00
1945.953,2528.00
1946.790,2853.00
1947.628,3136.00
1948.465,2873.00
1949.302,2927.00
1950.139,2916.00
1950.976,2622.00
1951.814,2972.00
1952.651,2835.00
1953.487,2587.00
1954.323,3044.00
1955.160,2737.00
1955.998,3164.00
1956.834,2790.00
1957.670,2831.00
1958.506,3041.00
1959.342,2867.00
1960.177,2833.00
1961.015,2925.00
1961.850,2823.00
1962.686,2834.00
1963.521,2822.00
1964.357,3046.00
1965.192,2539.00
1966.029,2958.00
1966.864,2717.00
1967.699,3001.00
1968.534,2845.00
1969.369,3095.00
1970.204,2769.00
1971.040,2838.00
1971.875,2714.00
1972.709,2790.00
1973.544,2626.00
1974.378,2694.00
1975.212,2853.00
1976.047,2676.00
1976.882,2669.00
1977.716,3220.00
1978.550,2472.00
1979.384,2719.00
1980.218,2724.00
1981.052,2718.00
1981.885,2805.00
1982.719,2800.00
1983.554,2935.00
1984.388,3096.00
1985.221,2861.00
1986.054,3071.00
1986.887,2829.00
1987.720,2639.00
1988.553,3109.00
1989.386,2875.00
1990.219,2935.00
1991.053,3095.00
1991.886,2662.00
1992.719,2994.00
1993.551,2290.00
1994.383,2915.00
1995.216,2747.00
1996.048,2496.00
1996.880,2988.00
1997.712,2681.00
1998.544,2807.00
1999.376,2871.00
2000.208,3093.00
2001.040,3236.00
2001.873,2622.00
2002.705,2583.00
2003.536,2823.00
2004.367,2810.00
2005.199,2848.00
2006.030,2689.00
2006.861,2614.00
2007.692,2798.00
2008.523,2641.00
2009.354,2840.00
2010.185,2618.00
2011.016,2917.00
2011.846,3020.00
2012.677,2747.00
2013.507,3108.00
2014.338,3057.00
2015.168,2727.00
2015.999,3324.00
2016.829,2762.00
2017.659,3032.00
2018.489,3350.00
2019.319,2602.00
2020.149,2948.00
2020.980,2832.00
2021.810,2589.00
2022.639,2697.00
2023.469,2668.00
2024.298,2513.00
2025.128,2400.00
2025.957,2419.00
2026.786,2267.00
2027.615,2417.00
2028.444,2626.00
2029.273,2809.00
2030.102,2446.00
2030.931,2659.00
2031.758,2887.00
2032.586,2577.00
2033.415,2691.00
2034.243,2284.00
2035.072,2027.00
2035.900,2527.00
2036.728,2387.00
2037.556,2386.00
2038.385,2392.00
2039.213,2222.00
2040.040,2231.00
2040.868,2207.00
2041.696,2225.00
2042.524,2253.00
2043.351,2493.00
2044.179,2230.00
2045.006,2027.00
