RamanScope Measure Spectrum Data V3.72

<< MEASURE CONDITION >>
Exposure Type,Aver
Exposure Time [sec],15
Exposure Count,30
Measure Time,2023/07/04 11:39:42
Data Name,""
Data Comment,""
Rayleigh Wave[nm],532.0

<< SAMPLE SPECTRUM >>
Wave[dcm-1],No222
146.591,561.03
147.626,630.80
148.664,803.10
149.699,982.53
150.737,1102.30
151.772,1308.67
152.809,1395.03
153.846,1582.00
154.881,1702.40
155.918,1835.73
156.953,1962.77
157.989,2064.27
159.026,2170.80
160.060,2221.17
161.096,2317.40
162.130,2309.13
163.167,2390.60
164.200,2422.17
165.236,2466.43
166.272,2486.73
167.305,2534.60
168.341,2590.63
169.374,2622.00
170.409,2669.17
171.445,2712.87
172.477,2769.17
173.512,2802.57
174.545,2853.57
175.580,2863.70
176.614,2907.47
177.647,2873.90
178.681,2949.20
179.713,3000.20
180.747,2940.43
181.781,2956.93
182.813,2910.23
183.847,2939.57
184.878,2926.33
185.912,2947.00
186.945,2936.50
187.976,2919.00
189.010,2978.73
190.043,2970.27
191.073,3020.50
192.106,3037.13
193.137,3043.27
194.170,3094.93
195.202,3181.87
196.232,3194.43
197.265,3230.00
198.297,3289.83
199.327,3344.67
200.359,3407.17
201.388,3471.53
202.420,3506.33
203.452,3575.00
204.481,3684.53
205.512,3813.80
206.544,3899.70
207.573,4003.47
208.604,4157.77
209.635,4325.00
210.663,4467.87
211.694,4721.50
212.725,4877.83
213.753,5128.73
214.783,5323.50
215.813,5621.43
216.841,5799.90
217.871,5845.70
218.899,6001.43
219.929,6089.63
220.959,6099.63
221.986,5986.67
223.016,5836.03
224.045,5694.67
225.072,5523.07
226.101,5353.00
227.130,5104.40
228.157,4906.53
229.185,4715.67
230.214,4607.13
231.241,4450.80
232.269,4333.63
233.297,4265.20
234.323,4130.23
235.351,4076.17
236.379,4031.93
237.407,4003.47
238.433,3932.27
239.460,3946.60
240.488,3940.97
241.513,3936.57
242.540,3969.63
243.568,3938.80
244.592,4015.13
245.619,4014.80
246.646,4093.63
247.671,4047.87
248.697,4083.90
249.724,4072.03
250.748,4034.80
251.774,4041.30
252.801,4026.83
253.827,4021.13
254.850,3996.50
255.876,3977.23
256.902,4060.00
257.925,4092.73
258.951,4077.03
259.976,4119.77
260.999,4161.83
262.024,4228.97
263.049,4225.37
264.074,4215.77
265.097,4343.17
266.122,4392.60
267.146,4483.27
268.168,4542.73
269.193,4591.20
270.217,4625.40
271.241,4712.20
272.263,4773.97
273.287,4813.40
274.311,4891.23
275.332,4951.33
276.356,4998.40
277.379,5076.53
278.402,5061.23
279.424,5042.13
280.447,5025.03
281.470,5012.33
282.492,4984.53
283.513,4923.43
284.536,4809.77
285.558,4779.10
286.581,4703.67
287.601,4606.60
288.623,4533.87
289.645,4449.90
290.665,4398.63
291.687,4259.40
292.709,4229.03
293.730,4137.10
294.750,4053.53
295.771,3995.23
296.792,3943.37
297.813,3879.37
298.832,3772.97
299.853,3659.00
300.874,3671.03
301.895,3589.50
302.913,3556.67
303.934,3511.93
304.954,3416.50
305.975,3346.77
306.993,3350.60
308.013,3342.77
309.033,3268.27
310.052,3221.10
311.072,3206.07
312.090,3164.40
313.109,3105.83
314.129,3089.80
315.148,3054.90
316.165,3019.93
317.184,3017.33
318.203,2999.07
319.222,2987.03
320.238,2950.80
321.257,2950.43
322.275,2937.13
323.294,2914.97
324.312,2921.73
325.328,2829.33
326.346,2845.47
327.364,2821.23
328.382,2852.87
329.397,2827.87
330.415,2815.07
331.432,2805.30
332.450,2814.47
333.467,2824.97
334.482,2813.90
335.499,2766.30
336.516,2785.37
337.533,2766.50
338.547,2784.87
339.564,2779.83
340.580,2753.20
341.597,2764.80
342.613,2742.77
343.627,2729.80
344.643,2727.43
345.659,2715.37
346.675,2724.63
347.690,2707.37
348.704,2777.67
349.719,2744.30
350.735,2768.37
351.750,2696.73
352.765,2729.53
353.778,2753.30
354.793,2731.47
355.808,2722.67
356.822,2727.67
357.837,2658.67
358.851,2748.83
359.864,2762.10
360.878,2730.83
361.892,2734.27
362.906,2699.80
363.920,2741.63
364.932,2773.57
365.945,2777.20
366.959,2779.50
367.972,2785.13
368.986,2794.27
369.999,2787.73
371.010,2806.03
372.023,2879.63
373.036,2859.03
374.049,2862.57
375.061,2902.33
376.072,2862.67
377.084,2870.23
378.097,2867.47
379.109,2924.97
380.121,2921.03
381.133,2942.80
382.143,2934.03
383.155,2940.63
384.166,2939.03
385.178,2972.33
386.189,2923.67
387.201,2968.23
388.212,2915.33
389.221,2995.17
390.232,2961.40
391.243,2970.20
392.254,2970.00
393.264,2922.87
394.275,2931.07
395.283,2921.20
396.294,2965.37
397.304,2897.23
398.314,2879.50
399.324,2853.13
400.334,2835.57
401.344,2826.90
402.351,2802.43
403.361,2766.83
404.370,2757.53
405.380,2771.93
406.389,2746.63
407.398,2673.17
408.407,2735.70
409.414,2694.33
410.423,2641.77
411.431,2686.10
412.440,2666.63
413.448,2654.57
414.457,2620.67
415.465,2608.43
416.471,2612.43
417.479,2567.40
418.487,2543.90
419.495,2538.30
420.503,2555.07
421.510,2553.53
422.518,2557.20
423.525,2567.90
424.530,2519.13
425.537,2496.10
426.544,2538.60
427.551,2511.43
428.558,2506.53
429.565,2451.80
430.571,2484.37
431.578,2501.97
432.582,2478.57
433.588,2472.00
434.595,2466.83
435.601,2483.87
436.607,2449.10
437.612,2482.80
438.618,2445.37
439.624,2460.77
440.627,2454.03
441.633,2502.07
442.638,2455.17
443.643,2500.93
444.648,2445.57
445.653,2430.30
446.658,2465.13
447.663,2454.50
448.667,2470.07
449.672,2450.53
450.674,2457.20
451.678,2469.33
452.682,2500.17
453.687,2516.53
454.690,2473.67
455.694,2491.13
456.698,2509.10
457.702,2489.63
458.705,2505.80
459.709,2517.73
460.710,2471.83
461.713,2502.83
462.716,2534.73
463.719,2543.47
464.722,2553.00
465.725,2471.83
466.727,2512.73
467.730,2542.23
468.732,2568.03
469.735,2545.43
470.737,2521.87
471.737,2536.23
472.739,2548.80
473.741,2535.13
474.742,2574.17
475.744,2563.80
476.746,2578.13
477.747,2574.87
478.748,2565.60
479.750,2598.40
480.751,2597.93
481.752,2580.43
482.753,2551.43
483.751,2550.47
484.752,2596.57
485.753,2532.47
486.753,2591.30
487.753,2614.50
488.754,2603.07
489.754,2581.57
490.754,2601.20
491.754,2540.67
492.754,2547.33
493.753,2581.37
494.753,2566.90
495.752,2616.27
496.752,2502.27
497.749,2563.37
498.748,2577.07
499.747,2535.50
500.746,2566.37
501.745,2525.80
502.744,2558.57
503.742,2522.10
504.741,2527.60
505.739,2478.77
506.737,2488.00
507.735,2528.17
508.734,2476.43
509.732,2510.10
510.729,2498.03
511.727,2474.00
512.725,2510.93
513.720,2458.70
514.718,2466.03
515.715,2463.07
516.712,2450.23
517.709,2452.83
518.706,2422.17
519.703,2469.27
520.700,2452.17
521.696,2426.37
522.693,2393.50
523.689,2404.30
524.686,2431.47
525.682,2456.67
526.678,2451.17
527.674,2425.70
528.670,2428.77
529.666,2474.57
530.661,2446.40
531.657,2483.43
532.652,2455.80
533.648,2464.23
534.641,2542.47
535.636,2487.77
536.631,2542.83
537.626,2471.80
538.621,2502.60
539.616,2477.47
540.610,2516.80
541.605,2499.57
542.599,2545.97
543.593,2477.70
544.587,2512.70
545.581,2546.67
546.575,2542.87
547.569,2519.00
548.563,2504.57
549.557,2528.33
550.550,2502.27
551.543,2546.93
552.537,2537.63
553.530,2546.17
554.523,2528.83
555.516,2579.77
556.509,2561.13
557.502,2555.10
558.494,2540.60
559.487,2541.40
560.479,2536.73
561.472,2545.70
562.464,2565.20
563.456,2513.13
564.448,2515.70
565.440,2569.73
566.432,2558.23
567.423,2601.27
568.415,2592.90
569.404,2571.33
570.396,2582.87
571.387,2605.17
572.378,2632.80
573.369,2638.97
574.360,2605.37
575.351,2582.73
576.341,2666.43
577.332,2639.87
578.323,2649.37
579.313,2668.67
580.303,2686.90
581.293,2688.23
582.283,2662.30
583.273,2694.30
584.263,2689.70
585.253,2646.50
586.243,2705.93
587.232,2689.17
588.222,2723.17
589.211,2661.50
590.200,2688.50
591.189,2647.73
592.178,2689.23
593.167,2754.47
594.156,2711.27
595.145,2688.30
596.133,2699.03
597.122,2730.93
598.110,2687.60
599.098,2678.53
600.086,2682.07
601.074,2685.77
602.062,2661.20
603.050,2632.97
604.038,2669.77
605.025,2683.90
606.013,2686.27
607.000,2661.93
607.987,2669.47
608.975,2639.63
609.962,2613.10
610.949,2569.20
611.936,2593.40
612.922,2614.00
613.909,2586.83
614.895,2556.83
615.882,2528.00
616.868,2488.47
617.854,2540.03
618.841,2510.13
619.826,2522.30
620.812,2487.27
621.798,2461.07
622.784,2418.03
623.769,2412.60
624.755,2431.40
625.740,2374.60
626.725,2374.80
627.711,2381.77
628.698,2373.43
629.683,2356.37
630.667,2330.77
631.652,2326.17
632.637,2330.03
633.621,2296.87
634.606,2310.20
635.590,2287.77
636.574,2272.27
637.558,2227.87
638.542,2240.60
639.526,2225.23
640.510,2225.40
641.493,2247.60
642.477,2156.73
643.460,2132.40
644.444,2164.10
645.427,2198.53
646.410,2170.80
647.393,2115.87
648.376,2136.47
649.359,2113.13
650.341,2095.00
651.324,2079.80
652.307,2076.97
653.289,2067.77
654.271,2055.57
655.253,2045.73
656.235,2029.80
657.217,2058.80
658.199,2058.67
659.181,2015.27
660.163,2070.83
661.144,2034.93
662.126,2013.73
663.107,2010.57
664.088,1960.10
665.069,1988.87
666.050,2000.50
667.033,1969.17
668.014,1963.20
668.995,1970.53
669.975,1930.10
670.956,1969.00
671.936,1959.80
672.916,1910.77
673.896,1923.87
674.876,1905.73
675.856,1852.43
676.836,1868.23
677.816,1851.70
678.795,1842.40
679.775,1847.57
680.754,1851.83
681.734,1820.80
682.713,1827.90
683.692,1804.43
684.671,1805.23
685.650,1791.17
686.629,1757.63
687.607,1779.73
688.586,1785.07
689.564,1705.57
690.543,1771.50
691.523,1732.50
692.501,1750.57
693.479,1722.03
694.457,1684.33
695.435,1706.70
696.413,1678.97
697.390,1681.97
698.368,1671.70
699.345,1677.10
700.322,1604.60
701.300,1664.47
702.277,1692.93
703.254,1638.53
704.231,1603.63
705.207,1628.30
706.184,1628.27
707.161,1581.93
708.137,1640.60
709.113,1601.77
710.090,1654.23
711.068,1571.70
712.044,1592.43
713.020,1559.77
713.996,1592.53
714.971,1549.87
715.947,1567.13
716.922,1583.50
717.898,1566.10
718.873,1549.20
719.848,1532.53
720.823,1501.93
721.798,1512.37
722.773,1523.83
723.748,1510.10
724.723,1514.90
725.697,1474.30
726.672,1531.70
727.646,1486.70
728.622,1517.33
729.596,1523.00
730.570,1497.10
731.544,1504.47
732.518,1472.80
733.492,1491.87
734.466,1494.43
735.439,1475.70
736.413,1492.10
737.386,1470.47
738.359,1462.83
739.332,1471.90
740.305,1463.27
741.278,1448.47
742.251,1483.87
743.224,1468.87
744.196,1464.40
745.171,1424.40
746.143,1464.77
747.115,1452.17
748.087,1433.90
749.059,1431.87
750.031,1405.53
751.003,1372.73
751.975,1446.37
752.947,1391.53
753.918,1413.07
754.890,1417.73
755.861,1397.13
756.832,1407.60
757.803,1434.13
758.774,1392.30
759.747,1407.30
760.718,1405.23
761.689,1358.90
762.659,1376.40
763.630,1401.20
764.600,1429.43
765.570,1356.47
766.540,1378.87
767.510,1355.17
768.480,1339.60
769.450,1391.80
770.420,1371.80
771.390,1363.83
772.359,1359.10
773.329,1374.67
774.300,1369.30
775.269,1345.03
776.238,1362.90
777.207,1348.43
778.176,1317.70
779.145,1365.17
780.114,1330.57
781.083,1332.63
782.051,1365.57
783.019,1297.40
783.988,1299.07
784.956,1295.93
785.924,1327.90
786.894,1320.20
787.862,1295.00
788.830,1320.27
789.797,1308.67
790.765,1318.47
791.732,1306.77
792.700,1278.40
793.667,1275.47
794.634,1322.70
795.601,1313.77
796.568,1307.10
797.535,1282.90
798.502,1277.87
799.468,1266.87
800.437,1257.40
801.403,1280.83
802.370,1274.37
803.336,1283.57
804.302,1267.27
805.268,1281.47
806.234,1247.73
807.200,1252.60
808.166,1253.40
809.131,1219.80
810.097,1229.83
811.062,1241.67
812.027,1264.67
812.994,1201.10
813.960,1257.53
814.925,1226.13
815.889,1225.93
816.854,1240.20
817.819,1248.67
818.783,1183.30
819.748,1205.83
820.712,1226.77
821.677,1224.60
822.641,1236.37
823.605,1216.03
824.571,1172.00
825.534,1212.53
826.498,1207.93
827.462,1205.37
828.425,1208.27
829.389,1221.20
830.352,1188.03
831.315,1194.47
832.279,1179.40
833.242,1172.10
834.204,1181.83
835.167,1160.27
836.132,1214.37
837.095,1183.27
838.057,1187.20
839.020,1160.30
839.982,1182.20
840.944,1172.47
841.906,1189.97
842.868,1165.97
843.830,1173.43
844.792,1187.47
845.753,1194.50
846.715,1168.60
847.679,1183.30
848.640,1154.83
849.601,1153.27
850.562,1174.83
851.523,1173.93
852.484,1154.60
853.445,1158.17
854.406,1140.23
855.367,1115.07
856.327,1143.23
857.288,1133.87
858.248,1155.50
859.210,1124.83
860.170,1126.50
861.130,1135.17
862.090,1116.83
863.050,1145.27
864.010,1125.77
864.969,1138.30
865.929,1146.97
866.888,1145.00
867.848,1105.67
868.807,1148.43
869.766,1141.83
870.727,1097.33
871.686,1101.67
872.645,1118.13
873.604,1097.67
874.562,1128.17
875.521,1133.13
876.479,1087.07
877.437,1140.07
878.396,1150.17
879.354,1120.60
880.312,1119.63
881.270,1151.97
882.229,1160.03
883.187,1126.20
884.145,1122.27
885.102,1139.00
886.059,1118.83
887.017,1128.93
887.974,1095.23
888.931,1114.67
889.888,1095.77
890.845,1110.63
891.802,1111.13
892.758,1104.13
893.717,1111.20
894.673,1126.00
895.630,1140.53
896.586,1136.27
897.542,1107.53
898.498,1086.30
899.454,1128.93
900.410,1143.60
901.366,1147.57
902.321,1117.90
903.277,1152.40
904.232,1133.33
905.189,1109.00
906.145,1145.30
907.100,1108.47
908.055,1156.53
909.010,1118.10
909.965,1144.23
910.919,1158.27
911.874,1156.80
912.828,1124.97
913.783,1137.97
914.737,1145.10
915.693,1109.17
916.648,1125.97
917.602,1101.30
918.555,1162.17
919.509,1135.37
920.463,1160.57
921.417,1162.43
922.370,1157.40
923.324,1155.70
924.277,1103.17
925.230,1128.90
926.183,1150.20
927.138,1167.17
928.091,1144.03
929.044,1101.93
929.996,1139.67
930.949,1161.63
931.902,1124.93
932.854,1131.37
933.806,1153.60
934.758,1150.87
935.711,1175.50
936.663,1149.30
937.614,1145.10
938.568,1171.87
939.520,1157.73
940.471,1110.87
941.423,1133.97
942.374,1171.63
943.326,1164.10
944.277,1156.33
945.228,1134.47
946.179,1117.50
947.130,1151.70
948.080,1125.23
949.031,1126.13
949.984,1181.23
950.934,1144.27
951.884,1159.23
952.835,1138.17
953.785,1165.53
954.735,1132.47
955.685,1155.43
956.635,1134.70
957.585,1116.27
958.534,1122.70
959.484,1162.87
960.433,1144.03
961.383,1174.53
962.334,1136.27
963.283,1142.03
964.232,1132.13
965.181,1142.83
966.130,1118.20
967.079,1141.17
968.027,1104.37
968.976,1089.73
969.924,1132.33
970.873,1168.67
971.821,1126.37
972.769,1089.20
973.719,1144.37
974.667,1129.97
975.615,1144.77
976.562,1160.87
977.510,1138.57
978.458,1142.70
979.405,1175.10
980.352,1148.13
981.300,1127.03
982.247,1128.07
983.194,1137.27
984.141,1144.87
985.088,1146.93
986.036,1117.13
986.983,1155.70
987.930,1156.33
988.876,1137.30
989.822,1136.90
990.769,1124.63
991.715,1162.87
992.661,1124.90
993.607,1158.70
994.553,1126.67
995.498,1162.33
996.444,1134.50
997.389,1142.70
998.337,1163.70
999.282,1155.73
1000.227,1106.30
1001.173,1140.40
1002.118,1125.57
1003.062,1135.80
1004.007,1128.60
1004.952,1128.13
1005.897,1154.33
1006.841,1125.20
1007.786,1162.07
1008.730,1144.53
1009.674,1149.87
1010.618,1185.57
1011.564,1157.13
1012.508,1149.23
1013.452,1127.47
1014.396,1149.03
1015.339,1124.57
1016.283,1191.30
1017.226,1165.07
1018.170,1120.97
1019.113,1156.57
1020.056,1150.43
1020.999,1165.47
1021.942,1158.27
1022.885,1185.50
1023.828,1154.37
1024.770,1172.47
1025.715,1186.33
1026.657,1207.77
1027.600,1152.53
1028.542,1186.67
1029.484,1183.97
1030.426,1156.47
1031.368,1204.33
1032.310,1160.57
1033.251,1191.27
1034.193,1204.17
1035.135,1200.70
1036.076,1181.77
1037.017,1202.63
1037.959,1181.53
1038.900,1252.80
1039.843,1203.73
1040.784,1169.20
1041.725,1206.70
1042.665,1211.03
1043.606,1221.97
1044.547,1219.23
1045.487,1247.43
1046.427,1240.80
1047.368,1268.47
1048.308,1220.03
1049.248,1233.93
1050.188,1211.77
1051.128,1229.50
1052.067,1230.60
1053.007,1245.47
1053.947,1270.43
1054.886,1204.53
1055.827,1264.97
1056.766,1293.77
1057.706,1250.43
1058.645,1283.07
1059.584,1271.67
1060.522,1289.07
1061.461,1268.00
1062.400,1289.20
1063.338,1248.40
1064.277,1286.47
1065.215,1312.70
1066.154,1277.23
1067.092,1305.43
1068.030,1299.07
1068.968,1291.60
1069.906,1313.23
1070.843,1324.07
1071.781,1292.77
1072.720,1305.43
1073.658,1346.57
1074.595,1330.67
1075.533,1322.50
1076.470,1314.97
1077.407,1297.43
1078.344,1340.30
1079.281,1355.33
1080.217,1342.33
1081.154,1315.47
1082.091,1333.20
1083.027,1313.07
1083.964,1389.00
1084.900,1341.20
1085.836,1337.20
1086.772,1354.27
1087.708,1352.87
1088.644,1342.70
1089.580,1354.97
1090.515,1345.23
1091.451,1326.57
1092.388,1360.17
1093.324,1324.87
1094.259,1363.50
1095.194,1374.13
1096.129,1343.83
1097.064,1339.67
1097.999,1329.53
1098.934,1318.87
1099.869,1340.37
1100.803,1332.50
1101.738,1360.10
1102.672,1322.10
1103.607,1360.90
1104.541,1326.90
1105.475,1339.83
1106.409,1363.63
1107.343,1305.30
1108.277,1263.17
1109.210,1316.03
1110.144,1285.63
1111.078,1269.17
1112.011,1277.87
1112.944,1275.80
1113.878,1223.33
1114.811,1278.30
1115.744,1277.97
1116.678,1217.07
1117.611,1252.33
1118.544,1229.43
1119.477,1206.23
1120.409,1208.13
1121.342,1216.50
1122.274,1239.77
1123.206,1231.77
1124.138,1183.93
1125.070,1214.27
1126.002,1196.67
1126.934,1156.37
1127.866,1190.97
1128.798,1193.23
1129.729,1197.27
1130.661,1210.13
1131.592,1179.80
1132.523,1192.10
1133.454,1146.03
1134.385,1171.23
1135.317,1188.43
1136.247,1154.17
1137.178,1111.30
1138.109,1145.00
1139.039,1184.20
1139.970,1151.70
1140.900,1118.73
1141.831,1111.97
1142.761,1095.67
1143.691,1076.00
1144.621,1134.33
1145.551,1117.77
1146.480,1099.17
1147.410,1110.60
1148.340,1098.50
1149.269,1122.77
1150.199,1090.63
1151.128,1105.07
1152.057,1084.33
1152.979,1099.70
1153.898,1092.33
1154.819,1069.67
1155.739,1045.93
1156.658,1096.70
1157.579,1069.03
1158.498,1104.10
1159.419,1086.20
1160.338,1069.87
1161.256,1063.23
1162.177,1079.20
1163.095,1051.37
1164.016,1057.30
1164.934,1065.97
1165.852,1042.10
1166.772,1052.03
1167.690,1049.57
1168.610,1068.87
1169.528,1017.53
1170.446,1042.83
1171.365,1022.83
1172.283,1056.10
1173.202,1050.20
1174.120,1029.90
1175.037,1067.57
1175.956,1047.83
1176.873,1048.83
1177.792,1047.23
1178.709,1053.83
1179.626,1070.20
1180.544,1029.40
1181.461,1036.33
1182.379,1041.47
1183.296,1048.60
1184.212,1033.70
1185.130,1008.53
1186.046,1021.70
1186.962,1022.47
1187.880,1018.17
1188.796,987.53
1189.714,1044.03
1190.629,1039.80
1191.545,1046.53
1192.462,1038.50
1193.378,1031.03
1194.295,1038.37
1195.210,1008.07
1196.125,987.30
1197.042,1053.33
1197.957,1028.50
1198.872,1041.67
1199.788,1031.03
1200.703,1062.33
1201.619,1022.37
1202.534,1051.30
1203.448,1068.53
1204.364,1038.70
1205.278,1009.57
1206.192,1022.73
1207.108,1045.07
1208.022,1022.50
1208.938,1050.43
1209.851,1030.47
1210.765,1027.73
1211.680,1017.63
1212.594,1037.10
1213.507,1024.33
1214.422,1039.10
1215.335,992.53
1216.248,1065.03
1217.163,1042.73
1218.076,1009.40
1218.990,1041.07
1219.903,1042.67
1220.816,1053.03
1221.730,1068.93
1222.642,1055.90
1223.554,1022.83
1224.469,1067.70
1225.380,1045.27
1226.292,1069.30
1227.206,1045.27
1228.118,1048.30
1229.032,1065.83
1229.943,1075.73
1230.855,1063.80
1231.768,1055.07
1232.679,1054.20
1233.590,1041.67
1234.503,1089.37
1235.414,1075.83
1236.325,1052.67
1237.238,1087.53
1238.149,1061.43
1239.059,1073.23
1239.972,1076.47
1240.882,1033.30
1241.793,1064.23
1242.705,1098.07
1243.615,1072.93
1244.525,1069.90
1245.437,1065.43
1246.347,1070.63
1247.259,1030.87
1248.168,1051.77
1249.078,1087.27
1249.989,1081.20
1250.899,1096.67
1251.808,1070.37
1252.719,1107.20
1253.628,1105.20
1254.537,1113.10
1255.448,1074.27
1256.357,1080.00
1257.266,1061.00
1258.176,1101.77
1259.085,1098.53
1259.993,1111.20
1260.904,1120.40
1261.812,1112.43
1262.720,1120.07
1263.630,1087.23
1264.538,1077.80
1265.446,1084.33
1266.356,1089.50
1267.263,1099.23
1268.171,1094.43
1269.080,1083.47
1269.988,1103.83
1270.895,1077.80
1271.804,1091.47
1272.711,1133.10
1273.619,1128.07
1274.527,1088.37
1275.434,1091.30
1276.341,1065.80
1277.248,1118.60
1278.156,1088.23
1279.063,1094.20
1279.969,1074.40
1280.877,1119.13
1281.783,1047.67
1282.690,1129.00
1283.598,1084.27
1284.503,1103.03
1285.409,1111.33
1286.317,1066.37
1287.223,1081.90
1288.128,1038.87
1289.036,1086.27
1289.941,1069.67
1290.846,1079.70
1291.751,1066.53
1292.658,1079.23
1293.563,1032.37
1294.468,1074.07
1295.375,1038.80
1296.280,1107.30
1297.184,1058.03
1298.091,1036.83
1298.995,1049.30
1299.900,1039.83
1300.806,1058.40
1301.710,1036.23
1302.614,1065.97
1303.518,1005.20
1304.424,1048.63
1305.327,1038.97
1306.231,1020.07
1307.137,1074.13
1308.040,997.83
1308.943,1043.37
1309.847,979.17
1310.752,1007.10
1311.655,972.90
1312.558,1030.63
1313.463,1015.40
1314.366,998.10
1315.269,978.13
1316.171,979.70
1317.076,1013.90
1317.978,961.00
1318.881,974.80
1319.785,968.60
1320.687,979.50
1321.589,945.30
1322.491,937.03
1323.395,925.77
1324.297,966.87
1325.198,960.07
1326.102,960.83
1327.004,984.77
1327.905,977.23
1328.806,949.83
1329.709,985.57
1330.611,909.60
1331.512,956.73
1332.413,920.00
1333.316,941.83
1334.216,941.43
1335.117,918.90
1336.020,921.50
1336.920,928.40
1337.821,916.17
1338.721,915.73
1339.623,914.30
1340.523,895.43
1341.423,870.80
1342.323,906.63
1343.225,867.00
1344.125,880.30
1345.025,879.47
1345.924,890.37
1346.826,865.50
1347.725,895.13
1348.624,879.40
1349.524,877.80
1350.425,875.10
1351.324,878.50
1352.223,849.83
1353.121,839.97
1354.022,879.43
1354.921,809.03
1355.819,824.73
1356.718,846.13
1357.618,838.73
1358.516,845.10
1359.415,845.53
1360.313,847.10
1361.213,842.43
1362.111,827.83
1363.008,858.00
1363.906,844.23
1364.806,838.20
1365.703,825.67
1366.601,824.00
1367.498,823.40
1368.397,818.50
1369.295,814.23
1370.192,797.20
1371.089,839.43
1371.987,777.63
1372.884,781.50
1373.781,830.47
1374.678,817.27
1375.574,828.20
1376.473,790.10
1377.369,747.43
1378.265,807.93
1379.161,818.30
1380.059,787.63
1380.955,800.90
1381.851,742.10
1382.747,728.67
1383.643,770.20
1384.540,768.60
1385.436,769.60
1386.331,787.43
1387.227,790.60
1388.124,771.40
1389.019,756.10
1389.914,787.07
1390.809,768.43
1391.704,781.47
1392.601,738.33
1393.495,767.20
1394.390,749.10
1395.285,772.10
1396.179,764.73
1397.075,719.97
1397.969,755.63
1398.864,747.63
1399.758,765.00
1400.652,780.90
1401.547,731.27
1402.441,734.97
1403.335,766.53
1404.229,727.90
1405.122,730.37
1406.017,704.27
1406.911,772.17
1407.804,750.17
1408.697,730.57
1409.590,755.23
1410.485,732.37
1411.378,728.33
1412.271,759.23
1413.163,715.53
1414.056,715.47
1414.949,756.50
1415.843,750.47
1416.735,720.50
1417.627,738.80
1418.520,705.07
1419.412,705.80
1420.306,714.90
1421.197,695.90
1422.089,694.27
1422.981,712.33
1423.873,731.03
1424.764,699.90
1425.657,741.93
1426.549,689.67
1427.440,732.93
1428.331,686.53
1429.222,727.70
1430.113,690.23
1431.006,693.50
1431.897,687.33
1432.787,669.93
1433.678,687.43
1434.568,711.37
1435.459,713.27
1436.351,686.10
1437.241,706.00
1438.131,694.67
1439.021,689.87
1439.911,657.93
1440.801,671.20
1441.693,689.47
1442.583,698.83
1443.472,666.17
1444.362,670.07
1445.251,692.83
1446.140,700.40
1447.030,676.70
1447.921,699.83
1448.810,696.07
1449.699,687.63
1450.588,668.37
1451.476,702.10
1452.365,733.53
1453.254,670.60
1454.144,695.10
1455.032,712.67
1455.921,642.77
1456.809,680.33
1457.697,653.67
1458.585,670.20
1459.473,653.07
1460.361,648.80
1461.251,666.40
1462.138,685.73
1463.026,656.93
1463.913,652.73
1464.801,639.30
1465.688,668.03
1466.575,666.93
1467.463,629.73
1468.351,665.57
1469.238,694.17
1470.125,656.03
1471.012,627.30
1471.899,651.47
1472.785,639.13
1473.672,650.00
1474.558,645.00
1475.446,634.67
1476.333,663.30
1477.219,660.27
1478.105,685.90
1478.991,655.50
1479.877,661.07
1480.762,661.43
1481.648,653.97
1482.534,640.53
1483.419,607.43
1484.307,641.97
1485.192,648.53
1486.077,650.50
1486.962,624.20
1487.847,648.63
1488.732,611.30
1489.617,633.67
1490.502,622.80
1491.387,630.07
1492.271,652.83
1493.156,628.90
1494.042,624.33
1494.927,650.10
1495.811,619.63
1496.695,636.33
1497.579,605.70
1498.463,644.13
1499.347,621.47
1500.231,622.53
1501.114,584.50
1501.998,598.60
1502.881,606.50
1503.765,618.13
1504.648,643.00
1505.533,630.40
1506.417,640.70
1507.300,615.67
1508.183,605.70
1509.066,611.70
1509.948,634.17
1510.831,611.87
1511.714,608.17
1512.596,613.77
1513.479,655.33
1514.361,609.33
1515.243,621.13
1516.125,621.07
1517.008,628.10
1517.890,604.23
1518.771,630.73
1519.655,599.07
1520.537,603.97
1521.419,616.67
1522.300,594.60
1523.182,599.73
1524.063,614.53
1524.944,620.70
1525.825,643.33
1526.707,593.00
1527.588,583.37
1528.468,609.30
1529.349,602.73
1530.230,583.67
1531.111,591.27
1531.991,589.90
1532.872,593.53
1533.752,574.70
1534.632,567.27
1535.513,573.00
1536.393,574.70
1537.273,606.53
1538.153,556.13
1539.032,607.27
1539.912,564.97
1540.792,586.33
1541.672,594.40
1542.551,574.53
1543.430,573.60
1544.310,536.80
1545.189,549.20
1546.068,577.73
1546.947,565.90
1547.826,602.87
1548.705,592.33
1549.584,578.20
1550.462,561.50
1551.341,585.93
1552.219,549.07
1553.098,600.23
1553.976,575.37
1554.854,570.47
1555.733,581.80
1556.611,554.17
1557.489,608.67
1558.367,588.10
1559.244,621.03
1560.122,591.73
1561.000,554.77
1561.877,556.73
1562.755,565.80
1563.632,606.90
1564.509,558.27
1565.386,584.27
1566.264,551.57
1567.141,559.60
1568.017,596.07
1568.894,572.47
1569.771,586.53
1570.648,570.20
1571.524,510.40
1572.401,562.63
1573.277,578.00
1574.153,575.60
1575.029,571.40
1575.906,516.77
1576.781,568.73
1577.657,581.67
1578.533,552.20
1579.409,559.27
1580.285,569.97
1581.160,514.23
1582.036,535.53
1582.911,519.20
1583.786,555.57
1584.662,548.33
1585.537,541.43
1586.412,564.57
1587.287,534.27
1588.160,565.33
1589.035,547.57
1589.909,567.80
1590.784,558.87
1591.658,555.83
1592.533,524.07
1593.407,566.60
1594.281,562.40
1595.155,527.27
1596.029,514.00
1596.903,523.93
1597.777,529.50
1598.651,572.47
1599.525,554.13
1600.398,555.10
1601.272,552.07
1602.144,565.77
1603.017,548.87
1603.890,541.53
1604.763,567.10
1605.636,548.17
1606.509,542.27
1607.382,571.00
1608.255,541.60
1609.128,531.33
1610.000,562.93
1610.873,529.90
1611.746,525.13
1612.616,556.53
1613.488,508.33
1614.361,535.73
1615.233,547.07
1616.105,494.73
1616.977,545.80
1617.849,519.40
1618.720,542.93
1619.592,517.17
1620.464,532.20
1621.333,543.87
1622.205,518.80
1623.076,564.93
1623.947,529.03
1624.818,577.67
1625.689,565.00
1626.560,564.20
1627.431,535.90
1628.302,515.93
1629.171,520.33
1630.042,520.37
1630.912,552.87
1631.782,540.87
1632.653,527.73
1633.523,547.20
1634.393,511.60
1635.263,554.33
1636.131,505.93
1637.001,490.47
1637.871,503.00
1638.741,498.73
1639.611,533.20
1640.480,555.73
1641.350,534.10
1642.219,529.47
1643.087,535.60
1643.956,556.10
1644.825,532.33
1645.694,487.57
1646.563,489.57
1647.432,520.80
1648.299,504.37
1649.167,526.80
1650.036,502.00
1650.904,488.70
1651.773,509.10
1652.641,527.87
1653.509,513.83
1654.376,516.03
1655.244,497.07
1656.112,521.90
1656.980,551.10
1657.847,508.80
1658.715,524.43
1659.581,533.57
1660.448,507.00
1661.316,497.23
1662.183,545.37
1663.051,505.77
1663.918,495.17
1664.783,475.43
1665.650,530.33
1666.517,538.63
1667.384,476.27
1668.251,497.57
1669.115,493.23
1669.982,512.03
1670.849,532.37
1671.715,510.17
1672.581,526.80
1673.446,516.93
1674.312,522.10
1675.178,508.30
1676.044,529.37
1676.910,484.90
1677.774,483.47
1678.639,516.67
1679.505,522.10
1680.370,507.97
1681.236,498.37
1682.099,479.90
1682.965,516.20
1683.830,503.07
1684.695,487.87
1685.560,520.43
1686.423,488.63
1687.288,505.27
1688.153,496.20
1689.017,477.83
1689.880,491.23
1690.745,519.77
1691.609,488.27
1692.473,509.07
1693.338,533.13
1694.200,493.07
1695.064,455.53
1695.928,508.57
1696.792,507.37
1697.654,533.77
1698.517,547.27
1699.381,470.17
1700.245,484.83
1701.106,528.77
1701.969,482.13
1702.833,495.00
1703.696,526.87
1704.557,481.07
1705.420,504.07
1706.283,486.93
1707.146,490.10
1708.007,521.10
1708.870,497.53
1709.732,499.17
1710.595,467.40
1711.455,488.63
1712.318,485.80
1713.180,527.00
1714.040,486.83
1714.902,528.20
1715.764,518.60
1716.626,499.17
1717.486,476.90
1718.348,484.43
1719.209,470.60
1720.071,507.10
1720.930,517.67
1721.792,482.90
1722.653,470.20
1723.512,501.33
1724.374,493.63
1725.234,514.80
1726.095,509.20
1726.954,518.17
1727.815,464.53
1728.676,451.63
1729.535,515.53
1730.395,523.13
1731.256,479.00
1732.114,505.40
1732.974,473.70
1733.834,460.07
1734.693,453.07
1735.553,509.00
1736.413,470.00
1737.272,509.53
1738.130,498.83
1738.990,491.70
1739.849,460.83
1740.707,481.30
1741.566,490.40
1742.426,495.10
1743.283,461.47
1744.142,500.20
1745.001,447.50
1745.858,468.70
1746.717,514.93
1747.576,505.30
1748.433,480.20
1749.292,493.00
1750.150,456.93
1751.007,453.53
1751.865,514.73
1752.723,462.33
1753.579,462.20
1754.438,440.10
1755.296,480.33
1756.152,485.27
1757.010,492.37
1757.865,464.07
1758.723,483.33
1759.581,489.00
1760.436,483.50
1761.294,481.50
1762.151,501.23
1763.006,480.97
1763.864,504.60
1764.721,467.50
1765.576,467.23
1766.433,493.17
1767.288,524.33
1768.144,488.57
1769.001,489.67
1769.856,466.00
1770.712,469.30
1771.568,490.13
1772.423,497.33
1773.279,465.43
1774.133,457.73
1774.989,503.27
1775.845,475.87
1776.699,471.60
1777.555,495.80
1778.409,493.30
1779.265,475.40
1780.120,446.33
1780.974,478.50
1781.829,489.90
1782.682,498.03
1783.538,458.40
1784.393,510.13
1785.246,472.77
1786.101,469.17
1786.954,443.03
1787.808,503.53
1788.661,480.17
1789.516,457.73
1790.370,462.60
1791.223,469.17
1792.077,438.37
1792.930,494.80
1793.784,476.50
1794.636,481.07
1795.490,451.20
1796.344,461.03
1797.196,434.53
1798.049,458.07
1798.901,473.90
1799.755,468.63
1800.606,465.00
1801.460,457.57
1802.311,481.60
1803.165,485.70
1804.018,455.27
1804.869,486.07
1805.722,448.03
1806.573,450.30
1807.426,458.90
1808.276,478.00
1809.129,474.10
1809.980,463.87
1810.832,515.73
1811.683,471.77
1812.535,445.37
1813.385,467.30
1814.237,461.97
1815.089,444.33
1815.940,478.63
1816.791,486.30
1817.641,470.77
1818.493,452.63
1819.343,462.30
1820.194,455.93
1821.044,453.27
1821.895,476.83
1822.745,458.17
1823.596,470.07
1824.445,467.60
1825.296,443.43
1826.145,454.40
1826.996,485.30
1827.845,478.60
1828.695,445.50
1829.544,472.30
1830.395,443.83
1831.243,456.63
1832.094,444.83
1832.942,528.47
1833.792,459.20
1834.640,498.13
1835.490,496.77
1836.338,492.47
1837.186,418.37
1838.036,488.13
1838.884,467.70
1839.733,462.80
1840.581,493.03
1841.430,465.57
1842.278,470.53
1843.127,438.93
1843.974,500.60
1844.823,459.87
1845.671,465.13
1846.519,464.10
1847.366,496.07
1848.213,432.77
1849.062,482.77
1849.909,452.97
1850.757,454.47
1851.604,489.67
1852.452,436.60
1853.298,453.50
1854.146,419.53
1854.993,452.33
1855.839,461.90
1856.687,453.97
1857.532,433.40
1858.380,464.53
1859.226,441.97
1860.073,433.23
1860.919,468.33
1861.765,441.80
1862.612,487.47
1863.457,460.87
1864.304,437.53
1865.150,456.60
1865.995,451.33
1866.842,412.80
1867.686,460.63
1868.533,424.27
1869.378,456.90
1870.223,434.00
1871.069,440.63
1871.914,453.97
1872.760,388.13
1873.604,448.83
1874.448,438.47
1875.294,446.87
1876.139,479.17
1876.984,459.63
1877.828,432.10
1878.672,465.50
1879.518,437.17
1880.361,439.80
1881.205,420.20
1882.050,457.97
1882.894,456.47
1883.739,444.87
1884.582,434.30
1885.425,476.40
1886.270,466.53
1887.113,435.03
1887.956,440.47
1888.801,469.83
1889.644,478.77
1890.486,467.83
1891.331,441.97
1892.173,441.60
1893.017,435.53
1893.860,484.70
1894.702,442.10
1895.546,457.67
1896.388,444.03
1897.230,492.13
1898.074,467.50
1898.916,461.07
1899.757,457.23
1900.601,383.60
1901.443,485.47
1902.284,464.83
1903.125,476.77
1903.969,469.87
1904.810,466.50
1905.651,417.47
1906.494,446.07
1907.335,465.57
1908.176,427.37
1909.018,483.33
1909.859,450.00
1910.700,444.40
1911.542,469.90
1912.383,443.90
1913.223,446.53
1914.064,462.77
1914.906,462.07
1915.746,472.83
1916.586,437.97
1917.428,472.30
1918.268,445.43
1919.107,438.20
1919.947,479.90
1920.789,396.47
1921.628,457.93
1922.468,426.97
1923.309,449.90
1924.148,451.90
1924.988,466.23
1925.827,459.27
1926.667,456.10
1927.507,428.63
1928.345,429.03
1929.184,455.00
1930.025,442.23
1930.864,425.70
1931.702,448.80
1932.541,471.00
1933.381,439.13
1934.219,462.73
1935.057,462.90
1935.896,448.60
1936.735,438.37
1937.573,431.60
1938.411,433.10
1939.249,439.67
1940.089,410.47
1940.927,468.47
1941.764,460.93
1942.602,465.00
1943.439,471.90
1944.278,394.03
1945.115,412.97
1945.953,443.40
1946.790,457.10
1947.628,464.13
1948.465,425.63
1949.302,472.67
1950.139,447.53
1950.976,426.00
1951.814,456.17
1952.651,443.80
1953.487,470.67
1954.323,413.97
1955.160,474.60
1955.998,443.17
1956.834,462.57
1957.670,466.83
1958.506,441.90
1959.342,434.07
1960.177,446.70
1961.015,452.83
1961.850,461.47
1962.686,415.30
1963.521,453.23
1964.357,449.70
1965.192,442.13
1966.029,447.93
1966.864,453.77
1967.699,448.50
1968.534,458.67
1969.369,441.87
1970.204,435.83
1971.040,425.60
1971.875,445.60
1972.709,443.73
1973.544,405.40
1974.378,439.13
1975.212,445.97
1976.047,450.80
1976.882,421.97
1977.716,489.93
1978.550,424.63
1979.384,375.27
1980.218,446.00
1981.052,439.60
1981.885,436.97
1982.719,397.60
1983.554,435.43
1984.388,427.13
1985.221,397.23
1986.054,416.77
1986.887,438.07
1987.720,427.80
1988.553,421.73
1989.386,461.80
1990.219,447.07
1991.053,377.10
1991.886,420.60
1992.719,447.73
1993.551,439.90
1994.383,434.93
1995.216,455.67
1996.048,435.80
1996.880,415.07
1997.712,423.03
1998.544,387.80
1999.376,435.70
2000.208,419.90
2000.208,419.90

Max Intensity Wave.,220.959
Max Intensity Data,6099.63
Min Intensity Wave.,1979.384
Min Intensity Data,375.27
FWHM Wave.,385.620
FWHM Value,28.27
Pressure Wave.,684.671
Pressure Value [GPa],-24.91530
G/D Ratio,0.57793
G/D Gband Wave.,1559.270
G/D Gband Intensity,621.06
G/D Dband Wave.,1307.058
G/D Dband Intensity,1074.62

<< BACKGROUND SPECTRUM >>
Wave[dcm-1],No222
146.591,2225.00
147.626,2128.00
148.664,2045.00
149.699,2472.00
150.737,2233.00
151.772,2339.00
152.809,2389.00
153.846,2258.00
154.881,2376.00
155.918,1959.00
156.953,2255.00
157.989,2562.00
159.026,2408.00
160.060,2613.00
161.096,2802.00
162.130,2498.00
163.167,2529.00
164.200,2428.00
165.236,2611.00
166.272,2657.00
167.305,2241.00
168.341,2494.00
169.374,2740.00
170.409,2754.00
171.445,2691.00
172.477,2486.00
173.512,2341.00
174.545,2621.00
175.580,2833.00
176.614,2995.00
177.647,2809.00
178.681,2995.00
179.713,3262.00
180.747,2798.00
181.781,2687.00
182.813,2978.00
183.847,3043.00
184.878,2704.00
185.912,2936.00
186.945,3110.00
187.976,3033.00
189.010,2674.00
190.043,2821.00
191.073,2889.00
192.106,2700.00
193.137,3151.00
194.170,2536.00
195.202,2863.00
196.232,2678.00
197.265,2952.00
198.297,3006.00
199.327,2732.00
200.359,2906.00
201.388,3264.00
202.420,2888.00
203.452,3080.00
204.481,2664.00
205.512,3249.00
206.544,3045.00
207.573,3016.00
208.604,3340.00
209.635,3469.00
210.663,2955.00
211.694,2923.00
212.725,2816.00
213.753,2749.00
214.783,3354.00
215.813,3154.00
216.841,2923.00
217.871,3157.00
218.899,2866.00
219.929,3076.00
220.959,2845.00
221.986,3135.00
223.016,2775.00
224.045,3108.00
225.072,3084.00
226.101,3134.00
227.130,3215.00
228.157,2815.00
229.185,2345.00
230.214,3140.00
231.241,2805.00
232.269,2451.00
233.297,2627.00
234.323,3198.00
235.351,2793.00
236.379,3079.00
237.407,2738.00
238.433,2922.00
239.460,3049.00
240.488,3075.00
241.513,3167.00
242.540,3065.00
243.568,3169.00
244.592,3166.00
245.619,3178.00
246.646,2867.00
247.671,2950.00
248.697,2750.00
249.724,2952.00
250.748,2949.00
251.774,2947.00
252.801,3240.00
253.827,3053.00
254.850,3037.00
255.876,2675.00
256.902,3075.00
257.925,2917.00
258.951,2703.00
259.976,2718.00
260.999,3039.00
262.024,2739.00
263.049,3595.00
264.074,3122.00
265.097,2957.00
266.122,3027.00
267.146,2986.00
268.168,3159.00
269.193,2793.00
270.217,3195.00
271.241,2682.00
272.263,2857.00
273.287,3186.00
274.311,2771.00
275.332,3254.00
276.356,2840.00
277.379,3039.00
278.402,3105.00
279.424,2922.00
280.447,2861.00
281.470,2681.00
282.492,3038.00
283.513,2871.00
284.536,3149.00
285.558,3099.00
286.581,3099.00
287.601,2845.00
288.623,2791.00
289.645,3054.00
290.665,3059.00
291.687,3143.00
292.709,3087.00
293.730,3371.00
294.750,2885.00
295.771,2723.00
296.792,3010.00
297.813,2879.00
298.832,3038.00
299.853,2774.00
300.874,2926.00
301.895,2933.00
302.913,2942.00
303.934,3208.00
304.954,3016.00
305.975,4224.00
306.993,2706.00
308.013,3049.00
309.033,2996.00
310.052,2880.00
311.072,2845.00
312.090,3004.00
313.109,3250.00
314.129,3389.00
315.148,2997.00
316.165,3042.00
317.184,3213.00
318.203,2729.00
319.222,2734.00
320.238,3103.00
321.257,2773.00
322.275,2663.00
323.294,2955.00
324.312,3096.00
325.328,3274.00
326.346,3270.00
327.364,3230.00
328.382,3139.00
329.397,3117.00
330.415,3201.00
331.432,3184.00
332.450,3216.00
333.467,3411.00
334.482,2547.00
335.499,3327.00
336.516,2833.00
337.533,2556.00
338.547,2814.00
339.564,2823.00
340.580,3066.00
341.597,2911.00
342.613,3377.00
343.627,2956.00
344.643,2994.00
345.659,3097.00
346.675,2950.00
347.690,2882.00
348.704,3001.00
349.719,2849.00
350.735,2687.00
351.750,3180.00
352.765,2968.00
353.778,2935.00
354.793,3118.00
355.808,2802.00
356.822,3136.00
357.837,2669.00
358.851,3202.00
359.864,2920.00
360.878,2729.00
361.892,2920.00
362.906,3179.00
363.920,2576.00
364.932,3056.00
365.945,3046.00
366.959,2972.00
367.972,2898.00
368.986,2705.00
369.999,3361.00
371.010,2828.00
372.023,3256.00
373.036,2888.00
374.049,3322.00
375.061,3026.00
376.072,2976.00
377.084,2849.00
378.097,2709.00
379.109,3152.00
380.121,2980.00
381.133,2652.00
382.143,3111.00
383.155,2686.00
384.166,2877.00
385.178,3052.00
386.189,3208.00
387.201,2694.00
388.212,2928.00
389.221,2859.00
390.232,2985.00
391.243,2885.00
392.254,2968.00
393.264,2808.00
394.275,3191.00
395.283,3138.00
396.294,3527.00
397.304,3440.00
398.314,3057.00
399.324,3010.00
400.334,2649.00
401.344,3130.00
402.351,2652.00
403.361,3195.00
404.370,2949.00
405.380,2871.00
406.389,3312.00
407.398,3149.00
408.407,3034.00
409.414,3114.00
410.423,3322.00
411.431,2725.00
412.440,2631.00
413.448,3269.00
414.457,2829.00
415.465,2789.00
416.471,2847.00
417.479,3006.00
418.487,2826.00
419.495,3307.00
420.503,3075.00
421.510,2602.00
422.518,3112.00
423.525,3097.00
424.530,3363.00
425.537,2882.00
426.544,3184.00
427.551,2836.00
428.558,3550.00
429.565,3430.00
430.571,2852.00
431.578,2865.00
432.582,2860.00
433.588,2929.00
434.595,2608.00
435.601,3245.00
436.607,3239.00
437.612,2728.00
438.618,3339.00
439.624,2925.00
440.627,2926.00
441.633,3063.00
442.638,3584.00
443.643,3039.00
444.648,3007.00
445.653,3180.00
446.658,2862.00
447.663,3008.00
448.667,2850.00
449.672,2910.00
450.674,2961.00
451.678,2701.00
452.682,2849.00
453.687,2800.00
454.690,3572.00
455.694,3230.00
456.698,2542.00
457.702,2655.00
458.705,2768.00
459.709,2773.00
460.710,2889.00
461.713,3012.00
462.716,3042.00
463.719,2965.00
464.722,3130.00
465.725,2983.00
466.727,2829.00
467.730,3017.00
468.732,2731.00
469.735,3245.00
470.737,2898.00
471.737,2866.00
472.739,2870.00
473.741,2815.00
474.742,3023.00
475.744,3060.00
476.746,2993.00
477.747,2937.00
478.748,3143.00
479.750,2878.00
480.751,2948.00
481.752,3678.00
482.753,3074.00
483.751,3535.00
484.752,2584.00
485.753,2972.00
486.753,2816.00
487.753,2929.00
488.754,3366.00
489.754,2677.00
490.754,3241.00
491.754,3116.00
492.754,2687.00
493.753,2985.00
494.753,2890.00
495.752,3242.00
496.752,3060.00
497.749,2935.00
498.748,2818.00
499.747,3376.00
500.746,3036.00
501.745,2744.00
502.744,2694.00
503.742,3292.00
504.741,2913.00
505.739,2493.00
506.737,2897.00
507.735,3068.00
508.734,3377.00
509.732,3114.00
510.729,3303.00
511.727,2858.00
512.725,2844.00
513.720,2770.00
514.718,3232.00
515.715,2658.00
516.712,2597.00
517.709,2960.00
518.706,2884.00
519.703,2992.00
520.700,3177.00
521.696,3327.00
522.693,2920.00
523.689,2848.00
524.686,3144.00
525.682,2759.00
526.678,3439.00
527.674,2913.00
528.670,2584.00
529.666,3449.00
530.661,3463.00
531.657,3630.00
532.652,3138.00
533.648,2981.00
534.641,3131.00
535.636,3010.00
536.631,3032.00
537.626,3140.00
538.621,2703.00
539.616,2591.00
540.610,2477.00
541.605,2997.00
542.599,2996.00
543.593,2986.00
544.587,3866.00
545.581,2806.00
546.575,3014.00
547.569,3017.00
548.563,2669.00
549.557,2629.00
550.550,2777.00
551.543,2709.00
552.537,3127.00
553.530,2734.00
554.523,2763.00
555.516,3055.00
556.509,2927.00
557.502,2610.00
558.494,3165.00
559.487,2895.00
560.479,3175.00
561.472,3230.00
562.464,3104.00
563.456,3319.00
564.448,2962.00
565.440,2962.00
566.432,3389.00
567.423,2837.00
568.415,2843.00
569.404,3096.00
570.396,2804.00
571.387,3098.00
572.378,2982.00
573.369,3890.00
574.360,3648.00
575.351,2964.00
576.341,2812.00
577.332,2860.00
578.323,2673.00
579.313,2840.00
580.303,3192.00
581.293,3089.00
582.283,2989.00
583.273,3090.00
584.263,2961.00
585.253,3081.00
586.243,3107.00
587.232,2650.00
588.222,2917.00
589.211,3182.00
590.200,3035.00
591.189,2959.00
592.178,2940.00
593.167,3335.00
594.156,3228.00
595.145,2883.00
596.133,3422.00
597.122,3069.00
598.110,3162.00
599.098,3037.00
600.086,2966.00
601.074,3133.00
602.062,2826.00
603.050,2764.00
604.038,3082.00
605.025,2745.00
606.013,3142.00
607.000,3340.00
607.987,2972.00
608.975,3032.00
609.962,2750.00
610.949,3136.00
611.936,3213.00
612.922,3120.00
613.909,2685.00
614.895,3321.00
615.882,2832.00
616.868,3018.00
617.854,2705.00
618.841,3007.00
619.826,3046.00
620.812,2956.00
621.798,2781.00
622.784,3183.00
623.769,3098.00
624.755,2680.00
625.740,3053.00
626.725,2699.00
627.711,2827.00
628.698,3044.00
629.683,2789.00
630.667,3150.00
631.652,2719.00
632.637,2902.00
633.621,3145.00
634.606,2870.00
635.590,3069.00
636.574,2891.00
637.558,3049.00
638.542,2995.00
639.526,2817.00
640.510,2610.00
641.493,2962.00
642.477,2979.00
643.460,2702.00
644.444,3215.00
645.427,3176.00
646.410,2632.00
647.393,2955.00
648.376,3021.00
649.359,2875.00
650.341,3061.00
651.324,3081.00
652.307,3015.00
653.289,2926.00
654.271,2863.00
655.253,2898.00
656.235,3122.00
657.217,3194.00
658.199,2596.00
659.181,2751.00
660.163,2956.00
661.144,2832.00
662.126,2857.00
663.107,2740.00
664.088,6214.00
665.069,3212.00
666.050,2777.00
667.033,2706.00
668.014,3025.00
668.995,2553.00
669.975,2993.00
670.956,2950.00
671.936,3089.00
672.916,2951.00
673.896,3062.00
674.876,2903.00
675.856,2889.00
676.836,2750.00
677.816,2310.00
678.795,2809.00
679.775,2667.00
680.754,2995.00
681.734,3140.00
682.713,3120.00
683.692,2759.00
684.671,2619.00
685.650,2727.00
686.629,2857.00
687.607,2720.00
688.586,2714.00
689.564,2866.00
690.543,3194.00
691.523,2367.00
692.501,2780.00
693.479,2908.00
694.457,2785.00
695.435,2829.00
696.413,2674.00
697.390,2505.00
698.368,2668.00
699.345,3046.00
700.322,2959.00
701.300,3041.00
702.277,2991.00
703.254,3237.00
704.231,2581.00
705.207,2943.00
706.184,2750.00
707.161,2678.00
708.137,2787.00
709.113,2790.00
710.090,2722.00
711.068,2589.00
712.044,2605.00
713.020,2899.00
713.996,2584.00
714.971,2804.00
715.947,2815.00
716.922,2775.00
717.898,2727.00
718.873,2865.00
719.848,2709.00
720.823,2714.00
721.798,2983.00
722.773,2766.00
723.748,2551.00
724.723,3003.00
725.697,2848.00
726.672,2719.00
727.646,2525.00
728.622,2978.00
729.596,2571.00
730.570,2712.00
731.544,3055.00
732.518,3263.00
733.492,2813.00
734.466,2870.00
735.439,2989.00
736.413,3079.00
737.386,2450.00
738.359,2426.00
739.332,2532.00
740.305,2838.00
741.278,3290.00
742.251,2884.00
743.224,2716.00
744.196,2536.00
745.171,3137.00
746.143,2988.00
747.115,2749.00
748.087,2717.00
749.059,3072.00
750.031,2914.00
751.003,3697.00
751.975,3214.00
752.947,2719.00
753.918,3085.00
754.890,2565.00
755.861,2775.00
756.832,3001.00
757.803,2795.00
758.774,2842.00
759.747,2595.00
760.718,3183.00
761.689,2759.00
762.659,2590.00
763.630,3108.00
764.600,2506.00
765.570,3051.00
766.540,3107.00
767.510,2933.00
768.480,3056.00
769.450,2673.00
770.420,2826.00
771.390,2646.00
772.359,2739.00
773.329,2625.00
774.300,2491.00
775.269,2753.00
776.238,2960.00
777.207,3135.00
778.176,2511.00
779.145,2746.00
780.114,2679.00
781.083,2573.00
782.051,2710.00
783.019,2706.00
783.988,3101.00
784.956,2866.00
785.924,2954.00
786.894,2848.00
787.862,2705.00
788.830,3115.00
789.797,2616.00
790.765,2589.00
791.732,2741.00
792.700,2667.00
793.667,2607.00
794.634,2708.00
795.601,2714.00
796.568,2767.00
797.535,2822.00
798.502,3414.00
799.468,2905.00
800.437,2393.00
801.403,2642.00
802.370,3237.00
803.336,2952.00
804.302,2854.00
805.268,2423.00
806.234,2557.00
807.200,2727.00
808.166,2765.00
809.131,2580.00
810.097,2970.00
811.062,3638.00
812.027,2986.00
812.994,2634.00
813.960,2573.00
814.925,2932.00
815.889,2508.00
816.854,2985.00
817.819,2612.00
818.783,2747.00
819.748,3100.00
820.712,2712.00
821.677,2650.00
822.641,2669.00
823.605,2698.00
824.571,3156.00
825.534,2712.00
826.498,2672.00
827.462,2799.00
828.425,2605.00
829.389,3028.00
830.352,2817.00
831.315,2889.00
832.279,2510.00
833.242,2762.00
834.204,2648.00
835.167,2667.00
836.132,3015.00
837.095,2517.00
838.057,2693.00
839.020,2836.00
839.982,2834.00
840.944,2675.00
841.906,2611.00
842.868,2958.00
843.830,2540.00
844.792,3020.00
845.753,2631.00
846.715,2422.00
847.679,2565.00
848.640,2608.00
849.601,2749.00
850.562,3210.00
851.523,2668.00
852.484,2471.00
853.445,2973.00
854.406,2710.00
855.367,2745.00
856.327,3036.00
857.288,2523.00
858.248,2666.00
859.210,2712.00
860.170,2539.00
861.130,3004.00
862.090,2442.00
863.050,2620.00
864.010,2697.00
864.969,2894.00
865.929,2584.00
866.888,2508.00
867.848,2853.00
868.807,2643.00
869.766,2844.00
870.727,2756.00
871.686,3005.00
872.645,2999.00
873.604,3314.00
874.562,2752.00
875.521,2792.00
876.479,3382.00
877.437,2570.00
878.396,2569.00
879.354,3180.00
880.312,2597.00
881.270,2637.00
882.229,3057.00
883.187,2614.00
884.145,2669.00
885.102,2918.00
886.059,2839.00
887.017,2886.00
887.974,2968.00
888.931,3070.00
889.888,2541.00
890.845,2443.00
891.802,2360.00
892.758,2657.00
893.717,2440.00
894.673,2559.00
895.630,2615.00
896.586,2896.00
897.542,2682.00
898.498,2556.00
899.454,2851.00
900.410,2647.00
901.366,2645.00
902.321,2617.00
903.277,2676.00
904.232,2723.00
905.189,2495.00
906.145,2638.00
907.100,2250.00
908.055,2673.00
909.010,2915.00
909.965,2322.00
910.919,2764.00
911.874,2540.00
912.828,2767.00
913.783,2758.00
914.737,2336.00
915.693,2776.00
916.648,2924.00
917.602,2987.00
918.555,2756.00
919.509,2832.00
920.463,2720.00
921.417,2725.00
922.370,2555.00
923.324,2652.00
924.277,2681.00
925.230,2761.00
926.183,2402.00
927.138,2658.00
928.091,2929.00
929.044,2854.00
929.996,2651.00
930.949,2632.00
931.902,2840.00
932.854,2859.00
933.806,2573.00
934.758,2963.00
935.711,2960.00
936.663,2785.00
937.614,2806.00
938.568,2723.00
939.520,2390.00
940.471,2745.00
941.423,2795.00
942.374,2865.00
943.326,2742.00
944.277,2588.00
945.228,2859.00
946.179,2730.00
947.130,3027.00
948.080,2685.00
949.031,2580.00
949.984,2646.00
950.934,2708.00
951.884,2466.00
952.835,2715.00
953.785,2728.00
954.735,2617.00
955.685,2336.00
956.635,2636.00
957.585,2655.00
958.534,2644.00
959.484,2723.00
960.433,2609.00
961.383,2437.00
962.334,2951.00
963.283,2764.00
964.232,2855.00
965.181,2715.00
966.130,2798.00
967.079,2606.00
968.027,2748.00
968.976,2782.00
969.924,2611.00
970.873,2772.00
971.821,2756.00
972.769,2960.00
973.719,2841.00
974.667,2491.00
975.615,2713.00
976.562,2697.00
977.510,2404.00
978.458,2615.00
979.405,2790.00
980.352,2771.00
981.300,2975.00
982.247,2805.00
983.194,2539.00
984.141,2625.00
985.088,2711.00
986.036,2803.00
986.983,2994.00
987.930,3107.00
988.876,2371.00
989.822,2955.00
990.769,2578.00
991.715,2592.00
992.661,2458.00
993.607,2770.00
994.553,3283.00
995.498,2585.00
996.444,2305.00
997.389,2793.00
998.337,2501.00
999.282,2855.00
1000.227,2695.00
1001.173,2714.00
1002.118,2471.00
1003.062,2910.00
1004.007,2690.00
1004.952,3003.00
1005.897,2928.00
1006.841,2718.00
1007.786,2445.00
1008.730,2436.00
1009.674,3166.00
1010.618,2620.00
1011.564,2516.00
1012.508,2402.00
1013.452,2968.00
1014.396,2733.00
1015.339,2645.00
1016.283,2665.00
1017.226,2744.00
1018.170,2745.00
1019.113,2899.00
1020.056,2738.00
1020.999,2715.00
1021.942,2621.00
1022.885,2842.00
1023.828,3007.00
1024.770,2496.00
1025.715,2742.00
1026.657,2646.00
1027.600,2769.00
1028.542,2922.00
1029.484,2733.00
1030.426,2888.00
1031.368,2748.00
1032.310,2594.00
1033.251,2525.00
1034.193,2675.00
1035.135,2485.00
1036.076,2644.00
1037.017,2528.00
1037.959,2859.00
1038.900,2730.00
1039.843,2810.00
1040.784,2784.00
1041.725,2808.00
1042.665,2614.00
1043.606,2761.00
1044.547,2752.00
1045.487,2348.00
1046.427,2648.00
1047.368,2724.00
1048.308,2263.00
1049.248,2509.00
1050.188,2721.00
1051.128,2617.00
1052.067,2660.00
1053.007,2407.00
1053.947,2378.00
1054.886,2619.00
1055.827,2478.00
1056.766,2848.00
1057.706,2471.00
1058.645,2652.00
1059.584,2751.00
1060.522,2952.00
1061.461,2452.00
1062.400,2454.00
1063.338,2669.00
1064.277,2503.00
1065.215,2493.00
1066.154,2420.00
1067.092,2581.00
1068.030,2618.00
1068.968,2859.00
1069.906,2994.00
1070.843,2937.00
1071.781,2763.00
1072.720,2824.00
1073.658,2787.00
1074.595,2593.00
1075.533,2559.00
1076.470,2599.00
1077.407,3004.00
1078.344,2755.00
1079.281,2778.00
1080.217,2311.00
1081.154,2699.00
1082.091,2737.00
1083.027,2475.00
1083.964,2872.00
1084.900,2562.00
1085.836,2614.00
1086.772,2874.00
1087.708,2462.00
1088.644,2824.00
1089.580,2681.00
1090.515,2752.00
1091.451,2637.00
1092.388,2697.00
1093.324,2477.00
1094.259,3211.00
1095.194,2733.00
1096.129,2622.00
1097.064,2575.00
1097.999,2827.00
1098.934,2550.00
1099.869,2547.00
1100.803,2720.00
1101.738,2682.00
1102.672,2382.00
1103.607,2768.00
1104.541,2530.00
1105.475,2520.00
1106.409,2372.00
1107.343,2605.00
1108.277,2469.00
1109.210,2689.00
1110.144,2680.00
1111.078,2688.00
1112.011,2462.00
1112.944,2762.00
1113.878,2775.00
1114.811,2176.00
1115.744,2560.00
1116.678,2353.00
1117.611,2564.00
1118.544,2614.00
1119.477,2776.00
1120.409,2584.00
1121.342,3122.00
1122.274,2737.00
1123.206,4220.00
1124.138,2701.00
1125.070,2968.00
1126.002,2841.00
1126.934,2342.00
1127.866,2569.00
1128.798,2334.00
1129.729,2377.00
1130.661,2623.00
1131.592,2564.00
1132.523,2727.00
1133.454,2784.00
1134.385,2295.00
1135.317,2626.00
1136.247,2577.00
1137.178,2895.00
1138.109,2389.00
1139.039,2978.00
1139.970,2825.00
1140.900,2586.00
1141.831,2359.00
1142.761,2274.00
1143.691,3305.00
1144.621,2638.00
1145.551,2708.00
1146.480,2706.00
1147.410,2848.00
1148.340,2319.00
1149.269,2360.00
1150.199,2609.00
1151.128,3041.00
1152.057,2457.00
1152.979,2571.00
1153.898,2633.00
1154.819,2754.00
1155.739,2675.00
1156.658,2558.00
1157.579,2698.00
1158.498,2614.00
1159.419,2188.00
1160.338,2690.00
1161.256,2708.00
1162.177,2493.00
1163.095,2644.00
1164.016,2717.00
1164.934,2901.00
1165.852,2845.00
1166.772,2639.00
1167.690,2660.00
1168.610,2694.00
1169.528,2690.00
1170.446,2215.00
1171.365,2594.00
1172.283,2513.00
1173.202,2641.00
1174.120,2696.00
1175.037,2491.00
1175.956,2461.00
1176.873,2514.00
1177.792,2526.00
1178.709,3105.00
1179.626,2507.00
1180.544,2863.00
1181.461,2516.00
1182.379,2712.00
1183.296,2626.00
1184.212,2287.00
1185.130,2522.00
1186.046,2981.00
1186.962,2649.00
1187.880,2932.00
1188.796,2723.00
1189.714,2421.00
1190.629,2767.00
1191.545,2682.00
1192.462,2564.00
1193.378,2615.00
1194.295,2343.00
1195.210,2666.00
1196.125,2825.00
1197.042,2692.00
1197.957,2634.00
1198.872,2507.00
1199.788,2541.00
1200.703,2923.00
1201.619,2665.00
1202.534,2489.00
1203.448,2675.00
1204.364,2558.00
1205.278,2322.00
1206.192,2690.00
1207.108,3126.00
1208.022,3003.00
1208.938,2472.00
1209.851,2784.00
1210.765,2868.00
1211.680,2544.00
1212.594,2414.00
1213.507,2580.00
1214.422,3021.00
1215.335,2793.00
1216.248,2540.00
1217.163,2661.00
1218.076,3256.00
1218.990,2754.00
1219.903,2406.00
1220.816,2457.00
1221.730,2582.00
1222.642,2500.00
1223.554,2573.00
1224.469,2684.00
1225.380,2582.00
1226.292,2285.00
1227.206,2769.00
1228.118,2955.00
1229.032,2252.00
1229.943,2484.00
1230.855,2571.00
1231.768,2391.00
1232.679,2727.00
1233.590,2620.00
1234.503,2828.00
1235.414,2482.00
1236.325,2515.00
1237.238,2678.00
1238.149,2740.00
1239.059,2448.00
1239.972,2804.00
1240.882,2475.00
1241.793,2761.00
1242.705,2965.00
1243.615,2593.00
1244.525,2728.00
1245.437,2218.00
1246.347,2695.00
1247.259,2831.00
1248.168,3095.00
1249.078,2877.00
1249.989,2901.00
1250.899,2435.00
1251.808,2522.00
1252.719,2546.00
1253.628,2471.00
1254.537,2982.00
1255.448,2482.00
1256.357,2476.00
1257.266,2673.00
1258.176,2363.00
1259.085,2344.00
1259.993,2436.00
1260.904,2448.00
1261.812,2439.00
1262.720,3207.00
1263.630,2804.00
1264.538,2485.00
1265.446,2737.00
1266.356,2622.00
1267.263,2894.00
1268.171,2440.00
1269.080,2702.00
1269.988,2806.00
1270.895,2552.00
1271.804,2592.00
1272.711,2764.00
1273.619,2752.00
1274.527,2461.00
1275.434,2745.00
1276.341,2460.00
1277.248,2632.00
1278.156,2916.00
1279.063,2495.00
1279.969,2742.00
1280.877,3488.00
1281.783,2876.00
1282.690,2653.00
1283.598,2595.00
1284.503,2464.00
1285.409,2437.00
1286.317,3008.00
1287.223,3010.00
1288.128,2719.00
1289.036,2509.00
1289.941,2575.00
1290.846,2624.00
1291.751,2464.00
1292.658,2522.00
1293.563,3091.00
1294.468,2631.00
1295.375,2797.00
1296.280,2828.00
1297.184,3337.00
1298.091,2739.00
1298.995,2783.00
1299.900,3014.00
1300.806,2520.00
1301.710,2399.00
1302.614,2175.00
1303.518,2899.00
1304.424,2556.00
1305.327,2801.00
1306.231,2615.00
1307.137,2723.00
1308.040,2707.00
1308.943,2632.00
1309.847,2878.00
1310.752,2823.00
1311.655,2322.00
1312.558,2394.00
1313.463,2560.00
1314.366,2517.00
1315.269,2691.00
1316.171,2624.00
1317.076,2489.00
1317.978,2445.00
1318.881,2243.00
1319.785,2491.00
1320.687,2485.00
1321.589,2267.00
1322.491,2486.00
1323.395,2730.00
1324.297,3179.00
1325.198,2750.00
1326.102,2434.00
1327.004,2424.00
1327.905,2996.00
1328.806,2594.00
1329.709,2656.00
1330.611,2584.00
1331.512,2421.00
1332.413,3097.00
1333.316,2664.00
1334.216,2784.00
1335.117,2368.00
1336.020,2659.00
1336.920,2626.00
1337.821,2508.00
1338.721,2880.00
1339.623,2684.00
1340.523,2602.00
1341.423,2528.00
1342.323,2884.00
1343.225,2736.00
1344.125,2468.00
1345.025,2513.00
1345.924,2301.00
1346.826,2976.00
1347.725,3020.00
1348.624,2856.00
1349.524,2495.00
1350.425,2579.00
1351.324,2713.00
1352.223,2812.00
1353.121,2632.00
1354.022,2799.00
1354.921,3062.00
1355.819,2783.00
1356.718,2680.00
1357.618,2393.00
1358.516,2739.00
1359.415,3009.00
1360.313,2710.00
1361.213,2572.00
1362.111,2902.00
1363.008,3235.00
1363.906,2591.00
1364.806,2633.00
1365.703,2712.00
1366.601,2456.00
1367.498,2443.00
1368.397,2822.00
1369.295,2691.00
1370.192,2476.00
1371.089,2689.00
1371.987,2651.00
1372.884,2900.00
1373.781,2399.00
1374.678,2620.00
1375.574,2435.00
1376.473,2751.00
1377.369,2897.00
1378.265,2459.00
1379.161,2552.00
1380.059,2347.00
1380.955,2739.00
1381.851,2450.00
1382.747,2574.00
1383.643,2560.00
1384.540,2451.00
1385.436,2526.00
1386.331,2680.00
1387.227,2769.00
1388.124,2753.00
1389.019,2455.00
1389.914,2581.00
1390.809,2272.00
1391.704,3023.00
1392.601,2566.00
1393.495,2902.00
1394.390,2811.00
1395.285,2865.00
1396.179,2690.00
1397.075,2620.00
1397.969,2689.00
1398.864,2326.00
1399.758,2566.00
1400.652,2633.00
1401.547,2473.00
1402.441,2418.00
1403.335,2933.00
1404.229,2684.00
1405.122,2723.00
1406.017,2642.00
1406.911,2744.00
1407.804,3010.00
1408.697,2609.00
1409.590,2446.00
1410.485,2812.00
1411.378,2693.00
1412.271,2316.00
1413.163,2707.00
1414.056,2789.00
1414.949,2973.00
1415.843,2650.00
1416.735,2589.00
1417.627,2623.00
1418.520,2623.00
1419.412,2858.00
1420.306,2801.00
1421.197,2922.00
1422.089,2871.00
1422.981,3075.00
1423.873,2792.00
1424.764,2754.00
1425.657,2629.00
1426.549,2787.00
1427.440,2802.00
1428.331,2560.00
1429.222,2308.00
1430.113,2691.00
1431.006,2814.00
1431.897,2549.00
1432.787,2684.00
1433.678,2580.00
1434.568,2454.00
1435.459,2848.00
1436.351,2810.00
1437.241,2764.00
1438.131,2781.00
1439.021,2408.00
1439.911,2644.00
1440.801,2701.00
1441.693,2857.00
1442.583,2646.00
1443.472,2652.00
1444.362,2769.00
1445.251,2586.00
1446.140,2547.00
1447.030,2828.00
1447.921,2816.00
1448.810,2459.00
1449.699,2997.00
1450.588,2679.00
1451.476,2520.00
1452.365,2685.00
1453.254,2546.00
1454.144,2506.00
1455.032,2746.00
1455.921,2397.00
1456.809,2915.00
1457.697,2465.00
1458.585,2580.00
1459.473,2592.00
1460.361,2499.00
1461.251,2707.00
1462.138,2695.00
1463.026,2601.00
1463.913,2885.00
1464.801,2562.00
1465.688,2722.00
1466.575,2647.00
1467.463,3123.00
1468.351,2498.00
1469.238,2576.00
1470.125,2248.00
1471.012,2718.00
1471.899,2718.00
1472.785,2472.00
1473.672,2641.00
1474.558,2868.00
1475.446,2797.00
1476.333,2780.00
1477.219,2441.00
1478.105,2571.00
1478.991,2588.00
1479.877,2919.00
1480.762,2616.00
1481.648,2499.00
1482.534,2787.00
1483.419,2724.00
1484.307,2759.00
1485.192,2605.00
1486.077,2474.00
1486.962,2522.00
1487.847,2388.00
1488.732,2514.00
1489.617,2646.00
1490.502,2913.00
1491.387,2773.00
1492.271,2453.00
1493.156,2488.00
1494.042,2456.00
1494.927,2806.00
1495.811,2546.00
1496.695,2763.00
1497.579,2940.00
1498.463,2617.00
1499.347,2685.00
1500.231,2672.00
1501.114,2734.00
1501.998,2921.00
1502.881,2695.00
1503.765,2926.00
1504.648,3017.00
1505.533,2740.00
1506.417,2626.00
1507.300,2603.00
1508.183,2721.00
1509.066,2151.00
1509.948,2864.00
1510.831,2984.00
1511.714,2438.00
1512.596,2770.00
1513.479,2838.00
1514.361,2848.00
1515.243,2649.00
1516.125,2789.00
1517.008,2885.00
1517.890,2596.00
1518.771,2641.00
1519.655,2882.00
1520.537,2602.00
1521.419,2475.00
1522.300,2685.00
1523.182,2783.00
1524.063,2749.00
1524.944,2909.00
1525.825,2782.00
1526.707,2463.00
1527.588,2450.00
1528.468,2711.00
1529.349,2323.00
1530.230,2584.00
1531.111,2827.00
1531.991,2696.00
1532.872,2363.00
1533.752,2630.00
1534.632,2537.00
1535.513,2542.00
1536.393,2805.00
1537.273,2923.00
1538.153,3324.00
1539.032,2375.00
1539.912,2640.00
1540.792,2662.00
1541.672,2638.00
1542.551,2761.00
1543.430,3238.00
1544.310,2728.00
1545.189,2565.00
1546.068,3064.00
1546.947,2782.00
1547.826,2948.00
1548.705,2636.00
1549.584,2863.00
1550.462,2628.00
1551.341,2796.00
1552.219,2732.00
1553.098,2772.00
1553.976,2867.00
1554.854,3052.00
1555.733,2853.00
1556.611,2597.00
1557.489,2421.00
1558.367,2639.00
1559.244,2769.00
1560.122,2610.00
1561.000,2739.00
1561.877,2954.00
1562.755,2535.00
1563.632,2586.00
1564.509,2924.00
1565.386,3006.00
1566.264,2421.00
1567.141,2298.00
1568.017,2769.00
1568.894,2644.00
1569.771,2677.00
1570.648,2762.00
1571.524,2728.00
1572.401,2410.00
1573.277,2429.00
1574.153,2683.00
1575.029,2505.00
1575.906,3401.00
1576.781,2808.00
1577.657,2579.00
1578.533,2903.00
1579.409,2302.00
1580.285,2619.00
1581.160,3105.00
1582.036,2831.00
1582.911,2515.00
1583.786,2988.00
1584.662,2471.00
1585.537,2630.00
1586.412,2683.00
1587.287,2510.00
1588.160,2812.00
1589.035,2322.00
1589.909,2664.00
1590.784,2615.00
1591.658,2456.00
1592.533,2729.00
1593.407,2652.00
1594.281,2533.00
1595.155,3063.00
1596.029,2600.00
1596.903,2623.00
1597.777,2601.00
1598.651,2879.00
1599.525,2363.00
1600.398,2665.00
1601.272,2618.00
1602.144,3151.00
1603.017,2599.00
1603.890,2898.00
1604.763,2735.00
1605.636,2804.00
1606.509,2370.00
1607.382,2466.00
1608.255,2724.00
1609.128,2887.00
1610.000,2601.00
1610.873,2369.00
1611.746,2568.00
1612.616,2585.00
1613.488,2270.00
1614.361,2654.00
1615.233,2590.00
1616.105,2912.00
1616.977,2566.00
1617.849,2513.00
1618.720,2960.00
1619.592,2968.00
1620.464,2749.00
1621.333,3084.00
1622.205,2666.00
1623.076,2612.00
1623.947,2644.00
1624.818,2854.00
1625.689,2741.00
1626.560,2548.00
1627.431,2709.00
1628.302,3044.00
1629.171,2797.00
1630.042,2970.00
1630.912,3272.00
1631.782,3215.00
1632.653,2472.00
1633.523,2795.00
1634.393,2897.00
1635.263,2509.00
1636.131,2650.00
1637.001,2612.00
1637.871,2306.00
1638.741,2331.00
1639.611,2402.00
1640.480,2749.00
1641.350,2516.00
1642.219,2488.00
1643.087,2162.00
1643.956,3041.00
1644.825,2887.00
1645.694,2881.00
1646.563,2844.00
1647.432,2705.00
1648.299,2690.00
1649.167,2774.00
1650.036,2486.00
1650.904,2812.00
1651.773,2891.00
1652.641,2677.00
1653.509,2860.00
1654.376,2532.00
1655.244,2721.00
1656.112,2698.00
1656.980,2642.00
1657.847,2528.00
1658.715,2813.00
1659.581,2547.00
1660.448,2892.00
1661.316,2200.00
1662.183,2665.00
1663.051,2719.00
1663.918,2703.00
1664.783,2712.00
1665.650,2729.00
1666.517,2795.00
1667.384,2710.00
1668.251,2714.00
1669.115,2881.00
1669.982,2619.00
1670.849,2923.00
1671.715,2636.00
1672.581,2788.00
1673.446,2759.00
1674.312,2670.00
1675.178,3051.00
1676.044,2716.00
1676.910,2768.00
1677.774,2726.00
1678.639,2317.00
1679.505,2647.00
1680.370,2784.00
1681.236,3305.00
1682.099,2632.00
1682.965,2675.00
1683.830,2267.00
1684.695,2504.00
1685.560,2571.00
1686.423,2820.00
1687.288,2794.00
1688.153,2723.00
1689.017,2621.00
1689.880,2743.00
1690.745,2789.00
1691.609,2517.00
1692.473,2803.00
1693.338,2846.00
1694.200,2930.00
1695.064,2711.00
1695.928,2563.00
1696.792,2666.00
1697.654,3124.00
1698.517,2648.00
1699.381,2447.00
1700.245,2346.00
1701.106,2924.00
1701.969,2580.00
1702.833,2808.00
1703.696,2547.00
1704.557,2640.00
1705.420,2524.00
1706.283,2696.00
1707.146,2808.00
1708.007,2455.00
1708.870,2465.00
1709.732,2352.00
1710.595,2577.00
1711.455,2441.00
1712.318,2590.00
1713.180,2895.00
1714.040,2713.00
1714.902,2803.00
1715.764,2650.00
1716.626,2449.00
1717.486,2635.00
1718.348,2931.00
1719.209,4142.00
1720.071,2320.00
1720.930,2387.00
1721.792,2523.00
1722.653,2547.00
1723.512,2548.00
1724.374,2620.00
1725.234,2695.00
1726.095,2667.00
1726.954,2639.00
1727.815,2812.00
1728.676,2692.00
1729.535,2851.00
1730.395,2610.00
1731.256,2591.00
1732.114,2701.00
1732.974,2164.00
1733.834,3054.00
1734.693,2873.00
1735.553,2662.00
1736.413,3090.00
1737.272,2536.00
1738.130,2588.00
1738.990,2742.00
1739.849,2592.00
1740.707,3649.00
1741.566,2697.00
1742.426,2700.00
1743.283,3081.00
1744.142,2545.00
1745.001,2379.00
1745.858,2846.00
1746.717,2689.00
1747.576,2747.00
1748.433,2822.00
1749.292,3214.00
1750.150,3304.00
1751.007,2890.00
1751.865,2843.00
1752.723,2716.00
1753.579,2612.00
1754.438,2920.00
1755.296,2877.00
1756.152,2250.00
1757.010,2349.00
1757.865,2880.00
1758.723,2329.00
1759.581,2966.00
1760.436,2633.00
1761.294,3030.00
1762.151,2640.00
1763.006,2591.00
1763.864,2297.00
1764.721,2870.00
1765.576,2701.00
1766.433,2801.00
1767.288,2539.00
1768.144,2715.00
1769.001,2609.00
1769.856,2762.00
1770.712,2886.00
1771.568,2450.00
1772.423,2547.00
1773.279,2594.00
1774.133,2597.00
1774.989,3028.00
1775.845,3053.00
1776.699,2923.00
1777.555,2637.00
1778.409,3183.00
1779.265,2628.00
1780.120,2667.00
1780.974,2650.00
1781.829,2266.00
1782.682,2702.00
1783.538,2513.00
1784.393,2686.00
1785.246,2572.00
1786.101,2776.00
1786.954,2828.00
1787.808,2858.00
1788.661,2400.00
1789.516,2616.00
1790.370,2620.00
1791.223,2853.00
1792.077,2705.00
1792.930,2729.00
1793.784,2549.00
1794.636,2684.00
1795.490,2659.00
1796.344,2702.00
1797.196,2698.00
1798.049,2843.00
1798.901,2564.00
1799.755,2898.00
1800.606,2476.00
1801.460,3200.00
1802.311,2955.00
1803.165,3049.00
1804.018,3037.00
1804.869,2741.00
1805.722,3152.00
1806.573,2734.00
1807.426,2514.00
1808.276,2663.00
1809.129,2587.00
1809.980,2873.00
1810.832,2912.00
1811.683,2596.00
1812.535,3019.00
1813.385,2618.00
1814.237,2954.00
1815.089,2729.00
1815.940,2941.00
1816.791,2606.00
1817.641,2536.00
1818.493,2828.00
1819.343,2750.00
1820.194,2559.00
1821.044,2785.00
1821.895,2881.00
1822.745,2420.00
1823.596,2565.00
1824.445,3067.00
1825.296,2806.00
1826.145,2655.00
1826.996,2848.00
1827.845,2707.00
1828.695,2754.00
1829.544,2656.00
1830.395,2743.00
1831.243,2596.00
1832.094,2439.00
1832.942,3216.00
1833.792,2804.00
1834.640,2702.00
1835.490,2653.00
1836.338,2706.00
1837.186,2616.00
1838.036,2520.00
1838.884,2665.00
1839.733,2991.00
1840.581,2821.00
1841.430,2797.00
1842.278,3001.00
1843.127,2599.00
1843.974,2334.00
1844.823,3107.00
1845.671,2823.00
1846.519,2683.00
1847.366,2711.00
1848.213,2364.00
1849.062,2487.00
1849.909,2422.00
1850.757,3319.00
1851.604,2755.00
1852.452,2629.00
1853.298,2863.00
1854.146,2772.00
1854.993,2726.00
1855.839,3166.00
1856.687,2814.00
1857.532,2827.00
1858.380,2681.00
1859.226,2765.00
1860.073,2825.00
1860.919,2497.00
1861.765,2583.00
1862.612,2891.00
1863.457,2895.00
1864.304,2659.00
1865.150,2794.00
1865.995,2667.00
1866.842,2835.00
1867.686,2906.00
1868.533,2791.00
1869.378,2740.00
1870.223,2730.00
1871.069,2590.00
1871.914,2700.00
1872.760,2742.00
1873.604,2484.00
1874.448,2852.00
1875.294,2873.00
1876.139,2537.00
1876.984,2801.00
1877.828,2376.00
1878.672,2201.00
1879.518,2591.00
1880.361,2878.00
1881.205,2871.00
1882.050,2489.00
1882.894,3170.00
1883.739,2575.00
1884.582,2481.00
1885.425,2494.00
1886.270,2918.00
1887.113,2465.00
1887.956,2790.00
1888.801,2723.00
1889.644,2473.00
1890.486,2277.00
1891.331,2630.00
1892.173,2740.00
1893.017,2766.00
1893.860,2931.00
1894.702,2983.00
1895.546,2689.00
1896.388,3389.00
1897.230,3001.00
1898.074,2583.00
1898.916,2470.00
1899.757,2515.00
1900.601,3415.00
1901.443,2935.00
1902.284,2963.00
1903.125,3133.00
1903.969,2858.00
1904.810,2899.00
1905.651,2807.00
1906.494,3011.00
1907.335,3114.00
1908.176,2833.00
1909.018,2742.00
1909.859,2654.00
1910.700,2563.00
1911.542,3188.00
1912.383,2775.00
1913.223,2340.00
1914.064,2809.00
1914.906,2935.00
1915.746,2992.00
1916.586,3151.00
1917.428,2657.00
1918.268,2726.00
1919.107,2611.00
1919.947,2440.00
1920.789,2674.00
1921.628,2919.00
1922.468,2700.00
1923.309,2546.00
1924.148,2993.00
1924.988,2749.00
1925.827,2670.00
1926.667,2581.00
1927.507,2753.00
1928.345,2539.00
1929.184,2847.00
1930.025,2532.00
1930.864,2962.00
1931.702,2999.00
1932.541,2583.00
1933.381,2826.00
1934.219,2832.00
1935.057,2973.00
1935.896,2414.00
1936.735,2663.00
1937.573,2617.00
1938.411,2512.00
1939.249,2866.00
1940.089,2621.00
1940.927,2923.00
1941.764,2959.00
1942.602,2597.00
1943.439,2564.00
1944.278,2718.00
1945.115,2647.00
1945.953,2450.00
1946.790,2755.00
1947.628,3021.00
1948.465,2816.00
1949.302,2811.00
1950.139,2829.00
1950.976,2595.00
1951.814,2846.00
1952.651,2757.00
1953.487,2491.00
1954.323,2979.00
1955.160,2658.00
1955.998,3061.00
1956.834,2666.00
1957.670,2738.00
1958.506,2923.00
1959.342,2801.00
1960.177,2747.00
1961.015,2817.00
1961.850,2729.00
1962.686,2775.00
1963.521,2731.00
1964.357,2970.00
1965.192,2490.00
1966.029,2827.00
1966.864,2615.00
1967.699,2918.00
1968.534,2721.00
1969.369,2972.00
1970.204,2678.00
1971.040,2747.00
1971.875,2648.00
1972.709,2743.00
1973.544,2585.00
1974.378,2604.00
1975.212,2795.00
1976.047,2596.00
1976.882,2590.00
1977.716,3042.00
1978.550,2445.00
1979.384,2730.00
1980.218,2664.00
1981.052,2641.00
1981.885,2732.00
1982.719,2746.00
1983.554,2857.00
1984.388,3008.00
1985.221,2823.00
1986.054,2976.00
1986.887,2748.00
1987.720,2575.00
1988.553,3025.00
1989.386,2770.00
1990.219,2832.00
1991.053,3068.00
1991.886,2614.00
1992.719,2891.00
1993.551,2232.00
1994.383,2856.00
1995.216,2620.00
1996.048,2444.00
1996.880,2903.00
1997.712,2605.00
1998.544,2769.00
1999.376,2781.00
2000.208,3008.00
