RamanScope Measure Spectrum Data V3.72

<< MEASURE CONDITION >>
Exposure Type,Aver
Exposure Time [sec],15
Exposure Count,30
Measure Time,2023/07/12 11:34:46
Data Name,""
Data Comment,""
Rayleigh Wave[nm],532.0

<< SAMPLE SPECTRUM >>
Wave[dcm-1],No9
146.591,764.93
147.626,901.37
148.664,1047.73
149.699,1205.43
150.737,1373.00
151.772,1499.33
152.809,1646.17
153.846,1726.83
154.881,1841.07
155.918,1937.80
156.953,2012.13
157.989,2100.87
159.026,2122.70
160.060,2165.17
161.096,2234.60
162.130,2245.57
163.167,2302.80
164.200,2319.97
165.236,2385.17
166.272,2410.20
167.305,2456.63
168.341,2482.10
169.374,2547.97
170.409,2586.53
171.445,2571.77
172.477,2648.83
173.512,2653.10
174.545,2712.03
175.580,2731.20
176.614,2691.63
177.647,2754.77
178.681,2739.30
179.713,2718.53
180.747,2714.37
181.781,2691.50
182.813,2693.67
183.847,2723.23
184.878,2710.27
185.912,2692.70
186.945,2744.43
187.976,2759.03
189.010,2776.77
190.043,2775.47
191.073,2795.73
192.106,2820.43
193.137,2834.90
194.170,2878.17
195.202,2937.07
196.232,2949.57
197.265,2991.47
198.297,3084.37
199.327,3093.07
200.359,3165.17
201.388,3230.63
202.420,3273.63
203.452,3368.87
204.481,3488.80
205.512,3546.57
206.544,3621.70
207.573,3772.17
208.604,3878.77
209.635,4038.07
210.663,4174.30
211.694,4388.80
212.725,4595.83
213.753,4715.20
214.783,4863.97
215.813,4915.43
216.841,5032.87
217.871,5045.00
218.899,4998.87
219.929,4989.10
220.959,4804.60
221.986,4697.83
223.016,4589.43
224.045,4450.30
225.072,4341.77
226.101,4154.00
227.130,4068.27
228.157,3971.33
229.185,3896.93
230.214,3738.93
231.241,3709.30
232.269,3704.37
233.297,3587.23
234.323,3597.80
235.351,3586.03
236.379,3518.53
237.407,3542.33
238.433,3503.33
239.460,3557.60
240.488,3583.50
241.513,3570.83
242.540,3594.20
243.568,3640.37
244.592,3716.63
245.619,3636.37
246.646,3633.43
247.671,3625.07
248.697,3637.27
249.724,3613.00
250.748,3605.30
251.774,3625.13
252.801,3618.07
253.827,3658.23
254.850,3661.40
255.876,3637.80
256.902,3695.80
257.925,3716.50
258.951,3782.03
259.976,3825.33
260.999,3846.67
262.024,3914.70
263.049,3908.20
264.074,4038.87
265.097,4074.17
266.122,4161.37
267.146,4223.83
268.168,4231.43
269.193,4316.73
270.217,4379.60
271.241,4445.60
272.263,4511.97
273.287,4510.87
274.311,4585.00
275.332,4599.83
276.356,4621.30
277.379,4596.27
278.402,4579.43
279.424,4584.33
280.447,4518.87
281.470,4402.70
282.492,4373.93
283.513,4260.97
284.536,4240.73
285.558,4175.47
286.581,4124.77
287.601,3991.23
288.623,3932.07
289.645,3900.97
290.665,3797.53
291.687,3762.70
292.709,3686.13
293.730,3560.83
294.750,3578.17
295.771,3518.20
296.792,3443.03
297.813,3371.87
298.832,3343.60
299.853,3268.03
300.874,3219.63
301.895,3207.43
302.913,3127.57
303.934,3102.80
304.954,3037.10
305.975,3096.17
306.993,3010.83
308.013,2958.23
309.033,2894.40
310.052,2887.10
311.072,2896.37
312.090,2838.83
313.109,2806.73
314.129,2781.17
315.148,2788.13
316.165,2742.40
317.184,2733.07
318.203,2771.47
319.222,2715.03
320.238,2683.83
321.257,2725.07
322.275,2682.20
323.294,2666.43
324.312,2639.87
325.328,2649.63
326.346,2657.73
327.364,2670.10
328.382,2632.73
329.397,2653.67
330.415,2665.80
331.432,2637.17
332.450,2629.70
333.467,2591.30
334.482,2551.97
335.499,2571.80
336.516,2573.20
337.533,2590.13
338.547,2588.93
339.564,2552.57
340.580,2590.53
341.597,2605.73
342.613,2623.37
343.627,2556.40
344.643,2579.03
345.659,2536.00
346.675,2555.00
347.690,2550.37
348.704,2573.97
349.719,2570.47
350.735,2590.73
351.750,2547.43
352.765,2545.37
353.778,2586.80
354.793,2532.37
355.808,2591.10
356.822,2558.10
357.837,2599.27
358.851,2609.27
359.864,2593.47
360.878,2632.73
361.892,2630.20
362.906,2629.40
363.920,2641.00
364.932,2641.23
365.945,2631.60
366.959,2661.07
367.972,2647.20
368.986,2677.80
369.999,2681.77
371.010,2726.27
372.023,2710.73
373.036,2723.27
374.049,2729.23
375.061,2741.73
376.072,2769.67
377.084,2762.67
378.097,2838.17
379.109,2775.60
380.121,2833.23
381.133,2816.87
382.143,2781.97
383.155,2837.17
384.166,2823.00
385.178,2809.63
386.189,2822.63
387.201,2818.93
388.212,2807.63
389.221,2811.37
390.232,2769.43
391.243,2744.23
392.254,2737.97
393.264,2793.37
394.275,2709.70
395.283,2708.33
396.294,2705.10
397.304,2732.90
398.314,2693.20
399.324,2686.27
400.334,2648.17
401.344,2605.73
402.351,2617.60
403.361,2628.73
404.370,2592.93
405.380,2551.97
406.389,2548.00
407.398,2511.50
408.407,2521.87
409.414,2514.40
410.423,2470.47
411.431,2474.77
412.440,2459.73
413.448,2465.37
414.457,2454.27
415.465,2439.83
416.471,2385.33
417.479,2404.97
418.487,2382.20
419.495,2377.23
420.503,2408.90
421.510,2356.97
422.518,2358.67
423.525,2343.50
424.530,2347.30
425.537,2387.63
426.544,2354.57
427.551,2373.10
428.558,2414.83
429.565,2372.30
430.571,2316.53
431.578,2320.30
432.582,2337.73
433.588,2307.40
434.595,2351.97
435.601,2308.73
436.607,2326.17
437.612,2327.57
438.618,2309.03
439.624,2296.77
440.627,2310.00
441.633,2327.43
442.638,2345.80
443.643,2357.60
444.648,2352.87
445.653,2324.43
446.658,2301.97
447.663,2305.67
448.667,2308.33
449.672,2313.67
450.674,2317.63
451.678,2351.43
452.682,2294.23
453.687,2372.87
454.690,2362.93
455.694,2334.17
456.698,2339.77
457.702,2340.53
458.705,2332.90
459.709,2376.80
460.710,2352.47
461.713,2373.40
462.716,2364.43
463.719,2354.83
464.722,2379.30
465.725,2358.97
466.727,2392.80
467.730,2378.23
468.732,2355.57
469.735,2382.13
470.737,2381.53
471.737,2370.60
472.739,2401.93
473.741,2364.13
474.742,2400.73
475.744,2414.57
476.746,2390.57
477.747,2389.30
478.748,2391.03
479.750,2348.30
480.751,2402.47
481.752,2432.13
482.753,2394.63
483.751,2348.30
484.752,2411.33
485.753,2393.63
486.753,2373.23
487.753,2406.83
488.754,2392.47
489.754,2380.87
490.754,2369.00
491.754,2405.73
492.754,2371.57
493.753,2391.03
494.753,2363.67
495.752,2359.37
496.752,2379.77
497.749,2393.20
498.748,2381.30
499.747,2348.83
500.746,2365.37
501.745,2364.80
502.744,2343.40
503.742,2331.87
504.741,2281.77
505.739,2291.27
506.737,2279.87
507.735,2342.47
508.734,2293.50
509.732,2303.00
510.729,2247.37
511.727,2282.40
512.725,2315.10
513.720,2281.10
514.718,2218.87
515.715,2283.30
516.712,2296.23
517.709,2214.43
518.706,2269.87
519.703,2283.43
520.700,2255.07
521.696,2240.77
522.693,2302.23
523.689,2263.03
524.686,2228.93
525.682,2247.33
526.678,2305.17
527.674,2300.93
528.670,2274.07
529.666,2289.40
530.661,2271.33
531.657,2232.73
532.652,2270.00
533.648,2349.43
534.641,2309.47
535.636,2308.97
536.631,2260.37
537.626,2302.23
538.621,2340.60
539.616,2313.23
540.610,2305.47
541.605,2283.77
542.599,2273.13
543.593,2346.47
544.587,2300.13
545.581,2308.93
546.575,2272.57
547.569,2348.03
548.563,2374.97
549.557,2324.17
550.550,2302.83
551.543,2334.60
552.537,2315.43
553.530,2290.63
554.523,2322.13
555.516,2290.23
556.509,2316.03
557.502,2313.93
558.494,2324.33
559.487,2377.43
560.479,2330.43
561.472,2353.83
562.464,2346.00
563.456,2299.50
564.448,2344.80
565.440,2342.73
566.432,2399.47
567.423,2343.67
568.415,2369.40
569.404,2400.60
570.396,2411.13
571.387,2423.70
572.378,2378.77
573.369,2417.90
574.360,2450.60
575.351,2457.80
576.341,2444.23
577.332,2425.10
578.323,2421.70
579.313,2444.77
580.303,2426.00
581.293,2435.20
582.283,2439.90
583.273,2403.33
584.263,2452.90
585.253,2491.47
586.243,2464.63
587.232,2488.97
588.222,2470.37
589.211,2474.30
590.200,2486.97
591.189,2493.97
592.178,2486.83
593.167,2483.03
594.156,2471.37
595.145,2508.97
596.133,2484.07
597.122,2437.60
598.110,2448.07
599.098,2433.27
600.086,2469.40
601.074,2537.03
602.062,2469.23
603.050,2429.90
604.038,2404.47
605.025,2444.97
606.013,2428.10
607.000,2426.57
607.987,2432.37
608.975,2378.93
609.962,2369.57
610.949,2398.80
611.936,2389.77
612.922,2311.27
613.909,2333.77
614.895,2329.47
615.882,2330.03
616.868,2324.27
617.854,2278.77
618.841,2258.20
619.826,2270.63
620.812,2213.43
621.798,2256.13
622.784,2231.70
623.769,2182.23
624.755,2219.67
625.740,2184.33
626.725,2178.73
627.711,2123.10
628.698,2147.07
629.683,2108.77
630.667,2085.93
631.652,2072.03
632.637,2126.80
633.621,2102.47
634.606,2059.93
635.590,2076.93
636.574,2106.17
637.558,2055.87
638.542,2042.63
639.526,1978.30
640.510,1980.37
641.493,2014.30
642.477,2035.93
643.460,2002.57
644.444,1988.60
645.427,1980.57
646.410,1958.37
647.393,1937.83
648.376,1924.13
649.359,1923.83
650.341,1906.37
651.324,1895.73
652.307,1940.40
653.289,1877.37
654.271,1885.03
655.253,1839.93
656.235,1872.07
657.217,1874.37
658.199,1895.27
659.181,1833.53
660.163,1856.30
661.144,1868.43
662.126,1838.07
663.107,1824.27
664.088,1806.60
665.069,1795.90
666.050,1801.63
667.033,1788.73
668.014,1792.60
668.995,1786.57
669.975,1738.50
670.956,1797.17
671.936,1766.60
672.916,1759.37
673.896,1753.60
674.876,1740.50
675.856,1699.70
676.836,1709.67
677.816,1702.93
678.795,1710.47
679.775,1681.47
680.754,1701.87
681.734,1669.70
682.713,1638.93
683.692,1630.53
684.671,1645.87
685.650,1673.30
686.629,1587.93
687.607,1580.47
688.586,1604.03
689.564,1586.63
690.543,1577.03
691.523,1564.50
692.501,1588.63
693.479,1548.93
694.457,1599.80
695.435,1533.87
696.413,1565.53
697.390,1524.23
698.368,1491.27
699.345,1494.17
700.322,1504.27
701.300,1501.07
702.277,1495.63
703.254,1464.53
704.231,1497.47
705.207,1488.77
706.184,1455.23
707.161,1481.60
708.137,1449.50
709.113,1467.97
710.090,1492.23
711.068,1448.03
712.044,1445.30
713.020,1454.33
713.996,1452.40
714.971,1448.87
715.947,1436.10
716.922,1407.50
717.898,1430.67
718.873,1420.77
719.848,1433.70
720.823,1411.93
721.798,1400.60
722.773,1423.50
723.748,1462.17
724.723,1396.13
725.697,1399.43
726.672,1427.87
727.646,1401.07
728.622,1399.90
729.596,1341.37
730.570,1375.70
731.544,1362.70
732.518,1407.73
733.492,1365.80
734.466,1369.60
735.439,1403.77
736.413,1370.63
737.386,1347.13
738.359,1303.90
739.332,1338.03
740.305,1356.10
741.278,1348.47
742.251,1303.17
743.224,1342.53
744.196,1331.17
745.171,1346.83
746.143,1327.53
747.115,1326.67
748.087,1336.20
749.059,1340.07
750.031,1308.90
751.003,1285.40
751.975,1294.13
752.947,1327.60
753.918,1312.70
754.890,1284.97
755.861,1315.30
756.832,1331.77
757.803,1273.37
758.774,1325.43
759.747,1268.53
760.718,1306.40
761.689,1264.30
762.659,1275.23
763.630,1246.10
764.600,1259.60
765.570,1206.83
766.540,1281.07
767.510,1292.20
768.480,1268.47
769.450,1215.90
770.420,1269.00
771.390,1279.93
772.359,1226.03
773.329,1260.80
774.300,1256.77
775.269,1191.43
776.238,1241.40
777.207,1233.43
778.176,1224.80
779.145,1202.10
780.114,1249.80
781.083,1200.50
782.051,1218.87
783.019,1206.17
783.988,1210.50
784.956,1183.33
785.924,1201.73
786.894,1158.73
787.862,1183.23
788.830,1179.80
789.797,1215.23
790.765,1191.03
791.732,1182.60
792.700,1165.97
793.667,1175.60
794.634,1174.87
795.601,1190.37
796.568,1193.17
797.535,1160.47
798.502,1188.73
799.468,1155.00
800.437,1169.47
801.403,1175.23
802.370,1170.73
803.336,1155.03
804.302,1145.30
805.268,1149.10
806.234,1133.97
807.200,1141.60
808.166,1145.13
809.131,1151.50
810.097,1067.80
811.062,1122.27
812.027,1110.60
812.994,1141.13
813.960,1151.50
814.925,1134.83
815.889,1104.80
816.854,1081.53
817.819,1150.63
818.783,1117.53
819.748,1106.17
820.712,1127.33
821.677,1123.33
822.641,1099.77
823.605,1107.93
824.571,1089.00
825.534,1111.47
826.498,1106.20
827.462,1062.50
828.425,1116.30
829.389,1091.37
830.352,1106.73
831.315,1117.83
832.279,1092.57
833.242,1087.83
834.204,1105.63
835.167,1113.37
836.132,1105.10
837.095,1046.83
838.057,1053.47
839.020,1082.00
839.982,1085.37
840.944,1042.93
841.906,1075.50
842.868,1071.50
843.830,1063.10
844.792,1092.50
845.753,1070.17
846.715,1066.80
847.679,1061.30
848.640,1061.50
849.601,1083.20
850.562,1057.97
851.523,1040.67
852.484,1052.03
853.445,1112.40
854.406,1088.93
855.367,1067.33
856.327,1094.83
857.288,1033.50
858.248,1114.97
859.210,1106.80
860.170,1028.80
861.130,1062.93
862.090,1072.60
863.050,1058.73
864.010,1045.90
864.969,1106.33
865.929,1072.63
866.888,1046.87
867.848,1028.57
868.807,1030.47
869.766,1037.37
870.727,1042.37
871.686,1064.43
872.645,1017.67
873.604,1026.50
874.562,1062.67
875.521,1051.27
876.479,1040.53
877.437,1040.67
878.396,1021.47
879.354,1090.73
880.312,1017.77
881.270,1048.03
882.229,1006.03
883.187,1042.30
884.145,1049.97
885.102,1061.90
886.059,1076.70
887.017,1033.90
887.974,1023.27
888.931,1045.77
889.888,1065.27
890.845,1035.07
891.802,1007.53
892.758,1057.73
893.717,1057.77
894.673,1076.23
895.630,1064.97
896.586,1058.57
897.542,1045.40
898.498,1081.43
899.454,1077.70
900.410,997.13
901.366,1069.83
902.321,1079.57
903.277,1021.20
904.232,1060.07
905.189,1072.33
906.145,1056.90
907.100,1058.10
908.055,1066.37
909.010,1083.93
909.965,1064.93
910.919,1065.80
911.874,1059.40
912.828,1084.77
913.783,1103.13
914.737,1077.67
915.693,1043.30
916.648,1000.73
917.602,1054.30
918.555,1082.93
919.509,1053.97
920.463,1072.53
921.417,1112.73
922.370,1059.93
923.324,1087.23
924.277,1049.13
925.230,1092.63
926.183,1055.13
927.138,1050.33
928.091,1078.50
929.044,1041.00
929.996,1059.23
930.949,1066.73
931.902,1102.90
932.854,1079.57
933.806,1040.00
934.758,1068.50
935.711,1061.23
936.663,1121.63
937.614,1054.37
938.568,1062.43
939.520,1096.40
940.471,1087.83
941.423,1091.87
942.374,1091.40
943.326,1129.53
944.277,1044.00
945.228,1073.33
946.179,1075.40
947.130,1048.77
948.080,1096.93
949.031,1061.57
949.984,1058.03
950.934,1058.73
951.884,1025.33
952.835,1083.43
953.785,1074.23
954.735,1056.27
955.685,1044.20
956.635,1073.13
957.585,1039.93
958.534,1073.90
959.484,1022.10
960.433,1026.70
961.383,1061.33
962.334,1012.20
963.283,1046.23
964.232,1013.10
965.181,1079.53
966.130,1032.97
967.079,1045.63
968.027,1009.33
968.976,1063.10
969.924,1059.03
970.873,1009.70
971.821,1068.50
972.769,1069.87
973.719,1023.67
974.667,1064.17
975.615,1069.60
976.562,1012.17
977.510,1046.80
978.458,1049.47
979.405,1036.10
980.352,1045.13
981.300,1011.60
982.247,1048.60
983.194,1066.17
984.141,1044.43
985.088,1003.07
986.036,1030.30
986.983,1047.80
987.930,1035.30
988.876,1083.50
989.822,1025.70
990.769,1024.80
991.715,1069.57
992.661,1041.67
993.607,1064.23
994.553,1016.47
995.498,1037.03
996.444,1042.10
997.389,1038.07
998.337,1051.07
999.282,1051.63
1000.227,1030.97
1001.173,1069.40
1002.118,976.10
1003.062,1042.87
1004.007,1050.20
1004.952,1047.30
1005.897,1034.93
1006.841,1008.97
1007.786,1015.53
1008.730,1029.33
1009.674,1062.20
1010.618,1027.33
1011.564,1056.57
1012.508,1052.77
1013.452,1018.50
1014.396,1091.57
1015.339,1055.87
1016.283,1018.43
1017.226,1051.60
1018.170,1016.40
1019.113,1033.47
1020.056,1050.90
1020.999,1029.07
1021.942,1030.00
1022.885,1034.20
1023.828,1071.97
1024.770,1037.07
1025.715,1053.70
1026.657,1059.83
1027.600,1081.00
1028.542,1054.73
1029.484,1063.77
1030.426,1055.77
1031.368,1060.07
1032.310,1031.50
1033.251,1073.43
1034.193,1091.40
1035.135,1089.60
1036.076,1035.53
1037.017,1100.23
1037.959,1106.23
1038.900,1054.00
1039.843,1096.67
1040.784,1083.03
1041.725,1072.87
1042.665,1046.73
1043.606,1074.73
1044.547,1062.40
1045.487,1051.93
1046.427,1102.40
1047.368,1070.97
1048.308,1067.13
1049.248,1096.03
1050.188,1098.20
1051.128,1133.20
1052.067,1114.63
1053.007,1076.50
1053.947,1118.17
1054.886,1108.30
1055.827,1088.27
1056.766,1105.60
1057.706,1136.17
1058.645,1116.73
1059.584,1132.27
1060.522,1096.67
1061.461,1094.83
1062.400,1136.00
1063.338,1154.13
1064.277,1118.67
1065.215,1132.33
1066.154,1110.67
1067.092,1196.67
1068.030,1128.07
1068.968,1179.73
1069.906,1113.53
1070.843,1115.30
1071.781,1159.67
1072.720,1170.97
1073.658,1159.90
1074.595,1167.53
1075.533,1143.53
1076.470,1156.20
1077.407,1128.57
1078.344,1141.70
1079.281,1163.00
1080.217,1153.70
1081.154,1154.93
1082.091,1164.53
1083.027,1166.50
1083.964,1154.13
1084.900,1166.77
1085.836,1146.30
1086.772,1147.13
1087.708,1170.97
1088.644,1132.57
1089.580,1143.67
1090.515,1157.50
1091.451,1156.37
1092.388,1145.87
1093.324,1158.50
1094.259,1131.67
1095.194,1184.27
1096.129,1112.00
1097.064,1149.37
1097.999,1155.13
1098.934,1119.53
1099.869,1158.97
1100.803,1158.10
1101.738,1084.03
1102.672,1146.83
1103.607,1158.87
1104.541,1125.17
1105.475,1124.63
1106.409,1117.77
1107.343,1085.57
1108.277,1094.00
1109.210,1105.87
1110.144,1107.83
1111.078,1073.23
1112.011,1101.57
1112.944,1103.10
1113.878,1075.47
1114.811,1089.40
1115.744,1064.83
1116.678,1085.30
1117.611,1039.47
1118.544,1063.83
1119.477,1063.77
1120.409,1040.37
1121.342,1085.57
1122.274,1036.03
1123.206,1020.13
1124.138,1042.87
1125.070,1059.87
1126.002,1078.57
1126.934,1013.00
1127.866,988.50
1128.798,1020.00
1129.729,1031.90
1130.661,1010.47
1131.592,1003.27
1132.523,1030.57
1133.454,1014.37
1134.385,1001.77
1135.317,999.60
1136.247,1047.87
1137.178,1008.50
1138.109,993.27
1139.039,977.30
1139.970,1013.07
1140.900,997.33
1141.831,987.53
1142.761,997.77
1143.691,1070.43
1144.621,971.63
1145.551,989.33
1146.480,953.23
1147.410,955.17
1148.340,961.80
1149.269,986.20
1150.199,982.17
1151.128,963.83
1152.057,1015.73
1152.979,952.13
1153.898,953.43
1154.819,956.40
1155.739,974.77
1156.658,950.67
1157.579,947.30
1158.498,990.57
1159.419,953.00
1160.338,938.40
1161.256,925.10
1162.177,978.90
1163.095,953.40
1164.016,985.77
1164.934,948.97
1165.852,969.57
1166.772,940.67
1167.690,923.73
1168.610,964.37
1169.528,924.50
1170.446,911.03
1171.365,923.30
1172.283,922.23
1173.202,928.07
1174.120,938.00
1175.037,942.83
1175.956,926.07
1176.873,951.30
1177.792,946.63
1178.709,932.57
1179.626,900.23
1180.544,897.33
1181.461,925.80
1182.379,904.37
1183.296,928.40
1184.212,903.63
1185.130,938.33
1186.046,947.13
1186.962,948.27
1187.880,908.37
1188.796,925.57
1189.714,946.27
1190.629,955.50
1191.545,919.33
1192.462,955.90
1193.378,931.13
1194.295,942.63
1195.210,946.80
1196.125,933.80
1197.042,923.57
1197.957,928.03
1198.872,937.87
1199.788,913.87
1200.703,963.33
1201.619,933.83
1202.534,931.37
1203.448,870.00
1204.364,916.77
1205.278,934.73
1206.192,915.60
1207.108,948.27
1208.022,921.27
1208.938,949.80
1209.851,926.33
1210.765,904.50
1211.680,929.37
1212.594,921.60
1213.507,926.20
1214.422,974.03
1215.335,982.30
1216.248,974.40
1217.163,954.60
1218.076,933.50
1218.990,931.53
1219.903,921.30
1220.816,952.60
1221.730,949.40
1222.642,921.17
1223.554,952.93
1224.469,960.30
1225.380,966.60
1226.292,942.60
1227.206,950.00
1228.118,949.07
1229.032,928.67
1229.943,955.07
1230.855,978.93
1231.768,987.60
1232.679,995.20
1233.590,929.37
1234.503,1003.10
1235.414,960.40
1236.325,989.03
1237.238,986.00
1238.149,996.83
1239.059,991.10
1239.972,973.67
1240.882,1020.00
1241.793,1001.63
1242.705,962.30
1243.615,981.33
1244.525,934.77
1245.437,959.13
1246.347,981.40
1247.259,1012.40
1248.168,999.87
1249.078,957.67
1249.989,989.80
1250.899,968.27
1251.808,998.87
1252.719,980.60
1253.628,1006.67
1254.537,972.07
1255.448,1002.80
1256.357,1001.30
1257.266,953.77
1258.176,1003.80
1259.085,996.53
1259.993,960.50
1260.904,997.63
1261.812,988.43
1262.720,1007.83
1263.630,1017.97
1264.538,1001.40
1265.446,989.80
1266.356,977.10
1267.263,977.77
1268.171,1001.13
1269.080,1025.10
1269.988,994.10
1270.895,995.27
1271.804,999.43
1272.711,947.70
1273.619,1003.67
1274.527,986.70
1275.434,994.23
1276.341,984.33
1277.248,1028.77
1278.156,1009.90
1279.063,972.57
1279.969,996.00
1280.877,981.17
1281.783,986.10
1282.690,966.03
1283.598,983.47
1284.503,987.40
1285.409,989.87
1286.317,1021.77
1287.223,952.47
1288.128,977.47
1289.036,985.87
1289.941,997.70
1290.846,961.53
1291.751,988.63
1292.658,973.80
1293.563,987.93
1294.468,951.07
1295.375,971.37
1296.280,958.47
1297.184,977.70
1298.091,952.20
1298.995,930.20
1299.900,929.07
1300.806,944.37
1301.710,954.63
1302.614,938.13
1303.518,978.87
1304.424,929.33
1305.327,915.10
1306.231,958.47
1307.137,942.47
1308.040,916.83
1308.943,929.70
1309.847,900.53
1310.752,930.83
1311.655,938.17
1312.558,883.30
1313.463,900.10
1314.366,892.27
1315.269,923.10
1316.171,924.23
1317.076,884.87
1317.978,881.07
1318.881,863.23
1319.785,867.63
1320.687,875.73
1321.589,826.17
1322.491,861.03
1323.395,842.83
1324.297,883.67
1325.198,850.63
1326.102,860.37
1327.004,894.80
1327.905,858.47
1328.806,826.30
1329.709,832.13
1330.611,849.63
1331.512,846.33
1332.413,841.27
1333.316,845.00
1334.216,817.83
1335.117,851.10
1336.020,813.57
1336.920,820.57
1337.821,809.53
1338.721,800.47
1339.623,803.97
1340.523,810.40
1341.423,787.63
1342.323,852.33
1343.225,800.13
1344.125,811.20
1345.025,810.57
1345.924,800.77
1346.826,802.67
1347.725,779.73
1348.624,776.87
1349.524,773.73
1350.425,784.20
1351.324,799.97
1352.223,786.80
1353.121,812.23
1354.022,778.23
1354.921,739.60
1355.819,805.23
1356.718,753.33
1357.618,761.37
1358.516,804.47
1359.415,737.63
1360.313,772.77
1361.213,736.40
1362.111,759.20
1363.008,737.90
1363.906,747.63
1364.806,738.73
1365.703,729.10
1366.601,715.37
1367.498,713.37
1368.397,754.80
1369.295,737.70
1370.192,739.57
1371.089,762.87
1371.987,733.57
1372.884,762.83
1373.781,731.03
1374.678,729.83
1375.574,722.80
1376.473,723.07
1377.369,697.97
1378.265,753.23
1379.161,705.80
1380.059,684.80
1380.955,726.37
1381.851,700.43
1382.747,674.70
1383.643,715.10
1384.540,688.63
1385.436,680.40
1386.331,696.20
1387.227,665.17
1388.124,691.23
1389.019,691.30
1389.914,705.00
1390.809,680.37
1391.704,665.87
1392.601,690.30
1393.495,690.90
1394.390,641.43
1395.285,686.13
1396.179,699.93
1397.075,653.40
1397.969,668.93
1398.864,680.33
1399.758,651.30
1400.652,683.17
1401.547,643.40
1402.441,651.10
1403.335,683.53
1404.229,651.70
1405.122,697.00
1406.017,659.70
1406.911,671.60
1407.804,617.87
1408.697,669.57
1409.590,666.43
1410.485,673.03
1411.378,647.73
1412.271,620.97
1413.163,637.13
1414.056,636.93
1414.949,591.87
1415.843,660.97
1416.735,651.43
1417.627,628.60
1418.520,678.90
1419.412,643.70
1420.306,648.67
1421.197,664.97
1422.089,624.27
1422.981,682.90
1423.873,636.90
1424.764,667.43
1425.657,611.83
1426.549,672.80
1427.440,632.03
1428.331,641.47
1429.222,623.40
1430.113,622.43
1431.006,609.77
1431.897,640.97
1432.787,610.53
1433.678,602.57
1434.568,575.33
1435.459,612.13
1436.351,635.77
1437.241,582.27
1438.131,590.50
1439.021,613.20
1439.911,628.20
1440.801,626.93
1441.693,604.43
1442.583,602.00
1443.472,602.37
1444.362,595.03
1445.251,625.57
1446.140,606.93
1447.030,609.67
1447.921,612.07
1448.810,621.80
1449.699,614.43
1450.588,603.87
1451.476,608.67
1452.365,615.13
1453.254,574.97
1454.144,594.63
1455.032,609.67
1455.921,595.53
1456.809,592.63
1457.697,620.53
1458.585,590.90
1459.473,587.30
1460.361,626.23
1461.251,562.90
1462.138,630.03
1463.026,574.57
1463.913,601.40
1464.801,546.97
1465.688,641.20
1466.575,563.63
1467.463,593.73
1468.351,535.73
1469.238,611.37
1470.125,583.93
1471.012,544.07
1471.899,533.53
1472.785,581.87
1473.672,571.07
1474.558,556.33
1475.446,547.83
1476.333,586.50
1477.219,594.40
1478.105,533.70
1478.991,537.27
1479.877,552.87
1480.762,544.33
1481.648,568.63
1482.534,573.23
1483.419,539.23
1484.307,544.40
1485.192,586.00
1486.077,529.50
1486.962,548.23
1487.847,537.87
1488.732,559.40
1489.617,552.37
1490.502,577.13
1491.387,568.83
1492.271,555.63
1493.156,548.67
1494.042,551.10
1494.927,548.77
1495.811,562.93
1496.695,554.83
1497.579,550.33
1498.463,550.03
1499.347,525.10
1500.231,560.63
1501.114,537.50
1501.998,533.17
1502.881,530.83
1503.765,575.00
1504.648,521.80
1505.533,518.93
1506.417,516.33
1507.300,525.53
1508.183,539.83
1509.066,511.10
1509.948,541.13
1510.831,474.50
1511.714,552.67
1512.596,507.60
1513.479,542.67
1514.361,558.77
1515.243,529.67
1516.125,521.50
1517.008,525.60
1517.890,526.60
1518.771,542.87
1519.655,503.67
1520.537,502.83
1521.419,524.97
1522.300,506.90
1523.182,490.33
1524.063,522.53
1524.944,472.87
1525.825,527.60
1526.707,507.33
1527.588,546.27
1528.468,480.40
1529.349,516.80
1530.230,480.23
1531.111,522.10
1531.991,425.87
1532.872,481.20
1533.752,510.63
1534.632,542.80
1535.513,499.20
1536.393,522.60
1537.273,517.13
1538.153,513.97
1539.032,506.93
1539.912,530.40
1540.792,474.43
1541.672,492.33
1542.551,516.57
1543.430,526.20
1544.310,533.37
1545.189,513.17
1546.068,507.53
1546.947,515.43
1547.826,481.70
1548.705,527.80
1549.584,496.23
1550.462,518.03
1551.341,499.20
1552.219,540.40
1553.098,508.00
1553.976,471.27
1554.854,551.20
1555.733,509.70
1556.611,454.20
1557.489,505.33
1558.367,522.50
1559.244,507.40
1560.122,511.37
1561.000,521.23
1561.877,515.13
1562.755,516.40
1563.632,475.37
1564.509,486.63
1565.386,484.60
1566.264,488.47
1567.141,510.87
1568.017,500.93
1568.894,475.77
1569.771,468.37
1570.648,485.93
1571.524,482.53
1572.401,466.00
1573.277,461.80
1574.153,482.07
1575.029,460.13
1575.906,513.40
1576.781,497.13
1577.657,479.30
1578.533,522.33
1579.409,487.27
1580.285,497.07
1581.160,470.80
1582.036,449.97
1582.911,488.37
1583.786,455.67
1584.662,469.03
1585.537,474.33
1586.412,488.03
1587.287,484.10
1588.160,482.60
1589.035,466.90
1589.909,494.90
1590.784,491.03
1591.658,473.93
1592.533,489.57
1593.407,501.17
1594.281,479.27
1595.155,480.70
1596.029,490.43
1596.903,434.60
1597.777,515.57
1598.651,428.17
1599.525,506.23
1600.398,468.03
1601.272,465.63
1602.144,511.63
1603.017,498.57
1603.890,493.00
1604.763,479.27
1605.636,478.50
1606.509,469.97
1607.382,437.27
1608.255,480.60
1609.128,476.53
1610.000,469.27
1610.873,473.43
1611.746,499.03
1612.616,459.97
1613.488,475.83
1614.361,461.67
1615.233,475.73
1616.105,467.50
1616.977,450.50
1617.849,484.70
1618.720,469.57
1619.592,453.40
1620.464,437.33
1621.333,463.40
1622.205,462.63
1623.076,475.50
1623.947,450.37
1624.818,475.67
1625.689,469.30
1626.560,465.57
1627.431,469.17
1628.302,486.67
1629.171,465.03
1630.042,442.37
1630.912,431.33
1631.782,468.70
1632.653,444.47
1633.523,489.90
1634.393,472.73
1635.263,442.37
1636.131,435.50
1637.001,484.27
1637.871,432.53
1638.741,445.40
1639.611,487.30
1640.480,427.90
1641.350,430.60
1642.219,478.70
1643.087,452.63
1643.956,439.37
1644.825,445.67
1645.694,450.60
1646.563,458.37
1647.432,479.50
1648.299,430.70
1649.167,476.20
1650.036,458.97
1650.904,441.53
1651.773,448.30
1652.641,436.30
1653.509,462.63
1654.376,441.23
1655.244,391.93
1656.112,445.63
1656.980,443.53
1657.847,432.37
1658.715,454.43
1659.581,466.80
1660.448,463.50
1661.316,438.20
1662.183,408.97
1663.051,451.97
1663.918,435.37
1664.783,465.33
1665.650,463.87
1666.517,447.90
1667.384,441.47
1668.251,433.23
1669.115,436.87
1669.982,412.23
1670.849,432.30
1671.715,423.43
1672.581,429.57
1673.446,464.87
1674.312,467.07
1675.178,433.27
1676.044,439.97
1676.910,456.67
1677.774,445.30
1678.639,467.23
1679.505,473.10
1680.370,439.80
1681.236,453.90
1682.099,422.53
1682.965,442.60
1683.830,447.73
1684.695,437.57
1685.560,462.37
1686.423,431.13
1687.288,444.77
1688.153,401.80
1689.017,419.13
1689.880,409.93
1690.745,467.53
1691.609,405.90
1692.473,468.77
1693.338,396.70
1694.200,442.00
1695.064,427.03
1695.928,401.37
1696.792,446.13
1697.654,396.33
1698.517,418.90
1699.381,429.37
1700.245,453.77
1701.106,424.13
1701.969,419.97
1702.833,393.87
1703.696,402.13
1704.557,429.03
1705.420,446.40
1706.283,451.70
1707.146,416.53
1708.007,458.00
1708.870,410.80
1709.732,398.40
1710.595,442.87
1711.455,383.87
1712.318,375.20
1713.180,454.37
1714.040,419.10
1714.902,417.30
1715.764,384.03
1716.626,415.33
1717.486,433.40
1718.348,422.63
1719.209,321.93
1720.071,385.03
1720.930,407.13
1721.792,407.50
1722.653,429.57
1723.512,400.37
1724.374,403.30
1725.234,410.10
1726.095,419.07
1726.954,406.23
1727.815,400.80
1728.676,427.27
1729.535,382.70
1730.395,394.33
1731.256,438.20
1732.114,442.43
1732.974,418.20
1733.834,423.33
1734.693,425.20
1735.553,403.30
1736.413,428.77
1737.272,433.03
1738.130,407.17
1738.990,439.03
1739.849,469.67
1740.707,416.37
1741.566,403.40
1742.426,431.60
1743.283,413.93
1744.142,385.43
1745.001,428.43
1745.858,428.30
1746.717,435.47
1747.576,404.17
1748.433,404.67
1749.292,392.40
1750.150,420.10
1751.007,439.03
1751.865,417.73
1752.723,402.23
1753.579,427.07
1754.438,442.73
1755.296,439.23
1756.152,390.67
1757.010,413.37
1757.865,408.73
1758.723,430.57
1759.581,411.40
1760.436,418.83
1761.294,425.43
1762.151,394.37
1763.006,392.17
1763.864,383.23
1764.721,400.10
1765.576,400.87
1766.433,428.53
1767.288,416.87
1768.144,405.20
1769.001,402.17
1769.856,417.53
1770.712,416.00
1771.568,428.60
1772.423,397.77
1773.279,399.13
1774.133,426.17
1774.989,432.17
1775.845,391.93
1776.699,424.47
1777.555,375.83
1778.409,417.10
1779.265,382.20
1780.120,406.67
1780.974,411.50
1781.829,419.57
1782.682,388.83
1783.538,391.07
1784.393,400.73
1785.246,424.53
1786.101,390.63
1786.954,393.87
1787.808,384.60
1788.661,391.10
1789.516,370.00
1790.370,383.03
1791.223,392.03
1792.077,382.47
1792.930,411.83
1793.784,432.00
1794.636,378.40
1795.490,403.33
1796.344,376.43
1797.196,375.87
1798.049,409.20
1798.901,382.60
1799.755,382.83
1800.606,413.07
1801.460,454.47
1802.311,453.53
1803.165,418.77
1804.018,424.57
1804.869,379.13
1805.722,385.43
1806.573,419.70
1807.426,385.03
1808.276,369.43
1809.129,382.43
1809.980,363.67
1810.832,391.77
1811.683,383.20
1812.535,386.30
1813.385,358.37
1814.237,393.30
1815.089,376.83
1815.940,376.77
1816.791,359.50
1817.641,405.53
1818.493,396.57
1819.343,372.10
1820.194,390.87
1821.044,369.33
1821.895,403.57
1822.745,418.20
1823.596,389.73
1824.445,378.13
1825.296,411.97
1826.145,377.67
1826.996,366.57
1827.845,387.00
1828.695,341.83
1829.544,416.47
1830.395,389.63
1831.243,392.43
1832.094,413.77
1832.942,359.50
1833.792,417.00
1834.640,405.20
1835.490,394.20
1836.338,386.63
1837.186,356.17
1838.036,389.03
1838.884,418.37
1839.733,415.67
1840.581,421.67
1841.430,414.90
1842.278,386.27
1843.127,387.57
1843.974,383.97
1844.823,387.07
1845.671,414.17
1846.519,380.67
1847.366,372.67
1848.213,414.60
1849.062,336.20
1849.909,371.83
1850.757,384.53
1851.604,384.30
1852.452,358.60
1853.298,349.17
1854.146,386.53
1854.993,362.80
1855.839,337.37
1856.687,400.73
1857.532,323.43
1858.380,375.27
1859.226,382.63
1860.073,388.87
1860.919,414.80
1861.765,370.37
1862.612,421.77
1863.457,339.40
1864.304,380.27
1865.150,409.80
1865.995,357.93
1866.842,390.57
1867.686,395.67
1868.533,386.33
1869.378,393.03
1870.223,361.13
1871.069,399.10
1871.914,390.03
1872.760,385.30
1873.604,386.10
1874.448,380.73
1875.294,398.97
1876.139,399.43
1876.984,389.37
1877.828,382.77
1878.672,353.80
1879.518,363.70
1880.361,380.73
1881.205,393.87
1882.050,371.17
1882.894,344.77
1883.739,362.10
1884.582,407.23
1885.425,367.57
1886.270,388.83
1887.113,339.50
1887.956,345.20
1888.801,382.90
1889.644,339.10
1890.486,373.30
1891.331,346.77
1892.173,398.53
1893.017,399.13
1893.860,395.00
1894.702,391.97
1895.546,350.40
1896.388,357.10
1897.230,417.73
1898.074,383.10
1898.916,351.80
1899.757,367.80
1900.601,360.27
1901.443,349.13
1902.284,397.73
1903.125,346.70
1903.969,351.43
1904.810,390.30
1905.651,323.47
1906.494,342.93
1907.335,397.80
1908.176,359.03
1909.018,365.87
1909.859,359.50
1910.700,343.87
1911.542,365.43
1912.383,381.40
1913.223,371.73
1914.064,404.63
1914.906,384.73
1915.746,387.90
1916.586,385.63
1917.428,369.70
1918.268,354.57
1919.107,348.07
1919.947,393.77
1920.789,403.63
1921.628,391.53
1922.468,354.83
1923.309,368.57
1924.148,348.57
1924.988,351.73
1925.827,361.53
1926.667,356.50
1927.507,361.07
1928.345,393.20
1929.184,355.93
1930.025,357.47
1930.864,398.97
1931.702,371.00
1932.541,310.63
1933.381,375.83
1934.219,410.27
1935.057,385.00
1935.896,382.97
1936.735,376.97
1937.573,340.77
1938.411,332.87
1939.249,352.60
1940.089,372.70
1940.927,380.70
1941.764,399.43
1942.602,363.10
1943.439,401.40
1944.278,338.93
1945.115,394.73
1945.953,373.40
1946.790,391.73
1947.628,377.17
1948.465,337.67
1949.302,390.93
1950.139,357.23
1950.976,375.20
1951.814,380.23
1952.651,378.57
1953.487,365.77
1954.323,370.27
1955.160,359.50
1955.998,402.90
1956.834,363.10
1957.670,337.27
1958.506,370.80
1959.342,380.83
1960.177,338.80
1961.015,334.50
1961.850,402.67
1962.686,317.43
1963.521,334.20
1964.357,391.67
1965.192,393.23
1966.029,389.07
1966.864,362.20
1967.699,346.83
1968.534,352.30
1969.369,371.60
1970.204,356.63
1971.040,331.13
1971.875,316.13
1972.709,349.33
1973.544,375.50
1974.378,314.57
1975.212,406.60
1976.047,374.60
1976.882,359.73
1977.716,396.50
1978.550,368.40
1979.384,341.47
1980.218,389.13
1981.052,364.80
1981.885,364.97
1982.719,380.40
1983.554,362.70
1984.388,350.30
1985.221,374.93
1986.054,342.00
1986.887,309.37
1987.720,351.40
1988.553,364.03
1989.386,328.13
1990.219,334.13
1991.053,394.40
1991.886,363.20
1992.719,362.00
1993.551,355.67
1994.383,370.03
1995.216,327.50
1996.048,370.87
1996.880,367.10
1997.712,370.97
1998.544,346.10
1999.376,358.97
2000.208,351.90
2001.040,333.10
2001.873,343.10
2002.705,370.73
2003.536,375.57
2004.367,383.20
2005.199,330.90
2006.030,339.57
2006.861,369.60
2007.692,327.13
2008.523,335.43
2009.354,380.03
2010.185,343.60
2011.016,375.50
2011.846,368.97
2012.677,334.53
2013.507,367.97
2014.338,351.17
2015.168,362.10
2015.999,380.53
2016.829,406.83
2017.659,350.87
2018.489,341.37
2019.319,338.07
2020.149,370.23
2020.980,360.87
2021.810,350.30
2022.639,331.07
2023.469,329.27
2024.298,367.27
2025.128,394.87
2025.957,334.37
2026.786,349.83
2027.615,384.87
2028.444,338.43
2029.273,357.00
2030.102,356.57
2030.931,370.17
2031.758,377.23
2032.586,385.73
2033.415,368.83
2034.243,356.80
2035.072,375.43
2035.900,367.60
2036.728,395.07
2037.556,344.40
2038.385,389.33
2039.213,355.83
2040.040,391.60
2040.868,404.83
2041.696,388.97
2042.524,375.70
2043.351,335.70
2044.179,371.37
2045.006,341.57
2045.006,341.57

Max Intensity Wave.,217.871
Max Intensity Data,5045.00
Min Intensity Wave.,1986.887
Min Intensity Data,309.37
FWHM Wave.,384.175
FWHM Value,32.26
Pressure Wave.,685.398
Pressure Value [GPa],-23.02062
G/D Ratio,0.56459
G/D Gband Wave.,1554.993
G/D Gband Intensity,552.72
G/D Dband Wave.,1303.475
G/D Dband Intensity,978.97

<< BACKGROUND SPECTRUM >>
Wave[dcm-1],No9
146.591,2436.00
147.626,2266.00
148.664,2206.00
149.699,2733.00
150.737,2410.00
151.772,2589.00
152.809,2549.00
153.846,2489.00
154.881,2582.00
155.918,2101.00
156.953,2450.00
157.989,2786.00
159.026,2647.00
160.060,2845.00
161.096,3071.00
162.130,2712.00
163.167,2760.00
164.200,2646.00
165.236,2819.00
166.272,2878.00
167.305,2433.00
168.341,2733.00
169.374,2968.00
170.409,2982.00
171.445,2961.00
172.477,2703.00
173.512,2587.00
174.545,2852.00
175.580,3061.00
176.614,3306.00
177.647,3010.00
178.681,3275.00
179.713,3608.00
180.747,3027.00
181.781,2949.00
182.813,3245.00
183.847,3326.00
184.878,2933.00
185.912,3219.00
186.945,3366.00
187.976,3290.00
189.010,2916.00
190.043,3063.00
191.073,3158.00
192.106,2937.00
193.137,3457.00
194.170,2764.00
195.202,3114.00
196.232,2904.00
197.265,3242.00
198.297,3302.00
199.327,3000.00
200.359,3181.00
201.388,3572.00
202.420,3161.00
203.452,3364.00
204.481,2852.00
205.512,3578.00
206.544,3364.00
207.573,3286.00
208.604,3688.00
209.635,3817.00
210.663,3224.00
211.694,3200.00
212.725,3020.00
213.753,3021.00
214.783,3627.00
215.813,3516.00
216.841,3216.00
217.871,3413.00
218.899,3166.00
219.929,3359.00
220.959,3164.00
221.986,3437.00
223.016,2974.00
224.045,3409.00
225.072,3338.00
226.101,3488.00
227.130,3478.00
228.157,3016.00
229.185,2495.00
230.214,3489.00
231.241,3061.00
232.269,2620.00
233.297,2944.00
234.323,3494.00
235.351,3018.00
236.379,3367.00
237.407,2977.00
238.433,3193.00
239.460,3353.00
240.488,3357.00
241.513,3490.00
242.540,3386.00
243.568,3487.00
244.592,3451.00
245.619,3490.00
246.646,3172.00
247.671,3193.00
248.697,3027.00
249.724,3270.00
250.748,3252.00
251.774,3228.00
252.801,3583.00
253.827,3351.00
254.850,3328.00
255.876,2929.00
256.902,3393.00
257.925,3223.00
258.951,2958.00
259.976,2988.00
260.999,3346.00
262.024,2990.00
263.049,3970.00
264.074,3332.00
265.097,3264.00
266.122,3312.00
267.146,3241.00
268.168,3493.00
269.193,3088.00
270.217,3485.00
271.241,2912.00
272.263,3099.00
273.287,3435.00
274.311,2996.00
275.332,3586.00
276.356,3080.00
277.379,3359.00
278.402,3378.00
279.424,3152.00
280.447,3108.00
281.470,2960.00
282.492,3326.00
283.513,3176.00
284.536,3441.00
285.558,3417.00
286.581,3345.00
287.601,3080.00
288.623,3032.00
289.645,3302.00
290.665,3379.00
291.687,3359.00
292.709,3336.00
293.730,3709.00
294.750,3100.00
295.771,2954.00
296.792,3310.00
297.813,3148.00
298.832,3262.00
299.853,2953.00
300.874,3233.00
301.895,3153.00
302.913,3209.00
303.934,3528.00
304.954,3302.00
305.975,3346.00
306.993,2931.00
308.013,3367.00
309.033,3265.00
310.052,3173.00
311.072,3101.00
312.090,3303.00
313.109,3558.00
314.129,3706.00
315.148,3238.00
316.165,3366.00
317.184,3530.00
318.203,2933.00
319.222,2976.00
320.238,3405.00
321.257,3012.00
322.275,2921.00
323.294,3230.00
324.312,3425.00
325.328,3527.00
326.346,3564.00
327.364,3471.00
328.382,3413.00
329.397,3339.00
330.415,3450.00
331.432,3464.00
332.450,3499.00
333.467,3766.00
334.482,2810.00
335.499,3645.00
336.516,3116.00
337.533,2770.00
338.547,3048.00
339.564,3089.00
340.580,3335.00
341.597,3181.00
342.613,3696.00
343.627,3221.00
344.643,3226.00
345.659,3382.00
346.675,3226.00
347.690,3136.00
348.704,3331.00
349.719,3088.00
350.735,2932.00
351.750,3460.00
352.765,3256.00
353.778,3202.00
354.793,3436.00
355.808,3045.00
356.822,3481.00
357.837,2844.00
358.851,3504.00
359.864,3184.00
360.878,2938.00
361.892,3171.00
362.906,3425.00
363.920,2777.00
364.932,3333.00
365.945,3349.00
366.959,3235.00
367.972,3194.00
368.986,2923.00
369.999,3650.00
371.010,3043.00
372.023,3630.00
373.036,3197.00
374.049,3675.00
375.061,3341.00
376.072,3214.00
377.084,3120.00
378.097,2874.00
379.109,3475.00
380.121,3203.00
381.133,2872.00
382.143,3433.00
383.155,2904.00
384.166,3123.00
385.178,3362.00
386.189,3445.00
387.201,2939.00
388.212,3164.00
389.221,3147.00
390.232,3281.00
391.243,3190.00
392.254,3311.00
393.264,3036.00
394.275,3514.00
395.283,3454.00
396.294,3904.00
397.304,3735.00
398.314,3356.00
399.324,3268.00
400.334,2865.00
401.344,3425.00
402.351,2851.00
403.361,3444.00
404.370,3197.00
405.380,3147.00
406.389,3603.00
407.398,3395.00
408.407,3332.00
409.414,3411.00
410.423,3598.00
411.431,2986.00
412.440,2891.00
413.448,3617.00
414.457,3086.00
415.465,3017.00
416.471,3144.00
417.479,3258.00
418.487,3062.00
419.495,3589.00
420.503,3355.00
421.510,2837.00
422.518,3405.00
423.525,3468.00
424.530,3694.00
425.537,3099.00
426.544,3494.00
427.551,3046.00
428.558,3808.00
429.565,3696.00
430.571,3126.00
431.578,3132.00
432.582,3076.00
433.588,3209.00
434.595,2800.00
435.601,3597.00
436.607,3492.00
437.612,2964.00
438.618,3611.00
439.624,3205.00
440.627,3194.00
441.633,3348.00
442.638,3852.00
443.643,3315.00
444.648,3238.00
445.653,3444.00
446.658,3129.00
447.663,3272.00
448.667,3115.00
449.672,3156.00
450.674,3232.00
451.678,2898.00
452.682,3137.00
453.687,3023.00
454.690,3881.00
455.694,3548.00
456.698,2772.00
457.702,2870.00
458.705,3014.00
459.709,2995.00
460.710,3112.00
461.713,3253.00
462.716,3288.00
463.719,3236.00
464.722,3411.00
465.725,3201.00
466.727,3047.00
467.730,3280.00
468.732,3001.00
469.735,3558.00
470.737,3155.00
471.737,3139.00
472.739,3113.00
473.741,3051.00
474.742,3296.00
475.744,3338.00
476.746,3270.00
477.747,3186.00
478.748,3406.00
479.750,3204.00
480.751,3225.00
481.752,4025.00
482.753,3329.00
483.751,3868.00
484.752,2813.00
485.753,3214.00
486.753,3110.00
487.753,3214.00
488.754,3689.00
489.754,2910.00
490.754,3588.00
491.754,3361.00
492.754,2917.00
493.753,3230.00
494.753,3152.00
495.752,3601.00
496.752,3266.00
497.749,3194.00
498.748,3061.00
499.747,3657.00
500.746,3327.00
501.745,2964.00
502.744,2992.00
503.742,3582.00
504.741,3199.00
505.739,2686.00
506.737,3160.00
507.735,3369.00
508.734,3641.00
509.732,3390.00
510.729,3644.00
511.727,3132.00
512.725,3123.00
513.720,2974.00
514.718,3569.00
515.715,2844.00
516.712,2792.00
517.709,3275.00
518.706,3105.00
519.703,3247.00
520.700,3449.00
521.696,3640.00
522.693,3114.00
523.689,3083.00
524.686,3458.00
525.682,3014.00
526.678,3708.00
527.674,3121.00
528.670,2779.00
529.666,3780.00
530.661,3752.00
531.657,4004.00
532.652,3430.00
533.648,3194.00
534.641,3453.00
535.636,3265.00
536.631,3385.00
537.626,3405.00
538.621,2932.00
539.616,2783.00
540.610,2686.00
541.605,3243.00
542.599,3327.00
543.593,3204.00
544.587,4223.00
545.581,3057.00
546.575,3303.00
547.569,3230.00
548.563,2849.00
549.557,2854.00
550.550,2995.00
551.543,2934.00
552.537,3412.00
553.530,2999.00
554.523,2985.00
555.516,3391.00
556.509,3188.00
557.502,2844.00
558.494,3438.00
559.487,3094.00
560.479,3434.00
561.472,3452.00
562.464,3380.00
563.456,3589.00
564.448,3168.00
565.440,3245.00
566.432,3617.00
567.423,3152.00
568.415,3110.00
569.404,3337.00
570.396,3006.00
571.387,3342.00
572.378,3264.00
573.369,4264.00
574.360,3943.00
575.351,3172.00
576.341,3053.00
577.332,3092.00
578.323,2908.00
579.313,3087.00
580.303,3528.00
581.293,3379.00
582.283,3228.00
583.273,3421.00
584.263,3250.00
585.253,3341.00
586.243,3430.00
587.232,2825.00
588.222,3175.00
589.211,3421.00
590.200,3279.00
591.189,3161.00
592.178,3182.00
593.167,3658.00
594.156,3523.00
595.145,3075.00
596.133,3719.00
597.122,3376.00
598.110,3464.00
599.098,3335.00
600.086,3219.00
601.074,3370.00
602.062,3040.00
603.050,2948.00
604.038,3374.00
605.025,3007.00
606.013,3448.00
607.000,3645.00
607.987,3221.00
608.975,3301.00
609.962,3007.00
610.949,3384.00
611.936,3495.00
612.922,3455.00
613.909,2890.00
614.895,3615.00
615.882,3041.00
616.868,3211.00
617.854,2982.00
618.841,3269.00
619.826,3327.00
620.812,3226.00
621.798,2978.00
622.784,3424.00
623.769,3334.00
624.755,2882.00
625.740,3293.00
626.725,2913.00
627.711,3105.00
628.698,3296.00
629.683,3017.00
630.667,3434.00
631.652,2986.00
632.637,3139.00
633.621,3376.00
634.606,3142.00
635.590,3328.00
636.574,3108.00
637.558,3286.00
638.542,3261.00
639.526,3072.00
640.510,2828.00
641.493,3261.00
642.477,3161.00
643.460,2858.00
644.444,3461.00
645.427,3480.00
646.410,2839.00
647.393,3194.00
648.376,3305.00
649.359,3118.00
650.341,3320.00
651.324,3319.00
652.307,3240.00
653.289,3171.00
654.271,3073.00
655.253,3157.00
656.235,3354.00
657.217,3489.00
658.199,2790.00
659.181,2979.00
660.163,3206.00
661.144,3045.00
662.126,3098.00
663.107,2996.00
664.088,5094.00
665.069,3521.00
666.050,3038.00
667.033,2936.00
668.014,3280.00
668.995,2772.00
669.975,3247.00
670.956,3192.00
671.936,3365.00
672.916,3177.00
673.896,3333.00
674.876,3126.00
675.856,3085.00
676.836,2934.00
677.816,2470.00
678.795,3019.00
679.775,2872.00
680.754,3231.00
681.734,3373.00
682.713,3397.00
683.692,2975.00
684.671,2812.00
685.650,2903.00
686.629,3078.00
687.607,2979.00
688.586,2970.00
689.564,3052.00
690.543,3486.00
691.523,2541.00
692.501,3007.00
693.479,3161.00
694.457,2953.00
695.435,3084.00
696.413,2823.00
697.390,2699.00
698.368,2910.00
699.345,3358.00
700.322,3181.00
701.300,3315.00
702.277,3287.00
703.254,3533.00
704.231,2736.00
705.207,3163.00
706.184,2999.00
707.161,2846.00
708.137,3063.00
709.113,3004.00
710.090,2966.00
711.068,2794.00
712.044,2796.00
713.020,3075.00
713.996,2781.00
714.971,3009.00
715.947,3045.00
716.922,3021.00
717.898,2923.00
718.873,3099.00
719.848,2898.00
720.823,2891.00
721.798,3211.00
722.773,2923.00
723.748,2642.00
724.723,3225.00
725.697,3047.00
726.672,2918.00
727.646,2675.00
728.622,3192.00
729.596,2842.00
730.570,2935.00
731.544,3305.00
732.518,3470.00
733.492,3036.00
734.466,3060.00
735.439,3175.00
736.413,3331.00
737.386,2636.00
738.359,2633.00
739.332,2705.00
740.305,3030.00
741.278,3559.00
742.251,3165.00
743.224,2906.00
744.196,2734.00
745.171,3353.00
746.143,3246.00
747.115,2966.00
748.087,2888.00
749.059,3296.00
750.031,3102.00
751.003,3973.00
751.975,3504.00
752.947,2865.00
753.918,3304.00
754.890,2764.00
755.861,2931.00
756.832,3217.00
757.803,3055.00
758.774,3012.00
759.747,2789.00
760.718,3419.00
761.689,2943.00
762.659,2783.00
763.630,3393.00
764.600,2746.00
765.570,3327.00
766.540,3331.00
767.510,3095.00
768.480,3238.00
769.450,2945.00
770.420,3002.00
771.390,2791.00
772.359,2990.00
773.329,2817.00
774.300,2658.00
775.269,2984.00
776.238,3210.00
777.207,3388.00
778.176,2691.00
779.145,3005.00
780.114,2836.00
781.083,2749.00
782.051,2933.00
783.019,2871.00
783.988,3303.00
784.956,3065.00
785.924,3179.00
786.894,3131.00
787.862,2903.00
788.830,3378.00
789.797,2771.00
790.765,2755.00
791.732,2946.00
792.700,2858.00
793.667,2773.00
794.634,2943.00
795.601,2930.00
796.568,2948.00
797.535,3029.00
798.502,3663.00
799.468,3115.00
800.437,2556.00
801.403,2812.00
802.370,3507.00
803.336,3194.00
804.302,3071.00
805.268,2601.00
806.234,2724.00
807.200,2923.00
808.166,2953.00
809.131,2742.00
810.097,3259.00
811.062,3941.00
812.027,3234.00
812.994,2754.00
813.960,2757.00
814.925,3142.00
815.889,2707.00
816.854,3264.00
817.819,2792.00
818.783,2907.00
819.748,3325.00
820.712,2907.00
821.677,2785.00
822.641,2885.00
823.605,2903.00
824.571,3386.00
825.534,2942.00
826.498,2859.00
827.462,3035.00
828.425,2786.00
829.389,3277.00
830.352,3008.00
831.315,3094.00
832.279,2675.00
833.242,2953.00
834.204,2818.00
835.167,2801.00
836.132,3248.00
837.095,2727.00
838.057,2903.00
839.020,3005.00
839.982,3039.00
840.944,2896.00
841.906,2822.00
842.868,3179.00
843.830,2726.00
844.792,3246.00
845.753,2869.00
846.715,2604.00
847.679,2770.00
848.640,2796.00
849.601,2937.00
850.562,3494.00
851.523,2908.00
852.484,2660.00
853.445,3152.00
854.406,2863.00
855.367,2905.00
856.327,3224.00
857.288,2693.00
858.248,2816.00
859.210,2826.00
860.170,2710.00
861.130,3216.00
862.090,2550.00
863.050,2776.00
864.010,2860.00
864.969,3049.00
865.929,2745.00
866.888,2700.00
867.848,3048.00
868.807,2840.00
869.766,3058.00
870.727,2911.00
871.686,3197.00
872.645,3245.00
873.604,3549.00
874.562,2936.00
875.521,2986.00
876.479,3610.00
877.437,2779.00
878.396,2790.00
879.354,3348.00
880.312,2816.00
881.270,2848.00
882.229,3363.00
883.187,2805.00
884.145,2849.00
885.102,3120.00
886.059,2996.00
887.017,3126.00
887.974,3179.00
888.931,3286.00
889.888,2656.00
890.845,2596.00
891.802,2533.00
892.758,2815.00
893.717,2581.00
894.673,2713.00
895.630,2785.00
896.586,3095.00
897.542,2871.00
898.498,2678.00
899.454,3022.00
900.410,2922.00
901.366,2830.00
902.321,2771.00
903.277,2905.00
904.232,2937.00
905.189,2636.00
906.145,2805.00
907.100,2359.00
908.055,2882.00
909.010,3114.00
909.965,2488.00
910.919,2991.00
911.874,2742.00
912.828,2929.00
913.783,2932.00
914.737,2489.00
915.693,2963.00
916.648,3144.00
917.602,3167.00
918.555,2957.00
919.509,3054.00
920.463,2935.00
921.417,2909.00
922.370,2727.00
923.324,2834.00
924.277,2864.00
925.230,2926.00
926.183,2562.00
927.138,2886.00
928.091,3128.00
929.044,3041.00
929.996,2844.00
930.949,2832.00
931.902,2984.00
932.854,3017.00
933.806,2795.00
934.758,3180.00
935.711,3216.00
936.663,2893.00
937.614,3011.00
938.568,2938.00
939.520,2509.00
940.471,2880.00
941.423,2958.00
942.374,3075.00
943.326,2881.00
944.277,2790.00
945.228,3045.00
946.179,2873.00
947.130,3267.00
948.080,2806.00
949.031,2728.00
949.984,2874.00
950.934,2903.00
951.884,2671.00
952.835,2880.00
953.785,2936.00
954.735,2780.00
955.685,2523.00
956.635,2778.00
957.585,2832.00
958.534,2788.00
959.484,2953.00
960.433,2802.00
961.383,2608.00
962.334,3200.00
963.283,2968.00
964.232,3087.00
965.181,2869.00
966.130,3000.00
967.079,2801.00
968.027,2948.00
968.976,2894.00
969.924,2775.00
970.873,3028.00
971.821,2903.00
972.769,3104.00
973.719,3069.00
974.667,2627.00
975.615,2880.00
976.562,2942.00
977.510,2588.00
978.458,2791.00
979.405,3034.00
980.352,2949.00
981.300,3200.00
982.247,2985.00
983.194,2687.00
984.141,2797.00
985.088,2942.00
986.036,2976.00
986.983,3214.00
987.930,3346.00
988.876,2474.00
989.822,3185.00
990.769,2736.00
991.715,2745.00
992.661,2592.00
993.607,2960.00
994.553,3522.00
995.498,2772.00
996.444,2431.00
997.389,2960.00
998.337,2692.00
999.282,3044.00
1000.227,2841.00
1001.173,2843.00
1002.118,2672.00
1003.062,3100.00
1004.007,2857.00
1004.952,3187.00
1005.897,3162.00
1006.841,2917.00
1007.786,2637.00
1008.730,2599.00
1009.674,3382.00
1010.618,2836.00
1011.564,2646.00
1012.508,2531.00
1013.452,3162.00
1014.396,2873.00
1015.339,2781.00
1016.283,2901.00
1017.226,2922.00
1018.170,2920.00
1019.113,3098.00
1020.056,2922.00
1020.999,2915.00
1021.942,2781.00
1022.885,3065.00
1023.828,3181.00
1024.770,2693.00
1025.715,2930.00
1026.657,2834.00
1027.600,2915.00
1028.542,3114.00
1029.484,2927.00
1030.426,3049.00
1031.368,2972.00
1032.310,2779.00
1033.251,2688.00
1034.193,2843.00
1035.135,2634.00
1036.076,2832.00
1037.017,2674.00
1037.959,2988.00
1038.900,2970.00
1039.843,2968.00
1040.784,2921.00
1041.725,2981.00
1042.665,2817.00
1043.606,2948.00
1044.547,2941.00
1045.487,2547.00
1046.427,2834.00
1047.368,2979.00
1048.308,2397.00
1049.248,2679.00
1050.188,2890.00
1051.128,2757.00
1052.067,2838.00
1053.007,2578.00
1053.947,2519.00
1054.886,2721.00
1055.827,2666.00
1056.766,3168.00
1057.706,2585.00
1058.645,2827.00
1059.584,2911.00
1060.522,3196.00
1061.461,2624.00
1062.400,2618.00
1063.338,2791.00
1064.277,2678.00
1065.215,2664.00
1066.154,2569.00
1067.092,2693.00
1068.030,2822.00
1068.968,3013.00
1069.906,3240.00
1070.843,3166.00
1071.781,2919.00
1072.720,2964.00
1073.658,3003.00
1074.595,2757.00
1075.533,2729.00
1076.470,2754.00
1077.407,3209.00
1078.344,2959.00
1079.281,2975.00
1080.217,2446.00
1081.154,2833.00
1082.091,2899.00
1083.027,2606.00
1083.964,3126.00
1084.900,2708.00
1085.836,2795.00
1086.772,3078.00
1087.708,2601.00
1088.644,3048.00
1089.580,2876.00
1090.515,2931.00
1091.451,2757.00
1092.388,2898.00
1093.324,2604.00
1094.259,3480.00
1095.194,2890.00
1096.129,2811.00
1097.064,2732.00
1097.999,2988.00
1098.934,2721.00
1099.869,2681.00
1100.803,2858.00
1101.738,2917.00
1102.672,2537.00
1103.607,2967.00
1104.541,2711.00
1105.475,2697.00
1106.409,2566.00
1107.343,2794.00
1108.277,2594.00
1109.210,2878.00
1110.144,2831.00
1111.078,2860.00
1112.011,2585.00
1112.944,2924.00
1113.878,2920.00
1114.811,2307.00
1115.744,2761.00
1116.678,2455.00
1117.611,2772.00
1118.544,2752.00
1119.477,2927.00
1120.409,2739.00
1121.342,3319.00
1122.274,2933.00
1123.206,3273.00
1124.138,2842.00
1125.070,3155.00
1126.002,2991.00
1126.934,2450.00
1127.866,2763.00
1128.798,2477.00
1129.729,2531.00
1130.661,2834.00
1131.592,2748.00
1132.523,2906.00
1133.454,2938.00
1134.385,2439.00
1135.317,2824.00
1136.247,2705.00
1137.178,3040.00
1138.109,2528.00
1139.039,3219.00
1139.970,3004.00
1140.900,2735.00
1141.831,2500.00
1142.761,2360.00
1143.691,3391.00
1144.621,2832.00
1145.551,2862.00
1146.480,2889.00
1147.410,3061.00
1148.340,2454.00
1149.269,2505.00
1150.199,2752.00
1151.128,3258.00
1152.057,2547.00
1152.979,2768.00
1153.898,2787.00
1154.819,2908.00
1155.739,2785.00
1156.658,2718.00
1157.579,2856.00
1158.498,2774.00
1159.419,2312.00
1160.338,2863.00
1161.256,2897.00
1162.177,2636.00
1163.095,2784.00
1164.016,2841.00
1164.934,3075.00
1165.852,2975.00
1166.772,2785.00
1167.690,2844.00
1168.610,2846.00
1169.528,2835.00
1170.446,2346.00
1171.365,2727.00
1172.283,2689.00
1173.202,2817.00
1174.120,2842.00
1175.037,2633.00
1175.956,2622.00
1176.873,2642.00
1177.792,2678.00
1178.709,3312.00
1179.626,2715.00
1180.544,3065.00
1181.461,2669.00
1182.379,2928.00
1183.296,2797.00
1184.212,2435.00
1185.130,2623.00
1186.046,3142.00
1186.962,2773.00
1187.880,3119.00
1188.796,2854.00
1189.714,2575.00
1190.629,2928.00
1191.545,2871.00
1192.462,2703.00
1193.378,2757.00
1194.295,2479.00
1195.210,2801.00
1196.125,2939.00
1197.042,2890.00
1197.957,2811.00
1198.872,2658.00
1199.788,2719.00
1200.703,3118.00
1201.619,2821.00
1202.534,2655.00
1203.448,2944.00
1204.364,2767.00
1205.278,2428.00
1206.192,2862.00
1207.108,3335.00
1208.022,3200.00
1208.938,2615.00
1209.851,2973.00
1210.765,3076.00
1211.680,2710.00
1212.594,2573.00
1213.507,2755.00
1214.422,3202.00
1215.335,2901.00
1216.248,2693.00
1217.163,2802.00
1218.076,3447.00
1218.990,2929.00
1219.903,2603.00
1220.816,2615.00
1221.730,2760.00
1222.642,2699.00
1223.554,2702.00
1224.469,2890.00
1225.380,2731.00
1226.292,2441.00
1227.206,2938.00
1228.118,3176.00
1229.032,2432.00
1229.943,2674.00
1230.855,2735.00
1231.768,2504.00
1232.679,2856.00
1233.590,2812.00
1234.503,2997.00
1235.414,2658.00
1236.325,2648.00
1237.238,2868.00
1238.149,2876.00
1239.059,2590.00
1239.972,2997.00
1240.882,2548.00
1241.793,2912.00
1242.705,3201.00
1243.615,2756.00
1244.525,2935.00
1245.437,2361.00
1246.347,2861.00
1247.259,2954.00
1248.168,3237.00
1249.078,3083.00
1249.989,3079.00
1250.899,2606.00
1251.808,2648.00
1252.719,2734.00
1253.628,2646.00
1254.537,3231.00
1255.448,2609.00
1256.357,2605.00
1257.266,2841.00
1258.176,2496.00
1259.085,2490.00
1259.993,2622.00
1260.904,2631.00
1261.812,2615.00
1262.720,3352.00
1263.630,2964.00
1264.538,2612.00
1265.446,2910.00
1266.356,2791.00
1267.263,3108.00
1268.171,2580.00
1269.080,2849.00
1269.988,2977.00
1270.895,2706.00
1271.804,2753.00
1272.711,3041.00
1273.619,2959.00
1274.527,2610.00
1275.434,2920.00
1276.341,2598.00
1277.248,2794.00
1278.156,3094.00
1279.063,2668.00
1279.969,2896.00
1280.877,3757.00
1281.783,2997.00
1282.690,2885.00
1283.598,2765.00
1284.503,2629.00
1285.409,2598.00
1286.317,3146.00
1287.223,3250.00
1288.128,2847.00
1289.036,2666.00
1289.941,2701.00
1290.846,2804.00
1291.751,2572.00
1292.658,2699.00
1293.563,3253.00
1294.468,2830.00
1295.375,2953.00
1296.280,3057.00
1297.184,3547.00
1298.091,2898.00
1298.995,2992.00
1299.900,3222.00
1300.806,2695.00
1301.710,2515.00
1302.614,2345.00
1303.518,3025.00
1304.424,2737.00
1305.327,3019.00
1306.231,2747.00
1307.137,2939.00
1308.040,2862.00
1308.943,2822.00
1309.847,3050.00
1310.752,2978.00
1311.655,2407.00
1312.558,2580.00
1313.463,2737.00
1314.366,2680.00
1315.269,2816.00
1316.171,2747.00
1317.076,2693.00
1317.978,2594.00
1318.881,2389.00
1319.785,2653.00
1320.687,2655.00
1321.589,2414.00
1322.491,2620.00
1323.395,2903.00
1324.297,3378.00
1325.198,2946.00
1326.102,2585.00
1327.004,2568.00
1327.905,3210.00
1328.806,2781.00
1329.709,2888.00
1330.611,2711.00
1331.512,2616.00
1332.413,3265.00
1333.316,2846.00
1334.216,3000.00
1335.117,2510.00
1336.020,2852.00
1336.920,2811.00
1337.821,2653.00
1338.721,3096.00
1339.623,2873.00
1340.523,2760.00
1341.423,2674.00
1342.323,3047.00
1343.225,2888.00
1344.125,2599.00
1345.025,2656.00
1345.924,2436.00
1346.826,3166.00
1347.725,3245.00
1348.624,3046.00
1349.524,2661.00
1350.425,2756.00
1351.324,2872.00
1352.223,2974.00
1353.121,2740.00
1354.022,3011.00
1354.921,3248.00
1355.819,2889.00
1356.718,2864.00
1357.618,2525.00
1358.516,2882.00
1359.415,3240.00
1360.313,2871.00
1361.213,2769.00
1362.111,3106.00
1363.008,3520.00
1363.906,2768.00
1364.806,2818.00
1365.703,2915.00
1366.601,2624.00
1367.498,2645.00
1368.397,2976.00
1369.295,2849.00
1370.192,2603.00
1371.089,2861.00
1371.987,2767.00
1372.884,3064.00
1373.781,2574.00
1374.678,2798.00
1375.574,2623.00
1376.473,2926.00
1377.369,3053.00
1378.265,2585.00
1379.161,2765.00
1380.059,2491.00
1380.955,2900.00
1381.851,2562.00
1382.747,2703.00
1383.643,2718.00
1384.540,2583.00
1385.436,2704.00
1386.331,2869.00
1387.227,3002.00
1388.124,2924.00
1389.019,2586.00
1389.914,2760.00
1390.809,2419.00
1391.704,3272.00
1392.601,2696.00
1393.495,3093.00
1394.390,3020.00
1395.285,3067.00
1396.179,2864.00
1397.075,2801.00
1397.969,2863.00
1398.864,2461.00
1399.758,2775.00
1400.652,2813.00
1401.547,2627.00
1402.441,2579.00
1403.335,3162.00
1404.229,2854.00
1405.122,2843.00
1406.017,2787.00
1406.911,2946.00
1407.804,3284.00
1408.697,2785.00
1409.590,2611.00
1410.485,2963.00
1411.378,2884.00
1412.271,2508.00
1413.163,2899.00
1414.056,2983.00
1414.949,3275.00
1415.843,2829.00
1416.735,2756.00
1417.627,2839.00
1418.520,2742.00
1419.412,3054.00
1420.306,2963.00
1421.197,3088.00
1422.089,3054.00
1422.981,3261.00
1423.873,2992.00
1424.764,2894.00
1425.657,2876.00
1426.549,2925.00
1427.440,3038.00
1428.331,2692.00
1429.222,2488.00
1430.113,2873.00
1431.006,3026.00
1431.897,2684.00
1432.787,2841.00
1433.678,2757.00
1434.568,2659.00
1435.459,3069.00
1436.351,3005.00
1437.241,2999.00
1438.131,2999.00
1439.021,2558.00
1439.911,2767.00
1440.801,2874.00
1441.693,3079.00
1442.583,2859.00
1443.472,2825.00
1444.362,2946.00
1445.251,2741.00
1446.140,2738.00
1447.030,3019.00
1447.921,3026.00
1448.810,2604.00
1449.699,3202.00
1450.588,2861.00
1451.476,2711.00
1452.365,2936.00
1453.254,2744.00
1454.144,2688.00
1455.032,2950.00
1455.921,2530.00
1456.809,3148.00
1457.697,2576.00
1458.585,2768.00
1459.473,2764.00
1460.361,2608.00
1461.251,2933.00
1462.138,2860.00
1463.026,2805.00
1463.913,3065.00
1464.801,2764.00
1465.688,2871.00
1466.575,2868.00
1467.463,3298.00
1468.351,2706.00
1469.238,2764.00
1470.125,2399.00
1471.012,2913.00
1471.899,2961.00
1472.785,2621.00
1473.672,2821.00
1474.558,3078.00
1475.446,3014.00
1476.333,2994.00
1477.219,2599.00
1478.105,2827.00
1478.991,2813.00
1479.877,3164.00
1480.762,2836.00
1481.648,2678.00
1482.534,2963.00
1483.419,2922.00
1484.307,2969.00
1485.192,2777.00
1486.077,2696.00
1486.962,2690.00
1487.847,2573.00
1488.732,2651.00
1489.617,2843.00
1490.502,3096.00
1491.387,2964.00
1492.271,2639.00
1493.156,2662.00
1494.042,2618.00
1494.927,3061.00
1495.811,2696.00
1496.695,2971.00
1497.579,3128.00
1498.463,2825.00
1499.347,2907.00
1500.231,2840.00
1501.114,2907.00
1501.998,3136.00
1502.881,2891.00
1503.765,3118.00
1504.648,3284.00
1505.533,2970.00
1506.417,2876.00
1507.300,2802.00
1508.183,2905.00
1509.066,2305.00
1509.948,3096.00
1510.831,3281.00
1511.714,2593.00
1512.596,3007.00
1513.479,3102.00
1514.361,3021.00
1515.243,2866.00
1516.125,3019.00
1517.008,3131.00
1517.890,2789.00
1518.771,2851.00
1519.655,3088.00
1520.537,2795.00
1521.419,2659.00
1522.300,2907.00
1523.182,3023.00
1524.063,2992.00
1524.944,3203.00
1525.825,3034.00
1526.707,2651.00
1527.588,2574.00
1528.468,2969.00
1529.349,2474.00
1530.230,2792.00
1531.111,3019.00
1531.991,2989.00
1532.872,2562.00
1533.752,2813.00
1534.632,2669.00
1535.513,2711.00
1536.393,2995.00
1537.273,3180.00
1538.153,3527.00
1539.032,2563.00
1539.912,2806.00
1540.792,2891.00
1541.672,2888.00
1542.551,2962.00
1543.430,3463.00
1544.310,2848.00
1545.189,2722.00
1546.068,3296.00
1546.947,2944.00
1547.826,3199.00
1548.705,2816.00
1549.584,3093.00
1550.462,2781.00
1551.341,3025.00
1552.219,2870.00
1553.098,3009.00
1553.976,3103.00
1554.854,3243.00
1555.733,3059.00
1556.611,2809.00
1557.489,2639.00
1558.367,2823.00
1559.244,3010.00
1560.122,2819.00
1561.000,2903.00
1561.877,3147.00
1562.755,2691.00
1563.632,2824.00
1564.509,3146.00
1565.386,3259.00
1566.264,2603.00
1567.141,2431.00
1568.017,3004.00
1568.894,2848.00
1569.771,2931.00
1570.648,2971.00
1571.524,2878.00
1572.401,2613.00
1573.277,2625.00
1574.153,2907.00
1575.029,2735.00
1575.906,3609.00
1576.781,3031.00
1577.657,2803.00
1578.533,3079.00
1579.409,2463.00
1580.285,2787.00
1581.160,3318.00
1582.036,3071.00
1582.911,2655.00
1583.786,3250.00
1584.662,2635.00
1585.537,2820.00
1586.412,2887.00
1587.287,2667.00
1588.160,3048.00
1589.035,2487.00
1589.909,2864.00
1590.784,2799.00
1591.658,2647.00
1592.533,2904.00
1593.407,2850.00
1594.281,2737.00
1595.155,3286.00
1596.029,2750.00
1596.903,2841.00
1597.777,2728.00
1598.651,3166.00
1599.525,2497.00
1600.398,2892.00
1601.272,2810.00
1602.144,3413.00
1603.017,2785.00
1603.890,3102.00
1604.763,2945.00
1605.636,2996.00
1606.509,2530.00
1607.382,2702.00
1608.255,2920.00
1609.128,3082.00
1610.000,2817.00
1610.873,2520.00
1611.746,2713.00
1612.616,2781.00
1613.488,2404.00
1614.361,2854.00
1615.233,2800.00
1616.105,3078.00
1616.977,2763.00
1617.849,2661.00
1618.720,3192.00
1619.592,3200.00
1620.464,2972.00
1621.333,3362.00
1622.205,2851.00
1623.076,2821.00
1623.947,2856.00
1624.818,3109.00
1625.689,2976.00
1626.560,2762.00
1627.431,2890.00
1628.302,3269.00
1629.171,2983.00
1630.042,3209.00
1630.912,3588.00
1631.782,3469.00
1632.653,2654.00
1633.523,3010.00
1634.393,3091.00
1635.263,2729.00
1636.131,2871.00
1637.001,2748.00
1637.871,2476.00
1638.741,2479.00
1639.611,2554.00
1640.480,3007.00
1641.350,2740.00
1642.219,2645.00
1643.087,2318.00
1643.956,3336.00
1644.825,3127.00
1645.694,3085.00
1646.563,3030.00
1647.432,2868.00
1648.299,2904.00
1649.167,2979.00
1650.036,2666.00
1650.904,3004.00
1651.773,3105.00
1652.641,2885.00
1653.509,3042.00
1654.376,2720.00
1655.244,2964.00
1656.112,2914.00
1656.980,2890.00
1657.847,2720.00
1658.715,3049.00
1659.581,2737.00
1660.448,3096.00
1661.316,2332.00
1662.183,2945.00
1663.051,2895.00
1663.918,2898.00
1664.783,2860.00
1665.650,2932.00
1666.517,3038.00
1667.384,2890.00
1668.251,2909.00
1669.115,3113.00
1669.982,2853.00
1670.849,3181.00
1671.715,2868.00
1672.581,3026.00
1673.446,2979.00
1674.312,2866.00
1675.178,3323.00
1676.044,2964.00
1676.910,2933.00
1677.774,2906.00
1678.639,2461.00
1679.505,2826.00
1680.370,3024.00
1681.236,3551.00
1682.099,2829.00
1682.965,2887.00
1683.830,2425.00
1684.695,2677.00
1685.560,2766.00
1686.423,3018.00
1687.288,3006.00
1688.153,2951.00
1689.017,2815.00
1689.880,2980.00
1690.745,2997.00
1691.609,2721.00
1692.473,2998.00
1693.338,3146.00
1694.200,3156.00
1695.064,2882.00
1695.928,2795.00
1696.792,2872.00
1697.654,3449.00
1698.517,2921.00
1699.381,2605.00
1700.245,2467.00
1701.106,3204.00
1701.969,2778.00
1702.833,3075.00
1703.696,2798.00
1704.557,2838.00
1705.420,2717.00
1706.283,2876.00
1707.146,3035.00
1708.007,2632.00
1708.870,2677.00
1709.732,2551.00
1710.595,2748.00
1711.455,2654.00
1712.318,2837.00
1713.180,3134.00
1714.040,2935.00
1714.902,3076.00
1715.764,2917.00
1716.626,2650.00
1717.486,2856.00
1718.348,3166.00
1719.209,5428.00
1720.071,2546.00
1720.930,2620.00
1721.792,2728.00
1722.653,2705.00
1723.512,2789.00
1724.374,2844.00
1725.234,2948.00
1726.095,2904.00
1726.954,2890.00
1727.815,3043.00
1728.676,2864.00
1729.535,3157.00
1730.395,2869.00
1731.256,2764.00
1732.114,2910.00
1732.974,2308.00
1733.834,3270.00
1734.693,3059.00
1735.553,2916.00
1736.413,3325.00
1737.272,2737.00
1738.130,2821.00
1738.990,2938.00
1739.849,2712.00
1740.707,3946.00
1741.566,2923.00
1742.426,2911.00
1743.283,3325.00
1744.142,2789.00
1745.001,2509.00
1745.858,3058.00
1746.717,2950.00
1747.576,3010.00
1748.433,3059.00
1749.292,3558.00
1750.150,3541.00
1751.007,3069.00
1751.865,3108.00
1752.723,2914.00
1753.579,2792.00
1754.438,3091.00
1755.296,3091.00
1756.152,2436.00
1757.010,2536.00
1757.865,3109.00
1758.723,2498.00
1759.581,3230.00
1760.436,2856.00
1761.294,3273.00
1762.151,2887.00
1763.006,2820.00
1763.864,2533.00
1764.721,3113.00
1765.576,2950.00
1766.433,3039.00
1767.288,2768.00
1768.144,2959.00
1769.001,2842.00
1769.856,2976.00
1770.712,3110.00
1771.568,2636.00
1772.423,2782.00
1773.279,2797.00
1774.133,2761.00
1774.989,3293.00
1775.845,3317.00
1776.699,3137.00
1777.555,2898.00
1778.409,3446.00
1779.265,2855.00
1780.120,2835.00
1780.974,2859.00
1781.829,2444.00
1782.682,2961.00
1783.538,2711.00
1784.393,2931.00
1785.246,2743.00
1786.101,3009.00
1786.954,3046.00
1787.808,3143.00
1788.661,2574.00
1789.516,2822.00
1790.370,2830.00
1791.223,3097.00
1792.077,2907.00
1792.930,2973.00
1793.784,2732.00
1794.636,2933.00
1795.490,2843.00
1796.344,2946.00
1797.196,2899.00
1798.049,3045.00
1798.901,2787.00
1799.755,3174.00
1800.606,2661.00
1801.460,3407.00
1802.311,3174.00
1803.165,3322.00
1804.018,3249.00
1804.869,3002.00
1805.722,3406.00
1806.573,2909.00
1807.426,2728.00
1808.276,2903.00
1809.129,2809.00
1809.980,3149.00
1810.832,3210.00
1811.683,2824.00
1812.535,3263.00
1813.385,2858.00
1814.237,3198.00
1815.089,2956.00
1815.940,3212.00
1816.791,2870.00
1817.641,2737.00
1818.493,3060.00
1819.343,2996.00
1820.194,2757.00
1821.044,3033.00
1821.895,3118.00
1822.745,2573.00
1823.596,2780.00
1824.445,3359.00
1825.296,2999.00
1826.145,2869.00
1826.996,3134.00
1827.845,2949.00
1828.695,3018.00
1829.544,2866.00
1830.395,2947.00
1831.243,2812.00
1832.094,2607.00
1832.942,3584.00
1833.792,3012.00
1834.640,2958.00
1835.490,2905.00
1836.338,2975.00
1837.186,2825.00
1838.036,2752.00
1838.884,2869.00
1839.733,3238.00
1840.581,3079.00
1841.430,3007.00
1842.278,3280.00
1843.127,2790.00
1843.974,2565.00
1844.823,3355.00
1845.671,3062.00
1846.519,2929.00
1847.366,2989.00
1848.213,2491.00
1849.062,2767.00
1849.909,2636.00
1850.757,3618.00
1851.604,3023.00
1852.452,2847.00
1853.298,3150.00
1854.146,2964.00
1854.993,2964.00
1855.839,3503.00
1856.687,3018.00
1857.532,3092.00
1858.380,2929.00
1859.226,2981.00
1860.073,3042.00
1860.919,2704.00
1861.765,2805.00
1862.612,3130.00
1863.457,3191.00
1864.304,2860.00
1865.150,3016.00
1865.995,2899.00
1866.842,3029.00
1867.686,3158.00
1868.533,2993.00
1869.378,2973.00
1870.223,2950.00
1871.069,2798.00
1871.914,2940.00
1872.760,2894.00
1873.604,2678.00
1874.448,3065.00
1875.294,3093.00
1876.139,2757.00
1876.984,3037.00
1877.828,2544.00
1878.672,2406.00
1879.518,2791.00
1880.361,3110.00
1881.205,3071.00
1882.050,2716.00
1882.894,3492.00
1883.739,2782.00
1884.582,2628.00
1885.425,2727.00
1886.270,3173.00
1887.113,2680.00
1887.956,3057.00
1888.801,2968.00
1889.644,2754.00
1890.486,2495.00
1891.331,2857.00
1892.173,2935.00
1893.017,2968.00
1893.860,3204.00
1894.702,3222.00
1895.546,2950.00
1896.388,3686.00
1897.230,3264.00
1898.074,2808.00
1898.916,2721.00
1899.757,2737.00
1900.601,3668.00
1901.443,3260.00
1902.284,3225.00
1903.125,3459.00
1903.969,3159.00
1904.810,3156.00
1905.651,3072.00
1906.494,3295.00
1907.335,3382.00
1908.176,3067.00
1909.018,3029.00
1909.859,2901.00
1910.700,2806.00
1911.542,3517.00
1912.383,2991.00
1913.223,2518.00
1914.064,3046.00
1914.906,3212.00
1915.746,3267.00
1916.586,3419.00
1917.428,2921.00
1918.268,2988.00
1919.107,2836.00
1919.947,2647.00
1920.789,2818.00
1921.628,3175.00
1922.468,2944.00
1923.309,2760.00
1924.148,3291.00
1924.988,3036.00
1925.827,2911.00
1926.667,2816.00
1927.507,2980.00
1928.345,2726.00
1929.184,3116.00
1930.025,2742.00
1930.864,3180.00
1931.702,3257.00
1932.541,2892.00
1933.381,3072.00
1934.219,3064.00
1935.057,3241.00
1935.896,2599.00
1936.735,2892.00
1937.573,2845.00
1938.411,2757.00
1939.249,3131.00
1940.089,2802.00
1940.927,3201.00
1941.764,3214.00
1942.602,2858.00
1943.439,2782.00
1944.278,2929.00
1945.115,2826.00
1945.953,2661.00
1946.790,2989.00
1947.628,3309.00
1948.465,3082.00
1949.302,3068.00
1950.139,3082.00
1950.976,2791.00
1951.814,3099.00
1952.651,2992.00
1953.487,2716.00
1954.323,3224.00
1955.160,2911.00
1955.998,3298.00
1956.834,2928.00
1957.670,3036.00
1958.506,3176.00
1959.342,3034.00
1960.177,3020.00
1961.015,3117.00
1961.850,2948.00
1962.686,3037.00
1963.521,3024.00
1964.357,3225.00
1965.192,2675.00
1966.029,3089.00
1966.864,2855.00
1967.699,3209.00
1968.534,3003.00
1969.369,3238.00
1970.204,2898.00
1971.040,3014.00
1971.875,2914.00
1972.709,2998.00
1973.544,2749.00
1974.378,2873.00
1975.212,3029.00
1976.047,2825.00
1976.882,2804.00
1977.716,3350.00
1978.550,2610.00
1979.384,2891.00
1980.218,2871.00
1981.052,2873.00
1981.885,2981.00
1982.719,2944.00
1983.554,3107.00
1984.388,3302.00
1985.221,3022.00
1986.054,3243.00
1986.887,3036.00
1987.720,2782.00
1988.553,3285.00
1989.386,3080.00
1990.219,3111.00
1991.053,3248.00
1991.886,2801.00
1992.719,3170.00
1993.551,2445.00
1994.383,3103.00
1995.216,2880.00
1996.048,2631.00
1996.880,3125.00
1997.712,2803.00
1998.544,2958.00
1999.376,3048.00
2000.208,3271.00
2001.040,3462.00
2001.873,2778.00
2002.705,2753.00
2003.536,2993.00
2004.367,2978.00
2005.199,3016.00
2006.030,2852.00
2006.861,2722.00
2007.692,3003.00
2008.523,2813.00
2009.354,2980.00
2010.185,2760.00
2011.016,3093.00
2011.846,3175.00
2012.677,2918.00
2013.507,3320.00
2014.338,3209.00
2015.168,2878.00
2015.999,3499.00
2016.829,2841.00
2017.659,3212.00
2018.489,3531.00
2019.319,2776.00
2020.149,3143.00
2020.980,2987.00
2021.810,2745.00
2022.639,2858.00
2023.469,2861.00
2024.298,2615.00
2025.128,2507.00
2025.957,2570.00
2026.786,2368.00
2027.615,2550.00
2028.444,2810.00
2029.273,2990.00
2030.102,2553.00
2030.931,2789.00
2031.758,3080.00
2032.586,2701.00
2033.415,2796.00
2034.243,2387.00
2035.072,2151.00
2035.900,2673.00
2036.728,2463.00
2037.556,2557.00
2038.385,2534.00
2039.213,2363.00
2040.040,2302.00
2040.868,2258.00
2041.696,2331.00
2042.524,2364.00
2043.351,2611.00
2044.179,2373.00
2045.006,2156.00
