RamanScope Measure Spectrum Data V3.72

<< MEASURE CONDITION >>
Exposure Type,Aver
Exposure Time [sec],15
Exposure Count,30
Measure Time,2023/07/12 12:52:42
Data Name,""
Data Comment,""
Rayleigh Wave[nm],532.0

<< SAMPLE SPECTRUM >>
Wave[dcm-1],No25
146.591,757.33
147.626,867.97
148.664,997.63
149.699,1153.00
150.737,1316.10
151.772,1398.93
152.809,1552.40
153.846,1652.70
154.881,1751.63
155.918,1841.33
156.953,1908.03
157.989,1999.27
159.026,2045.73
160.060,2080.27
161.096,2155.37
162.130,2188.97
163.167,2192.07
164.200,2246.60
165.236,2255.90
166.272,2303.13
167.305,2334.50
168.341,2387.67
169.374,2447.10
170.409,2493.97
171.445,2512.13
172.477,2551.50
173.512,2547.47
174.545,2598.37
175.580,2647.30
176.614,2596.90
177.647,2575.10
178.681,2638.97
179.713,2659.20
180.747,2640.40
181.781,2619.57
182.813,2644.37
183.847,2615.33
184.878,2669.63
185.912,2635.23
186.945,2674.97
187.976,2717.00
189.010,2721.37
190.043,2714.30
191.073,2775.17
192.106,2829.97
193.137,2868.47
194.170,2900.70
195.202,2957.27
196.232,2978.03
197.265,3013.50
198.297,3095.30
199.327,3171.50
200.359,3222.60
201.388,3307.27
202.420,3395.00
203.452,3510.23
204.481,3607.43
205.512,3671.87
206.544,3863.83
207.573,4015.80
208.604,4153.90
209.635,4333.43
210.663,4513.43
211.694,4734.20
212.725,4919.73
213.753,5163.23
214.783,5318.10
215.813,5523.30
216.841,5595.40
217.871,5650.33
218.899,5701.43
219.929,5718.63
220.959,5602.13
221.986,5400.00
223.016,5245.33
224.045,5067.83
225.072,4898.17
226.101,4701.00
227.130,4464.90
228.157,4324.17
229.185,4187.57
230.214,4124.27
231.241,3945.10
232.269,3913.00
233.297,3788.93
234.323,3730.73
235.351,3700.77
236.379,3651.70
237.407,3618.93
238.433,3611.50
239.460,3588.00
240.488,3585.37
241.513,3544.87
242.540,3567.00
243.568,3630.17
244.592,3628.23
245.619,3616.70
246.646,3620.57
247.671,3538.43
248.697,3593.03
249.724,3563.00
250.748,3532.93
251.774,3537.50
252.801,3527.23
253.827,3560.57
254.850,3554.93
255.876,3578.63
256.902,3561.27
257.925,3686.20
258.951,3691.90
259.976,3692.67
260.999,3773.70
262.024,3777.07
263.049,3783.67
264.074,3911.13
265.097,3959.40
266.122,4002.23
267.146,4075.93
268.168,4134.67
269.193,4203.60
270.217,4271.70
271.241,4321.37
272.263,4392.90
273.287,4427.73
274.311,4492.27
275.332,4540.30
276.356,4525.40
277.379,4522.10
278.402,4473.07
279.424,4501.97
280.447,4460.03
281.470,4364.23
282.492,4339.57
283.513,4240.50
284.536,4211.93
285.558,4134.50
286.581,4091.53
287.601,3958.53
288.623,3890.57
289.645,3847.87
290.665,3788.93
291.687,3747.87
292.709,3622.60
293.730,3534.07
294.750,3493.53
295.771,3466.10
296.792,3406.37
297.813,3301.83
298.832,3232.63
299.853,3171.23
300.874,3167.47
301.895,3079.37
302.913,3019.80
303.934,2994.67
304.954,2971.47
305.975,3678.83
306.993,2841.90
308.013,2850.30
309.033,2817.67
310.052,2784.23
311.072,2765.40
312.090,2732.80
313.109,2727.70
314.129,2705.90
315.148,2658.47
316.165,2649.63
317.184,2638.77
318.203,2583.40
319.222,2571.57
320.238,2576.50
321.257,2536.50
322.275,2555.93
323.294,2520.27
324.312,2525.67
325.328,2509.63
326.346,2528.40
327.364,2491.83
328.382,2465.77
329.397,2457.87
330.415,2440.77
331.432,2466.53
332.450,2439.17
333.467,2403.33
334.482,2394.80
335.499,2431.80
336.516,2412.13
337.533,2411.73
338.547,2410.83
339.564,2370.83
340.580,2403.53
341.597,2416.80
342.613,2404.33
343.627,2415.07
344.643,2370.70
345.659,2380.17
346.675,2366.43
347.690,2379.30
348.704,2363.17
349.719,2415.70
350.735,2355.00
351.750,2356.43
352.765,2423.40
353.778,2384.63
354.793,2362.50
355.808,2350.97
356.822,2382.77
357.837,2363.00
358.851,2366.57
359.864,2428.57
360.878,2361.07
361.892,2390.10
362.906,2413.77
363.920,2390.17
364.932,2433.93
365.945,2426.50
366.959,2473.63
367.972,2479.93
368.986,2469.70
369.999,2451.53
371.010,2466.03
372.023,2509.73
373.036,2483.97
374.049,2487.93
375.061,2557.30
376.072,2546.10
377.084,2506.03
378.097,2556.23
379.109,2559.67
380.121,2564.40
381.133,2581.47
382.143,2568.10
383.155,2584.80
384.166,2529.37
385.178,2565.60
386.189,2597.33
387.201,2593.93
388.212,2619.37
389.221,2593.97
390.232,2592.47
391.243,2586.33
392.254,2582.13
393.264,2563.87
394.275,2531.77
395.283,2498.67
396.294,2493.30
397.304,2468.50
398.314,2516.23
399.324,2500.77
400.334,2450.93
401.344,2404.93
402.351,2424.27
403.361,2432.50
404.370,2386.47
405.380,2408.73
406.389,2359.63
407.398,2332.30
408.407,2340.40
409.414,2331.20
410.423,2314.63
411.431,2253.20
412.440,2292.07
413.448,2274.80
414.457,2278.77
415.465,2272.07
416.471,2209.33
417.479,2228.03
418.487,2210.67
419.495,2167.23
420.503,2228.23
421.510,2216.23
422.518,2199.40
423.525,2194.27
424.530,2172.40
425.537,2190.47
426.544,2157.93
427.551,2151.60
428.558,2110.63
429.565,2176.33
430.571,2136.73
431.578,2174.60
432.582,2135.37
433.588,2089.33
434.595,2121.07
435.601,2128.73
436.607,2123.53
437.612,2133.87
438.618,2124.93
439.624,2124.23
440.627,2168.67
441.633,2108.33
442.638,2097.13
443.643,2087.00
444.648,2154.63
445.653,2143.03
446.658,2117.23
447.663,2104.70
448.667,2110.97
449.672,2154.23
450.674,2111.30
451.678,2166.83
452.682,2136.77
453.687,2090.67
454.690,2147.43
455.694,2203.23
456.698,2162.20
457.702,2165.20
458.705,2184.83
459.709,2132.93
460.710,2189.40
461.713,2191.50
462.716,2162.67
463.719,2196.00
464.722,2193.13
465.725,2183.33
466.727,2207.40
467.730,2250.53
468.732,2201.93
469.735,2210.03
470.737,2242.97
471.737,2212.63
472.739,2185.53
473.741,2211.13
474.742,2171.67
475.744,2255.90
476.746,2226.77
477.747,2240.03
478.748,2205.57
479.750,2235.27
480.751,2241.13
481.752,2237.70
482.753,2256.00
483.751,2234.83
484.752,2239.63
485.753,2255.47
486.753,2231.00
487.753,2192.77
488.754,2233.40
489.754,2200.53
490.754,2213.37
491.754,2224.33
492.754,2165.87
493.753,2197.10
494.753,2193.03
495.752,2203.57
496.752,2226.00
497.749,2191.83
498.748,2237.03
499.747,2209.40
500.746,2178.67
501.745,2169.87
502.744,2217.83
503.742,2160.63
504.741,2153.07
505.739,2204.97
506.737,2201.87
507.735,2146.73
508.734,2135.13
509.732,2176.43
510.729,2171.53
511.727,2167.07
512.725,2122.40
513.720,2135.53
514.718,2132.00
515.715,2116.63
516.712,2134.53
517.709,2125.33
518.706,2098.80
519.703,2109.77
520.700,2116.77
521.696,2083.93
522.693,2107.20
523.689,2143.53
524.686,2143.47
525.682,2135.80
526.678,2137.33
527.674,2149.10
528.670,2157.63
529.666,2171.40
530.661,2169.07
531.657,2237.97
532.652,2141.80
533.648,2177.73
534.641,2171.27
535.636,2155.80
536.631,2148.60
537.626,2160.87
538.621,2194.60
539.616,2220.13
540.610,2181.50
541.605,2126.27
542.599,2161.93
543.593,2200.10
544.587,2226.30
545.581,2197.37
546.575,2177.30
547.569,2144.57
548.563,2202.83
549.557,2206.90
550.550,2195.83
551.543,2169.70
552.537,2180.80
553.530,2182.60
554.523,2205.57
555.516,2235.67
556.509,2198.90
557.502,2201.77
558.494,2216.87
559.487,2242.43
560.479,2188.17
561.472,2191.80
562.464,2207.63
563.456,2262.63
564.448,2227.93
565.440,2226.40
566.432,2210.97
567.423,2257.47
568.415,2259.03
569.404,2256.47
570.396,2284.03
571.387,2250.80
572.378,2275.57
573.369,2275.93
574.360,2288.23
575.351,2323.27
576.341,2336.57
577.332,2318.50
578.323,2347.67
579.313,2311.33
580.303,2404.23
581.293,2306.83
582.283,2331.97
583.273,2373.83
584.263,2343.27
585.253,2354.40
586.243,2385.90
587.232,2365.90
588.222,2336.43
589.211,2351.63
590.200,2385.50
591.189,2349.00
592.178,2341.43
593.167,2362.93
594.156,2311.87
595.145,2350.80
596.133,2355.73
597.122,2335.63
598.110,2371.20
599.098,2310.43
600.086,2313.83
601.074,2370.03
602.062,2320.53
603.050,2268.97
604.038,2327.77
605.025,2311.30
606.013,2339.27
607.000,2312.47
607.987,2290.73
608.975,2306.53
609.962,2294.00
610.949,2289.90
611.936,2272.77
612.922,2241.10
613.909,2221.47
614.895,2184.27
615.882,2219.70
616.868,2206.30
617.854,2205.53
618.841,2167.37
619.826,2136.97
620.812,2178.87
621.798,2145.60
622.784,2166.30
623.769,2122.57
624.755,2137.23
625.740,2102.93
626.725,2115.57
627.711,2074.07
628.698,2053.03
629.683,2057.80
630.667,2058.93
631.652,2061.03
632.637,2078.33
633.621,2055.27
634.606,2037.50
635.590,1998.37
636.574,2019.17
637.558,1960.33
638.542,1983.50
639.526,1937.17
640.510,1949.63
641.493,1972.87
642.477,1957.30
643.460,1912.40
644.444,1924.50
645.427,1908.70
646.410,1900.33
647.393,1936.33
648.376,1951.73
649.359,1913.17
650.341,1917.53
651.324,1962.43
652.307,1875.77
653.289,1845.03
654.271,1859.37
655.253,1865.90
656.235,1834.47
657.217,1837.10
658.199,1817.50
659.181,1835.03
660.163,1848.60
661.144,1806.27
662.126,1806.50
663.107,1771.83
664.088,1762.30
665.069,1799.67
666.050,1801.70
667.033,1759.20
668.014,1774.73
668.995,1782.80
669.975,1755.90
670.956,1758.00
671.936,1724.87
672.916,1722.30
673.896,1702.97
674.876,1709.53
675.856,1657.40
676.836,1664.53
677.816,1678.77
678.795,1674.97
679.775,1679.70
680.754,1612.37
681.734,1667.73
682.713,1578.00
683.692,1604.13
684.671,1660.67
685.650,1586.67
686.629,1556.57
687.607,1566.23
688.586,1522.57
689.564,1575.77
690.543,1588.80
691.523,1548.43
692.501,1565.30
693.479,1517.73
694.457,1526.60
695.435,1485.63
696.413,1500.13
697.390,1491.17
698.368,1485.40
699.345,1468.20
700.322,1510.30
701.300,1512.53
702.277,1461.10
703.254,1452.13
704.231,1501.50
705.207,1458.87
706.184,1467.93
707.161,1430.50
708.137,1431.13
709.113,1476.33
710.090,1489.83
711.068,1411.43
712.044,1407.30
713.020,1449.33
713.996,1434.87
714.971,1421.70
715.947,1394.63
716.922,1403.43
717.898,1388.97
718.873,1388.83
719.848,1413.07
720.823,1432.70
721.798,1400.40
722.773,1349.20
723.748,1391.43
724.723,1395.50
725.697,1374.80
726.672,1384.80
727.646,1372.70
728.622,1387.37
729.596,1356.00
730.570,1374.43
731.544,1362.67
732.518,1335.67
733.492,1358.90
734.466,1325.17
735.439,1326.43
736.413,1352.60
737.386,1330.30
738.359,1358.30
739.332,1355.30
740.305,1323.60
741.278,1313.13
742.251,1307.40
743.224,1345.77
744.196,1300.93
745.171,1324.43
746.143,1333.03
747.115,1360.33
748.087,1339.27
749.059,1265.00
750.031,1328.73
751.003,1301.60
751.975,1311.77
752.947,1299.77
753.918,1300.67
754.890,1304.00
755.861,1294.43
756.832,1296.20
757.803,1280.50
758.774,1282.27
759.747,1252.97
760.718,1247.43
761.689,1273.23
762.659,1333.67
763.630,1258.20
764.600,1243.37
765.570,1261.60
766.540,1245.93
767.510,1286.53
768.480,1231.93
769.450,1241.70
770.420,1210.57
771.390,1236.27
772.359,1238.43
773.329,1242.17
774.300,1216.27
775.269,1238.10
776.238,1232.73
777.207,1183.50
778.176,1193.83
779.145,1203.80
780.114,1224.87
781.083,1186.30
782.051,1211.43
783.019,1250.73
783.988,1235.67
784.956,1186.47
785.924,1200.63
786.894,1187.20
787.862,1205.60
788.830,1202.40
789.797,1227.47
790.765,1140.20
791.732,1178.13
792.700,1196.47
793.667,1186.37
794.634,1142.30
795.601,1178.67
796.568,1122.33
797.535,1154.27
798.502,1148.40
799.468,1139.23
800.437,1192.00
801.403,1208.37
802.370,1173.47
803.336,1115.13
804.302,1128.57
805.268,1186.57
806.234,1086.83
807.200,1120.63
808.166,1131.90
809.131,1123.37
810.097,1134.27
811.062,1114.63
812.027,1083.83
812.994,1082.53
813.960,1107.97
814.925,1122.83
815.889,1146.73
816.854,1102.23
817.819,1108.93
818.783,1084.17
819.748,1114.77
820.712,1119.73
821.677,1098.23
822.641,1057.03
823.605,1081.57
824.571,1084.57
825.534,1135.67
826.498,1084.30
827.462,1128.97
828.425,1090.70
829.389,1088.47
830.352,1061.13
831.315,1067.87
832.279,1076.77
833.242,1059.37
834.204,1076.33
835.167,1070.33
836.132,1101.87
837.095,1076.27
838.057,1087.70
839.020,1087.90
839.982,1101.20
840.944,1109.87
841.906,1107.30
842.868,1029.17
843.830,1074.77
844.792,1056.10
845.753,1081.00
846.715,1065.33
847.679,1079.13
848.640,1058.50
849.601,1039.33
850.562,1043.57
851.523,1061.80
852.484,1073.70
853.445,1059.70
854.406,1029.80
855.367,1081.97
856.327,1077.67
857.288,1028.57
858.248,1065.70
859.210,1051.67
860.170,1018.03
861.130,1053.70
862.090,1057.30
863.050,1034.47
864.010,1031.83
864.969,1056.43
865.929,1041.10
866.888,1006.67
867.848,1019.00
868.807,1032.33
869.766,1026.27
870.727,1021.80
871.686,1008.87
872.645,1024.17
873.604,1098.40
874.562,1034.90
875.521,1026.57
876.479,1023.70
877.437,1035.20
878.396,1050.23
879.354,1020.53
880.312,1053.33
881.270,1025.53
882.229,1065.23
883.187,1006.67
884.145,999.97
885.102,1036.20
886.059,1037.97
887.017,1021.50
887.974,1005.03
888.931,999.87
889.888,1044.07
890.845,1024.70
891.802,1010.33
892.758,1007.67
893.717,1047.23
894.673,1011.80
895.630,1002.20
896.586,995.27
897.542,1066.80
898.498,1019.43
899.454,1020.30
900.410,1005.50
901.366,1013.70
902.321,971.00
903.277,946.37
904.232,974.03
905.189,1014.53
906.145,1033.87
907.100,1047.83
908.055,1034.97
909.010,1019.87
909.965,1028.53
910.919,1040.27
911.874,994.43
912.828,1001.47
913.783,1055.07
914.737,1050.20
915.693,1011.00
916.648,1022.07
917.602,967.17
918.555,1020.60
919.509,1020.40
920.463,1003.30
921.417,991.73
922.370,1055.30
923.324,1041.13
924.277,1062.63
925.230,1056.67
926.183,1017.47
927.138,1016.33
928.091,1028.97
929.044,1000.93
929.996,1019.47
930.949,998.33
931.902,1018.03
932.854,1062.27
933.806,1069.33
934.758,1005.77
935.711,1047.37
936.663,1034.33
937.614,1060.43
938.568,1020.63
939.520,994.60
940.471,1045.17
941.423,1042.07
942.374,1047.40
943.326,1036.70
944.277,1013.23
945.228,1049.33
946.179,1060.93
947.130,1027.70
948.080,1026.77
949.031,1049.93
949.984,1030.63
950.934,1079.50
951.884,1043.83
952.835,1031.10
953.785,1041.77
954.735,1061.10
955.685,1057.87
956.635,1039.50
957.585,1050.03
958.534,1054.17
959.484,1023.07
960.433,1076.37
961.383,1010.80
962.334,1039.97
963.283,1049.43
964.232,1052.63
965.181,1022.70
966.130,1024.10
967.079,1076.20
968.027,1063.13
968.976,1041.70
969.924,1061.13
970.873,1060.43
971.821,1048.47
972.769,1054.20
973.719,1090.13
974.667,1047.83
975.615,1048.63
976.562,1032.77
977.510,1065.53
978.458,1055.27
979.405,1063.10
980.352,1046.70
981.300,1069.90
982.247,1025.20
983.194,1052.97
984.141,1064.67
985.088,1027.07
986.036,1074.93
986.983,1054.70
987.930,1065.37
988.876,1049.77
989.822,1020.40
990.769,1030.70
991.715,1015.10
992.661,1018.63
993.607,1016.57
994.553,1040.13
995.498,1059.17
996.444,1040.50
997.389,1026.67
998.337,1040.53
999.282,996.20
1000.227,1014.37
1001.173,1011.27
1002.118,1063.47
1003.062,1080.00
1004.007,1025.17
1004.952,1018.57
1005.897,1014.67
1006.841,1048.60
1007.786,1030.70
1008.730,1038.20
1009.674,1008.93
1010.618,986.87
1011.564,980.90
1012.508,1029.70
1013.452,1009.67
1014.396,1020.07
1015.339,1047.47
1016.283,1042.50
1017.226,1030.77
1018.170,1038.67
1019.113,1005.60
1020.056,1016.47
1020.999,1017.67
1021.942,1033.20
1022.885,1043.00
1023.828,1042.77
1024.770,1026.20
1025.715,1026.33
1026.657,1066.43
1027.600,1030.23
1028.542,1035.23
1029.484,1008.63
1030.426,1087.70
1031.368,1070.07
1032.310,1029.43
1033.251,1027.90
1034.193,1080.40
1035.135,1038.13
1036.076,1039.13
1037.017,1064.60
1037.959,1024.07
1038.900,1079.93
1039.843,1066.97
1040.784,1064.10
1041.725,1062.20
1042.665,1076.37
1043.606,1086.50
1044.547,1043.40
1045.487,1033.70
1046.427,1117.77
1047.368,1108.43
1048.308,1056.03
1049.248,1042.43
1050.188,1083.00
1051.128,1102.13
1052.067,1105.20
1053.007,1042.50
1053.947,1107.97
1054.886,1081.67
1055.827,1059.27
1056.766,1086.60
1057.706,1105.73
1058.645,1101.20
1059.584,1097.93
1060.522,1139.00
1061.461,1076.20
1062.400,1098.73
1063.338,1125.77
1064.277,1137.97
1065.215,1135.80
1066.154,1102.93
1067.092,1127.20
1068.030,1103.73
1068.968,1140.10
1069.906,1113.43
1070.843,1116.90
1071.781,1184.07
1072.720,1124.20
1073.658,1146.23
1074.595,1108.87
1075.533,1099.20
1076.470,1154.13
1077.407,1138.30
1078.344,1155.40
1079.281,1136.40
1080.217,1147.23
1081.154,1135.40
1082.091,1165.53
1083.027,1153.77
1083.964,1100.80
1084.900,1135.40
1085.836,1150.43
1086.772,1139.37
1087.708,1150.43
1088.644,1140.57
1089.580,1138.97
1090.515,1131.03
1091.451,1148.90
1092.388,1153.20
1093.324,1147.00
1094.259,1131.87
1095.194,1130.67
1096.129,1141.13
1097.064,1100.90
1097.999,1139.07
1098.934,1120.60
1099.869,1113.57
1100.803,1129.90
1101.738,1086.93
1102.672,1097.37
1103.607,1102.80
1104.541,1096.40
1105.475,1103.17
1106.409,1085.63
1107.343,1105.53
1108.277,1097.83
1109.210,1107.93
1110.144,1104.10
1111.078,1091.60
1112.011,1097.77
1112.944,1060.07
1113.878,1086.63
1114.811,1057.73
1115.744,1072.13
1116.678,1057.83
1117.611,1013.60
1118.544,1032.53
1119.477,1044.30
1120.409,1055.23
1121.342,995.53
1122.274,1021.50
1123.206,1044.40
1124.138,1056.57
1125.070,1021.30
1126.002,1010.77
1126.934,1045.77
1127.866,1009.77
1128.798,987.67
1129.729,1021.93
1130.661,1016.50
1131.592,1027.37
1132.523,1006.80
1133.454,994.33
1134.385,975.30
1135.317,996.90
1136.247,993.67
1137.178,1013.27
1138.109,994.63
1139.039,1010.73
1139.970,961.57
1140.900,972.03
1141.831,972.47
1142.761,963.73
1143.691,957.87
1144.621,997.13
1145.551,959.83
1146.480,985.27
1147.410,1012.63
1148.340,985.47
1149.269,935.83
1150.199,992.20
1151.128,951.30
1152.057,983.03
1152.979,955.73
1153.898,946.73
1154.819,947.80
1155.739,932.67
1156.658,952.20
1157.579,956.97
1158.498,945.03
1159.419,948.60
1160.338,956.30
1161.256,922.40
1162.177,941.60
1163.095,940.60
1164.016,924.63
1164.934,940.20
1165.852,958.53
1166.772,905.70
1167.690,930.13
1168.610,907.23
1169.528,922.57
1170.446,922.70
1171.365,944.10
1172.283,949.47
1173.202,947.30
1174.120,918.60
1175.037,932.57
1175.956,887.83
1176.873,944.47
1177.792,955.10
1178.709,927.23
1179.626,910.27
1180.544,963.13
1181.461,937.93
1182.379,890.67
1183.296,910.10
1184.212,893.73
1185.130,936.93
1186.046,939.63
1186.962,932.70
1187.880,889.07
1188.796,886.50
1189.714,920.27
1190.629,901.93
1191.545,916.60
1192.462,910.43
1193.378,923.03
1194.295,945.77
1195.210,951.03
1196.125,954.20
1197.042,915.57
1197.957,903.87
1198.872,935.30
1199.788,939.37
1200.703,936.70
1201.619,910.73
1202.534,945.63
1203.448,945.37
1204.364,954.00
1205.278,957.30
1206.192,909.67
1207.108,914.93
1208.022,962.17
1208.938,961.43
1209.851,946.17
1210.765,930.50
1211.680,941.33
1212.594,958.30
1213.507,931.10
1214.422,967.33
1215.335,936.93
1216.248,928.20
1217.163,974.37
1218.076,955.37
1218.990,954.27
1219.903,946.80
1220.816,933.83
1221.730,986.37
1222.642,928.77
1223.554,936.60
1224.469,967.37
1225.380,974.00
1226.292,974.50
1227.206,988.90
1228.118,930.83
1229.032,965.77
1229.943,983.70
1230.855,995.20
1231.768,988.47
1232.679,982.53
1233.590,989.57
1234.503,973.33
1235.414,977.77
1236.325,968.00
1237.238,979.93
1238.149,962.43
1239.059,991.00
1239.972,959.90
1240.882,997.13
1241.793,1018.13
1242.705,986.17
1243.615,977.63
1244.525,1003.03
1245.437,979.53
1246.347,1017.37
1247.259,992.87
1248.168,984.33
1249.078,998.13
1249.989,1012.83
1250.899,1028.03
1251.808,1004.63
1252.719,1038.93
1253.628,954.10
1254.537,1035.77
1255.448,1050.53
1256.357,992.20
1257.266,1021.23
1258.176,1006.77
1259.085,1048.80
1259.993,993.50
1260.904,1020.87
1261.812,1029.20
1262.720,1017.87
1263.630,1019.20
1264.538,1024.40
1265.446,1063.37
1266.356,1019.17
1267.263,1082.30
1268.171,1023.50
1269.080,1028.20
1269.988,1028.50
1270.895,988.90
1271.804,1022.73
1272.711,994.60
1273.619,1023.67
1274.527,1020.77
1275.434,1057.53
1276.341,1039.37
1277.248,1028.73
1278.156,1039.93
1279.063,1006.57
1279.969,1038.63
1280.877,1027.03
1281.783,992.77
1282.690,995.13
1283.598,1019.10
1284.503,1026.17
1285.409,1011.53
1286.317,1011.63
1287.223,1018.57
1288.128,1038.83
1289.036,1000.80
1289.941,989.93
1290.846,1031.00
1291.751,1003.27
1292.658,1005.30
1293.563,1012.17
1294.468,991.93
1295.375,1019.63
1296.280,973.70
1297.184,966.70
1298.091,962.97
1298.995,1004.93
1299.900,971.70
1300.806,955.37
1301.710,968.50
1302.614,980.47
1303.518,974.27
1304.424,959.73
1305.327,953.40
1306.231,979.03
1307.137,924.90
1308.040,940.53
1308.943,974.40
1309.847,935.80
1310.752,1000.23
1311.655,933.87
1312.558,957.13
1313.463,913.83
1314.366,926.33
1315.269,904.37
1316.171,912.87
1317.076,925.40
1317.978,892.20
1318.881,897.10
1319.785,902.83
1320.687,901.77
1321.589,891.30
1322.491,864.07
1323.395,891.20
1324.297,907.00
1325.198,895.07
1326.102,859.27
1327.004,868.20
1327.905,914.73
1328.806,866.03
1329.709,878.43
1330.611,890.93
1331.512,882.83
1332.413,895.43
1333.316,876.03
1334.216,846.37
1335.117,822.23
1336.020,791.53
1336.920,834.10
1337.821,847.60
1338.721,823.00
1339.623,779.17
1340.523,861.00
1341.423,828.70
1342.323,829.20
1343.225,819.50
1344.125,820.73
1345.025,785.00
1345.924,801.17
1346.826,778.73
1347.725,782.33
1348.624,803.83
1349.524,789.20
1350.425,809.87
1351.324,794.40
1352.223,759.10
1353.121,789.33
1354.022,758.03
1354.921,775.53
1355.819,755.90
1356.718,813.13
1357.618,792.97
1358.516,763.03
1359.415,755.70
1360.313,785.30
1361.213,753.10
1362.111,764.60
1363.008,776.30
1363.906,760.80
1364.806,740.87
1365.703,758.27
1366.601,744.07
1367.498,732.73
1368.397,741.23
1369.295,738.33
1370.192,730.00
1371.089,732.47
1371.987,738.07
1372.884,703.33
1373.781,698.87
1374.678,755.03
1375.574,731.13
1376.473,758.23
1377.369,696.90
1378.265,739.57
1379.161,751.70
1380.059,698.67
1380.955,703.07
1381.851,701.80
1382.747,692.17
1383.643,692.10
1384.540,696.47
1385.436,719.67
1386.331,691.50
1387.227,708.93
1388.124,675.87
1389.019,676.30
1389.914,676.53
1390.809,666.97
1391.704,696.37
1392.601,680.80
1393.495,669.77
1394.390,659.70
1395.285,701.07
1396.179,679.83
1397.075,696.07
1397.969,676.93
1398.864,651.73
1399.758,667.30
1400.652,664.90
1401.547,685.37
1402.441,659.50
1403.335,666.23
1404.229,677.63
1405.122,679.07
1406.017,639.53
1406.911,611.10
1407.804,622.93
1408.697,633.03
1409.590,649.30
1410.485,655.73
1411.378,617.67
1412.271,650.90
1413.163,684.30
1414.056,647.30
1414.949,630.97
1415.843,668.93
1416.735,641.33
1417.627,627.50
1418.520,652.10
1419.412,642.40
1420.306,623.70
1421.197,621.77
1422.089,605.70
1422.981,604.47
1423.873,642.80
1424.764,630.73
1425.657,613.90
1426.549,628.17
1427.440,643.33
1428.331,623.50
1429.222,634.47
1430.113,646.93
1431.006,639.93
1431.897,591.90
1432.787,601.40
1433.678,607.67
1434.568,635.13
1435.459,593.57
1436.351,636.10
1437.241,641.23
1438.131,634.37
1439.021,626.77
1439.911,558.07
1440.801,623.67
1441.693,630.50
1442.583,617.10
1443.472,575.83
1444.362,579.13
1445.251,577.17
1446.140,603.43
1447.030,570.93
1447.921,608.93
1448.810,601.67
1449.699,587.47
1450.588,590.90
1451.476,601.53
1452.365,582.27
1453.254,599.10
1454.144,566.83
1455.032,603.33
1455.921,572.63
1456.809,594.90
1457.697,589.37
1458.585,603.13
1459.473,588.47
1460.361,554.60
1461.251,578.43
1462.138,582.47
1463.026,596.20
1463.913,583.47
1464.801,578.50
1465.688,542.63
1466.575,539.07
1467.463,602.40
1468.351,590.27
1469.238,585.73
1470.125,597.40
1471.012,561.80
1471.899,537.80
1472.785,566.10
1473.672,555.80
1474.558,561.33
1475.446,555.53
1476.333,573.17
1477.219,557.87
1478.105,559.77
1478.991,580.27
1479.877,574.57
1480.762,570.10
1481.648,552.73
1482.534,559.90
1483.419,557.80
1484.307,521.67
1485.192,533.70
1486.077,578.27
1486.962,558.90
1487.847,526.67
1488.732,542.93
1489.617,532.43
1490.502,524.13
1491.387,569.73
1492.271,541.03
1493.156,531.07
1494.042,562.60
1494.927,593.80
1495.811,533.73
1496.695,528.67
1497.579,515.13
1498.463,546.57
1499.347,553.87
1500.231,542.43
1501.114,527.23
1501.998,562.90
1502.881,563.87
1503.765,528.37
1504.648,543.53
1505.533,509.80
1506.417,518.77
1507.300,512.50
1508.183,565.13
1509.066,517.13
1509.948,563.37
1510.831,524.53
1511.714,529.43
1512.596,547.63
1513.479,527.73
1514.361,526.73
1515.243,534.30
1516.125,529.47
1517.008,505.80
1517.890,544.97
1518.771,535.33
1519.655,548.00
1520.537,531.33
1521.419,538.73
1522.300,491.63
1523.182,507.23
1524.063,497.10
1524.944,510.70
1525.825,530.13
1526.707,544.30
1527.588,523.03
1528.468,475.30
1529.349,512.73
1530.230,505.37
1531.111,486.83
1531.991,533.23
1532.872,526.43
1533.752,519.00
1534.632,510.27
1535.513,490.43
1536.393,530.80
1537.273,541.03
1538.153,514.63
1539.032,538.93
1539.912,484.20
1540.792,499.97
1541.672,508.87
1542.551,533.20
1543.430,489.90
1544.310,512.43
1545.189,480.57
1546.068,542.87
1546.947,489.27
1547.826,500.77
1548.705,515.30
1549.584,508.77
1550.462,514.33
1551.341,504.83
1552.219,483.47
1553.098,509.57
1553.976,489.27
1554.854,474.63
1555.733,492.97
1556.611,484.80
1557.489,481.80
1558.367,493.37
1559.244,476.43
1560.122,512.57
1561.000,493.43
1561.877,500.23
1562.755,499.87
1563.632,511.77
1564.509,502.30
1565.386,508.10
1566.264,477.93
1567.141,487.07
1568.017,456.57
1568.894,453.20
1569.771,486.70
1570.648,449.00
1571.524,500.23
1572.401,472.77
1573.277,501.97
1574.153,517.83
1575.029,455.13
1575.906,485.97
1576.781,495.87
1577.657,491.77
1578.533,469.37
1579.409,470.00
1580.285,487.20
1581.160,516.07
1582.036,486.10
1582.911,433.10
1583.786,461.37
1584.662,480.03
1585.537,465.93
1586.412,433.87
1587.287,446.00
1588.160,498.73
1589.035,506.40
1589.909,475.17
1590.784,471.13
1591.658,463.83
1592.533,450.57
1593.407,439.77
1594.281,481.87
1595.155,482.73
1596.029,436.67
1596.903,468.87
1597.777,499.23
1598.651,468.67
1599.525,467.43
1600.398,475.13
1601.272,439.00
1602.144,519.70
1603.017,472.00
1603.890,475.70
1604.763,480.47
1605.636,447.03
1606.509,461.53
1607.382,473.60
1608.255,436.23
1609.128,513.60
1610.000,454.53
1610.873,499.97
1611.746,457.70
1612.616,438.80
1613.488,457.80
1614.361,473.00
1615.233,459.97
1616.105,461.87
1616.977,466.40
1617.849,459.43
1618.720,438.67
1619.592,454.83
1620.464,415.57
1621.333,471.70
1622.205,445.37
1623.076,426.30
1623.947,470.40
1624.818,493.43
1625.689,449.93
1626.560,458.40
1627.431,423.20
1628.302,445.87
1629.171,459.27
1630.042,422.83
1630.912,450.80
1631.782,471.73
1632.653,460.60
1633.523,452.50
1634.393,455.60
1635.263,445.93
1636.131,422.77
1637.001,468.63
1637.871,431.80
1638.741,447.70
1639.611,442.13
1640.480,421.73
1641.350,469.20
1642.219,432.23
1643.087,454.70
1643.956,461.17
1644.825,425.53
1645.694,444.17
1646.563,429.13
1647.432,438.60
1648.299,458.03
1649.167,435.20
1650.036,424.67
1650.904,470.63
1651.773,420.37
1652.641,430.27
1653.509,479.43
1654.376,420.10
1655.244,411.97
1656.112,467.17
1656.980,462.90
1657.847,461.87
1658.715,446.40
1659.581,410.03
1660.448,408.37
1661.316,425.80
1662.183,472.97
1663.051,456.70
1663.918,390.23
1664.783,420.93
1665.650,445.40
1666.517,441.70
1667.384,444.23
1668.251,435.93
1669.115,454.17
1669.982,437.20
1670.849,399.73
1671.715,402.10
1672.581,439.57
1673.446,435.50
1674.312,398.37
1675.178,422.47
1676.044,401.47
1676.910,430.20
1677.774,430.43
1678.639,438.50
1679.505,454.33
1680.370,433.03
1681.236,433.27
1682.099,443.23
1682.965,443.90
1683.830,427.30
1684.695,401.73
1685.560,463.47
1686.423,404.83
1687.288,432.27
1688.153,409.57
1689.017,444.20
1689.880,434.13
1690.745,379.40
1691.609,451.13
1692.473,432.73
1693.338,404.17
1694.200,453.57
1695.064,429.30
1695.928,380.13
1696.792,409.50
1697.654,425.30
1698.517,361.47
1699.381,440.40
1700.245,439.27
1701.106,395.07
1701.969,466.50
1702.833,427.07
1703.696,405.83
1704.557,392.33
1705.420,393.23
1706.283,418.70
1707.146,365.47
1708.007,411.93
1708.870,426.63
1709.732,404.30
1710.595,399.87
1711.455,394.97
1712.318,419.37
1713.180,406.53
1714.040,402.03
1714.902,433.80
1715.764,409.03
1716.626,406.73
1717.486,386.20
1718.348,436.00
1719.209,376.03
1720.071,411.20
1720.930,382.00
1721.792,436.70
1722.653,403.07
1723.512,404.17
1724.374,410.50
1725.234,395.10
1726.095,433.03
1726.954,408.33
1727.815,419.40
1728.676,406.43
1729.535,381.27
1730.395,403.03
1731.256,404.00
1732.114,421.93
1732.974,422.87
1733.834,427.03
1734.693,401.00
1735.553,403.90
1736.413,439.10
1737.272,407.57
1738.130,436.77
1738.990,408.43
1739.849,403.50
1740.707,347.73
1741.566,429.57
1742.426,407.90
1743.283,429.70
1744.142,390.90
1745.001,417.67
1745.858,386.20
1746.717,393.13
1747.576,406.57
1748.433,382.67
1749.292,417.27
1750.150,383.33
1751.007,392.40
1751.865,402.83
1752.723,414.13
1753.579,389.93
1754.438,441.70
1755.296,406.97
1756.152,414.73
1757.010,396.87
1757.865,352.47
1758.723,383.37
1759.581,426.17
1760.436,376.30
1761.294,388.13
1762.151,392.10
1763.006,379.80
1763.864,373.50
1764.721,419.33
1765.576,392.17
1766.433,426.70
1767.288,383.87
1768.144,364.63
1769.001,419.13
1769.856,379.87
1770.712,427.10
1771.568,376.00
1772.423,388.53
1773.279,367.73
1774.133,405.67
1774.989,350.07
1775.845,401.63
1776.699,430.23
1777.555,407.20
1778.409,397.97
1779.265,387.77
1780.120,450.17
1780.974,356.27
1781.829,390.33
1782.682,416.10
1783.538,409.90
1784.393,391.80
1785.246,377.27
1786.101,402.23
1786.954,408.23
1787.808,389.30
1788.661,389.77
1789.516,363.73
1790.370,337.23
1791.223,389.43
1792.077,405.77
1792.930,415.90
1793.784,435.63
1794.636,411.43
1795.490,380.43
1796.344,404.57
1797.196,438.07
1798.049,385.27
1798.901,391.97
1799.755,380.37
1800.606,347.77
1801.460,357.07
1802.311,396.37
1803.165,397.17
1804.018,408.50
1804.869,360.07
1805.722,407.50
1806.573,411.03
1807.426,380.37
1808.276,387.93
1809.129,374.93
1809.980,401.00
1810.832,393.87
1811.683,387.70
1812.535,389.43
1813.385,385.23
1814.237,409.20
1815.089,387.20
1815.940,388.53
1816.791,379.70
1817.641,409.17
1818.493,369.93
1819.343,387.17
1820.194,373.40
1821.044,433.10
1821.895,387.00
1822.745,390.33
1823.596,391.20
1824.445,399.97
1825.296,388.83
1826.145,348.67
1826.996,331.80
1827.845,421.40
1828.695,372.50
1829.544,372.60
1830.395,367.27
1831.243,422.50
1832.094,403.60
1832.942,367.70
1833.792,359.07
1834.640,376.90
1835.490,371.77
1836.338,395.80
1837.186,355.70
1838.036,372.27
1838.884,391.03
1839.733,375.83
1840.581,389.77
1841.430,380.50
1842.278,394.73
1843.127,334.97
1843.974,369.23
1844.823,347.27
1845.671,365.53
1846.519,380.93
1847.366,345.00
1848.213,405.40
1849.062,360.40
1849.909,352.63
1850.757,376.33
1851.604,379.07
1852.452,372.53
1853.298,349.53
1854.146,389.97
1854.993,345.33
1855.839,359.83
1856.687,378.67
1857.532,356.13
1858.380,384.13
1859.226,348.33
1860.073,390.77
1860.919,363.70
1861.765,359.63
1862.612,402.33
1863.457,366.63
1864.304,346.93
1865.150,376.43
1865.995,379.63
1866.842,375.33
1867.686,372.50
1868.533,394.57
1869.378,382.13
1870.223,337.63
1871.069,391.80
1871.914,365.60
1872.760,358.10
1873.604,385.67
1874.448,363.47
1875.294,359.27
1876.139,380.67
1876.984,388.10
1877.828,362.93
1878.672,397.13
1879.518,403.50
1880.361,330.07
1881.205,352.10
1882.050,406.67
1882.894,362.97
1883.739,354.17
1884.582,367.03
1885.425,373.10
1886.270,330.07
1887.113,350.33
1887.956,392.63
1888.801,390.43
1889.644,364.83
1890.486,387.17
1891.331,354.13
1892.173,336.30
1893.017,370.10
1893.860,420.23
1894.702,339.03
1895.546,388.43
1896.388,370.97
1897.230,407.70
1898.074,369.33
1898.916,356.37
1899.757,367.50
1900.601,368.37
1901.443,363.23
1902.284,371.00
1903.125,308.97
1903.969,364.40
1904.810,391.17
1905.651,396.93
1906.494,382.10
1907.335,375.30
1908.176,372.27
1909.018,364.13
1909.859,363.80
1910.700,352.57
1911.542,326.17
1912.383,351.33
1913.223,373.87
1914.064,361.67
1914.906,359.30
1915.746,345.97
1916.586,324.50
1917.428,366.93
1918.268,303.73
1919.107,384.17
1919.947,351.57
1920.789,325.03
1921.628,378.53
1922.468,340.53
1923.309,368.70
1924.148,409.63
1924.988,319.27
1925.827,314.93
1926.667,377.10
1927.507,345.57
1928.345,361.17
1929.184,332.37
1930.025,357.17
1930.864,341.50
1931.702,342.73
1932.541,402.93
1933.381,375.37
1934.219,330.87
1935.057,379.73
1935.896,364.00
1936.735,368.90
1937.573,340.10
1938.411,361.13
1939.249,357.97
1940.089,340.73
1940.927,365.90
1941.764,370.20
1942.602,350.80
1943.439,343.77
1944.278,348.70
1945.115,396.90
1945.953,364.77
1946.790,376.97
1947.628,382.67
1948.465,342.60
1949.302,370.93
1950.139,319.10
1950.976,378.03
1951.814,361.43
1952.651,388.57
1953.487,367.30
1954.323,388.33
1955.160,378.57
1955.998,358.50
1956.834,398.13
1957.670,358.40
1958.506,388.60
1959.342,361.07
1960.177,326.63
1961.015,362.60
1961.850,338.90
1962.686,398.77
1963.521,370.33
1964.357,331.73
1965.192,359.93
1966.029,358.83
1966.864,362.50
1967.699,379.70
1968.534,372.63
1969.369,386.77
1970.204,356.03
1971.040,389.47
1971.875,352.33
1972.709,326.60
1973.544,345.10
1974.378,363.43
1975.212,347.27
1976.047,369.53
1976.882,390.20
1977.716,382.07
1978.550,364.33
1979.384,394.13
1980.218,359.20
1981.052,348.50
1981.885,351.33
1982.719,338.77
1983.554,351.73
1984.388,354.27
1985.221,381.90
1986.054,349.53
1986.887,332.77
1987.720,372.33
1988.553,343.23
1989.386,384.87
1990.219,310.30
1991.053,361.60
1991.886,378.80
1992.719,339.03
1993.551,373.53
1994.383,307.70
1995.216,318.47
1996.048,360.07
1996.880,376.30
1997.712,347.60
1998.544,332.93
1999.376,341.50
2000.208,352.33
2001.040,368.67
2001.873,340.73
2002.705,366.47
2003.536,386.50
2004.367,348.80
2005.199,325.60
2006.030,352.00
2006.861,371.67
2007.692,353.17
2008.523,372.80
2009.354,332.90
2010.185,336.97
2011.016,331.43
2011.846,354.43
2012.677,387.70
2013.507,338.53
2014.338,342.17
2015.168,359.40
2015.999,367.00
2016.829,363.97
2017.659,337.77
2018.489,395.87
2019.319,346.10
2020.149,374.47
2020.980,386.33
2021.810,362.77
2022.639,394.80
2023.469,357.27
2024.298,390.53
2025.128,325.53
2025.957,334.47
2026.786,337.80
2027.615,348.73
2028.444,351.30
2029.273,392.07
2030.102,378.63
2030.931,363.00
2031.758,367.10
2032.586,360.67
2033.415,356.70
2034.243,371.30
2035.072,370.97
2035.900,379.97
2036.728,348.83
2037.556,392.07
2038.385,356.53
2039.213,335.43
2040.040,334.10
2040.868,362.93
2041.696,345.37
2042.524,338.33
2043.351,364.20
2044.179,327.30
2045.006,360.40
2045.006,360.40

Max Intensity Wave.,219.929
Max Intensity Data,5718.63
Min Intensity Wave.,1918.268
Min Intensity Data,303.73
FWHM Wave.,385.220
FWHM Value,30.09
Pressure Wave.,684.671
Pressure Value [GPa],-24.91530
G/D Ratio,0.54282
G/D Gband Wave.,1546.101
G/D Gband Intensity,542.95
G/D Dband Wave.,1310.744
G/D Dband Intensity,1000.24

<< BACKGROUND SPECTRUM >>
Wave[dcm-1],No25
146.591,2324.00
147.626,2187.00
148.664,2140.00
149.699,2631.00
150.737,2327.00
151.772,2528.00
152.809,2471.00
153.846,2408.00
154.881,2486.00
155.918,2050.00
156.953,2384.00
157.989,2691.00
159.026,2545.00
160.060,2749.00
161.096,2941.00
162.130,2585.00
163.167,2675.00
164.200,2538.00
165.236,2770.00
166.272,2794.00
167.305,2383.00
168.341,2646.00
169.374,2873.00
170.409,2869.00
171.445,2840.00
172.477,2614.00
173.512,2509.00
174.545,2775.00
175.580,2950.00
176.614,3177.00
177.647,2976.00
178.681,3158.00
179.713,3446.00
180.747,2913.00
181.781,2835.00
182.813,3089.00
183.847,3229.00
184.878,2805.00
185.912,3115.00
186.945,3263.00
187.976,3183.00
189.010,2823.00
190.043,2986.00
191.073,3050.00
192.106,2834.00
193.137,3314.00
194.170,2655.00
195.202,3004.00
196.232,2808.00
197.265,3132.00
198.297,3205.00
199.327,2870.00
200.359,3072.00
201.388,3460.00
202.420,3028.00
203.452,3211.00
204.481,2761.00
205.512,3489.00
206.544,3197.00
207.573,3157.00
208.604,3531.00
209.635,3663.00
210.663,3075.00
211.694,3087.00
212.725,2967.00
213.753,2907.00
214.783,3527.00
215.813,3342.00
216.841,3130.00
217.871,3338.00
218.899,3051.00
219.929,3238.00
220.959,2989.00
221.986,3312.00
223.016,2885.00
224.045,3303.00
225.072,3241.00
226.101,3346.00
227.130,3428.00
228.157,2962.00
229.185,2478.00
230.214,3286.00
231.241,2976.00
232.269,2532.00
233.297,2824.00
234.323,3388.00
235.351,2916.00
236.379,3224.00
237.407,2848.00
238.433,3036.00
239.460,3232.00
240.488,3240.00
241.513,3373.00
242.540,3277.00
243.568,3325.00
244.592,3357.00
245.619,3348.00
246.646,3039.00
247.671,3122.00
248.697,2906.00
249.724,3131.00
250.748,3144.00
251.774,3123.00
252.801,3448.00
253.827,3241.00
254.850,3234.00
255.876,2805.00
256.902,3314.00
257.925,3061.00
258.951,2838.00
259.976,2917.00
260.999,3198.00
262.024,2917.00
263.049,3862.00
264.074,3217.00
265.097,3146.00
266.122,3245.00
267.146,3147.00
268.168,3348.00
269.193,2967.00
270.217,3337.00
271.241,2799.00
272.263,2979.00
273.287,3288.00
274.311,2870.00
275.332,3407.00
276.356,2963.00
277.379,3210.00
278.402,3296.00
279.424,3045.00
280.447,2995.00
281.470,2850.00
282.492,3204.00
283.513,3049.00
284.536,3295.00
285.558,3294.00
286.581,3224.00
287.601,2961.00
288.623,2923.00
289.645,3190.00
290.665,3232.00
291.687,3217.00
292.709,3238.00
293.730,3555.00
294.750,3017.00
295.771,2852.00
296.792,3171.00
297.813,3049.00
298.832,3187.00
299.853,2870.00
300.874,3105.00
301.895,3091.00
302.913,3123.00
303.934,3398.00
304.954,3141.00
305.975,3339.00
306.993,2887.00
308.013,3242.00
309.033,3133.00
310.052,3067.00
311.072,3015.00
312.090,3174.00
313.109,3393.00
314.129,3519.00
315.148,3143.00
316.165,3198.00
317.184,3357.00
318.203,2878.00
319.222,2894.00
320.238,3259.00
321.257,2961.00
322.275,2802.00
323.294,3125.00
324.312,3277.00
325.328,3403.00
326.346,3415.00
327.364,3369.00
328.382,3315.00
329.397,3262.00
330.415,3391.00
331.432,3355.00
332.450,3410.00
333.467,3634.00
334.482,2709.00
335.499,3506.00
336.516,3006.00
337.533,2680.00
338.547,2956.00
339.564,2986.00
340.580,3220.00
341.597,3077.00
342.613,3600.00
343.627,3077.00
344.643,3144.00
345.659,3236.00
346.675,3131.00
347.690,3013.00
348.704,3226.00
349.719,2941.00
350.735,2861.00
351.750,3342.00
352.765,3079.00
353.778,3097.00
354.793,3267.00
355.808,2963.00
356.822,3325.00
357.837,2774.00
358.851,3410.00
359.864,3039.00
360.878,2883.00
361.892,3079.00
362.906,3292.00
363.920,2716.00
364.932,3206.00
365.945,3211.00
366.959,3086.00
367.972,3033.00
368.986,2789.00
369.999,3533.00
371.010,2950.00
372.023,3473.00
373.036,3087.00
374.049,3531.00
375.061,3175.00
376.072,3077.00
377.084,3018.00
378.097,2807.00
379.109,3331.00
380.121,3126.00
381.133,2763.00
382.143,3289.00
383.155,2835.00
384.166,3086.00
385.178,3253.00
386.189,3331.00
387.201,2838.00
388.212,3030.00
389.221,3028.00
390.232,3135.00
391.243,3034.00
392.254,3137.00
393.264,2949.00
394.275,3368.00
395.283,3343.00
396.294,3792.00
397.304,3666.00
398.314,3227.00
399.324,3136.00
400.334,2770.00
401.344,3321.00
402.351,2757.00
403.361,3322.00
404.370,3101.00
405.380,3000.00
406.389,3486.00
407.398,3263.00
408.407,3220.00
409.414,3287.00
410.423,3445.00
411.431,2924.00
412.440,2778.00
413.448,3476.00
414.457,2975.00
415.465,2910.00
416.471,3025.00
417.479,3149.00
418.487,2936.00
419.495,3498.00
420.503,3237.00
421.510,2699.00
422.518,3275.00
423.525,3313.00
424.530,3548.00
425.537,2990.00
426.544,3387.00
427.551,2990.00
428.558,3775.00
429.565,3569.00
430.571,2993.00
431.578,2990.00
432.582,2985.00
433.588,3130.00
434.595,2734.00
435.601,3443.00
436.607,3373.00
437.612,2851.00
438.618,3476.00
439.624,3065.00
440.627,3018.00
441.633,3258.00
442.638,3759.00
443.643,3265.00
444.648,3115.00
445.653,3317.00
446.658,3017.00
447.663,3167.00
448.667,3023.00
449.672,3006.00
450.674,3102.00
451.678,2803.00
452.682,2999.00
453.687,3018.00
454.690,3757.00
455.694,3361.00
456.698,2671.00
457.702,2759.00
458.705,2876.00
459.709,2942.00
460.710,2979.00
461.713,3130.00
462.716,3182.00
463.719,3096.00
464.722,3292.00
465.725,3067.00
466.727,2941.00
467.730,3116.00
468.732,2877.00
469.735,3421.00
470.737,3002.00
471.737,3015.00
472.739,3037.00
473.741,2926.00
474.742,3226.00
475.744,3192.00
476.746,3154.00
477.747,3062.00
478.748,3313.00
479.750,3028.00
480.751,3104.00
481.752,3901.00
482.753,3188.00
483.751,3679.00
484.752,2720.00
485.753,3072.00
486.753,2990.00
487.753,3145.00
488.754,3559.00
489.754,2821.00
490.754,3457.00
491.754,3249.00
492.754,2870.00
493.753,3151.00
494.753,3059.00
495.752,3483.00
496.752,3143.00
497.749,3121.00
498.748,2950.00
499.747,3522.00
500.746,3246.00
501.745,2899.00
502.744,2859.00
503.742,3488.00
504.741,3076.00
505.739,2544.00
506.737,2982.00
507.735,3287.00
508.734,3536.00
509.732,3253.00
510.729,3452.00
511.727,2993.00
512.725,3055.00
513.720,2880.00
514.718,3383.00
515.715,2777.00
516.712,2722.00
517.709,3118.00
518.706,3037.00
519.703,3162.00
520.700,3322.00
521.696,3533.00
522.693,3076.00
523.689,2967.00
524.686,3272.00
525.682,2905.00
526.678,3603.00
527.674,3020.00
528.670,2682.00
529.666,3632.00
530.661,3583.00
531.657,3247.00
532.652,3312.00
533.648,3120.00
534.641,3337.00
535.636,3179.00
536.631,3246.00
537.626,3297.00
538.621,2844.00
539.616,2646.00
540.610,2603.00
541.605,3161.00
542.599,3191.00
543.593,3097.00
544.587,4012.00
545.581,2934.00
546.575,3147.00
547.569,3183.00
548.563,2782.00
549.557,2752.00
550.550,2865.00
551.543,2874.00
552.537,3271.00
553.530,2888.00
554.523,2873.00
555.516,3187.00
556.509,3056.00
557.502,2718.00
558.494,3300.00
559.487,2994.00
560.479,3322.00
561.472,3369.00
562.464,3260.00
563.456,3377.00
564.448,3052.00
565.440,3116.00
566.432,3547.00
567.423,2992.00
568.415,2994.00
569.404,3236.00
570.396,2925.00
571.387,3258.00
572.378,3124.00
573.369,4116.00
574.360,3841.00
575.351,3070.00
576.341,2937.00
577.332,2993.00
578.323,2769.00
579.313,3015.00
580.303,3333.00
581.293,3282.00
582.283,3122.00
583.273,3226.00
584.263,3147.00
585.253,3239.00
586.243,3268.00
587.232,2752.00
588.222,3089.00
589.211,3307.00
590.200,3159.00
591.189,3077.00
592.178,3092.00
593.167,3526.00
594.156,3434.00
595.145,3006.00
596.133,3579.00
597.122,3261.00
598.110,3297.00
599.098,3225.00
600.086,3136.00
601.074,3275.00
602.062,2963.00
603.050,2894.00
604.038,3227.00
605.025,2917.00
606.013,3311.00
607.000,3510.00
607.987,3144.00
608.975,3151.00
609.962,2846.00
610.949,3263.00
611.936,3368.00
612.922,3308.00
613.909,2815.00
614.895,3540.00
615.882,2954.00
616.868,3124.00
617.854,2853.00
618.841,3147.00
619.826,3261.00
620.812,3081.00
621.798,2897.00
622.784,3287.00
623.769,3207.00
624.755,2786.00
625.740,3191.00
626.725,2803.00
627.711,2979.00
628.698,3211.00
629.683,2917.00
630.667,3287.00
631.652,2846.00
632.637,3030.00
633.621,3259.00
634.606,3007.00
635.590,3246.00
636.574,3040.00
637.558,3220.00
638.542,3166.00
639.526,2971.00
640.510,2733.00
641.493,3149.00
642.477,3097.00
643.460,2821.00
644.444,3363.00
645.427,3391.00
646.410,2779.00
647.393,3059.00
648.376,3135.00
649.359,2994.00
650.341,3175.00
651.324,3123.00
652.307,3158.00
653.289,3071.00
654.271,2977.00
655.253,3002.00
656.235,3234.00
657.217,3372.00
658.199,2746.00
659.181,2854.00
660.163,3093.00
661.144,2981.00
662.126,2997.00
663.107,2916.00
664.088,4905.00
665.069,3343.00
666.050,2898.00
667.033,2827.00
668.014,3157.00
668.995,2654.00
669.975,3095.00
670.956,3093.00
671.936,3274.00
672.916,3067.00
673.896,3248.00
674.876,3014.00
675.856,2999.00
676.836,2857.00
677.816,2394.00
678.795,2929.00
679.775,2756.00
680.754,3167.00
681.734,3234.00
682.713,3309.00
683.692,2890.00
684.671,2692.00
685.650,2867.00
686.629,2988.00
687.607,2875.00
688.586,2929.00
689.564,2944.00
690.543,3338.00
691.523,2465.00
692.501,2914.00
693.479,3063.00
694.457,2905.00
695.435,3008.00
696.413,2782.00
697.390,2609.00
698.368,2795.00
699.345,3243.00
700.322,3037.00
701.300,3157.00
702.277,3178.00
703.254,3399.00
704.231,2626.00
705.207,3070.00
706.184,2878.00
707.161,2772.00
708.137,2951.00
709.113,2869.00
710.090,2860.00
711.068,2716.00
712.044,2725.00
713.020,2970.00
713.996,2687.00
714.971,2908.00
715.947,2956.00
716.922,2922.00
717.898,2844.00
718.873,3006.00
719.848,2805.00
720.823,2753.00
721.798,3076.00
722.773,2873.00
723.748,2597.00
724.723,3102.00
725.697,2955.00
726.672,2848.00
727.646,2594.00
728.622,3066.00
729.596,2705.00
730.570,2823.00
731.544,3177.00
732.518,3397.00
733.492,2909.00
734.466,2990.00
735.439,3126.00
736.413,3219.00
737.386,2547.00
738.359,2478.00
739.332,2584.00
740.305,2956.00
741.278,3447.00
742.251,3055.00
743.224,2797.00
744.196,2673.00
745.171,3249.00
746.143,3126.00
747.115,2811.00
748.087,2783.00
749.059,3243.00
750.031,2979.00
751.003,3816.00
751.975,3378.00
752.947,2802.00
753.918,3190.00
754.890,2642.00
755.861,2844.00
756.832,3136.00
757.803,2944.00
758.774,2949.00
759.747,2713.00
760.718,3348.00
761.689,2829.00
762.659,2632.00
763.630,3259.00
764.600,2662.00
765.570,3164.00
766.540,3247.00
767.510,2996.00
768.480,3162.00
769.450,2821.00
770.420,2961.00
771.390,2742.00
772.359,2877.00
773.329,2757.00
774.300,2602.00
775.269,2838.00
776.238,3096.00
777.207,3303.00
778.176,2627.00
779.145,2901.00
780.114,2748.00
781.083,2668.00
782.051,2834.00
783.019,2730.00
783.988,3174.00
784.956,2945.00
785.924,3072.00
786.894,2981.00
787.862,2785.00
788.830,3233.00
789.797,2662.00
790.765,2709.00
791.732,2854.00
792.700,2719.00
793.667,2655.00
794.634,2872.00
795.601,2830.00
796.568,2901.00
797.535,2938.00
798.502,3563.00
799.468,3020.00
800.437,2445.00
801.403,2679.00
802.370,3368.00
803.336,3115.00
804.302,2980.00
805.268,2475.00
806.234,2666.00
807.200,2833.00
808.166,2866.00
809.131,2656.00
810.097,3074.00
811.062,3788.00
812.027,3142.00
812.994,2708.00
813.960,2701.00
814.925,3040.00
815.889,2565.00
816.854,3121.00
817.819,2732.00
818.783,2838.00
819.748,3188.00
820.712,2806.00
821.677,2707.00
822.641,2812.00
823.605,2809.00
824.571,3261.00
825.534,2800.00
826.498,2774.00
827.462,2865.00
828.425,2703.00
829.389,3158.00
830.352,2936.00
831.315,3025.00
832.279,2591.00
833.242,2871.00
834.204,2740.00
835.167,2740.00
836.132,3126.00
837.095,2599.00
838.057,2766.00
839.020,2893.00
839.982,2913.00
840.944,2736.00
841.906,2694.00
842.868,3104.00
843.830,2615.00
844.792,3163.00
845.753,2764.00
846.715,2516.00
847.679,2665.00
848.640,2698.00
849.601,2855.00
850.562,3364.00
851.523,2788.00
852.484,2547.00
853.445,3081.00
854.406,2815.00
855.367,2781.00
856.327,3113.00
857.288,2607.00
858.248,2754.00
859.210,2778.00
860.170,2622.00
861.130,3098.00
862.090,2479.00
863.050,2708.00
864.010,2784.00
864.969,2976.00
865.929,2681.00
866.888,2635.00
867.848,2952.00
868.807,2745.00
869.766,2956.00
870.727,2831.00
871.686,3123.00
872.645,3113.00
873.604,3351.00
874.562,2852.00
875.521,2902.00
876.479,3475.00
877.437,2674.00
878.396,2650.00
879.354,3281.00
880.312,2668.00
881.270,2758.00
882.229,3172.00
883.187,2725.00
884.145,2783.00
885.102,3021.00
886.059,2901.00
887.017,3012.00
887.974,3074.00
888.931,3198.00
889.888,2574.00
890.845,2506.00
891.802,2433.00
892.758,2752.00
893.717,2489.00
894.673,2665.00
895.630,2728.00
896.586,3023.00
897.542,2737.00
898.498,2619.00
899.454,2950.00
900.410,2785.00
901.366,2750.00
902.321,2747.00
903.277,2851.00
904.232,2873.00
905.189,2574.00
906.145,2708.00
907.100,2255.00
908.055,2778.00
909.010,3042.00
909.965,2421.00
910.919,2877.00
911.874,2675.00
912.828,2876.00
913.783,2836.00
914.737,2398.00
915.693,2862.00
916.648,2975.00
917.602,3096.00
918.555,2884.00
919.509,2936.00
920.463,2868.00
921.417,2886.00
922.370,2608.00
923.324,2741.00
924.277,2712.00
925.230,2817.00
926.183,2481.00
927.138,2784.00
928.091,3031.00
929.044,2940.00
929.996,2755.00
930.949,2759.00
931.902,2929.00
932.854,2890.00
933.806,2637.00
934.758,3087.00
935.711,3074.00
936.663,2838.00
937.614,2868.00
938.568,2839.00
939.520,2503.00
940.471,2776.00
941.423,2868.00
942.374,2976.00
943.326,2835.00
944.277,2695.00
945.228,2913.00
946.179,2752.00
947.130,3149.00
948.080,2750.00
949.031,2630.00
949.984,2771.00
950.934,2765.00
951.884,2546.00
952.835,2804.00
953.785,2837.00
954.735,2670.00
955.685,2414.00
956.635,2700.00
957.585,2712.00
958.534,2710.00
959.484,2845.00
960.433,2661.00
961.383,2577.00
962.334,3061.00
963.283,2861.00
964.232,2954.00
965.181,2826.00
966.130,2914.00
967.079,2678.00
968.027,2802.00
968.976,2816.00
969.924,2689.00
970.873,2892.00
971.821,2825.00
972.769,3024.00
973.719,2912.00
974.667,2563.00
975.615,2809.00
976.562,2835.00
977.510,2489.00
978.458,2688.00
979.405,2910.00
980.352,2854.00
981.300,3051.00
982.247,2911.00
983.194,2612.00
984.141,2689.00
985.088,2821.00
986.036,2830.00
986.983,3095.00
987.930,3200.00
988.876,2415.00
989.822,3070.00
990.769,2637.00
991.715,2702.00
992.661,2521.00
993.607,2903.00
994.553,3369.00
995.498,2639.00
996.444,2352.00
997.389,2854.00
998.337,2607.00
999.282,2990.00
1000.227,2746.00
1001.173,2801.00
1002.118,2481.00
1003.062,2935.00
1004.007,2776.00
1004.952,3097.00
1005.897,3059.00
1006.841,2759.00
1007.786,2531.00
1008.730,2493.00
1009.674,3298.00
1010.618,2767.00
1011.564,2618.00
1012.508,2458.00
1013.452,3058.00
1014.396,2828.00
1015.339,2683.00
1016.283,2768.00
1017.226,2828.00
1018.170,2793.00
1019.113,3004.00
1020.056,2847.00
1020.999,2816.00
1021.942,2672.00
1022.885,2938.00
1023.828,3085.00
1024.770,2602.00
1025.715,2860.00
1026.657,2745.00
1027.600,2845.00
1028.542,3010.00
1029.484,2865.00
1030.426,2909.00
1031.368,2850.00
1032.310,2663.00
1033.251,2624.00
1034.193,2750.00
1035.135,2582.00
1036.076,2713.00
1037.017,2607.00
1037.959,2945.00
1038.900,2829.00
1039.843,2868.00
1040.784,2826.00
1041.725,2883.00
1042.665,2683.00
1043.606,2814.00
1044.547,2844.00
1045.487,2472.00
1046.427,2711.00
1047.368,2822.00
1048.308,2317.00
1049.248,2624.00
1050.188,2784.00
1051.128,2671.00
1052.067,2725.00
1053.007,2514.00
1053.947,2429.00
1054.886,2644.00
1055.827,2590.00
1056.766,3058.00
1057.706,2513.00
1058.645,2727.00
1059.584,2828.00
1060.522,3033.00
1061.461,2549.00
1062.400,2562.00
1063.338,2702.00
1064.277,2552.00
1065.215,2562.00
1066.154,2478.00
1067.092,2649.00
1068.030,2729.00
1068.968,2933.00
1069.906,3109.00
1070.843,3040.00
1071.781,2775.00
1072.720,2902.00
1073.658,2891.00
1074.595,2699.00
1075.533,2660.00
1076.470,2638.00
1077.407,3073.00
1078.344,2831.00
1079.281,2887.00
1080.217,2372.00
1081.154,2741.00
1082.091,2787.00
1083.027,2507.00
1083.964,3051.00
1084.900,2633.00
1085.836,2674.00
1086.772,2966.00
1087.708,2522.00
1088.644,2927.00
1089.580,2771.00
1090.515,2836.00
1091.451,2661.00
1092.388,2785.00
1093.324,2510.00
1094.259,3342.00
1095.194,2833.00
1096.129,2679.00
1097.064,2674.00
1097.999,2881.00
1098.934,2612.00
1099.869,2627.00
1100.803,2779.00
1101.738,2816.00
1102.672,2483.00
1103.607,2908.00
1104.541,2630.00
1105.475,2623.00
1106.409,2504.00
1107.343,2666.00
1108.277,2497.00
1109.210,2765.00
1110.144,2731.00
1111.078,2736.00
1112.011,2497.00
1112.944,2855.00
1113.878,2803.00
1114.811,2255.00
1115.744,2645.00
1116.678,2394.00
1117.611,2702.00
1118.544,2691.00
1119.477,2842.00
1120.409,2615.00
1121.342,3277.00
1122.274,2841.00
1123.206,3171.00
1124.138,2733.00
1125.070,3074.00
1126.002,2947.00
1126.934,2346.00
1127.866,2643.00
1128.798,2419.00
1129.729,2437.00
1130.661,2734.00
1131.592,2621.00
1132.523,2815.00
1133.454,2838.00
1134.385,2374.00
1135.317,2729.00
1136.247,2662.00
1137.178,2930.00
1138.109,2429.00
1139.039,3068.00
1139.970,2931.00
1140.900,2664.00
1141.831,2432.00
1142.761,2318.00
1143.691,2844.00
1144.621,2710.00
1145.551,2784.00
1146.480,2752.00
1147.410,2888.00
1148.340,2349.00
1149.269,2460.00
1150.199,2641.00
1151.128,3145.00
1152.057,2500.00
1152.979,2663.00
1153.898,2704.00
1154.819,2802.00
1155.739,2727.00
1156.658,2621.00
1157.579,2751.00
1158.498,2717.00
1159.419,2240.00
1160.338,2750.00
1161.256,2799.00
1162.177,2579.00
1163.095,2694.00
1164.016,2800.00
1164.934,2976.00
1165.852,2887.00
1166.772,2719.00
1167.690,2733.00
1168.610,2800.00
1169.528,2732.00
1170.446,2258.00
1171.365,2614.00
1172.283,2571.00
1173.202,2684.00
1174.120,2764.00
1175.037,2560.00
1175.956,2564.00
1176.873,2559.00
1177.792,2577.00
1178.709,3188.00
1179.626,2609.00
1180.544,2889.00
1181.461,2574.00
1182.379,2850.00
1183.296,2708.00
1184.212,2374.00
1185.130,2538.00
1186.046,3037.00
1186.962,2693.00
1187.880,3033.00
1188.796,2797.00
1189.714,2509.00
1190.629,2863.00
1191.545,2782.00
1192.462,2654.00
1193.378,2686.00
1194.295,2395.00
1195.210,2710.00
1196.125,2825.00
1197.042,2812.00
1197.957,2733.00
1198.872,2570.00
1199.788,2600.00
1200.703,3043.00
1201.619,2745.00
1202.534,2558.00
1203.448,2781.00
1204.364,2644.00
1205.278,2347.00
1206.192,2778.00
1207.108,3241.00
1208.022,3058.00
1208.938,2528.00
1209.851,2859.00
1210.765,2952.00
1211.680,2602.00
1212.594,2465.00
1213.507,2668.00
1214.422,3099.00
1215.335,2840.00
1216.248,2657.00
1217.163,2699.00
1218.076,3313.00
1218.990,2823.00
1219.903,2492.00
1220.816,2555.00
1221.730,2654.00
1222.642,2611.00
1223.554,2639.00
1224.469,2788.00
1225.380,2646.00
1226.292,2333.00
1227.206,2815.00
1228.118,3082.00
1229.032,2328.00
1229.943,2573.00
1230.855,2635.00
1231.768,2439.00
1232.679,2777.00
1233.590,2664.00
1234.503,2938.00
1235.414,2567.00
1236.325,2599.00
1237.238,2794.00
1238.149,2828.00
1239.059,2533.00
1239.972,2922.00
1240.882,2506.00
1241.793,2821.00
1242.705,3077.00
1243.615,2682.00
1244.525,2780.00
1245.437,2289.00
1246.347,2746.00
1247.259,2899.00
1248.168,3172.00
1249.078,2968.00
1249.989,2975.00
1250.899,2489.00
1251.808,2575.00
1252.719,2605.00
1253.628,2625.00
1254.537,3075.00
1255.448,2503.00
1256.357,2554.00
1257.266,2706.00
1258.176,2443.00
1259.085,2390.00
1259.993,2539.00
1260.904,2548.00
1261.812,2520.00
1262.720,3258.00
1263.630,2889.00
1264.538,2538.00
1265.446,2772.00
1266.356,2684.00
1267.263,2937.00
1268.171,2502.00
1269.080,2769.00
1269.988,2877.00
1270.895,2657.00
1271.804,2674.00
1272.711,2929.00
1273.619,2871.00
1274.527,2526.00
1275.434,2795.00
1276.341,2493.00
1277.248,2738.00
1278.156,2991.00
1279.063,2584.00
1279.969,2791.00
1280.877,3607.00
1281.783,2933.00
1282.690,2795.00
1283.598,2672.00
1284.503,2542.00
1285.409,2526.00
1286.317,3078.00
1287.223,3115.00
1288.128,2729.00
1289.036,2605.00
1289.941,2653.00
1290.846,2684.00
1291.751,2507.00
1292.658,2627.00
1293.563,3138.00
1294.468,2726.00
1295.375,2841.00
1296.280,2962.00
1297.184,3463.00
1298.091,2821.00
1298.995,2852.00
1299.900,3098.00
1300.806,2617.00
1301.710,2455.00
1302.614,2258.00
1303.518,2961.00
1304.424,2657.00
1305.327,2918.00
1306.231,2666.00
1307.137,2880.00
1308.040,2775.00
1308.943,2715.00
1309.847,2932.00
1310.752,2849.00
1311.655,2361.00
1312.558,2462.00
1313.463,2658.00
1314.366,2589.00
1315.269,2774.00
1316.171,2687.00
1317.076,2592.00
1317.978,2516.00
1318.881,2306.00
1319.785,2564.00
1320.687,2574.00
1321.589,2313.00
1322.491,2557.00
1323.395,2784.00
1324.297,3265.00
1325.198,2832.00
1326.102,2526.00
1327.004,2535.00
1327.905,3073.00
1328.806,2675.00
1329.709,2772.00
1330.611,2613.00
1331.512,2511.00
1332.413,3139.00
1333.316,2735.00
1334.216,2881.00
1335.117,2474.00
1336.020,2798.00
1336.920,2715.00
1337.821,2555.00
1338.721,2974.00
1339.623,2820.00
1340.523,2632.00
1341.423,2567.00
1342.323,2975.00
1343.225,2793.00
1344.125,2525.00
1345.025,2605.00
1345.924,2362.00
1346.826,3091.00
1347.725,3154.00
1348.624,2935.00
1349.524,2575.00
1350.425,2652.00
1351.324,2791.00
1352.223,2916.00
1353.121,2682.00
1354.022,2927.00
1354.921,3124.00
1355.819,2842.00
1356.718,2717.00
1357.618,2425.00
1358.516,2827.00
1359.415,3117.00
1360.313,2781.00
1361.213,2674.00
1362.111,2994.00
1363.008,3358.00
1363.906,2670.00
1364.806,2730.00
1365.703,2788.00
1366.601,2512.00
1367.498,2544.00
1368.397,2909.00
1369.295,2764.00
1370.192,2529.00
1371.089,2797.00
1371.987,2672.00
1372.884,3006.00
1373.781,2521.00
1374.678,2679.00
1375.574,2531.00
1376.473,2797.00
1377.369,2952.00
1378.265,2518.00
1379.161,2623.00
1380.059,2406.00
1380.955,2822.00
1381.851,2477.00
1382.747,2600.00
1383.643,2655.00
1384.540,2500.00
1385.436,2581.00
1386.331,2778.00
1387.227,2853.00
1388.124,2846.00
1389.019,2517.00
1389.914,2694.00
1390.809,2356.00
1391.704,3130.00
1392.601,2616.00
1393.495,3002.00
1394.390,2897.00
1395.285,2929.00
1396.179,2780.00
1397.075,2669.00
1397.969,2753.00
1398.864,2410.00
1399.758,2654.00
1400.652,2736.00
1401.547,2502.00
1402.441,2491.00
1403.335,3073.00
1404.229,2728.00
1405.122,2768.00
1406.017,2705.00
1406.911,2907.00
1407.804,3158.00
1408.697,2724.00
1409.590,2533.00
1410.485,2883.00
1411.378,2810.00
1412.271,2400.00
1413.163,2740.00
1414.056,2859.00
1414.949,3115.00
1415.843,2725.00
1416.735,2669.00
1417.627,2737.00
1418.520,2670.00
1419.412,2943.00
1420.306,2887.00
1421.197,3011.00
1422.089,2966.00
1422.981,3216.00
1423.873,2878.00
1424.764,2826.00
1425.657,2762.00
1426.549,2857.00
1427.440,2905.00
1428.331,2612.00
1429.222,2393.00
1430.113,2736.00
1431.006,2895.00
1431.897,2635.00
1432.787,2752.00
1433.678,2654.00
1434.568,2516.00
1435.459,2975.00
1436.351,2894.00
1437.241,2836.00
1438.131,2857.00
1439.021,2456.00
1439.911,2734.00
1440.801,2768.00
1441.693,2928.00
1442.583,2742.00
1443.472,2740.00
1444.362,2861.00
1445.251,2689.00
1446.140,2645.00
1447.030,2952.00
1447.921,2916.00
1448.810,2535.00
1449.699,3114.00
1450.588,2775.00
1451.476,2621.00
1452.365,2841.00
1453.254,2611.00
1454.144,2633.00
1455.032,2846.00
1455.921,2470.00
1456.809,3026.00
1457.697,2522.00
1458.585,2651.00
1459.473,2661.00
1460.361,2576.00
1461.251,2812.00
1462.138,2800.00
1463.026,2683.00
1463.913,2967.00
1464.801,2637.00
1465.688,2856.00
1466.575,2793.00
1467.463,3163.00
1468.351,2574.00
1469.238,2686.00
1470.125,2304.00
1471.012,2794.00
1471.899,2843.00
1472.785,2548.00
1473.672,2744.00
1474.558,2965.00
1475.446,2888.00
1476.333,2890.00
1477.219,2540.00
1478.105,2701.00
1478.991,2663.00
1479.877,3025.00
1480.762,2709.00
1481.648,2593.00
1482.534,2878.00
1483.419,2786.00
1484.307,2890.00
1485.192,2722.00
1486.077,2558.00
1486.962,2584.00
1487.847,2505.00
1488.732,2576.00
1489.617,2760.00
1490.502,3036.00
1491.387,2845.00
1492.271,2563.00
1493.156,2585.00
1494.042,2505.00
1494.927,2912.00
1495.811,2638.00
1496.695,2895.00
1497.579,3063.00
1498.463,2731.00
1499.347,2764.00
1500.231,2749.00
1501.114,2807.00
1501.998,2994.00
1502.881,2743.00
1503.765,3037.00
1504.648,3147.00
1505.533,2874.00
1506.417,2752.00
1507.300,2722.00
1508.183,2779.00
1509.066,2227.00
1509.948,2948.00
1510.831,3116.00
1511.714,2528.00
1512.596,2863.00
1513.479,3002.00
1514.361,2948.00
1515.243,2753.00
1516.125,2900.00
1517.008,3039.00
1517.890,2676.00
1518.771,2756.00
1519.655,2927.00
1520.537,2676.00
1521.419,2559.00
1522.300,2813.00
1523.182,2900.00
1524.063,2914.00
1524.944,3049.00
1525.825,2930.00
1526.707,2526.00
1527.588,2520.00
1528.468,2869.00
1529.349,2395.00
1530.230,2676.00
1531.111,2945.00
1531.991,2776.00
1532.872,2435.00
1533.752,2698.00
1534.632,2600.00
1535.513,2622.00
1536.393,2881.00
1537.273,3038.00
1538.153,3409.00
1539.032,2445.00
1539.912,2741.00
1540.792,2766.00
1541.672,2769.00
1542.551,2838.00
1543.430,3366.00
1544.310,2763.00
1545.189,2657.00
1546.068,3147.00
1546.947,2873.00
1547.826,3064.00
1548.705,2730.00
1549.584,2966.00
1550.462,2686.00
1551.341,2910.00
1552.219,2833.00
1553.098,2888.00
1553.976,2977.00
1554.854,3193.00
1555.733,2965.00
1556.611,2690.00
1557.489,2560.00
1558.367,2751.00
1559.244,2927.00
1560.122,2726.00
1561.000,2817.00
1561.877,3041.00
1562.755,2611.00
1563.632,2695.00
1564.509,3004.00
1565.386,3114.00
1566.264,2511.00
1567.141,2366.00
1568.017,2934.00
1568.894,2777.00
1569.771,2797.00
1570.648,2911.00
1571.524,2760.00
1572.401,2516.00
1573.277,2502.00
1574.153,2774.00
1575.029,2647.00
1575.906,3512.00
1576.781,2916.00
1577.657,2685.00
1578.533,3013.00
1579.409,2391.00
1580.285,2705.00
1581.160,3153.00
1582.036,2926.00
1582.911,2615.00
1583.786,3127.00
1584.662,2538.00
1585.537,2735.00
1586.412,2832.00
1587.287,2611.00
1588.160,2915.00
1589.035,2365.00
1589.909,2770.00
1590.784,2725.00
1591.658,2559.00
1592.533,2830.00
1593.407,2802.00
1594.281,2636.00
1595.155,3167.00
1596.029,2711.00
1596.903,2696.00
1597.777,2644.00
1598.651,3020.00
1599.525,2446.00
1600.398,2786.00
1601.272,2744.00
1602.144,3264.00
1603.017,2712.00
1603.890,2997.00
1604.763,2828.00
1605.636,2920.00
1606.509,2460.00
1607.382,2580.00
1608.255,2859.00
1609.128,2992.00
1610.000,2732.00
1610.873,2421.00
1611.746,2665.00
1612.616,2702.00
1613.488,2333.00
1614.361,2744.00
1615.233,2715.00
1616.105,2970.00
1616.977,2656.00
1617.849,2591.00
1618.720,3109.00
1619.592,3075.00
1620.464,2884.00
1621.333,3228.00
1622.205,2758.00
1623.076,2767.00
1623.947,2739.00
1624.818,2973.00
1625.689,2889.00
1626.560,2672.00
1627.431,2834.00
1628.302,3190.00
1629.171,2883.00
1630.042,3118.00
1630.912,3429.00
1631.782,3336.00
1632.653,2548.00
1633.523,2931.00
1634.393,3005.00
1635.263,2630.00
1636.131,2776.00
1637.001,2661.00
1637.871,2391.00
1638.741,2395.00
1639.611,2501.00
1640.480,2913.00
1641.350,2599.00
1642.219,2594.00
1643.087,2242.00
1643.956,3202.00
1644.825,3042.00
1645.694,2990.00
1646.563,2948.00
1647.432,2800.00
1648.299,2773.00
1649.167,2909.00
1650.036,2605.00
1650.904,2865.00
1651.773,3028.00
1652.641,2787.00
1653.509,2918.00
1654.376,2655.00
1655.244,2831.00
1656.112,2788.00
1656.980,2762.00
1657.847,2608.00
1658.715,2946.00
1659.581,2698.00
1660.448,3044.00
1661.316,2268.00
1662.183,2780.00
1663.051,2796.00
1663.918,2849.00
1664.783,2809.00
1665.650,2857.00
1666.517,2944.00
1667.384,2780.00
1668.251,2814.00
1669.115,2983.00
1669.982,2730.00
1670.849,3088.00
1671.715,2785.00
1672.581,2908.00
1673.446,2899.00
1674.312,2825.00
1675.178,3213.00
1676.044,2895.00
1676.910,2857.00
1677.774,2822.00
1678.639,2410.00
1679.505,2746.00
1680.370,2915.00
1681.236,3423.00
1682.099,2717.00
1682.965,2784.00
1683.830,2364.00
1684.695,2618.00
1685.560,2670.00
1686.423,2922.00
1687.288,2896.00
1688.153,2841.00
1689.017,2689.00
1689.880,2845.00
1690.745,2981.00
1691.609,2576.00
1692.473,2930.00
1693.338,3023.00
1694.200,3027.00
1695.064,2786.00
1695.928,2721.00
1696.792,2801.00
1697.654,3294.00
1698.517,2867.00
1699.381,2508.00
1700.245,2407.00
1701.106,3110.00
1701.969,2628.00
1702.833,2927.00
1703.696,2704.00
1704.557,2787.00
1705.420,2668.00
1706.283,2801.00
1707.146,2982.00
1708.007,2589.00
1708.870,2570.00
1709.732,2464.00
1710.595,2695.00
1711.455,2552.00
1712.318,2698.00
1713.180,3064.00
1714.040,2833.00
1714.902,2946.00
1715.764,2804.00
1716.626,2568.00
1717.486,2800.00
1718.348,3030.00
1719.209,4189.00
1720.071,2436.00
1720.930,2545.00
1721.792,2601.00
1722.653,2633.00
1723.512,2674.00
1724.374,2733.00
1725.234,2858.00
1726.095,2782.00
1726.954,2782.00
1727.815,2908.00
1728.676,2779.00
1729.535,3040.00
1730.395,2769.00
1731.256,2692.00
1732.114,2828.00
1732.974,2218.00
1733.834,3149.00
1734.693,2959.00
1735.553,2800.00
1736.413,3196.00
1737.272,2664.00
1738.130,2683.00
1738.990,2867.00
1739.849,2677.00
1740.707,3869.00
1741.566,2800.00
1742.426,2827.00
1743.283,3183.00
1744.142,2686.00
1745.001,2434.00
1745.858,2985.00
1746.717,2879.00
1747.576,2887.00
1748.433,2964.00
1749.292,3392.00
1750.150,3447.00
1751.007,2995.00
1751.865,3010.00
1752.723,2792.00
1753.579,2728.00
1754.438,2983.00
1755.296,3014.00
1756.152,2332.00
1757.010,2456.00
1757.865,3053.00
1758.723,2451.00
1759.581,3092.00
1760.436,2797.00
1761.294,3169.00
1762.151,2786.00
1763.006,2734.00
1763.864,2461.00
1764.721,2982.00
1765.576,2847.00
1766.433,2928.00
1767.288,2704.00
1768.144,2883.00
1769.001,2728.00
1769.856,2899.00
1770.712,2988.00
1771.568,2592.00
1772.423,2695.00
1773.279,2729.00
1774.133,2679.00
1774.989,3248.00
1775.845,3185.00
1776.699,3014.00
1777.555,2759.00
1778.409,3338.00
1779.265,2756.00
1780.120,2683.00
1780.974,2813.00
1781.829,2394.00
1782.682,2825.00
1783.538,2600.00
1784.393,2843.00
1785.246,2699.00
1786.101,2881.00
1786.954,2915.00
1787.808,3008.00
1788.661,2486.00
1789.516,2727.00
1790.370,2775.00
1791.223,2998.00
1792.077,2772.00
1792.930,2864.00
1793.784,2618.00
1794.636,2798.00
1795.490,2768.00
1796.344,2809.00
1797.196,2724.00
1798.049,2957.00
1798.901,2673.00
1799.755,3049.00
1800.606,2626.00
1801.460,3369.00
1802.311,3111.00
1803.165,3211.00
1804.018,3143.00
1804.869,2908.00
1805.722,3247.00
1806.573,2815.00
1807.426,2626.00
1808.276,2779.00
1809.129,2708.00
1809.980,2995.00
1810.832,3083.00
1811.683,2728.00
1812.535,3146.00
1813.385,2728.00
1814.237,3067.00
1815.089,2839.00
1815.940,3093.00
1816.791,2752.00
1817.641,2637.00
1818.493,2962.00
1819.343,2870.00
1820.194,2679.00
1821.044,2864.00
1821.895,3023.00
1822.745,2509.00
1823.596,2684.00
1824.445,3211.00
1825.296,2905.00
1826.145,2791.00
1826.996,3059.00
1827.845,2805.00
1828.695,2882.00
1829.544,2803.00
1830.395,2850.00
1831.243,2682.00
1832.094,2527.00
1832.942,3441.00
1833.792,2955.00
1834.640,2872.00
1835.490,2817.00
1836.338,2855.00
1837.186,2726.00
1838.036,2674.00
1838.884,2789.00
1839.733,3151.00
1840.581,2995.00
1841.430,2925.00
1842.278,3148.00
1843.127,2735.00
1843.974,2487.00
1844.823,3275.00
1845.671,2991.00
1846.519,2821.00
1847.366,2903.00
1848.213,2407.00
1849.062,2643.00
1849.909,2566.00
1850.757,3483.00
1851.604,2926.00
1852.452,2727.00
1853.298,3015.00
1854.146,2848.00
1854.993,2875.00
1855.839,3356.00
1856.687,2930.00
1857.532,2943.00
1858.380,2817.00
1859.226,2907.00
1860.073,2925.00
1860.919,2645.00
1861.765,2711.00
1862.612,3035.00
1863.457,3058.00
1864.304,2791.00
1865.150,2935.00
1865.995,2770.00
1866.842,2931.00
1867.686,3065.00
1868.533,2874.00
1869.378,2867.00
1870.223,2869.00
1871.069,2699.00
1871.914,2851.00
1872.760,2816.00
1873.604,2595.00
1874.448,2967.00
1875.294,3011.00
1876.139,2683.00
1876.984,2932.00
1877.828,2486.00
1878.672,2291.00
1879.518,2654.00
1880.361,3038.00
1881.205,3001.00
1882.050,2588.00
1882.894,3354.00
1883.739,2701.00
1884.582,2569.00
1885.425,2638.00
1886.270,3117.00
1887.113,2564.00
1887.956,2898.00
1888.801,2863.00
1889.644,2633.00
1890.486,2382.00
1891.331,2753.00
1892.173,2889.00
1893.017,2882.00
1893.860,3066.00
1894.702,3153.00
1895.546,2818.00
1896.388,3526.00
1897.230,3161.00
1898.074,2713.00
1898.916,2615.00
1899.757,2641.00
1900.601,3508.00
1901.443,3130.00
1902.284,3131.00
1903.125,3367.00
1903.969,3035.00
1904.810,3041.00
1905.651,2885.00
1906.494,3126.00
1907.335,3283.00
1908.176,2942.00
1909.018,2915.00
1909.859,2791.00
1910.700,2704.00
1911.542,3418.00
1912.383,2905.00
1913.223,2430.00
1914.064,2971.00
1914.906,3116.00
1915.746,3204.00
1916.586,3354.00
1917.428,2813.00
1918.268,2930.00
1919.107,2696.00
1919.947,2589.00
1920.789,2792.00
1921.628,3079.00
1922.468,2848.00
1923.309,2660.00
1924.148,3111.00
1924.988,2948.00
1925.827,2874.00
1926.667,2693.00
1927.507,2885.00
1928.345,2662.00
1929.184,3028.00
1930.025,2649.00
1930.864,3118.00
1931.702,3171.00
1932.541,2696.00
1933.381,2960.00
1934.219,3030.00
1935.057,3128.00
1935.896,2527.00
1936.735,2781.00
1937.573,2749.00
1938.411,2625.00
1939.249,3004.00
1940.089,2730.00
1940.927,3099.00
1941.764,3127.00
1942.602,2778.00
1943.439,2740.00
1944.278,2808.00
1945.115,2726.00
1945.953,2571.00
1946.790,2897.00
1947.628,3172.00
1948.465,2961.00
1949.302,2972.00
1950.139,3007.00
1950.976,2683.00
1951.814,3005.00
1952.651,2875.00
1953.487,2616.00
1954.323,3082.00
1955.160,2798.00
1955.998,3219.00
1956.834,2790.00
1957.670,2900.00
1958.506,3045.00
1959.342,2936.00
1960.177,2923.00
1961.015,2980.00
1961.850,2900.00
1962.686,2855.00
1963.521,2873.00
1964.357,3155.00
1965.192,2612.00
1966.029,3000.00
1966.864,2751.00
1967.699,3054.00
1968.534,2871.00
1969.369,3101.00
1970.204,2789.00
1971.040,2851.00
1971.875,2773.00
1972.709,2911.00
1973.544,2695.00
1974.378,2726.00
1975.212,2962.00
1976.047,2730.00
1976.882,2666.00
1977.716,3239.00
1978.550,2529.00
1979.384,2748.00
1980.218,2796.00
1981.052,2777.00
1981.885,2883.00
1982.719,2875.00
1983.554,3009.00
1984.388,3169.00
1985.221,2899.00
1986.054,3114.00
1986.887,2914.00
1987.720,2659.00
1988.553,3175.00
1989.386,2910.00
1990.219,3029.00
1991.053,3153.00
1991.886,2694.00
1992.719,3071.00
1993.551,2353.00
1994.383,3038.00
1995.216,2790.00
1996.048,2544.00
1996.880,3011.00
1997.712,2727.00
1998.544,2856.00
1999.376,2937.00
2000.208,3144.00
2001.040,3299.00
2001.873,2683.00
2002.705,2656.00
2003.536,2875.00
2004.367,2897.00
2005.199,2918.00
2006.030,2739.00
2006.861,2624.00
2007.692,2867.00
2008.523,2687.00
2009.354,2912.00
2010.185,2662.00
2011.016,3017.00
2011.846,3070.00
2012.677,2763.00
2013.507,3225.00
2014.338,3100.00
2015.168,2782.00
2015.999,3380.00
2016.829,2779.00
2017.659,3102.00
2018.489,3356.00
2019.319,2672.00
2020.149,3024.00
2020.980,2847.00
2021.810,2640.00
2022.639,2696.00
2023.469,2736.00
2024.298,2508.00
2025.128,2486.00
2025.957,2485.00
2026.786,2308.00
2027.615,2497.00
2028.444,2701.00
2029.273,2836.00
2030.102,2442.00
2030.931,2696.00
2031.758,2986.00
2032.586,2631.00
2033.415,2704.00
2034.243,2288.00
2035.072,2084.00
2035.900,2577.00
2036.728,2419.00
2037.556,2424.00
2038.385,2472.00
2039.213,2300.00
2040.040,2283.00
2040.868,2215.00
2041.696,2296.00
2042.524,2312.00
2043.351,2492.00
2044.179,2335.00
2045.006,2075.00
