RamanScope Measure Spectrum Data V3.72

<< MEASURE CONDITION >>
Exposure Type,Aver
Exposure Time [sec],15
Exposure Count,30
Measure Time,2023/07/12 12:33:50
Data Name,""
Data Comment,""
Rayleigh Wave[nm],532.0

<< SAMPLE SPECTRUM >>
Wave[dcm-1],No21
146.591,720.37
147.626,835.70
148.664,957.83
149.699,1110.23
150.737,1242.67
151.772,1363.67
152.809,1504.47
153.846,1616.77
154.881,1663.77
155.918,1762.57
156.953,1870.10
157.989,1866.63
159.026,1971.73
160.060,1982.90
161.096,2020.03
162.130,2085.20
163.167,2067.63
164.200,2127.77
165.236,2193.10
166.272,2224.43
167.305,2290.23
168.341,2342.37
169.374,2328.03
170.409,2381.13
171.445,2451.47
172.477,2456.60
173.512,2479.63
174.545,2518.10
175.580,2562.03
176.614,2521.57
177.647,2498.30
178.681,2504.90
179.713,2473.60
180.747,2447.13
181.781,2464.73
182.813,2499.43
183.847,2488.37
184.878,2474.33
185.912,2486.20
186.945,2537.40
187.976,2545.93
189.010,2568.77
190.043,2596.43
191.073,2655.17
192.106,2647.53
193.137,2670.33
194.170,2704.40
195.202,2727.10
196.232,2759.47
197.265,2823.53
198.297,2900.97
199.327,2889.77
200.359,2982.97
201.388,3017.67
202.420,3155.13
203.452,3176.93
204.481,3262.43
205.512,3316.80
206.544,3418.73
207.573,3557.83
208.604,3625.43
209.635,3730.57
210.663,3843.10
211.694,3988.70
212.725,4088.77
213.753,4173.30
214.783,4164.40
215.813,4208.67
216.841,4190.80
217.871,4190.20
218.899,4115.67
219.929,4080.60
220.959,3928.70
221.986,3884.80
223.016,3748.20
224.045,3654.80
225.072,3649.50
226.101,3559.37
227.130,3390.20
228.157,3376.77
229.185,3338.30
230.214,3336.43
231.241,3281.23
232.269,3284.90
233.297,3219.53
234.323,3181.60
235.351,3187.53
236.379,3183.23
237.407,3213.77
238.433,3186.97
239.460,3196.80
240.488,3218.70
241.513,3259.90
242.540,3266.80
243.568,3275.03
244.592,3302.10
245.619,3299.07
246.646,3246.07
247.671,3255.70
248.697,3287.60
249.724,3242.67
250.748,3268.80
251.774,3289.37
252.801,3231.27
253.827,3266.43
254.850,3310.73
255.876,3293.97
256.902,3308.47
257.925,3313.43
258.951,3328.37
259.976,3395.60
260.999,3424.57
262.024,3399.07
263.049,3464.57
264.074,3503.00
265.097,3501.13
266.122,3535.27
267.146,3571.83
268.168,3644.53
269.193,3661.77
270.217,3691.80
271.241,3673.13
272.263,3679.97
273.287,3673.83
274.311,3678.20
275.332,3714.03
276.356,3717.57
277.379,3640.43
278.402,3619.57
279.424,3611.80
280.447,3527.23
281.470,3514.33
282.492,3489.47
283.513,3439.53
284.536,3397.90
285.558,3386.47
286.581,3336.63
287.601,3229.43
288.623,3223.90
289.645,3190.83
290.665,3169.03
291.687,3083.70
292.709,3047.00
293.730,3032.57
294.750,2969.07
295.771,2939.20
296.792,2911.70
297.813,2852.63
298.832,2820.70
299.853,2816.83
300.874,2848.07
301.895,2726.93
302.913,2673.33
303.934,2693.97
304.954,2664.93
305.975,2718.97
306.993,2645.43
308.013,2629.53
309.033,2615.70
310.052,2612.60
311.072,2613.87
312.090,2550.07
313.109,2536.10
314.129,2592.63
315.148,2526.37
316.165,2585.20
317.184,2522.13
318.203,2529.83
319.222,2539.83
320.238,2471.40
321.257,2494.97
322.275,2480.53
323.294,2434.50
324.312,2462.00
325.328,2433.57
326.346,2470.90
327.364,2416.73
328.382,2441.97
329.397,2443.73
330.415,2424.33
331.432,2449.73
332.450,2400.30
333.467,2406.33
334.482,2419.63
335.499,2391.90
336.516,2387.93
337.533,2397.37
338.547,2345.33
339.564,2363.70
340.580,2396.27
341.597,2350.27
342.613,2394.90
343.627,2371.37
344.643,2386.03
345.659,2360.50
346.675,2386.87
347.690,2369.90
348.704,2344.73
349.719,2368.87
350.735,2331.67
351.750,2324.70
352.765,2339.73
353.778,2339.63
354.793,2312.50
355.808,2331.80
356.822,2342.30
357.837,2348.47
358.851,2337.53
359.864,2315.20
360.878,2329.97
361.892,2329.00
362.906,2318.50
363.920,2349.10
364.932,2327.77
365.945,2340.70
366.959,2366.17
367.972,2340.20
368.986,2377.80
369.999,2384.07
371.010,2379.77
372.023,2380.93
373.036,2377.63
374.049,2401.97
375.061,2404.53
376.072,2373.70
377.084,2389.33
378.097,2439.73
379.109,2430.20
380.121,2397.63
381.133,2436.53
382.143,2396.70
383.155,2399.70
384.166,2442.33
385.178,2431.23
386.189,2330.87
387.201,2357.13
388.212,2348.93
389.221,2439.83
390.232,2320.17
391.243,2359.03
392.254,2353.93
393.264,2326.90
394.275,2389.10
395.283,2311.07
396.294,2336.47
397.304,2325.43
398.314,2326.50
399.324,2302.03
400.334,2262.17
401.344,2259.27
402.351,2278.70
403.361,2266.10
404.370,2269.20
405.380,2266.20
406.389,2253.50
407.398,2230.23
408.407,2245.23
409.414,2241.97
410.423,2278.73
411.431,2167.70
412.440,2198.23
413.448,2217.27
414.457,2237.20
415.465,2206.80
416.471,2190.83
417.479,2206.53
418.487,2225.83
419.495,2197.60
420.503,2162.40
421.510,2139.57
422.518,2167.83
423.525,2185.03
424.530,2158.47
425.537,2179.53
426.544,2171.10
427.551,2142.23
428.558,2159.37
429.565,2103.57
430.571,2173.03
431.578,2149.93
432.582,2107.47
433.588,2140.13
434.595,2147.57
435.601,2177.00
436.607,2133.50
437.612,2153.73
438.618,2140.47
439.624,2140.90
440.627,2144.53
441.633,2150.10
442.638,2141.50
443.643,2131.23
444.648,2157.77
445.653,2108.57
446.658,2140.13
447.663,2133.87
448.667,2121.13
449.672,2150.13
450.674,2154.47
451.678,2170.97
452.682,2132.63
453.687,2140.90
454.690,2114.87
455.694,2171.00
456.698,2157.70
457.702,2153.00
458.705,2168.87
459.709,2166.87
460.710,2141.13
461.713,2179.63
462.716,2154.53
463.719,2153.60
464.722,2165.33
465.725,2195.13
466.727,2197.30
467.730,2112.83
468.732,2158.90
469.735,2132.13
470.737,2174.87
471.737,2182.43
472.739,2166.40
473.741,2168.20
474.742,2220.50
475.744,2214.87
476.746,2199.30
477.747,2150.67
478.748,2180.50
479.750,2140.83
480.751,2190.27
481.752,2143.20
482.753,2151.17
483.751,2161.33
484.752,2176.47
485.753,2213.17
486.753,2219.23
487.753,2181.73
488.754,2161.03
489.754,2139.10
490.754,2161.93
491.754,2150.53
492.754,2169.13
493.753,2130.90
494.753,2169.00
495.752,2175.13
496.752,2155.47
497.749,2145.20
498.748,2148.87
499.747,2123.63
500.746,2155.53
501.745,2191.10
502.744,2160.70
503.742,2102.83
504.741,2137.33
505.739,2163.10
506.737,2093.63
507.735,2113.17
508.734,2158.83
509.732,2077.77
510.729,2058.73
511.727,2127.87
512.725,2137.17
513.720,2073.83
514.718,2135.03
515.715,2078.50
516.712,2040.17
517.709,2122.50
518.706,2095.07
519.703,2038.30
520.700,2085.97
521.696,2060.47
522.693,2086.03
523.689,2126.37
524.686,2086.43
525.682,2080.43
526.678,2067.20
527.674,2086.47
528.670,2136.73
529.666,2031.40
530.661,2046.57
531.657,1849.83
532.652,2126.83
533.648,2114.80
534.641,2091.27
535.636,2080.97
536.631,2077.07
537.626,2113.77
538.621,2101.87
539.616,2093.70
540.610,2058.07
541.605,2081.17
542.599,2088.93
543.593,2113.67
544.587,2052.47
545.581,2121.50
546.575,2061.87
547.569,2074.77
548.563,2063.47
549.557,2100.03
550.550,2110.47
551.543,2086.13
552.537,2089.50
553.530,2112.27
554.523,2109.00
555.516,2102.40
556.509,2121.50
557.502,2099.63
558.494,2099.00
559.487,2158.83
560.479,2125.53
561.472,2049.20
562.464,2048.73
563.456,2067.13
564.448,2085.70
565.440,2113.87
566.432,2093.37
567.423,2110.43
568.415,2151.53
569.404,2154.17
570.396,2147.73
571.387,2138.73
572.378,2108.20
573.369,2155.40
574.360,2146.37
575.351,2168.80
576.341,2174.87
577.332,2164.80
578.323,2149.87
579.313,2160.20
580.303,2157.33
581.293,2160.37
582.283,2186.97
583.273,2163.47
584.263,2152.87
585.253,2199.30
586.243,2202.27
587.232,2187.60
588.222,2164.50
589.211,2221.70
590.200,2185.13
591.189,2190.33
592.178,2214.53
593.167,2189.20
594.156,2217.97
595.145,2234.27
596.133,2195.93
597.122,2209.30
598.110,2230.67
599.098,2199.63
600.086,2174.30
601.074,2223.27
602.062,2198.17
603.050,2222.63
604.038,2183.27
605.025,2179.50
606.013,2200.33
607.000,2149.17
607.987,2154.83
608.975,2170.80
609.962,2127.13
610.949,2173.77
611.936,2103.80
612.922,2080.30
613.909,2084.33
614.895,2105.80
615.882,2062.17
616.868,2049.60
617.854,2068.80
618.841,2069.07
619.826,2028.53
620.812,1997.47
621.798,2029.10
622.784,1987.20
623.769,1999.90
624.755,1962.40
625.740,1974.53
626.725,1975.13
627.711,1956.90
628.698,1894.67
629.683,1949.30
630.667,1887.63
631.652,1954.03
632.637,1925.13
633.621,1894.43
634.606,1917.57
635.590,1873.97
636.574,1902.57
637.558,1890.07
638.542,1850.10
639.526,1820.57
640.510,1865.57
641.493,1831.03
642.477,1825.97
643.460,1819.77
644.444,1824.10
645.427,1837.90
646.410,1790.60
647.393,1821.63
648.376,1799.73
649.359,1798.13
650.341,1772.63
651.324,1814.87
652.307,1801.03
653.289,1759.83
654.271,1755.83
655.253,1744.53
656.235,1758.47
657.217,1806.97
658.199,1801.23
659.181,1749.77
660.163,1781.93
661.144,1739.40
662.126,1758.30
663.107,1729.37
664.088,1757.23
665.069,1740.00
666.050,1742.53
667.033,1687.67
668.014,1686.77
668.995,1715.37
669.975,1702.97
670.956,1705.43
671.936,1687.07
672.916,1683.37
673.896,1669.50
674.876,1675.77
675.856,1657.90
676.836,1646.40
677.816,1617.47
678.795,1624.87
679.775,1621.80
680.754,1605.27
681.734,1582.90
682.713,1549.83
683.692,1587.10
684.671,1585.10
685.650,1596.17
686.629,1548.73
687.607,1595.67
688.586,1601.33
689.564,1563.27
690.543,1548.33
691.523,1542.00
692.501,1559.97
693.479,1544.97
694.457,1537.10
695.435,1540.20
696.413,1556.43
697.390,1518.47
698.368,1500.37
699.345,1503.60
700.322,1511.23
701.300,1506.77
702.277,1497.13
703.254,1469.43
704.231,1492.03
705.207,1528.33
706.184,1436.67
707.161,1457.07
708.137,1486.17
709.113,1493.10
710.090,1463.30
711.068,1479.10
712.044,1457.37
713.020,1443.03
713.996,1415.37
714.971,1471.37
715.947,1456.70
716.922,1405.67
717.898,1453.67
718.873,1414.67
719.848,1399.40
720.823,1494.97
721.798,1421.67
722.773,1447.90
723.748,1426.17
724.723,1399.50
725.697,1386.13
726.672,1424.43
727.646,1438.00
728.622,1383.57
729.596,1424.23
730.570,1392.47
731.544,1432.03
732.518,1408.07
733.492,1400.57
734.466,1448.33
735.439,1423.83
736.413,1421.20
737.386,1434.90
738.359,1372.47
739.332,1424.70
740.305,1423.73
741.278,1418.33
742.251,1391.37
743.224,1343.13
744.196,1391.33
745.171,1385.47
746.143,1379.07
747.115,1390.63
748.087,1383.37
749.059,1344.50
750.031,1382.90
751.003,1394.53
751.975,1362.63
752.947,1335.27
753.918,1370.37
754.890,1354.10
755.861,1324.50
756.832,1347.77
757.803,1366.33
758.774,1358.10
759.747,1365.87
760.718,1307.07
761.689,1353.00
762.659,1362.07
763.630,1303.37
764.600,1340.33
765.570,1320.73
766.540,1317.40
767.510,1324.87
768.480,1328.80
769.450,1304.73
770.420,1313.60
771.390,1311.43
772.359,1348.17
773.329,1326.03
774.300,1301.53
775.269,1336.57
776.238,1295.47
777.207,1307.20
778.176,1282.13
779.145,1311.03
780.114,1271.03
781.083,1253.97
782.051,1298.83
783.019,1308.47
783.988,1269.23
784.956,1292.57
785.924,1259.20
786.894,1275.57
787.862,1288.87
788.830,1286.60
789.797,1256.50
790.765,1282.07
791.732,1241.20
792.700,1249.77
793.667,1230.93
794.634,1250.53
795.601,1265.27
796.568,1280.10
797.535,1275.43
798.502,1241.20
799.468,1285.73
800.437,1225.37
801.403,1265.60
802.370,1259.80
803.336,1243.80
804.302,1241.90
805.268,1203.97
806.234,1233.63
807.200,1223.50
808.166,1166.13
809.131,1229.47
810.097,1222.30
811.062,1216.77
812.027,1226.40
812.994,1251.30
813.960,1232.93
814.925,1213.33
815.889,1219.57
816.854,1182.97
817.819,1217.80
818.783,1199.97
819.748,1204.10
820.712,1246.83
821.677,1218.93
822.641,1240.03
823.605,1200.23
824.571,1192.63
825.534,1225.83
826.498,1208.97
827.462,1216.37
828.425,1185.33
829.389,1181.07
830.352,1215.93
831.315,1222.30
832.279,1180.33
833.242,1178.73
834.204,1214.73
835.167,1180.63
836.132,1165.87
837.095,1239.77
838.057,1196.03
839.020,1197.53
839.982,1186.13
840.944,1168.80
841.906,1181.93
842.868,1207.83
843.830,1172.83
844.792,1158.70
845.753,1153.23
846.715,1206.07
847.679,1212.27
848.640,1192.87
849.601,1160.83
850.562,1126.23
851.523,1181.03
852.484,1175.63
853.445,1140.70
854.406,1172.70
855.367,1189.33
856.327,1215.97
857.288,1206.83
858.248,1156.73
859.210,1207.53
860.170,1170.90
861.130,1191.83
862.090,1211.83
863.050,1195.77
864.010,1198.37
864.969,1205.97
865.929,1178.43
866.888,1189.40
867.848,1199.33
868.807,1177.20
869.766,1159.77
870.727,1149.60
871.686,1147.53
872.645,1170.37
873.604,1147.03
874.562,1163.30
875.521,1197.20
876.479,1162.00
877.437,1191.73
878.396,1172.77
879.354,1169.40
880.312,1202.03
881.270,1177.60
882.229,1198.53
883.187,1134.43
884.145,1185.57
885.102,1114.97
886.059,1160.20
887.017,1198.60
887.974,1106.67
888.931,1180.30
889.888,1171.97
890.845,1168.93
891.802,1168.10
892.758,1189.37
893.717,1159.50
894.673,1190.23
895.630,1156.10
896.586,1185.00
897.542,1142.13
898.498,1162.47
899.454,1170.60
900.410,1205.80
901.366,1161.33
902.321,1157.70
903.277,1178.60
904.232,1155.23
905.189,1186.77
906.145,1184.47
907.100,1185.33
908.055,1216.40
909.010,1205.43
909.965,1196.67
910.919,1191.40
911.874,1171.70
912.828,1197.83
913.783,1130.97
914.737,1201.97
915.693,1189.07
916.648,1202.27
917.602,1166.73
918.555,1189.37
919.509,1180.63
920.463,1222.73
921.417,1234.57
922.370,1145.37
923.324,1197.40
924.277,1223.50
925.230,1201.70
926.183,1184.77
927.138,1206.37
928.091,1183.93
929.044,1208.80
929.996,1191.37
930.949,1211.33
931.902,1192.27
932.854,1192.27
933.806,1218.00
934.758,1219.20
935.711,1186.10
936.663,1216.70
937.614,1189.37
938.568,1218.13
939.520,1211.43
940.471,1191.43
941.423,1233.33
942.374,1207.87
943.326,1204.33
944.277,1222.47
945.228,1221.10
946.179,1258.50
947.130,1187.60
948.080,1195.07
949.031,1197.20
949.984,1220.23
950.934,1189.77
951.884,1221.73
952.835,1199.37
953.785,1220.53
954.735,1205.47
955.685,1187.23
956.635,1204.93
957.585,1201.73
958.534,1205.50
959.484,1166.70
960.433,1170.97
961.383,1209.07
962.334,1168.63
963.283,1186.60
964.232,1175.43
965.181,1184.50
966.130,1202.20
967.079,1199.23
968.027,1150.90
968.976,1196.23
969.924,1155.67
970.873,1198.90
971.821,1210.57
972.769,1199.87
973.719,1182.87
974.667,1196.47
975.615,1187.33
976.562,1159.30
977.510,1169.87
978.458,1211.53
979.405,1154.67
980.352,1197.87
981.300,1245.53
982.247,1167.10
983.194,1178.77
984.141,1211.37
985.088,1158.30
986.036,1167.07
986.983,1171.83
987.930,1162.93
988.876,1171.17
989.822,1179.30
990.769,1155.57
991.715,1193.87
992.661,1140.73
993.607,1180.83
994.553,1181.63
995.498,1187.83
996.444,1180.23
997.389,1171.43
998.337,1202.17
999.282,1155.23
1000.227,1181.00
1001.173,1144.03
1002.118,1185.57
1003.062,1169.40
1004.007,1171.63
1004.952,1130.97
1005.897,1158.83
1006.841,1135.27
1007.786,1171.47
1008.730,1164.07
1009.674,1176.33
1010.618,1142.30
1011.564,1192.87
1012.508,1141.37
1013.452,1149.80
1014.396,1158.03
1015.339,1206.43
1016.283,1153.93
1017.226,1173.47
1018.170,1164.27
1019.113,1160.77
1020.056,1190.37
1020.999,1168.83
1021.942,1150.13
1022.885,1160.13
1023.828,1137.37
1024.770,1187.03
1025.715,1172.17
1026.657,1146.97
1027.600,1162.40
1028.542,1131.80
1029.484,1150.80
1030.426,1179.60
1031.368,1139.00
1032.310,1140.27
1033.251,1194.47
1034.193,1191.23
1035.135,1178.87
1036.076,1194.23
1037.017,1137.43
1037.959,1178.50
1038.900,1197.73
1039.843,1153.57
1040.784,1167.17
1041.725,1173.33
1042.665,1156.27
1043.606,1147.20
1044.547,1193.43
1045.487,1172.60
1046.427,1177.93
1047.368,1218.07
1048.308,1199.43
1049.248,1169.30
1050.188,1162.83
1051.128,1207.77
1052.067,1207.77
1053.007,1168.23
1053.947,1206.17
1054.886,1201.57
1055.827,1202.30
1056.766,1181.37
1057.706,1184.47
1058.645,1184.43
1059.584,1219.73
1060.522,1204.63
1061.461,1206.20
1062.400,1227.87
1063.338,1225.40
1064.277,1208.03
1065.215,1195.73
1066.154,1201.20
1067.092,1195.70
1068.030,1245.83
1068.968,1208.07
1069.906,1224.37
1070.843,1205.50
1071.781,1229.90
1072.720,1216.20
1073.658,1211.73
1074.595,1221.13
1075.533,1238.23
1076.470,1225.70
1077.407,1224.83
1078.344,1248.47
1079.281,1209.53
1080.217,1220.87
1081.154,1206.47
1082.091,1242.50
1083.027,1244.60
1083.964,1225.90
1084.900,1228.23
1085.836,1250.00
1086.772,1193.50
1087.708,1205.73
1088.644,1245.93
1089.580,1255.43
1090.515,1199.43
1091.451,1245.23
1092.388,1231.50
1093.324,1231.13
1094.259,1249.73
1095.194,1228.00
1096.129,1190.07
1097.064,1220.33
1097.999,1186.67
1098.934,1221.43
1099.869,1207.03
1100.803,1206.83
1101.738,1198.03
1102.672,1200.17
1103.607,1248.23
1104.541,1194.90
1105.475,1177.80
1106.409,1181.57
1107.343,1179.60
1108.277,1207.77
1109.210,1190.90
1110.144,1186.10
1111.078,1143.03
1112.011,1170.90
1112.944,1187.00
1113.878,1124.00
1114.811,1161.67
1115.744,1176.63
1116.678,1191.40
1117.611,1190.73
1118.544,1170.03
1119.477,1184.40
1120.409,1156.53
1121.342,1142.90
1122.274,1161.90
1123.206,1155.30
1124.138,1175.67
1125.070,1149.47
1126.002,1138.67
1126.934,1148.10
1127.866,1117.63
1128.798,1127.47
1129.729,1151.40
1130.661,1145.23
1131.592,1133.30
1132.523,1159.70
1133.454,1121.27
1134.385,1119.40
1135.317,1106.67
1136.247,1147.80
1137.178,1133.33
1138.109,1126.40
1139.039,1101.70
1139.970,1133.60
1140.900,1123.80
1141.831,1107.60
1142.761,1108.13
1143.691,1108.07
1144.621,1082.97
1145.551,1078.03
1146.480,1083.37
1147.410,1094.37
1148.340,1098.17
1149.269,1089.70
1150.199,1055.80
1151.128,1104.87
1152.057,1069.10
1152.979,1084.47
1153.898,1092.23
1154.819,1075.27
1155.739,1061.10
1156.658,1086.70
1157.579,1097.60
1158.498,1074.90
1159.419,1054.90
1160.338,1117.33
1161.256,1076.30
1162.177,1048.60
1163.095,1105.40
1164.016,1067.37
1164.934,1083.27
1165.852,1067.27
1166.772,1081.77
1167.690,1087.77
1168.610,1045.83
1169.528,1084.00
1170.446,1098.80
1171.365,1028.20
1172.283,1069.63
1173.202,1100.47
1174.120,1041.07
1175.037,1064.93
1175.956,1088.33
1176.873,1081.17
1177.792,1073.60
1178.709,1035.17
1179.626,1043.07
1180.544,1043.47
1181.461,1077.27
1182.379,1060.77
1183.296,1043.93
1184.212,1059.37
1185.130,1067.37
1186.046,1048.00
1186.962,1078.80
1187.880,1102.63
1188.796,1046.40
1189.714,1071.77
1190.629,1030.80
1191.545,1032.97
1192.462,1080.30
1193.378,1062.07
1194.295,1076.37
1195.210,1048.87
1196.125,1042.40
1197.042,1061.10
1197.957,1045.47
1198.872,1086.93
1199.788,1063.20
1200.703,1047.20
1201.619,1079.30
1202.534,1072.80
1203.448,1033.27
1204.364,1099.90
1205.278,1058.83
1206.192,1077.87
1207.108,1054.53
1208.022,1044.60
1208.938,1055.20
1209.851,1014.80
1210.765,1060.63
1211.680,1067.27
1212.594,1074.97
1213.507,1079.30
1214.422,1063.90
1215.335,1045.53
1216.248,1044.37
1217.163,1079.27
1218.076,1109.20
1218.990,1055.77
1219.903,1073.63
1220.816,1055.07
1221.730,1037.57
1222.642,1061.37
1223.554,1062.47
1224.469,1086.47
1225.380,1045.37
1226.292,1099.80
1227.206,1055.10
1228.118,1064.67
1229.032,1080.33
1229.943,1091.50
1230.855,1041.53
1231.768,1073.00
1232.679,1077.83
1233.590,1088.23
1234.503,1058.60
1235.414,1076.27
1236.325,1086.27
1237.238,1089.63
1238.149,1096.20
1239.059,1090.50
1239.972,1095.10
1240.882,1087.40
1241.793,1076.33
1242.705,1055.73
1243.615,1057.07
1244.525,1105.57
1245.437,1082.90
1246.347,1086.07
1247.259,1084.10
1248.168,1055.20
1249.078,1077.13
1249.989,1077.60
1250.899,1077.00
1251.808,1096.33
1252.719,1116.03
1253.628,1084.20
1254.537,1042.80
1255.448,1123.27
1256.357,1091.03
1257.266,1080.80
1258.176,1103.07
1259.085,1084.97
1259.993,1100.97
1260.904,1055.47
1261.812,1087.00
1262.720,1128.07
1263.630,1110.73
1264.538,1058.67
1265.446,1066.67
1266.356,1062.67
1267.263,1079.97
1268.171,1061.77
1269.080,1126.80
1269.988,1085.60
1270.895,1080.97
1271.804,1062.40
1272.711,1084.00
1273.619,1058.17
1274.527,1066.33
1275.434,1082.63
1276.341,1076.23
1277.248,1115.47
1278.156,1069.43
1279.063,1098.00
1279.969,1083.00
1280.877,1071.30
1281.783,1060.10
1282.690,1088.57
1283.598,1034.63
1284.503,1097.30
1285.409,1043.30
1286.317,1036.43
1287.223,1068.50
1288.128,1036.83
1289.036,1086.57
1289.941,1076.13
1290.846,1055.40
1291.751,1079.03
1292.658,1023.67
1293.563,1054.83
1294.468,1042.90
1295.375,1040.67
1296.280,1036.40
1297.184,1054.30
1298.091,1050.57
1298.995,1059.83
1299.900,1080.77
1300.806,1039.47
1301.710,1048.90
1302.614,1053.17
1303.518,1066.30
1304.424,1046.73
1305.327,1017.53
1306.231,1049.27
1307.137,1029.77
1308.040,1068.70
1308.943,1046.10
1309.847,1033.27
1310.752,1017.67
1311.655,995.13
1312.558,1019.60
1313.463,1017.53
1314.366,1019.17
1315.269,1028.33
1316.171,994.30
1317.076,988.47
1317.978,989.07
1318.881,979.70
1319.785,977.90
1320.687,997.77
1321.589,1000.67
1322.491,1029.60
1323.395,958.03
1324.297,978.63
1325.198,1022.43
1326.102,1027.67
1327.004,1019.17
1327.905,1009.50
1328.806,987.13
1329.709,1010.53
1330.611,1004.67
1331.512,1000.70
1332.413,1000.40
1333.316,986.20
1334.216,971.10
1335.117,976.40
1336.020,1006.87
1336.920,1006.73
1337.821,982.60
1338.721,974.63
1339.623,953.13
1340.523,999.53
1341.423,992.47
1342.323,980.97
1343.225,988.43
1344.125,947.00
1345.025,964.50
1345.924,984.00
1346.826,1000.03
1347.725,992.33
1348.624,911.60
1349.524,979.00
1350.425,967.03
1351.324,967.07
1352.223,973.87
1353.121,991.10
1354.022,972.03
1354.921,931.93
1355.819,942.57
1356.718,969.40
1357.618,916.47
1358.516,943.03
1359.415,967.60
1360.313,979.67
1361.213,959.53
1362.111,920.13
1363.008,951.07
1363.906,940.60
1364.806,935.57
1365.703,953.77
1366.601,920.93
1367.498,968.73
1368.397,942.83
1369.295,946.57
1370.192,944.73
1371.089,953.90
1371.987,951.23
1372.884,932.90
1373.781,957.97
1374.678,940.37
1375.574,920.40
1376.473,944.87
1377.369,952.77
1378.265,955.70
1379.161,895.87
1380.059,908.30
1380.955,918.67
1381.851,913.60
1382.747,931.50
1383.643,886.53
1384.540,919.27
1385.436,917.10
1386.331,922.00
1387.227,913.57
1388.124,938.93
1389.019,917.00
1389.914,917.10
1390.809,896.43
1391.704,890.37
1392.601,927.23
1393.495,888.93
1394.390,939.73
1395.285,940.20
1396.179,909.83
1397.075,889.17
1397.969,949.27
1398.864,935.43
1399.758,911.40
1400.652,917.23
1401.547,910.83
1402.441,869.03
1403.335,890.03
1404.229,921.50
1405.122,914.87
1406.017,903.63
1406.911,908.17
1407.804,891.30
1408.697,869.57
1409.590,899.47
1410.485,851.97
1411.378,885.90
1412.271,884.30
1413.163,897.47
1414.056,905.13
1414.949,899.33
1415.843,897.33
1416.735,911.00
1417.627,878.67
1418.520,927.10
1419.412,873.77
1420.306,936.00
1421.197,908.33
1422.089,915.03
1422.981,874.77
1423.873,862.90
1424.764,907.13
1425.657,875.73
1426.549,913.53
1427.440,887.87
1428.331,883.83
1429.222,896.57
1430.113,884.17
1431.006,908.73
1431.897,878.30
1432.787,866.87
1433.678,904.17
1434.568,894.73
1435.459,867.40
1436.351,885.17
1437.241,895.80
1438.131,888.47
1439.021,892.37
1439.911,879.33
1440.801,881.90
1441.693,878.73
1442.583,898.13
1443.472,900.37
1444.362,889.97
1445.251,905.57
1446.140,902.53
1447.030,881.83
1447.921,889.23
1448.810,862.07
1449.699,870.90
1450.588,866.93
1451.476,894.30
1452.365,852.13
1453.254,857.20
1454.144,860.07
1455.032,876.13
1455.921,860.37
1456.809,864.93
1457.697,867.53
1458.585,839.73
1459.473,865.60
1460.361,848.53
1461.251,856.03
1462.138,831.80
1463.026,862.30
1463.913,875.70
1464.801,874.40
1465.688,890.87
1466.575,877.87
1467.463,845.43
1468.351,865.13
1469.238,891.97
1470.125,830.67
1471.012,893.13
1471.899,839.33
1472.785,861.20
1473.672,834.43
1474.558,851.00
1475.446,851.47
1476.333,869.30
1477.219,874.00
1478.105,831.57
1478.991,854.37
1479.877,858.13
1480.762,841.83
1481.648,857.70
1482.534,848.67
1483.419,813.87
1484.307,842.77
1485.192,821.90
1486.077,853.83
1486.962,803.03
1487.847,849.77
1488.732,851.37
1489.617,886.40
1490.502,836.50
1491.387,827.40
1492.271,850.00
1493.156,824.97
1494.042,827.67
1494.927,861.47
1495.811,836.53
1496.695,800.47
1497.579,829.60
1498.463,859.37
1499.347,859.47
1500.231,845.50
1501.114,840.27
1501.998,833.07
1502.881,832.93
1503.765,861.90
1504.648,856.67
1505.533,856.33
1506.417,871.00
1507.300,813.63
1508.183,867.43
1509.066,827.23
1509.948,834.40
1510.831,873.00
1511.714,837.83
1512.596,834.23
1513.479,833.53
1514.361,817.10
1515.243,821.60
1516.125,839.20
1517.008,804.63
1517.890,804.93
1518.771,855.47
1519.655,822.23
1520.537,837.23
1521.419,794.53
1522.300,823.60
1523.182,808.30
1524.063,793.87
1524.944,842.13
1525.825,835.93
1526.707,816.73
1527.588,779.73
1528.468,857.27
1529.349,833.37
1530.230,837.97
1531.111,822.23
1531.991,793.83
1532.872,854.90
1533.752,758.00
1534.632,829.67
1535.513,848.23
1536.393,832.97
1537.273,815.53
1538.153,849.10
1539.032,806.27
1539.912,804.13
1540.792,822.57
1541.672,802.63
1542.551,820.43
1543.430,825.17
1544.310,851.70
1545.189,805.27
1546.068,857.43
1546.947,827.50
1547.826,832.93
1548.705,828.43
1549.584,838.17
1550.462,812.60
1551.341,821.40
1552.219,807.67
1553.098,822.97
1553.976,814.10
1554.854,813.43
1555.733,833.97
1556.611,821.90
1557.489,804.60
1558.367,787.60
1559.244,808.37
1560.122,816.83
1561.000,832.33
1561.877,814.63
1562.755,823.20
1563.632,826.37
1564.509,786.87
1565.386,829.37
1566.264,793.13
1567.141,793.60
1568.017,783.00
1568.894,846.97
1569.771,827.00
1570.648,830.90
1571.524,829.67
1572.401,784.27
1573.277,833.23
1574.153,816.87
1575.029,819.63
1575.906,780.67
1576.781,799.50
1577.657,764.53
1578.533,798.70
1579.409,811.23
1580.285,802.40
1581.160,774.27
1582.036,786.80
1582.911,804.53
1583.786,797.57
1584.662,807.60
1585.537,823.63
1586.412,792.10
1587.287,773.50
1588.160,812.63
1589.035,769.70
1589.909,846.50
1590.784,804.27
1591.658,791.03
1592.533,804.47
1593.407,786.67
1594.281,813.37
1595.155,811.23
1596.029,777.93
1596.903,745.93
1597.777,764.57
1598.651,757.43
1599.525,778.80
1600.398,842.60
1601.272,837.53
1602.144,768.00
1603.017,789.07
1603.890,800.07
1604.763,783.87
1605.636,810.57
1606.509,792.40
1607.382,817.83
1608.255,785.33
1609.128,830.63
1610.000,800.80
1610.873,781.90
1611.746,808.00
1612.616,771.73
1613.488,788.00
1614.361,814.53
1615.233,792.67
1616.105,777.57
1616.977,771.43
1617.849,796.80
1618.720,788.70
1619.592,845.33
1620.464,831.83
1621.333,817.23
1622.205,776.33
1623.076,791.50
1623.947,802.77
1624.818,792.40
1625.689,765.43
1626.560,757.37
1627.431,789.43
1628.302,830.83
1629.171,806.47
1630.042,800.70
1630.912,806.73
1631.782,804.27
1632.653,802.27
1633.523,770.20
1634.393,800.07
1635.263,796.20
1636.131,810.73
1637.001,790.73
1637.871,765.50
1638.741,802.50
1639.611,797.67
1640.480,770.80
1641.350,784.63
1642.219,810.83
1643.087,778.03
1643.956,763.90
1644.825,760.80
1645.694,787.20
1646.563,795.77
1647.432,814.57
1648.299,756.37
1649.167,806.73
1650.036,747.60
1650.904,787.63
1651.773,780.37
1652.641,811.13
1653.509,778.17
1654.376,781.37
1655.244,772.53
1656.112,804.57
1656.980,777.10
1657.847,802.53
1658.715,759.50
1659.581,786.67
1660.448,805.50
1661.316,792.03
1662.183,803.47
1663.051,812.20
1663.918,780.13
1664.783,784.23
1665.650,788.90
1666.517,804.33
1667.384,749.97
1668.251,765.93
1669.115,754.37
1669.982,775.40
1670.849,769.33
1671.715,766.50
1672.581,784.43
1673.446,804.03
1674.312,811.77
1675.178,762.93
1676.044,737.53
1676.910,808.57
1677.774,782.63
1678.639,768.30
1679.505,792.23
1680.370,788.93
1681.236,787.03
1682.099,753.20
1682.965,787.10
1683.830,760.57
1684.695,796.07
1685.560,794.90
1686.423,812.20
1687.288,769.37
1688.153,774.77
1689.017,810.97
1689.880,719.70
1690.745,769.07
1691.609,790.03
1692.473,776.77
1693.338,808.23
1694.200,767.07
1695.064,758.27
1695.928,758.47
1696.792,753.93
1697.654,792.20
1698.517,771.50
1699.381,770.43
1700.245,763.37
1701.106,763.60
1701.969,770.70
1702.833,788.80
1703.696,785.13
1704.557,773.47
1705.420,773.57
1706.283,724.93
1707.146,781.77
1708.007,797.43
1708.870,732.90
1709.732,756.13
1710.595,786.07
1711.455,763.33
1712.318,727.87
1713.180,750.03
1714.040,786.37
1714.902,713.50
1715.764,748.43
1716.626,739.63
1717.486,750.77
1718.348,756.90
1719.209,730.43
1720.071,756.07
1720.930,751.93
1721.792,753.00
1722.653,771.47
1723.512,779.17
1724.374,755.93
1725.234,749.33
1726.095,749.77
1726.954,772.97
1727.815,712.53
1728.676,777.60
1729.535,773.07
1730.395,775.70
1731.256,760.53
1732.114,800.13
1732.974,751.23
1733.834,763.47
1734.693,768.63
1735.553,739.87
1736.413,775.17
1737.272,742.33
1738.130,758.23
1738.990,766.40
1739.849,766.30
1740.707,781.87
1741.566,748.33
1742.426,741.43
1743.283,787.60
1744.142,771.80
1745.001,765.93
1745.858,769.47
1746.717,779.67
1747.576,790.17
1748.433,797.43
1749.292,754.07
1750.150,760.10
1751.007,794.90
1751.865,709.50
1752.723,752.97
1753.579,775.70
1754.438,773.20
1755.296,752.83
1756.152,742.20
1757.010,777.53
1757.865,776.93
1758.723,768.53
1759.581,764.63
1760.436,779.33
1761.294,773.77
1762.151,758.83
1763.006,719.47
1763.864,781.60
1764.721,769.03
1765.576,764.80
1766.433,744.40
1767.288,770.37
1768.144,753.73
1769.001,762.23
1769.856,756.80
1770.712,754.60
1771.568,762.07
1772.423,815.50
1773.279,759.90
1774.133,760.63
1774.989,748.00
1775.845,763.83
1776.699,742.13
1777.555,768.20
1778.409,767.83
1779.265,761.13
1780.120,774.13
1780.974,744.53
1781.829,742.47
1782.682,776.90
1783.538,749.83
1784.393,763.80
1785.246,746.50
1786.101,787.27
1786.954,760.87
1787.808,714.37
1788.661,786.10
1789.516,747.13
1790.370,734.33
1791.223,761.70
1792.077,788.67
1792.930,746.87
1793.784,719.00
1794.636,748.50
1795.490,780.43
1796.344,763.07
1797.196,701.27
1798.049,739.17
1798.901,737.53
1799.755,747.70
1800.606,762.37
1801.460,756.13
1802.311,752.17
1803.165,769.90
1804.018,761.83
1804.869,753.00
1805.722,728.30
1806.573,772.53
1807.426,768.00
1808.276,764.37
1809.129,756.63
1809.980,738.63
1810.832,744.97
1811.683,750.70
1812.535,751.07
1813.385,763.17
1814.237,759.90
1815.089,745.53
1815.940,730.60
1816.791,741.73
1817.641,741.87
1818.493,760.47
1819.343,735.23
1820.194,740.53
1821.044,745.23
1821.895,716.87
1822.745,761.00
1823.596,745.87
1824.445,733.90
1825.296,751.03
1826.145,732.87
1826.996,776.13
1827.845,758.37
1828.695,772.47
1829.544,771.63
1830.395,783.27
1831.243,753.57
1832.094,742.80
1832.942,753.23
1833.792,739.83
1834.640,731.10
1835.490,761.00
1836.338,746.17
1837.186,744.43
1838.036,748.80
1838.884,800.90
1839.733,775.17
1840.581,784.23
1841.430,765.63
1842.278,755.80
1843.127,731.83
1843.974,750.63
1844.823,735.67
1845.671,764.93
1846.519,724.00
1847.366,784.60
1848.213,723.33
1849.062,747.43
1849.909,735.20
1850.757,744.17
1851.604,764.43
1852.452,782.97
1853.298,745.23
1854.146,767.33
1854.993,717.20
1855.839,730.00
1856.687,798.53
1857.532,778.37
1858.380,782.37
1859.226,772.40
1860.073,723.67
1860.919,767.33
1861.765,763.70
1862.612,745.03
1863.457,750.67
1864.304,716.67
1865.150,758.87
1865.995,710.73
1866.842,750.93
1867.686,733.73
1868.533,753.53
1869.378,770.93
1870.223,723.97
1871.069,784.60
1871.914,732.97
1872.760,719.07
1873.604,751.17
1874.448,721.87
1875.294,762.73
1876.139,714.50
1876.984,769.40
1877.828,771.00
1878.672,740.13
1879.518,722.43
1880.361,717.80
1881.205,744.87
1882.050,755.03
1882.894,745.37
1883.739,761.10
1884.582,758.70
1885.425,723.43
1886.270,751.43
1887.113,781.30
1887.956,751.83
1888.801,751.37
1889.644,755.70
1890.486,741.30
1891.331,754.67
1892.173,742.57
1893.017,734.93
1893.860,708.73
1894.702,725.60
1895.546,748.07
1896.388,741.27
1897.230,720.83
1898.074,751.13
1898.916,753.80
1899.757,730.77
1900.601,737.23
1901.443,730.60
1902.284,742.43
1903.125,721.13
1903.969,760.37
1904.810,719.20
1905.651,702.43
1906.494,767.87
1907.335,767.50
1908.176,733.00
1909.018,730.57
1909.859,781.40
1910.700,744.63
1911.542,720.00
1912.383,738.13
1913.223,725.93
1914.064,768.00
1914.906,732.53
1915.746,702.00
1916.586,708.53
1917.428,753.87
1918.268,757.30
1919.107,734.40
1919.947,721.53
1920.789,742.33
1921.628,741.03
1922.468,716.87
1923.309,765.30
1924.148,752.10
1924.988,755.63
1925.827,726.83
1926.667,739.13
1927.507,740.23
1928.345,778.20
1929.184,741.53
1930.025,731.13
1930.864,761.40
1931.702,724.37
1932.541,728.13
1933.381,732.33
1934.219,794.30
1935.057,738.40
1935.896,768.00
1936.735,732.10
1937.573,733.93
1938.411,734.87
1939.249,771.67
1940.089,756.73
1940.927,752.87
1941.764,743.00
1942.602,763.50
1943.439,750.40
1944.278,736.10
1945.115,769.93
1945.953,736.03
1946.790,744.73
1947.628,743.13
1948.465,729.73
1949.302,757.67
1950.139,750.67
1950.976,722.73
1951.814,775.33
1952.651,743.10
1953.487,747.47
1954.323,753.87
1955.160,706.47
1955.998,722.47
1956.834,773.60
1957.670,759.37
1958.506,740.07
1959.342,756.67
1960.177,725.83
1961.015,720.73
1961.850,728.47
1962.686,758.03
1963.521,737.03
1964.357,773.33
1965.192,739.13
1966.029,747.37
1966.864,761.37
1967.699,765.73
1968.534,709.30
1969.369,739.50
1970.204,694.33
1971.040,698.23
1971.875,777.03
1972.709,736.20
1973.544,670.13
1974.378,740.17
1975.212,712.33
1976.047,717.40
1976.882,770.70
1977.716,726.60
1978.550,727.37
1979.384,711.43
1980.218,700.00
1981.052,743.67
1981.885,723.17
1982.719,761.13
1983.554,729.30
1984.388,777.47
1985.221,756.07
1986.054,739.03
1986.887,766.03
1987.720,708.83
1988.553,717.57
1989.386,757.27
1990.219,746.47
1991.053,709.03
1991.886,737.77
1992.719,748.17
1993.551,766.57
1994.383,742.10
1995.216,688.27
1996.048,758.90
1996.880,744.03
1997.712,779.70
1998.544,741.17
1999.376,711.40
2000.208,725.47
2001.040,766.57
2001.873,720.73
2002.705,719.03
2003.536,772.63
2004.367,739.10
2005.199,745.03
2006.030,738.37
2006.861,724.20
2007.692,733.40
2008.523,733.67
2009.354,742.37
2010.185,742.47
2011.016,749.60
2011.846,759.93
2012.677,733.37
2013.507,774.03
2014.338,739.23
2015.168,757.93
2015.999,756.97
2016.829,761.40
2017.659,767.83
2018.489,719.93
2019.319,775.90
2020.149,772.43
2020.980,740.07
2021.810,732.87
2022.639,760.63
2023.469,737.63
2024.298,710.30
2025.128,758.40
2025.957,720.87
2026.786,754.27
2027.615,765.07
2028.444,779.33
2029.273,779.40
2030.102,758.50
2030.931,756.73
2031.758,756.07
2032.586,745.10
2033.415,788.97
2034.243,754.10
2035.072,760.33
2035.900,771.90
2036.728,787.33
2037.556,779.33
2038.385,778.40
2039.213,761.20
2040.040,756.23
2040.868,780.90
2041.696,762.60
2042.524,769.10
2043.351,820.87
2044.179,748.83
2045.006,742.07
2045.006,742.07

Max Intensity Wave.,215.813
Max Intensity Data,4208.67
Min Intensity Wave.,1973.544
Min Intensity Data,670.13
FWHM Wave.,410.228
FWHM Value,0.77
Pressure Wave.,688.223
Pressure Value [GPa],-15.58663
G/D Ratio,0.80261
G/D Gband Wave.,1546.187
G/D Gband Intensity,858.19
G/D Dband Wave.,1308.160
G/D Dband Intensity,1069.24

<< BACKGROUND SPECTRUM >>
Wave[dcm-1],No21
146.591,2346.00
147.626,2193.00
148.664,2149.00
149.699,2644.00
150.737,2379.00
151.772,2525.00
152.809,2483.00
153.846,2394.00
154.881,2528.00
155.918,2058.00
156.953,2363.00
157.989,2763.00
159.026,2560.00
160.060,2768.00
161.096,3001.00
162.130,2607.00
163.167,2730.00
164.200,2588.00
165.236,2768.00
166.272,2807.00
167.305,2382.00
168.341,2637.00
169.374,2932.00
170.409,2925.00
171.445,2859.00
172.477,2661.00
173.512,2527.00
174.545,2793.00
175.580,2958.00
176.614,3199.00
177.647,2979.00
178.681,3198.00
179.713,3522.00
180.747,2984.00
181.781,2867.00
182.813,3130.00
183.847,3248.00
184.878,2868.00
185.912,3133.00
186.945,3286.00
187.976,3236.00
189.010,2848.00
190.043,2977.00
191.073,3031.00
192.106,2844.00
193.137,3356.00
194.170,2685.00
195.202,3043.00
196.232,2830.00
197.265,3137.00
198.297,3201.00
199.327,2930.00
200.359,3083.00
201.388,3496.00
202.420,3006.00
203.452,3271.00
204.481,2805.00
205.512,3499.00
206.544,3236.00
207.573,3173.00
208.604,3578.00
209.635,3723.00
210.663,3094.00
211.694,3096.00
212.725,2950.00
213.753,2917.00
214.783,3591.00
215.813,3404.00
216.841,3161.00
217.871,3328.00
218.899,3083.00
219.929,3287.00
220.959,3052.00
221.986,3306.00
223.016,2933.00
224.045,3358.00
225.072,3227.00
226.101,3329.00
227.130,3473.00
228.157,2994.00
229.185,2477.00
230.214,3315.00
231.241,2946.00
232.269,2550.00
233.297,2829.00
234.323,3435.00
235.351,2962.00
236.379,3256.00
237.407,2884.00
238.433,3099.00
239.460,3294.00
240.488,3292.00
241.513,3352.00
242.540,3280.00
243.568,3383.00
244.592,3392.00
245.619,3360.00
246.646,3096.00
247.671,3105.00
248.697,2934.00
249.724,3181.00
250.748,3137.00
251.774,3092.00
252.801,3483.00
253.827,3264.00
254.850,3202.00
255.876,2815.00
256.902,3277.00
257.925,3135.00
258.951,2901.00
259.976,2901.00
260.999,3230.00
262.024,2950.00
263.049,3814.00
264.074,3246.00
265.097,3187.00
266.122,3253.00
267.146,3169.00
268.168,3352.00
269.193,2981.00
270.217,3374.00
271.241,2859.00
272.263,3046.00
273.287,3360.00
274.311,2946.00
275.332,3476.00
276.356,2974.00
277.379,3249.00
278.402,3296.00
279.424,3073.00
280.447,3064.00
281.470,2848.00
282.492,3223.00
283.513,3036.00
284.536,3334.00
285.558,3289.00
286.581,3229.00
287.601,2995.00
288.623,2920.00
289.645,3208.00
290.665,3239.00
291.687,3290.00
292.709,3250.00
293.730,3544.00
294.750,3052.00
295.771,2915.00
296.792,3224.00
297.813,3089.00
298.832,3216.00
299.853,2877.00
300.874,3090.00
301.895,3125.00
302.913,3167.00
303.934,3441.00
304.954,3203.00
305.975,3332.00
306.993,2882.00
308.013,3263.00
309.033,3151.00
310.052,3063.00
311.072,3013.00
312.090,3209.00
313.109,3447.00
314.129,3518.00
315.148,3146.00
316.165,3167.00
317.184,3399.00
318.203,2847.00
319.222,2840.00
320.238,3308.00
321.257,2959.00
322.275,2823.00
323.294,3158.00
324.312,3288.00
325.328,3433.00
326.346,3443.00
327.364,3410.00
328.382,3309.00
329.397,3241.00
330.415,3398.00
331.432,3370.00
332.450,3436.00
333.467,3634.00
334.482,2674.00
335.499,3536.00
336.516,3024.00
337.533,2688.00
338.547,3000.00
339.564,2981.00
340.580,3229.00
341.597,3140.00
342.613,3609.00
343.627,3133.00
344.643,3147.00
345.659,3270.00
346.675,3113.00
347.690,3027.00
348.704,3251.00
349.719,2990.00
350.735,2885.00
351.750,3367.00
352.765,3159.00
353.778,3135.00
354.793,3321.00
355.808,2986.00
356.822,3366.00
357.837,2778.00
358.851,3435.00
359.864,3123.00
360.878,2889.00
361.892,3120.00
362.906,3352.00
363.920,2706.00
364.932,3262.00
365.945,3246.00
366.959,3145.00
367.972,3108.00
368.986,2828.00
369.999,3521.00
371.010,2973.00
372.023,3526.00
373.036,3105.00
374.049,3529.00
375.061,3207.00
376.072,3131.00
377.084,3017.00
378.097,2799.00
379.109,3335.00
380.121,3135.00
381.133,2766.00
382.143,3306.00
383.155,2850.00
384.166,3006.00
385.178,3214.00
386.189,3404.00
387.201,2873.00
388.212,3089.00
389.221,2997.00
390.232,3208.00
391.243,3068.00
392.254,3195.00
393.264,3007.00
394.275,3339.00
395.283,3353.00
396.294,3781.00
397.304,3646.00
398.314,3251.00
399.324,3187.00
400.334,2802.00
401.344,3331.00
402.351,2781.00
403.361,3374.00
404.370,3115.00
405.380,3037.00
406.389,3503.00
407.398,3266.00
408.407,3232.00
409.414,3326.00
410.423,3419.00
411.431,2935.00
412.440,2816.00
413.448,3493.00
414.457,2981.00
415.465,2947.00
416.471,3006.00
417.479,3149.00
418.487,2911.00
419.495,3450.00
420.503,3283.00
421.510,2769.00
422.518,3291.00
423.525,3315.00
424.530,3569.00
425.537,3014.00
426.544,3387.00
427.551,3003.00
428.558,3755.00
429.565,3655.00
430.571,2989.00
431.578,3027.00
432.582,3030.00
433.588,3102.00
434.595,2734.00
435.601,3434.00
436.607,3394.00
437.612,2881.00
438.618,3500.00
439.624,3092.00
440.627,3073.00
441.633,3249.00
442.638,3770.00
443.643,3241.00
444.648,3144.00
445.653,3370.00
446.658,3023.00
447.663,3156.00
448.667,3034.00
449.672,3041.00
450.674,3097.00
451.678,2826.00
452.682,3009.00
453.687,2981.00
454.690,3814.00
455.694,3419.00
456.698,2673.00
457.702,2795.00
458.705,2894.00
459.709,2920.00
460.710,3022.00
461.713,3151.00
462.716,3198.00
463.719,3145.00
464.722,3308.00
465.725,3072.00
466.727,2939.00
467.730,3237.00
468.732,2902.00
469.735,3488.00
470.737,3052.00
471.737,3022.00
472.739,3031.00
473.741,2941.00
474.742,3172.00
475.744,3213.00
476.746,3156.00
477.747,3118.00
478.748,3299.00
479.750,3093.00
480.751,3118.00
481.752,3965.00
482.753,3257.00
483.751,3735.00
484.752,2750.00
485.753,3092.00
486.753,2971.00
487.753,3135.00
488.754,3598.00
489.754,2852.00
490.754,3488.00
491.754,3306.00
492.754,2834.00
493.753,3197.00
494.753,3049.00
495.752,3477.00
496.752,3196.00
497.749,3141.00
498.748,3007.00
499.747,3575.00
500.746,3239.00
501.745,2864.00
502.744,2894.00
503.742,3515.00
504.741,3070.00
505.739,2555.00
506.737,3065.00
507.735,3304.00
508.734,3495.00
509.732,3316.00
510.729,3527.00
511.727,2999.00
512.725,3020.00
513.720,2918.00
514.718,3360.00
515.715,2791.00
516.712,2791.00
517.709,3093.00
518.706,2997.00
519.703,3205.00
520.700,3323.00
521.696,3526.00
522.693,3059.00
523.689,2943.00
524.686,3310.00
525.682,2923.00
526.678,3644.00
527.674,3047.00
528.670,2659.00
529.666,3705.00
530.661,3659.00
531.657,3805.00
532.652,3286.00
533.648,3131.00
534.641,3382.00
535.636,3190.00
536.631,3247.00
537.626,3297.00
538.621,2871.00
539.616,2708.00
540.610,2657.00
541.605,3147.00
542.599,3202.00
543.593,3123.00
544.587,4117.00
545.581,2934.00
546.575,3202.00
547.569,3165.00
548.563,2850.00
549.557,2783.00
550.550,2881.00
551.543,2873.00
552.537,3299.00
553.530,2881.00
554.523,2891.00
555.516,3235.00
556.509,3055.00
557.502,2742.00
558.494,3323.00
559.487,2998.00
560.479,3303.00
561.472,3423.00
562.464,3320.00
563.456,3463.00
564.448,3088.00
565.440,3126.00
566.432,3571.00
567.423,3037.00
568.415,2994.00
569.404,3245.00
570.396,2928.00
571.387,3263.00
572.378,3179.00
573.369,4121.00
574.360,3859.00
575.351,3089.00
576.341,2959.00
577.332,2995.00
578.323,2819.00
579.313,3019.00
580.303,3423.00
581.293,3275.00
582.283,3090.00
583.273,3267.00
584.263,3178.00
585.253,3246.00
586.243,3311.00
587.232,2769.00
588.222,3102.00
589.211,3288.00
590.200,3204.00
591.189,3094.00
592.178,3082.00
593.167,3581.00
594.156,3412.00
595.145,3009.00
596.133,3625.00
597.122,3248.00
598.110,3319.00
599.098,3213.00
600.086,3154.00
601.074,3311.00
602.062,2969.00
603.050,2830.00
604.038,3263.00
605.025,2929.00
606.013,3326.00
607.000,3550.00
607.987,3153.00
608.975,3175.00
609.962,2899.00
610.949,3265.00
611.936,3433.00
612.922,3346.00
613.909,2814.00
614.895,3506.00
615.882,2979.00
616.868,3155.00
617.854,2872.00
618.841,3148.00
619.826,3269.00
620.812,3166.00
621.798,2907.00
622.784,3333.00
623.769,3224.00
624.755,2854.00
625.740,3217.00
626.725,2850.00
627.711,2999.00
628.698,3253.00
629.683,2916.00
630.667,3354.00
631.652,2852.00
632.637,3078.00
633.621,3322.00
634.606,3044.00
635.590,3272.00
636.574,3068.00
637.558,3209.00
638.542,3197.00
639.526,2997.00
640.510,2729.00
641.493,3197.00
642.477,3134.00
643.460,2842.00
644.444,3399.00
645.427,3387.00
646.410,2810.00
647.393,3085.00
648.376,3216.00
649.359,3035.00
650.341,3259.00
651.324,3209.00
652.307,3175.00
653.289,3109.00
654.271,3026.00
655.253,3054.00
656.235,3258.00
657.217,3359.00
658.199,2719.00
659.181,2901.00
660.163,3112.00
661.144,3008.00
662.126,3003.00
663.107,2930.00
664.088,4902.00
665.069,3385.00
666.050,2936.00
667.033,2871.00
668.014,3212.00
668.995,2688.00
669.975,3119.00
670.956,3117.00
671.936,3270.00
672.916,3092.00
673.896,3253.00
674.876,3022.00
675.856,2974.00
676.836,2841.00
677.816,2424.00
678.795,2951.00
679.775,2812.00
680.754,3181.00
681.734,3315.00
682.713,3340.00
683.692,2895.00
684.671,2752.00
685.650,2859.00
686.629,3003.00
687.607,2853.00
688.586,2858.00
689.564,2969.00
690.543,3398.00
691.523,2478.00
692.501,2942.00
693.479,3061.00
694.457,2918.00
695.435,2980.00
696.413,2756.00
697.390,2613.00
698.368,2810.00
699.345,3233.00
700.322,3084.00
701.300,3208.00
702.277,3190.00
703.254,3428.00
704.231,2675.00
705.207,3052.00
706.184,2948.00
707.161,2796.00
708.137,2948.00
709.113,2915.00
710.090,2924.00
711.068,2700.00
712.044,2729.00
713.020,3017.00
713.996,2758.00
714.971,2928.00
715.947,2960.00
716.922,2979.00
717.898,2858.00
718.873,3037.00
719.848,2880.00
720.823,2761.00
721.798,3127.00
722.773,2853.00
723.748,2631.00
724.723,3176.00
725.697,2998.00
726.672,2874.00
727.646,2603.00
728.622,3158.00
729.596,2729.00
730.570,2872.00
731.544,3193.00
732.518,3418.00
733.492,2952.00
734.466,2954.00
735.439,3109.00
736.413,3234.00
737.386,2516.00
738.359,2548.00
739.332,2605.00
740.305,2947.00
741.278,3436.00
742.251,3052.00
743.224,2873.00
744.196,2651.00
745.171,3282.00
746.143,3149.00
747.115,2873.00
748.087,2818.00
749.059,3250.00
750.031,3000.00
751.003,3815.00
751.975,3406.00
752.947,2837.00
753.918,3209.00
754.890,2685.00
755.861,2903.00
756.832,3168.00
757.803,2942.00
758.774,2962.00
759.747,2694.00
760.718,3383.00
761.689,2833.00
762.659,2693.00
763.630,3309.00
764.600,2649.00
765.570,3190.00
766.540,3262.00
767.510,3051.00
768.480,3154.00
769.450,2839.00
770.420,2949.00
771.390,2768.00
772.359,2874.00
773.329,2764.00
774.300,2611.00
775.269,2838.00
776.238,3145.00
777.207,3297.00
778.176,2628.00
779.145,2895.00
780.114,2813.00
781.083,2695.00
782.051,2854.00
783.019,2784.00
783.988,3234.00
784.956,2946.00
785.924,3110.00
786.894,3004.00
787.862,2808.00
788.830,3252.00
789.797,2749.00
790.765,2677.00
791.732,2892.00
792.700,2776.00
793.667,2721.00
794.634,2882.00
795.601,2863.00
796.568,2872.00
797.535,2933.00
798.502,3599.00
799.468,3001.00
800.437,2527.00
801.403,2749.00
802.370,3406.00
803.336,3111.00
804.302,2983.00
805.268,2574.00
806.234,2654.00
807.200,2848.00
808.166,2947.00
809.131,2691.00
810.097,3121.00
811.062,3820.00
812.027,3140.00
812.994,2682.00
813.960,2702.00
814.925,3082.00
815.889,2617.00
816.854,3173.00
817.819,2756.00
818.783,2852.00
819.748,3233.00
820.712,2807.00
821.677,2722.00
822.641,2781.00
823.605,2837.00
824.571,3294.00
825.534,2847.00
826.498,2792.00
827.462,2922.00
828.425,2755.00
829.389,3217.00
830.352,2923.00
831.315,3020.00
832.279,2621.00
833.242,2891.00
834.204,2746.00
835.167,2774.00
836.132,3212.00
837.095,2587.00
838.057,2803.00
839.020,2921.00
839.982,2969.00
840.944,2809.00
841.906,2766.00
842.868,3070.00
843.830,2651.00
844.792,3202.00
845.753,2827.00
846.715,2525.00
847.679,2672.00
848.640,2714.00
849.601,2885.00
850.562,3447.00
851.523,2811.00
852.484,2593.00
853.445,3149.00
854.406,2819.00
855.367,2826.00
856.327,3131.00
857.288,2567.00
858.248,2807.00
859.210,2758.00
860.170,2620.00
861.130,3111.00
862.090,2470.00
863.050,2682.00
864.010,2761.00
864.969,2980.00
865.929,2687.00
866.888,2616.00
867.848,2928.00
868.807,2746.00
869.766,2976.00
870.727,2846.00
871.686,3133.00
872.645,3129.00
873.604,3444.00
874.562,2873.00
875.521,2869.00
876.479,3506.00
877.437,2679.00
878.396,2693.00
879.354,3291.00
880.312,2683.00
881.270,2769.00
882.229,3207.00
883.187,2750.00
884.145,2770.00
885.102,3107.00
886.059,2951.00
887.017,3007.00
887.974,3145.00
888.931,3180.00
889.888,2615.00
890.845,2534.00
891.802,2435.00
892.758,2746.00
893.717,2545.00
894.673,2650.00
895.630,2752.00
896.586,3007.00
897.542,2825.00
898.498,2634.00
899.454,2965.00
900.410,2760.00
901.366,2770.00
902.321,2739.00
903.277,2796.00
904.232,2878.00
905.189,2573.00
906.145,2728.00
907.100,2299.00
908.055,2788.00
909.010,3032.00
909.965,2423.00
910.919,2900.00
911.874,2678.00
912.828,2864.00
913.783,2948.00
914.737,2427.00
915.693,2872.00
916.648,2993.00
917.602,3085.00
918.555,2889.00
919.509,2966.00
920.463,2841.00
921.417,2831.00
922.370,2687.00
923.324,2763.00
924.277,2732.00
925.230,2858.00
926.183,2491.00
927.138,2771.00
928.091,3055.00
929.044,2921.00
929.996,2768.00
930.949,2735.00
931.902,2942.00
932.854,2947.00
933.806,2671.00
934.758,3069.00
935.711,3126.00
936.663,2844.00
937.614,2922.00
938.568,2826.00
939.520,2459.00
940.471,2820.00
941.423,2860.00
942.374,3001.00
943.326,2857.00
944.277,2670.00
945.228,2941.00
946.179,2741.00
947.130,3170.00
948.080,2762.00
949.031,2656.00
949.984,2766.00
950.934,2818.00
951.884,2552.00
952.835,2808.00
953.785,2849.00
954.735,2688.00
955.685,2457.00
956.635,2705.00
957.585,2732.00
958.534,2727.00
959.484,2864.00
960.433,2723.00
961.383,2546.00
962.334,3101.00
963.283,2887.00
964.232,2977.00
965.181,2822.00
966.130,2889.00
967.079,2719.00
968.027,2863.00
968.976,2819.00
969.924,2737.00
970.873,2906.00
971.821,2822.00
972.769,3030.00
973.719,2967.00
974.667,2559.00
975.615,2821.00
976.562,2856.00
977.510,2533.00
978.458,2682.00
979.405,2962.00
980.352,2855.00
981.300,3029.00
982.247,2910.00
983.194,2644.00
984.141,2697.00
985.088,2859.00
986.036,2886.00
986.983,3137.00
987.930,3261.00
988.876,2459.00
989.822,3075.00
990.769,2665.00
991.715,2687.00
992.661,2563.00
993.607,2891.00
994.553,3402.00
995.498,2678.00
996.444,2366.00
997.389,2882.00
998.337,2610.00
999.282,3000.00
1000.227,2741.00
1001.173,2820.00
1002.118,2521.00
1003.062,3016.00
1004.007,2788.00
1004.952,3143.00
1005.897,3065.00
1006.841,2831.00
1007.786,2545.00
1008.730,2513.00
1009.674,3286.00
1010.618,2771.00
1011.564,2563.00
1012.508,2510.00
1013.452,3063.00
1014.396,2845.00
1015.339,2678.00
1016.283,2803.00
1017.226,2837.00
1018.170,2803.00
1019.113,2986.00
1020.056,2816.00
1020.999,2818.00
1021.942,2703.00
1022.885,2967.00
1023.828,3136.00
1024.770,2580.00
1025.715,2849.00
1026.657,2799.00
1027.600,2863.00
1028.542,3065.00
1029.484,2865.00
1030.426,2943.00
1031.368,2911.00
1032.310,2703.00
1033.251,2598.00
1034.193,2775.00
1035.135,2571.00
1036.076,2703.00
1037.017,2667.00
1037.959,2929.00
1038.900,2846.00
1039.843,2915.00
1040.784,2859.00
1041.725,2906.00
1042.665,2730.00
1043.606,2892.00
1044.547,2823.00
1045.487,2458.00
1046.427,2780.00
1047.368,2844.00
1048.308,2297.00
1049.248,2618.00
1050.188,2828.00
1051.128,2693.00
1052.067,2756.00
1053.007,2510.00
1053.947,2453.00
1054.886,2648.00
1055.827,2566.00
1056.766,3084.00
1057.706,2548.00
1058.645,2762.00
1059.584,2824.00
1060.522,3084.00
1061.461,2532.00
1062.400,2549.00
1063.338,2716.00
1064.277,2588.00
1065.215,2608.00
1066.154,2489.00
1067.092,2691.00
1068.030,2708.00
1068.968,2968.00
1069.906,3112.00
1070.843,3067.00
1071.781,2826.00
1072.720,2921.00
1073.658,2928.00
1074.595,2692.00
1075.533,2630.00
1076.470,2673.00
1077.407,3086.00
1078.344,2841.00
1079.281,2916.00
1080.217,2381.00
1081.154,2774.00
1082.091,2825.00
1083.027,2526.00
1083.964,3025.00
1084.900,2638.00
1085.836,2672.00
1086.772,2994.00
1087.708,2553.00
1088.644,2931.00
1089.580,2752.00
1090.515,2861.00
1091.451,2672.00
1092.388,2803.00
1093.324,2518.00
1094.259,3328.00
1095.194,2830.00
1096.129,2724.00
1097.064,2655.00
1097.999,2937.00
1098.934,2613.00
1099.869,2625.00
1100.803,2816.00
1101.738,2819.00
1102.672,2486.00
1103.607,2882.00
1104.541,2638.00
1105.475,2640.00
1106.409,2511.00
1107.343,2704.00
1108.277,2501.00
1109.210,2796.00
1110.144,2761.00
1111.078,2799.00
1112.011,2536.00
1112.944,2862.00
1113.878,2877.00
1114.811,2259.00
1115.744,2666.00
1116.678,2372.00
1117.611,2648.00
1118.544,2679.00
1119.477,2827.00
1120.409,2640.00
1121.342,3257.00
1122.274,2829.00
1123.206,3130.00
1124.138,2746.00
1125.070,3081.00
1126.002,2959.00
1126.934,2367.00
1127.866,2676.00
1128.798,2420.00
1129.729,2447.00
1130.661,2739.00
1131.592,2654.00
1132.523,2808.00
1133.454,2857.00
1134.385,2370.00
1135.317,2759.00
1136.247,2648.00
1137.178,2952.00
1138.109,2443.00
1139.039,3125.00
1139.970,2915.00
1140.900,2660.00
1141.831,2441.00
1142.761,2311.00
1143.691,2859.00
1144.621,2771.00
1145.551,2817.00
1146.480,2814.00
1147.410,2962.00
1148.340,2387.00
1149.269,2466.00
1150.199,2722.00
1151.128,3144.00
1152.057,2557.00
1152.979,2690.00
1153.898,2708.00
1154.819,2844.00
1155.739,2753.00
1156.658,2638.00
1157.579,2765.00
1158.498,2749.00
1159.419,2289.00
1160.338,2746.00
1161.256,2805.00
1162.177,2623.00
1163.095,2690.00
1164.016,2810.00
1164.934,2989.00
1165.852,2934.00
1166.772,2694.00
1167.690,2737.00
1168.610,2824.00
1169.528,2739.00
1170.446,2236.00
1171.365,2680.00
1172.283,2606.00
1173.202,2697.00
1174.120,2799.00
1175.037,2576.00
1175.956,2532.00
1176.873,2580.00
1177.792,2611.00
1178.709,3258.00
1179.626,2645.00
1180.544,2961.00
1181.461,2596.00
1182.379,2831.00
1183.296,2732.00
1184.212,2358.00
1185.130,2559.00
1186.046,3093.00
1186.962,2707.00
1187.880,2973.00
1188.796,2796.00
1189.714,2514.00
1190.629,2887.00
1191.545,2827.00
1192.462,2642.00
1193.378,2700.00
1194.295,2412.00
1195.210,2759.00
1196.125,2890.00
1197.042,2820.00
1197.957,2744.00
1198.872,2577.00
1199.788,2627.00
1200.703,3076.00
1201.619,2728.00
1202.534,2581.00
1203.448,2838.00
1204.364,2639.00
1205.278,2385.00
1206.192,2753.00
1207.108,3254.00
1208.022,3117.00
1208.938,2571.00
1209.851,2930.00
1210.765,2967.00
1211.680,2620.00
1212.594,2479.00
1213.507,2651.00
1214.422,3132.00
1215.335,2866.00
1216.248,2676.00
1217.163,2715.00
1218.076,3294.00
1218.990,2857.00
1219.903,2500.00
1220.816,2553.00
1221.730,2711.00
1222.642,2600.00
1223.554,2646.00
1224.469,2804.00
1225.380,2698.00
1226.292,2335.00
1227.206,2864.00
1228.118,3080.00
1229.032,2333.00
1229.943,2581.00
1230.855,2706.00
1231.768,2457.00
1232.679,2800.00
1233.590,2686.00
1234.503,2970.00
1235.414,2572.00
1236.325,2578.00
1237.238,2785.00
1238.149,2801.00
1239.059,2533.00
1239.972,2889.00
1240.882,2512.00
1241.793,2863.00
1242.705,3110.00
1243.615,2702.00
1244.525,2775.00
1245.437,2281.00
1246.347,2767.00
1247.259,2896.00
1248.168,3192.00
1249.078,2971.00
1249.989,2995.00
1250.899,2527.00
1251.808,2577.00
1252.719,2625.00
1253.628,2586.00
1254.537,3151.00
1255.448,2514.00
1256.357,2543.00
1257.266,2722.00
1258.176,2425.00
1259.085,2422.00
1259.993,2508.00
1260.904,2591.00
1261.812,2524.00
1262.720,3218.00
1263.630,2876.00
1264.538,2572.00
1265.446,2847.00
1266.356,2713.00
1267.263,3008.00
1268.171,2541.00
1269.080,2749.00
1269.988,2899.00
1270.895,2634.00
1271.804,2697.00
1272.711,2903.00
1273.619,2898.00
1274.527,2539.00
1275.434,2837.00
1276.341,2527.00
1277.248,2715.00
1278.156,3032.00
1279.063,2563.00
1279.969,2826.00
1280.877,3646.00
1281.783,2946.00
1282.690,2777.00
1283.598,2726.00
1284.503,2541.00
1285.409,2568.00
1286.317,3125.00
1287.223,3142.00
1288.128,2808.00
1289.036,2591.00
1289.941,2637.00
1290.846,2726.00
1291.751,2505.00
1292.658,2681.00
1293.563,3179.00
1294.468,2759.00
1295.375,2901.00
1296.280,2990.00
1297.184,3455.00
1298.091,2823.00
1298.995,2886.00
1299.900,3083.00
1300.806,2616.00
1301.710,2454.00
1302.614,2278.00
1303.518,2957.00
1304.424,2659.00
1305.327,2952.00
1306.231,2708.00
1307.137,2889.00
1308.040,2759.00
1308.943,2746.00
1309.847,2948.00
1310.752,2928.00
1311.655,2410.00
1312.558,2510.00
1313.463,2657.00
1314.366,2616.00
1315.269,2764.00
1316.171,2725.00
1317.076,2632.00
1317.978,2546.00
1318.881,2348.00
1319.785,2616.00
1320.687,2594.00
1321.589,2313.00
1322.491,2516.00
1323.395,2841.00
1324.297,3324.00
1325.198,2841.00
1326.102,2499.00
1327.004,2528.00
1327.905,3122.00
1328.806,2704.00
1329.709,2790.00
1330.611,2646.00
1331.512,2545.00
1332.413,3189.00
1333.316,2785.00
1334.216,2920.00
1335.117,2488.00
1336.020,2755.00
1336.920,2715.00
1337.821,2583.00
1338.721,3001.00
1339.623,2812.00
1340.523,2666.00
1341.423,2586.00
1342.323,2999.00
1343.225,2799.00
1344.125,2568.00
1345.025,2608.00
1345.924,2373.00
1346.826,3059.00
1347.725,3118.00
1348.624,3017.00
1349.524,2580.00
1350.425,2683.00
1351.324,2810.00
1352.223,2901.00
1353.121,2670.00
1354.022,2916.00
1354.921,3159.00
1355.819,2852.00
1356.718,2763.00
1357.618,2504.00
1358.516,2852.00
1359.415,3115.00
1360.313,2796.00
1361.213,2674.00
1362.111,3052.00
1363.008,3397.00
1363.906,2707.00
1364.806,2744.00
1365.703,2805.00
1366.601,2564.00
1367.498,2531.00
1368.397,2927.00
1369.295,2776.00
1370.192,2542.00
1371.089,2801.00
1371.987,2699.00
1372.884,3018.00
1373.781,2488.00
1374.678,2733.00
1375.574,2571.00
1376.473,2847.00
1377.369,2937.00
1378.265,2536.00
1379.161,2719.00
1380.059,2422.00
1380.955,2847.00
1381.851,2503.00
1382.747,2601.00
1383.643,2690.00
1384.540,2524.00
1385.436,2615.00
1386.331,2794.00
1387.227,2899.00
1388.124,2829.00
1389.019,2525.00
1389.914,2715.00
1390.809,2377.00
1391.704,3178.00
1392.601,2630.00
1393.495,3035.00
1394.390,2870.00
1395.285,2955.00
1396.179,2816.00
1397.075,2724.00
1397.969,2743.00
1398.864,2392.00
1399.758,2678.00
1400.652,2752.00
1401.547,2540.00
1402.441,2539.00
1403.335,3120.00
1404.229,2760.00
1405.122,2789.00
1406.017,2709.00
1406.911,2871.00
1407.804,3173.00
1408.697,2756.00
1409.590,2555.00
1410.485,2959.00
1411.378,2822.00
1412.271,2439.00
1413.163,2797.00
1414.056,2883.00
1414.949,3126.00
1415.843,2773.00
1416.735,2686.00
1417.627,2770.00
1418.520,2670.00
1419.412,2981.00
1420.306,2862.00
1421.197,3017.00
1422.089,2936.00
1422.981,3237.00
1423.873,2950.00
1424.764,2832.00
1425.657,2786.00
1426.549,2861.00
1427.440,2958.00
1428.331,2648.00
1429.222,2417.00
1430.113,2788.00
1431.006,2903.00
1431.897,2645.00
1432.787,2776.00
1433.678,2654.00
1434.568,2545.00
1435.459,2990.00
1436.351,2930.00
1437.241,2884.00
1438.131,2896.00
1439.021,2491.00
1439.911,2705.00
1440.801,2809.00
1441.693,2993.00
1442.583,2756.00
1443.472,2727.00
1444.362,2854.00
1445.251,2666.00
1446.140,2646.00
1447.030,2941.00
1447.921,2939.00
1448.810,2572.00
1449.699,3132.00
1450.588,2788.00
1451.476,2630.00
1452.365,2867.00
1453.254,2652.00
1454.144,2636.00
1455.032,2876.00
1455.921,2477.00
1456.809,3066.00
1457.697,2537.00
1458.585,2712.00
1459.473,2689.00
1460.361,2590.00
1461.251,2832.00
1462.138,2859.00
1463.026,2724.00
1463.913,2982.00
1464.801,2648.00
1465.688,2820.00
1466.575,2763.00
1467.463,3229.00
1468.351,2597.00
1469.238,2685.00
1470.125,2373.00
1471.012,2774.00
1471.899,2862.00
1472.785,2558.00
1473.672,2775.00
1474.558,2986.00
1475.446,2905.00
1476.333,2904.00
1477.219,2537.00
1478.105,2751.00
1478.991,2709.00
1479.877,3055.00
1480.762,2756.00
1481.648,2595.00
1482.534,2894.00
1483.419,2855.00
1484.307,2879.00
1485.192,2757.00
1486.077,2590.00
1486.962,2656.00
1487.847,2486.00
1488.732,2582.00
1489.617,2730.00
1490.502,3048.00
1491.387,2904.00
1492.271,2564.00
1493.156,2605.00
1494.042,2561.00
1494.927,2961.00
1495.811,2645.00
1496.695,2940.00
1497.579,3067.00
1498.463,2734.00
1499.347,2782.00
1500.231,2771.00
1501.114,2816.00
1501.998,3042.00
1502.881,2800.00
1503.765,3036.00
1504.648,3155.00
1505.533,2852.00
1506.417,2732.00
1507.300,2737.00
1508.183,2797.00
1509.066,2231.00
1509.948,3012.00
1510.831,3092.00
1511.714,2538.00
1512.596,2903.00
1513.479,3019.00
1514.361,2973.00
1515.243,2797.00
1516.125,2913.00
1517.008,3063.00
1517.890,2743.00
1518.771,2774.00
1519.655,2979.00
1520.537,2694.00
1521.419,2611.00
1522.300,2803.00
1523.182,2925.00
1524.063,2942.00
1524.944,3060.00
1525.825,2954.00
1526.707,2578.00
1527.588,2575.00
1528.468,2821.00
1529.349,2408.00
1530.230,2669.00
1531.111,2941.00
1531.991,2851.00
1532.872,2430.00
1533.752,2788.00
1534.632,2611.00
1535.513,2594.00
1536.393,2910.00
1537.273,3093.00
1538.153,3408.00
1539.032,2502.00
1539.912,2749.00
1540.792,2777.00
1541.672,2806.00
1542.551,2888.00
1543.430,3377.00
1544.310,2762.00
1545.189,2674.00
1546.068,3168.00
1546.947,2869.00
1547.826,3071.00
1548.705,2753.00
1549.584,2985.00
1550.462,2729.00
1551.341,2930.00
1552.219,2839.00
1553.098,2907.00
1553.976,2990.00
1554.854,3190.00
1555.733,2964.00
1556.611,2690.00
1557.489,2579.00
1558.367,2793.00
1559.244,2932.00
1560.122,2748.00
1561.000,2824.00
1561.877,3074.00
1562.755,2634.00
1563.632,2725.00
1564.509,3065.00
1565.386,3136.00
1566.264,2536.00
1567.141,2392.00
1568.017,2955.00
1568.894,2722.00
1569.771,2808.00
1570.648,2869.00
1571.524,2772.00
1572.401,2542.00
1573.277,2508.00
1574.153,2808.00
1575.029,2622.00
1575.906,3553.00
1576.781,2953.00
1577.657,2757.00
1578.533,3028.00
1579.409,2389.00
1580.285,2723.00
1581.160,3227.00
1582.036,2974.00
1582.911,2588.00
1583.786,3126.00
1584.662,2547.00
1585.537,2710.00
1586.412,2824.00
1587.287,2628.00
1588.160,2949.00
1589.035,2439.00
1589.909,2756.00
1590.784,2740.00
1591.658,2576.00
1592.533,2818.00
1593.407,2807.00
1594.281,2657.00
1595.155,3185.00
1596.029,2720.00
1596.903,2764.00
1597.777,2731.00
1598.651,3082.00
1599.525,2482.00
1600.398,2768.00
1601.272,2700.00
1602.144,3366.00
1603.017,2736.00
1603.890,3033.00
1604.763,2881.00
1605.636,2909.00
1606.509,2473.00
1607.382,2580.00
1608.255,2858.00
1609.128,2966.00
1610.000,2742.00
1610.873,2482.00
1611.746,2665.00
1612.616,2733.00
1613.488,2357.00
1614.361,2760.00
1615.233,2729.00
1616.105,3011.00
1616.977,2698.00
1617.849,2602.00
1618.720,3116.00
1619.592,3050.00
1620.464,2831.00
1621.333,3249.00
1622.205,2781.00
1623.076,2756.00
1623.947,2760.00
1624.818,3030.00
1625.689,2926.00
1626.560,2726.00
1627.431,2820.00
1628.302,3156.00
1629.171,2897.00
1630.042,3093.00
1630.912,3797.00
1631.782,3364.00
1632.653,2564.00
1633.523,2967.00
1634.393,3014.00
1635.263,2638.00
1636.131,2752.00
1637.001,2688.00
1637.871,2414.00
1638.741,2381.00
1639.611,2505.00
1640.480,2909.00
1641.350,2640.00
1642.219,2581.00
1643.087,2271.00
1643.956,3246.00
1644.825,3058.00
1645.694,2996.00
1646.563,2943.00
1647.432,2791.00
1648.299,2833.00
1649.167,2896.00
1650.036,2624.00
1650.904,2907.00
1651.773,3018.00
1652.641,2778.00
1653.509,2972.00
1654.376,2645.00
1655.244,2830.00
1656.112,2813.00
1656.980,2812.00
1657.847,2629.00
1658.715,2990.00
1659.581,2685.00
1660.448,3015.00
1661.316,2256.00
1662.183,2803.00
1663.051,2804.00
1663.918,2822.00
1664.783,2803.00
1665.650,2873.00
1666.517,2939.00
1667.384,2840.00
1668.251,2849.00
1669.115,3047.00
1669.982,2750.00
1670.849,3082.00
1671.715,2776.00
1672.581,2930.00
1673.446,2895.00
1674.312,2785.00
1675.178,3237.00
1676.044,2925.00
1676.910,2852.00
1677.774,2827.00
1678.639,2442.00
1679.505,2770.00
1680.370,2934.00
1681.236,3436.00
1682.099,2758.00
1682.965,2809.00
1683.830,2392.00
1684.695,2581.00
1685.560,2704.00
1686.423,2896.00
1687.288,2927.00
1688.153,2844.00
1689.017,2699.00
1689.880,2929.00
1690.745,2960.00
1691.609,2602.00
1692.473,2948.00
1693.338,2983.00
1694.200,3071.00
1695.064,2816.00
1695.928,2701.00
1696.792,2821.00
1697.654,3298.00
1698.517,2830.00
1699.381,2537.00
1700.245,2435.00
1701.106,3115.00
1701.969,2704.00
1702.833,2940.00
1703.696,2694.00
1704.557,2762.00
1705.420,2647.00
1706.283,2872.00
1707.146,2937.00
1708.007,2564.00
1708.870,2624.00
1709.732,2466.00
1710.595,2676.00
1711.455,2542.00
1712.318,2757.00
1713.180,3081.00
1714.040,2825.00
1714.902,3037.00
1715.764,2825.00
1716.626,2598.00
1717.486,2807.00
1718.348,3087.00
1719.209,4239.00
1720.071,2458.00
1720.930,2557.00
1721.792,2643.00
1722.653,2626.00
1723.512,2670.00
1724.374,2756.00
1725.234,2879.00
1726.095,2839.00
1726.954,2788.00
1727.815,2996.00
1728.676,2793.00
1729.535,3015.00
1730.395,2763.00
1731.256,2708.00
1732.114,2828.00
1732.974,2266.00
1733.834,3190.00
1734.693,2966.00
1735.553,2848.00
1736.413,3220.00
1737.272,2708.00
1738.130,2737.00
1738.990,2880.00
1739.849,2692.00
1740.707,3821.00
1741.566,2853.00
1742.426,2870.00
1743.283,3197.00
1744.142,2684.00
1745.001,2463.00
1745.858,2986.00
1746.717,2868.00
1747.576,2887.00
1748.433,2937.00
1749.292,3435.00
1750.150,3465.00
1751.007,2973.00
1751.865,3079.00
1752.723,2834.00
1753.579,2718.00
1754.438,3038.00
1755.296,3047.00
1756.152,2371.00
1757.010,2465.00
1757.865,3004.00
1758.723,2444.00
1759.581,3135.00
1760.436,2775.00
1761.294,3163.00
1762.151,2797.00
1763.006,2769.00
1763.864,2426.00
1764.721,3015.00
1765.576,2858.00
1766.433,2994.00
1767.288,2702.00
1768.144,2873.00
1769.001,2762.00
1769.856,2908.00
1770.712,3045.00
1771.568,2584.00
1772.423,2658.00
1773.279,2721.00
1774.133,2709.00
1774.989,3239.00
1775.845,3204.00
1776.699,3081.00
1777.555,2779.00
1778.409,3346.00
1779.265,2754.00
1780.120,2752.00
1780.974,2802.00
1781.829,2422.00
1782.682,2860.00
1783.538,2636.00
1784.393,2852.00
1785.246,2705.00
1786.101,2888.00
1786.954,2945.00
1787.808,3076.00
1788.661,2485.00
1789.516,2727.00
1790.370,2765.00
1791.223,3006.00
1792.077,2777.00
1792.930,2918.00
1793.784,2723.00
1794.636,2835.00
1795.490,2744.00
1796.344,2835.00
1797.196,2848.00
1798.049,2986.00
1798.901,2711.00
1799.755,3065.00
1800.606,2591.00
1801.460,3352.00
1802.311,3144.00
1803.165,3238.00
1804.018,3171.00
1804.869,2911.00
1805.722,3313.00
1806.573,2837.00
1807.426,2616.00
1808.276,2795.00
1809.129,2714.00
1809.980,3038.00
1810.832,3123.00
1811.683,2740.00
1812.535,3171.00
1813.385,2737.00
1814.237,3109.00
1815.089,2859.00
1815.940,3125.00
1816.791,2774.00
1817.641,2695.00
1818.493,2970.00
1819.343,2907.00
1820.194,2695.00
1821.044,2936.00
1821.895,3071.00
1822.745,2528.00
1823.596,2711.00
1824.445,3270.00
1825.296,2936.00
1826.145,2795.00
1826.996,3004.00
1827.845,2862.00
1828.695,2872.00
1829.544,2792.00
1830.395,2843.00
1831.243,2737.00
1832.094,2572.00
1832.942,3456.00
1833.792,2965.00
1834.640,2914.00
1835.490,2826.00
1836.338,2897.00
1837.186,2724.00
1838.036,2679.00
1838.884,2769.00
1839.733,3133.00
1840.581,2995.00
1841.430,2933.00
1842.278,3166.00
1843.127,2727.00
1843.974,2494.00
1844.823,3278.00
1845.671,2974.00
1846.519,2865.00
1847.366,2858.00
1848.213,2477.00
1849.062,2636.00
1849.909,2561.00
1850.757,3510.00
1851.604,2928.00
1852.452,2719.00
1853.298,3017.00
1854.146,2863.00
1854.993,2897.00
1855.839,3384.00
1856.687,2890.00
1857.532,2915.00
1858.380,2811.00
1859.226,2882.00
1860.073,2981.00
1860.919,2629.00
1861.765,2702.00
1862.612,3079.00
1863.457,3060.00
1864.304,2818.00
1865.150,2946.00
1865.995,2833.00
1866.842,2951.00
1867.686,3096.00
1868.533,2912.00
1869.378,2877.00
1870.223,2871.00
1871.069,2694.00
1871.914,2880.00
1872.760,2852.00
1873.604,2614.00
1874.448,3006.00
1875.294,3000.00
1876.139,2728.00
1876.984,2929.00
1877.828,2465.00
1878.672,2332.00
1879.518,2733.00
1880.361,3044.00
1881.205,2994.00
1882.050,2627.00
1882.894,3369.00
1883.739,2686.00
1884.582,2568.00
1885.425,2672.00
1886.270,3079.00
1887.113,2534.00
1887.956,2932.00
1888.801,2896.00
1889.644,2629.00
1890.486,2414.00
1891.331,2744.00
1892.173,2884.00
1893.017,2917.00
1893.860,3167.00
1894.702,3157.00
1895.546,2856.00
1896.388,3556.00
1897.230,3238.00
1898.074,2722.00
1898.916,2614.00
1899.757,2673.00
1900.601,3540.00
1901.443,3153.00
1902.284,3156.00
1903.125,3352.00
1903.969,3031.00
1904.810,3109.00
1905.651,2983.00
1906.494,3144.00
1907.335,3293.00
1908.176,2982.00
1909.018,2951.00
1909.859,2774.00
1910.700,2704.00
1911.542,3426.00
1912.383,2913.00
1913.223,2479.00
1914.064,2968.00
1914.906,3133.00
1915.746,3229.00
1916.586,3375.00
1917.428,2834.00
1918.268,2880.00
1919.107,2750.00
1919.947,2611.00
1920.789,2774.00
1921.628,3109.00
1922.468,2873.00
1923.309,2665.00
1924.148,3174.00
1924.988,2921.00
1925.827,2847.00
1926.667,2738.00
1927.507,2898.00
1928.345,2645.00
1929.184,3019.00
1930.025,2666.00
1930.864,3096.00
1931.702,3188.00
1932.541,2779.00
1933.381,3006.00
1934.219,2972.00
1935.057,3164.00
1935.896,2516.00
1936.735,2822.00
1937.573,2756.00
1938.411,2649.00
1939.249,2989.00
1940.089,2725.00
1940.927,3105.00
1941.764,3152.00
1942.602,2767.00
1943.439,2731.00
1944.278,2818.00
1945.115,2758.00
1945.953,2597.00
1946.790,2930.00
1947.628,3215.00
1948.465,2984.00
1949.302,2996.00
1950.139,2975.00
1950.976,2741.00
1951.814,2987.00
1952.651,2912.00
1953.487,2641.00
1954.323,3122.00
1955.160,2867.00
1955.998,3250.00
1956.834,2809.00
1957.670,2910.00
1958.506,3089.00
1959.342,2959.00
1960.177,2932.00
1961.015,3023.00
1961.850,2913.00
1962.686,2891.00
1963.521,2911.00
1964.357,3113.00
1965.192,2630.00
1966.029,3006.00
1966.864,2751.00
1967.699,3067.00
1968.534,2934.00
1969.369,3156.00
1970.204,2868.00
1971.040,2938.00
1971.875,2758.00
1972.709,2908.00
1973.544,2761.00
1974.378,2756.00
1975.212,3009.00
1976.047,2785.00
1976.882,2693.00
1977.716,3299.00
1978.550,2568.00
1979.384,2843.00
1980.218,2863.00
1981.052,2791.00
1981.885,2923.00
1982.719,2861.00
1983.554,3031.00
1984.388,3159.00
1985.221,2931.00
1986.054,3138.00
1986.887,2894.00
1987.720,2731.00
1988.553,3206.00
1989.386,2947.00
1990.219,3004.00
1991.053,3205.00
1991.886,2738.00
1992.719,3077.00
1993.551,2358.00
1994.383,3020.00
1995.216,2830.00
1996.048,2552.00
1996.880,3038.00
1997.712,2708.00
1998.544,2852.00
1999.376,2989.00
2000.208,3188.00
2001.040,3308.00
2001.873,2705.00
2002.705,2712.00
2003.536,2898.00
2004.367,2917.00
2005.199,2912.00
2006.030,2762.00
2006.861,2680.00
2007.692,2897.00
2008.523,2742.00
2009.354,2921.00
2010.185,2677.00
2011.016,3013.00
2011.846,3067.00
2012.677,2824.00
2013.507,3207.00
2014.338,3122.00
2015.168,2795.00
2015.999,3402.00
2016.829,2793.00
2017.659,3090.00
2018.489,3449.00
2019.319,2658.00
2020.149,3040.00
2020.980,2914.00
2021.810,2689.00
2022.639,2742.00
2023.469,2777.00
2024.298,2600.00
2025.128,2472.00
2025.957,2510.00
2026.786,2293.00
2027.615,2503.00
2028.444,2692.00
2029.273,2876.00
2030.102,2489.00
2030.931,2726.00
2031.758,3014.00
2032.586,2677.00
2033.415,2697.00
2034.243,2330.00
2035.072,2112.00
2035.900,2601.00
2036.728,2407.00
2037.556,2450.00
2038.385,2472.00
2039.213,2305.00
2040.040,2287.00
2040.868,2235.00
2041.696,2304.00
2042.524,2309.00
2043.351,2462.00
2044.179,2342.00
2045.006,2102.00
