RamanScope Measure Spectrum Data V3.72

<< MEASURE CONDITION >>
Exposure Type,Aver
Exposure Time [sec],15
Exposure Count,30
Measure Time,2023/07/04 15:10:20
Data Name,""
Data Comment,""
Rayleigh Wave[nm],532.0

<< SAMPLE SPECTRUM >>
Wave[dcm-1],No259
146.591,620.60
147.626,706.53
148.664,852.77
149.699,1010.73
150.737,1214.67
151.772,1355.33
152.809,1532.97
153.846,1693.63
154.881,1832.43
155.918,1952.67
156.953,2064.23
157.989,2181.07
159.026,2321.77
160.060,2378.90
161.096,2446.13
162.130,2486.07
163.167,2550.70
164.200,2576.03
165.236,2665.90
166.272,2727.77
167.305,2720.57
168.341,2779.07
169.374,2814.70
170.409,2870.27
171.445,2925.00
172.477,2958.17
173.512,2941.40
174.545,3034.37
175.580,3072.43
176.614,3041.93
177.647,3098.17
178.681,3088.13
179.713,3116.37
180.747,3143.27
181.781,3162.47
182.813,3113.33
183.847,3131.40
184.878,3156.10
185.912,3154.83
186.945,3191.60
187.976,3174.23
189.010,3209.07
190.043,3217.90
191.073,3219.53
192.106,3254.70
193.137,3269.00
194.170,3327.27
195.202,3421.27
196.232,3450.53
197.265,3465.00
198.297,3505.10
199.327,3531.07
200.359,3585.97
201.388,3622.53
202.420,3649.13
203.452,3757.13
204.481,3819.53
205.512,3871.77
206.544,3999.93
207.573,4058.27
208.604,4151.10
209.635,4328.47
210.663,4527.43
211.694,4681.60
212.725,4857.20
213.753,5086.40
214.783,5300.60
215.813,5556.57
216.841,5813.60
217.871,5972.57
218.899,6206.77
219.929,6367.93
220.959,6540.90
221.986,6516.63
223.016,6422.13
224.045,6279.00
225.072,6097.30
226.101,5891.97
227.130,5625.80
228.157,5396.77
229.185,5183.70
230.214,4987.60
231.241,4836.67
232.269,4653.63
233.297,4519.40
234.323,4484.37
235.351,4376.17
236.379,4329.43
237.407,4277.90
238.433,4199.90
239.460,4146.37
240.488,4219.83
241.513,4124.87
242.540,4141.97
243.568,4150.40
244.592,4142.10
245.619,4214.50
246.646,4290.50
247.671,4261.40
248.697,4294.63
249.724,4246.90
250.748,4244.03
251.774,4224.07
252.801,4245.83
253.827,4223.73
254.850,4248.30
255.876,4231.83
256.902,4221.80
257.925,4289.33
258.951,4269.37
259.976,4314.37
260.999,4320.70
262.024,4402.47
263.049,4431.40
264.074,4486.27
265.097,4530.70
266.122,4613.90
267.146,4701.80
268.168,4767.27
269.193,4849.37
270.217,4897.63
271.241,5004.30
272.263,5090.20
273.287,5148.30
274.311,5242.87
275.332,5294.30
276.356,5417.80
277.379,5490.53
278.402,5537.53
279.424,5573.40
280.447,5547.77
281.470,5510.70
282.492,5590.73
283.513,5556.37
284.536,5449.67
285.558,5356.70
286.581,5315.93
287.601,5213.20
288.623,5123.57
289.645,5073.33
290.665,4916.77
291.687,4866.87
292.709,4780.07
293.730,4699.43
294.750,4581.10
295.771,4486.10
296.792,4364.33
297.813,4314.30
298.832,4221.27
299.853,4173.00
300.874,4044.53
301.895,3974.33
302.913,3936.53
303.934,3822.73
304.954,3770.87
305.975,3699.97
306.993,3674.70
308.013,3622.27
309.033,3614.13
310.052,3513.37
311.072,3463.17
312.090,3472.07
313.109,3422.63
314.129,3378.53
315.148,3333.53
316.165,3309.93
317.184,3279.40
318.203,3280.27
319.222,3224.57
320.238,3181.10
321.257,3163.70
322.275,3201.17
323.294,3164.40
324.312,3149.77
325.328,3104.03
326.346,3129.27
327.364,3079.57
328.382,3094.23
329.397,3087.33
330.415,3004.63
331.432,3063.20
332.450,3040.23
333.467,3051.50
334.482,3021.47
335.499,3007.53
336.516,2991.40
337.533,3011.20
338.547,3039.30
339.564,2997.40
340.580,3031.20
341.597,3023.77
342.613,2952.07
343.627,2981.07
344.643,3000.13
345.659,2975.97
346.675,2947.90
347.690,2936.10
348.704,2967.90
349.719,2963.07
350.735,2928.73
351.750,2910.97
352.765,2936.97
353.778,2972.50
354.793,2931.50
355.808,2921.07
356.822,2932.97
357.837,2952.33
358.851,3007.57
359.864,2962.90
360.878,2962.67
361.892,2981.57
362.906,2948.50
363.920,3005.37
364.932,2987.63
365.945,2971.10
366.959,3012.07
367.972,3064.30
368.986,3028.50
369.999,3065.87
371.010,3028.00
372.023,3088.67
373.036,3099.43
374.049,3083.57
375.061,3171.27
376.072,3154.03
377.084,3186.20
378.097,3195.70
379.109,3178.20
380.121,3246.43
381.133,3249.97
382.143,3274.23
383.155,3221.97
384.166,3275.73
385.178,3268.60
386.189,3300.77
387.201,3284.23
388.212,3285.57
389.221,3328.20
390.232,3318.00
391.243,3287.60
392.254,3291.67
393.264,3296.70
394.275,3269.10
395.283,3298.87
396.294,3272.90
397.304,3235.17
398.314,3237.97
399.324,3199.27
400.334,3215.50
401.344,3200.13
402.351,3183.27
403.361,3096.80
404.370,3127.47
405.380,3047.43
406.389,3089.50
407.398,3061.77
408.407,3031.47
409.414,2995.23
410.423,2968.30
411.431,2969.17
412.440,2963.13
413.448,2936.80
414.457,2885.77
415.465,2895.93
416.471,2884.53
417.479,2843.17
418.487,2847.90
419.495,2823.77
420.503,2806.90
421.510,2812.67
422.518,2811.67
423.525,2812.33
424.530,2725.53
425.537,2781.57
426.544,2789.87
427.551,2768.80
428.558,2750.23
429.565,2748.80
430.571,2720.57
431.578,2745.47
432.582,2754.70
433.588,2678.70
434.595,2693.57
435.601,2722.20
436.607,2700.07
437.612,2706.10
438.618,2713.80
439.624,2699.70
440.627,2669.57
441.633,2696.33
442.638,2674.80
443.643,2703.27
444.648,2725.17
445.653,2715.03
446.658,2684.07
447.663,2697.23
448.667,2672.43
449.672,2674.67
450.674,2642.33
451.678,2728.37
452.682,2701.00
453.687,2689.63
454.690,2700.43
455.694,2686.90
456.698,2703.23
457.702,2726.80
458.705,2719.20
459.709,2718.20
460.710,2726.87
461.713,2724.07
462.716,2739.97
463.719,2740.60
464.722,2774.90
465.725,2752.20
466.727,2740.20
467.730,2766.70
468.732,2770.80
469.735,2734.03
470.737,2726.33
471.737,2759.40
472.739,2792.60
473.741,2728.23
474.742,2782.20
475.744,2783.13
476.746,2773.33
477.747,2784.13
478.748,2764.43
479.750,2783.10
480.751,2737.43
481.752,2829.27
482.753,2778.30
483.751,2807.43
484.752,2786.13
485.753,2788.37
486.753,2783.77
487.753,2784.70
488.754,2806.23
489.754,2736.07
490.754,2769.30
491.754,2789.50
492.754,2787.03
493.753,2754.43
494.753,2778.67
495.752,2705.43
496.752,2711.30
497.749,2732.67
498.748,2751.47
499.747,2747.17
500.746,2716.00
501.745,2726.13
502.744,2733.37
503.742,2705.37
504.741,2707.10
505.739,2669.00
506.737,2673.03
507.735,2673.07
508.734,2714.70
509.732,2674.90
510.729,2618.97
511.727,2651.13
512.725,2654.60
513.720,2653.93
514.718,2651.33
515.715,2648.10
516.712,2655.97
517.709,2644.70
518.706,2614.33
519.703,2635.63
520.700,2659.80
521.696,2630.57
522.693,2590.90
523.689,2633.80
524.686,2633.87
525.682,2646.57
526.678,2646.80
527.674,2671.50
528.670,2644.20
529.666,2677.43
530.661,2684.97
531.657,2702.90
532.652,2670.03
533.648,2703.60
534.641,2708.00
535.636,2724.27
536.631,2719.53
537.626,2719.20
538.621,2719.40
539.616,2724.73
540.610,2736.83
541.605,2751.43
542.599,2781.30
543.593,2780.90
544.587,2752.87
545.581,2820.63
546.575,2801.60
547.569,2802.57
548.563,2782.17
549.557,2787.67
550.550,2806.13
551.543,2797.97
552.537,2794.90
553.530,2793.00
554.523,2811.07
555.516,2834.40
556.509,2856.70
557.502,2849.83
558.494,2799.13
559.487,2830.43
560.479,2824.97
561.472,2854.07
562.464,2870.23
563.456,2876.23
564.448,2851.07
565.440,2841.20
566.432,2854.47
567.423,2875.37
568.415,2885.03
569.404,2901.73
570.396,2894.40
571.387,2892.97
572.378,2905.50
573.369,2882.43
574.360,2880.17
575.351,2938.70
576.341,2980.60
577.332,2968.40
578.323,2938.10
579.313,2963.27
580.303,2955.53
581.293,2976.60
582.283,2979.57
583.273,2974.60
584.263,2956.30
585.253,2976.93
586.243,2992.53
587.232,2959.13
588.222,2968.43
589.211,2951.73
590.200,2954.20
591.189,2985.10
592.178,2962.83
593.167,2958.23
594.156,2953.50
595.145,2953.57
596.133,2912.07
597.122,2936.00
598.110,2979.00
599.098,2902.10
600.086,2911.10
601.074,2913.80
602.062,2886.17
603.050,2895.07
604.038,2890.67
605.025,2893.30
606.013,2881.60
607.000,2916.37
607.987,2866.37
608.975,2817.43
609.962,2837.57
610.949,2801.30
611.936,2825.90
612.922,2780.00
613.909,2789.23
614.895,2793.03
615.882,2779.77
616.868,2781.93
617.854,2710.33
618.841,2749.87
619.826,2695.57
620.812,2657.40
621.798,2690.80
622.784,2670.57
623.769,2656.30
624.755,2652.43
625.740,2615.63
626.725,2606.27
627.711,2596.37
628.698,2612.03
629.683,2579.70
630.667,2529.43
631.652,2539.87
632.637,2459.00
633.621,2484.87
634.606,2504.77
635.590,2444.03
636.574,2423.77
637.558,2425.63
638.542,2429.47
639.526,2398.87
640.510,2387.73
641.493,2380.87
642.477,2325.67
643.460,2313.93
644.444,2337.30
645.427,2368.40
646.410,2348.73
647.393,2309.93
648.376,2315.83
649.359,2267.63
650.341,2303.57
651.324,2282.97
652.307,2250.73
653.289,2253.20
654.271,2273.47
655.253,2219.83
656.235,2210.60
657.217,2176.33
658.199,2217.70
659.181,2190.43
660.163,2216.30
661.144,2193.80
662.126,2129.47
663.107,2144.83
664.088,2130.27
665.069,2131.73
666.050,2136.77
667.033,2102.80
668.014,2107.07
668.995,2077.53
669.975,2108.20
670.956,2089.20
671.936,2080.40
672.916,2078.37
673.896,2076.57
674.876,2063.90
675.856,2068.00
676.836,2056.37
677.816,1999.23
678.795,2008.60
679.775,2023.73
680.754,1970.70
681.734,1982.13
682.713,1966.37
683.692,1960.53
684.671,1914.97
685.650,1970.63
686.629,1933.00
687.607,1911.53
688.586,1894.43
689.564,1846.20
690.543,1856.10
691.523,1877.50
692.501,1865.20
693.479,1829.57
694.457,1798.03
695.435,1792.20
696.413,1810.37
697.390,1834.87
698.368,1812.30
699.345,1773.40
700.322,1772.93
701.300,1759.93
702.277,1782.50
703.254,1781.13
704.231,1763.67
705.207,1769.93
706.184,1716.73
707.161,1721.57
708.137,1732.13
709.113,1732.50
710.090,1715.20
711.068,1719.47
712.044,1738.10
713.020,1719.63
713.996,1677.40
714.971,1682.53
715.947,1644.13
716.922,1703.13
717.898,1648.23
718.873,1698.70
719.848,1656.87
720.823,1672.07
721.798,1616.77
722.773,1672.97
723.748,1679.93
724.723,1652.30
725.697,1629.17
726.672,1629.17
727.646,1619.50
728.622,1612.63
729.596,1623.77
730.570,1632.77
731.544,1578.07
732.518,1609.17
733.492,1618.13
734.466,1609.13
735.439,1600.43
736.413,1605.63
737.386,1593.10
738.359,1583.03
739.332,1600.70
740.305,1596.57
741.278,1589.37
742.251,1620.47
743.224,1572.53
744.196,1602.30
745.171,1560.07
746.143,1561.97
747.115,1578.00
748.087,1575.27
749.059,1521.53
750.031,1573.43
751.003,1570.10
751.975,1550.30
752.947,1578.60
753.918,1545.67
754.890,1573.40
755.861,1535.67
756.832,1525.03
757.803,1481.67
758.774,1545.33
759.747,1493.73
760.718,1544.43
761.689,1491.30
762.659,1522.77
763.630,1517.33
764.600,1533.93
765.570,1549.20
766.540,1481.93
767.510,1524.13
768.480,1506.50
769.450,1509.47
770.420,1514.77
771.390,1515.70
772.359,1495.27
773.329,1494.90
774.300,1498.53
775.269,1454.63
776.238,1492.67
777.207,1478.13
778.176,1460.37
779.145,1483.93
780.114,1474.07
781.083,1476.93
782.051,1452.93
783.019,1435.80
783.988,1478.47
784.956,1432.57
785.924,1452.97
786.894,1425.43
787.862,1469.23
788.830,1432.10
789.797,1421.50
790.765,1428.30
791.732,1427.97
792.700,1435.60
793.667,1427.90
794.634,1415.93
795.601,1451.30
796.568,1397.97
797.535,1383.23
798.502,1370.97
799.468,1364.00
800.437,1404.50
801.403,1398.23
802.370,1388.70
803.336,1342.43
804.302,1341.23
805.268,1329.77
806.234,1352.77
807.200,1318.43
808.166,1368.83
809.131,1351.80
810.097,1343.33
811.062,1365.13
812.027,1328.70
812.994,1329.37
813.960,1345.77
814.925,1320.93
815.889,1321.13
816.854,1325.30
817.819,1325.83
818.783,1297.40
819.748,1335.93
820.712,1300.13
821.677,1256.63
822.641,1325.97
823.605,1331.47
824.571,1302.67
825.534,1339.20
826.498,1305.97
827.462,1275.97
828.425,1271.37
829.389,1272.93
830.352,1260.00
831.315,1261.80
832.279,1257.37
833.242,1280.67
834.204,1280.00
835.167,1262.70
836.132,1312.03
837.095,1278.43
838.057,1287.47
839.020,1256.17
839.982,1240.77
840.944,1251.10
841.906,1250.73
842.868,1238.63
843.830,1223.17
844.792,1237.93
845.753,1197.80
846.715,1215.27
847.679,1252.00
848.640,1224.47
849.601,1224.00
850.562,1225.37
851.523,1242.63
852.484,1216.03
853.445,1234.10
854.406,1214.30
855.367,1202.37
856.327,1191.67
857.288,1181.70
858.248,1235.83
859.210,1207.03
860.170,1199.73
861.130,1188.93
862.090,1215.77
863.050,1221.90
864.010,1208.90
864.969,1201.47
865.929,1228.03
866.888,1215.33
867.848,1242.17
868.807,1197.50
869.766,1231.73
870.727,1211.50
871.686,1219.50
872.645,1179.20
873.604,1180.97
874.562,1165.87
875.521,1215.23
876.479,1183.47
877.437,1206.57
878.396,1211.00
879.354,1195.37
880.312,1212.63
881.270,1240.10
882.229,1190.73
883.187,1198.53
884.145,1197.57
885.102,1203.67
886.059,1212.90
887.017,1196.93
887.974,1152.63
888.931,1210.37
889.888,1195.83
890.845,1201.90
891.802,1176.80
892.758,1185.07
893.717,1193.23
894.673,1166.23
895.630,1185.17
896.586,1200.90
897.542,1194.13
898.498,1188.57
899.454,1148.07
900.410,1207.40
901.366,1202.87
902.321,1203.53
903.277,1196.63
904.232,1203.10
905.189,1206.77
906.145,1222.63
907.100,1207.03
908.055,1184.13
909.010,1202.30
909.965,1216.40
910.919,1176.80
911.874,1208.13
912.828,1235.17
913.783,1193.77
914.737,1193.43
915.693,1221.77
916.648,1203.17
917.602,1262.13
918.555,1195.47
919.509,1247.40
920.463,1205.83
921.417,1213.93
922.370,1213.57
923.324,1187.90
924.277,1171.80
925.230,1208.70
926.183,1199.43
927.138,1266.37
928.091,1220.93
929.044,1191.27
929.996,1271.27
930.949,1260.70
931.902,1243.93
932.854,1237.23
933.806,1237.83
934.758,1189.93
935.711,1210.57
936.663,1259.13
937.614,1252.23
938.568,1246.33
939.520,1208.30
940.471,1212.73
941.423,1225.73
942.374,1229.43
943.326,1174.00
944.277,1269.57
945.228,1262.30
946.179,1231.23
947.130,1254.53
948.080,1242.63
949.031,1258.40
949.984,1262.57
950.934,1225.87
951.884,1234.47
952.835,1261.63
953.785,1245.67
954.735,1241.17
955.685,1211.70
956.635,1231.70
957.585,1222.87
958.534,1222.90
959.484,1236.67
960.433,1207.20
961.383,1200.67
962.334,1215.47
963.283,1185.30
964.232,1216.33
965.181,1210.13
966.130,1241.00
967.079,1204.47
968.027,1214.50
968.976,1267.30
969.924,1248.83
970.873,1232.50
971.821,1232.93
972.769,1231.10
973.719,1243.00
974.667,1237.67
975.615,1260.70
976.562,1232.03
977.510,1256.13
978.458,1255.27
979.405,1237.13
980.352,1271.17
981.300,1245.40
982.247,1224.77
983.194,1218.50
984.141,1276.60
985.088,1231.83
986.036,1285.57
986.983,1193.37
987.930,1270.97
988.876,1223.90
989.822,1271.50
990.769,1255.10
991.715,1253.67
992.661,1265.13
993.607,1268.87
994.553,1221.97
995.498,1241.87
996.444,1268.97
997.389,1270.37
998.337,1226.13
999.282,1279.47
1000.227,1276.33
1001.173,1245.53
1002.118,1257.73
1003.062,1249.67
1004.007,1257.30
1004.952,1252.93
1005.897,1257.77
1006.841,1214.67
1007.786,1275.93
1008.730,1273.53
1009.674,1248.63
1010.618,1218.63
1011.564,1298.97
1012.508,1275.07
1013.452,1257.07
1014.396,1286.00
1015.339,1278.60
1016.283,1283.40
1017.226,1301.67
1018.170,1276.10
1019.113,1297.93
1020.056,1338.70
1020.999,1273.13
1021.942,1338.93
1022.885,1300.37
1023.828,1292.60
1024.770,1320.73
1025.715,1322.30
1026.657,1323.20
1027.600,1322.37
1028.542,1341.37
1029.484,1338.10
1030.426,1341.70
1031.368,1308.63
1032.310,1334.10
1033.251,1349.80
1034.193,1360.20
1035.135,1357.60
1036.076,1339.33
1037.017,1348.73
1037.959,1357.80
1038.900,1343.87
1039.843,1372.07
1040.784,1371.47
1041.725,1392.57
1042.665,1367.53
1043.606,1434.17
1044.547,1394.50
1045.487,1395.73
1046.427,1408.80
1047.368,1393.03
1048.308,1397.40
1049.248,1399.50
1050.188,1378.97
1051.128,1420.10
1052.067,1420.13
1053.007,1433.80
1053.947,1466.13
1054.886,1432.17
1055.827,1459.23
1056.766,1460.67
1057.706,1417.97
1058.645,1464.50
1059.584,1503.20
1060.522,1467.57
1061.461,1484.17
1062.400,1489.80
1063.338,1476.50
1064.277,1497.10
1065.215,1522.57
1066.154,1517.23
1067.092,1503.87
1068.030,1477.73
1068.968,1514.03
1069.906,1506.80
1070.843,1522.83
1071.781,1536.77
1072.720,1510.23
1073.658,1564.20
1074.595,1577.93
1075.533,1564.03
1076.470,1565.73
1077.407,1531.47
1078.344,1557.27
1079.281,1606.03
1080.217,1594.87
1081.154,1614.23
1082.091,1575.27
1083.027,1470.60
1083.964,1591.53
1084.900,1589.97
1085.836,1591.87
1086.772,1623.30
1087.708,1612.67
1088.644,1574.63
1089.580,1594.53
1090.515,1626.47
1091.451,1616.97
1092.388,1595.23
1093.324,1592.20
1094.259,1612.53
1095.194,1594.13
1096.129,1591.77
1097.064,1595.53
1097.999,1596.87
1098.934,1579.60
1099.869,1587.27
1100.803,1595.27
1101.738,1585.87
1102.672,1570.83
1103.607,1538.07
1104.541,1527.50
1105.475,1525.90
1106.409,1501.87
1107.343,1536.10
1108.277,1512.20
1109.210,1525.93
1110.144,1486.40
1111.078,1502.40
1112.011,1523.30
1112.944,1475.60
1113.878,1482.47
1114.811,1469.73
1115.744,1460.77
1116.678,1524.27
1117.611,1486.60
1118.544,1474.17
1119.477,1425.77
1120.409,1447.93
1121.342,1435.77
1122.274,1402.10
1123.206,1440.13
1124.138,1393.10
1125.070,1388.57
1126.002,1353.43
1126.934,1395.57
1127.866,1395.00
1128.798,1361.60
1129.729,1392.77
1130.661,1359.50
1131.592,1362.87
1132.523,1334.03
1133.454,1349.10
1134.385,1318.33
1135.317,1309.40
1136.247,1331.83
1137.178,1326.27
1138.109,1304.00
1139.039,1297.40
1139.970,1245.27
1140.900,1277.87
1141.831,1286.63
1142.761,1263.17
1143.691,1407.20
1144.621,1259.07
1145.551,1262.27
1146.480,1277.93
1147.410,1245.30
1148.340,1244.77
1149.269,1257.83
1150.199,1237.00
1151.128,1207.97
1152.057,1204.23
1152.979,1216.37
1153.898,1211.67
1154.819,1201.37
1155.739,1210.87
1156.658,1198.57
1157.579,1210.83
1158.498,1189.53
1159.419,1214.27
1160.338,1214.37
1161.256,1144.33
1162.177,1192.80
1163.095,1183.57
1164.016,1184.20
1164.934,1187.50
1165.852,1174.87
1166.772,1180.00
1167.690,1169.90
1168.610,1177.73
1169.528,1199.13
1170.446,1149.13
1171.365,1183.97
1172.283,1182.83
1173.202,1164.53
1174.120,1126.33
1175.037,1178.60
1175.956,1167.37
1176.873,1145.20
1177.792,1169.43
1178.709,1148.57
1179.626,1147.23
1180.544,1175.67
1181.461,1153.57
1182.379,1138.43
1183.296,1160.57
1184.212,1153.77
1185.130,1103.83
1186.046,1125.87
1186.962,1131.63
1187.880,1133.47
1188.796,1112.73
1189.714,1114.17
1190.629,1126.37
1191.545,1145.87
1192.462,1144.03
1193.378,1117.23
1194.295,1115.17
1195.210,1110.93
1196.125,1118.90
1197.042,1106.83
1197.957,1113.00
1198.872,1133.80
1199.788,1127.10
1200.703,1122.37
1201.619,1151.10
1202.534,1142.07
1203.448,1134.77
1204.364,1117.67
1205.278,1087.57
1206.192,1130.13
1207.108,1119.50
1208.022,1096.27
1208.938,1118.27
1209.851,1147.00
1210.765,1098.07
1211.680,1121.40
1212.594,1113.03
1213.507,1154.17
1214.422,1146.27
1215.335,1117.40
1216.248,1127.20
1217.163,1131.70
1218.076,1111.47
1218.990,1113.97
1219.903,1135.93
1220.816,1134.47
1221.730,1151.77
1222.642,1136.23
1223.554,1140.50
1224.469,1139.40
1225.380,1128.37
1226.292,1179.27
1227.206,1160.13
1228.118,1175.27
1229.032,1184.53
1229.943,1149.17
1230.855,1186.40
1231.768,1152.33
1232.679,1210.63
1233.590,1157.20
1234.503,1155.33
1235.414,1158.80
1236.325,1158.10
1237.238,1145.80
1238.149,1179.80
1239.059,1159.43
1239.972,1188.43
1240.882,1147.40
1241.793,1164.80
1242.705,1126.83
1243.615,1208.53
1244.525,1187.30
1245.437,1189.00
1246.347,1168.30
1247.259,1152.63
1248.168,1161.63
1249.078,1213.57
1249.989,1190.37
1250.899,1187.10
1251.808,1219.63
1252.719,1209.67
1253.628,1162.23
1254.537,1192.23
1255.448,1186.23
1256.357,1202.50
1257.266,1219.23
1258.176,1226.43
1259.085,1211.40
1259.993,1221.90
1260.904,1231.90
1261.812,1191.03
1262.720,1235.60
1263.630,1205.17
1264.538,1215.10
1265.446,1217.57
1266.356,1242.50
1267.263,1257.07
1268.171,1247.10
1269.080,1228.80
1269.988,1231.50
1270.895,1200.73
1271.804,1192.83
1272.711,1237.27
1273.619,1210.63
1274.527,1243.13
1275.434,1258.20
1276.341,1210.80
1277.248,1235.90
1278.156,1209.03
1279.063,1212.83
1279.969,1230.07
1280.877,1193.27
1281.783,1220.23
1282.690,1213.37
1283.598,1254.97
1284.503,1209.47
1285.409,1206.70
1286.317,1231.53
1287.223,1162.63
1288.128,1230.67
1289.036,1230.97
1289.941,1218.17
1290.846,1178.63
1291.751,1189.43
1292.658,1180.33
1293.563,1216.70
1294.468,1179.27
1295.375,1258.53
1296.280,1194.80
1297.184,1204.00
1298.091,1146.53
1298.995,1167.73
1299.900,1164.77
1300.806,1164.23
1301.710,1213.97
1302.614,1163.70
1303.518,1157.97
1304.424,1149.33
1305.327,1121.47
1306.231,1153.47
1307.137,1129.73
1308.040,1138.63
1308.943,1148.80
1309.847,1111.90
1310.752,1103.30
1311.655,1116.90
1312.558,1138.00
1313.463,1124.07
1314.366,1095.40
1315.269,1099.73
1316.171,1095.97
1317.076,1075.00
1317.978,1082.67
1318.881,1045.90
1319.785,1071.47
1320.687,1050.53
1321.589,1087.90
1322.491,1047.03
1323.395,1067.70
1324.297,1067.33
1325.198,1064.07
1326.102,1070.67
1327.004,1050.27
1327.905,1032.07
1328.806,1020.13
1329.709,1069.93
1330.611,1061.10
1331.512,1033.93
1332.413,1001.10
1333.316,1044.00
1334.216,1022.97
1335.117,1035.03
1336.020,1013.40
1336.920,1004.03
1337.821,1019.03
1338.721,1000.43
1339.623,989.70
1340.523,1011.57
1341.423,1000.93
1342.323,955.83
1343.225,927.30
1344.125,976.30
1345.025,996.67
1345.924,976.07
1346.826,940.77
1347.725,968.13
1348.624,974.13
1349.524,955.30
1350.425,955.60
1351.324,931.73
1352.223,930.10
1353.121,932.97
1354.022,938.13
1354.921,922.73
1355.819,905.43
1356.718,920.57
1357.618,930.10
1358.516,873.90
1359.415,922.87
1360.313,935.73
1361.213,911.07
1362.111,906.83
1363.008,898.97
1363.906,888.33
1364.806,895.53
1365.703,923.53
1366.601,927.97
1367.498,886.53
1368.397,899.27
1369.295,865.93
1370.192,885.93
1371.089,925.27
1371.987,885.30
1372.884,875.67
1373.781,867.20
1374.678,878.27
1375.574,880.97
1376.473,899.27
1377.369,869.67
1378.265,843.40
1379.161,826.37
1380.059,857.90
1380.955,875.57
1381.851,839.70
1382.747,818.10
1383.643,845.77
1384.540,835.33
1385.436,834.13
1386.331,846.17
1387.227,847.13
1388.124,829.93
1389.019,871.87
1389.914,843.27
1390.809,827.73
1391.704,854.80
1392.601,854.47
1393.495,831.87
1394.390,875.50
1395.285,826.47
1396.179,847.00
1397.075,810.50
1397.969,792.17
1398.864,816.07
1399.758,797.63
1400.652,814.43
1401.547,797.77
1402.441,812.33
1403.335,814.60
1404.229,794.60
1405.122,833.63
1406.017,802.23
1406.911,814.60
1407.804,790.83
1408.697,831.47
1409.590,800.67
1410.485,805.37
1411.378,794.60
1412.271,755.73
1413.163,756.37
1414.056,795.00
1414.949,779.40
1415.843,772.90
1416.735,805.77
1417.627,817.47
1418.520,772.17
1419.412,771.13
1420.306,807.90
1421.197,824.17
1422.089,765.83
1422.981,778.93
1423.873,758.67
1424.764,768.10
1425.657,754.07
1426.549,750.67
1427.440,768.73
1428.331,775.03
1429.222,743.67
1430.113,785.37
1431.006,763.63
1431.897,738.67
1432.787,741.33
1433.678,767.50
1434.568,769.47
1435.459,758.30
1436.351,766.23
1437.241,731.67
1438.131,775.13
1439.021,735.07
1439.911,753.47
1440.801,727.03
1441.693,746.60
1442.583,706.37
1443.472,779.00
1444.362,756.90
1445.251,750.70
1446.140,728.60
1447.030,727.87
1447.921,726.30
1448.810,729.53
1449.699,726.53
1450.588,736.47
1451.476,710.47
1452.365,725.30
1453.254,688.63
1454.144,689.13
1455.032,722.83
1455.921,707.47
1456.809,720.33
1457.697,706.73
1458.585,715.97
1459.473,741.20
1460.361,705.80
1461.251,714.50
1462.138,690.73
1463.026,706.43
1463.913,716.30
1464.801,699.03
1465.688,711.70
1466.575,686.00
1467.463,701.33
1468.351,726.63
1469.238,719.27
1470.125,700.97
1471.012,706.63
1471.899,706.40
1472.785,716.70
1473.672,673.37
1474.558,696.10
1475.446,722.73
1476.333,690.37
1477.219,688.93
1478.105,699.07
1478.991,664.97
1479.877,690.60
1480.762,695.57
1481.648,661.77
1482.534,754.47
1483.419,679.27
1484.307,665.43
1485.192,694.97
1486.077,697.17
1486.962,682.53
1487.847,683.87
1488.732,680.37
1489.617,659.73
1490.502,671.83
1491.387,673.63
1492.271,681.23
1493.156,650.33
1494.042,695.30
1494.927,696.20
1495.811,678.37
1496.695,665.40
1497.579,671.13
1498.463,670.00
1499.347,681.67
1500.231,678.87
1501.114,646.57
1501.998,641.20
1502.881,656.63
1503.765,684.40
1504.648,678.20
1505.533,667.30
1506.417,668.90
1507.300,632.63
1508.183,664.53
1509.066,711.30
1509.948,653.63
1510.831,630.90
1511.714,612.50
1512.596,680.27
1513.479,664.47
1514.361,660.47
1515.243,662.20
1516.125,626.90
1517.008,669.87
1517.890,621.97
1518.771,623.37
1519.655,651.73
1520.537,616.50
1521.419,705.43
1522.300,645.60
1523.182,632.53
1524.063,669.63
1524.944,662.10
1525.825,620.20
1526.707,624.30
1527.588,619.60
1528.468,636.63
1529.349,627.80
1530.230,652.13
1531.111,631.80
1531.991,621.83
1532.872,673.30
1533.752,621.90
1534.632,620.50
1535.513,644.43
1536.393,612.50
1537.273,633.57
1538.153,654.07
1539.032,616.03
1539.912,585.87
1540.792,602.30
1541.672,613.43
1542.551,645.77
1543.430,584.07
1544.310,608.23
1545.189,613.30
1546.068,624.90
1546.947,622.53
1547.826,628.63
1548.705,633.73
1549.584,642.93
1550.462,634.80
1551.341,622.67
1552.219,590.67
1553.098,581.07
1553.976,596.57
1554.854,602.97
1555.733,577.30
1556.611,630.40
1557.489,609.13
1558.367,612.93
1559.244,625.57
1560.122,581.07
1561.000,577.63
1561.877,633.30
1562.755,593.97
1563.632,608.07
1564.509,596.87
1565.386,613.03
1566.264,582.10
1567.141,581.23
1568.017,610.53
1568.894,612.97
1569.771,597.60
1570.648,579.40
1571.524,594.30
1572.401,573.87
1573.277,596.33
1574.153,609.57
1575.029,605.60
1575.906,619.43
1576.781,590.93
1577.657,585.70
1578.533,572.30
1579.409,610.73
1580.285,601.70
1581.160,577.27
1582.036,565.73
1582.911,562.47
1583.786,582.23
1584.662,554.77
1585.537,579.53
1586.412,569.63
1587.287,611.87
1588.160,592.37
1589.035,551.93
1589.909,586.47
1590.784,572.80
1591.658,590.80
1592.533,576.53
1593.407,562.90
1594.281,572.80
1595.155,604.40
1596.029,587.00
1596.903,556.33
1597.777,538.23
1598.651,593.53
1599.525,617.17
1600.398,583.67
1601.272,565.60
1602.144,589.00
1603.017,582.67
1603.890,585.73
1604.763,581.60
1605.636,524.83
1606.509,577.83
1607.382,567.93
1608.255,560.60
1609.128,556.97
1610.000,596.57
1610.873,566.93
1611.746,567.83
1612.616,560.90
1613.488,555.33
1614.361,574.23
1615.233,550.80
1616.105,572.13
1616.977,577.37
1617.849,546.47
1618.720,568.20
1619.592,558.47
1620.464,583.67
1621.333,548.83
1622.205,525.13
1623.076,551.27
1623.947,558.10
1624.818,573.80
1625.689,532.73
1626.560,545.90
1627.431,544.37
1628.302,529.77
1629.171,561.57
1630.042,522.63
1630.912,536.80
1631.782,568.93
1632.653,568.17
1633.523,532.03
1634.393,580.23
1635.263,595.43
1636.131,542.60
1637.001,544.23
1637.871,547.70
1638.741,564.03
1639.611,524.77
1640.480,545.30
1641.350,523.23
1642.219,568.23
1643.087,542.07
1643.956,545.30
1644.825,551.97
1645.694,528.97
1646.563,552.83
1647.432,550.63
1648.299,535.67
1649.167,516.67
1650.036,538.73
1650.904,533.23
1651.773,525.23
1652.641,543.13
1653.509,554.37
1654.376,557.07
1655.244,509.43
1656.112,511.73
1656.980,503.43
1657.847,543.03
1658.715,513.30
1659.581,539.00
1660.448,511.93
1661.316,519.40
1662.183,481.03
1663.051,553.77
1663.918,531.90
1664.783,554.83
1665.650,522.60
1666.517,532.80
1667.384,511.67
1668.251,532.30
1669.115,543.17
1669.982,519.07
1670.849,542.23
1671.715,541.37
1672.581,562.63
1673.446,528.27
1674.312,525.43
1675.178,442.27
1676.044,528.27
1676.910,511.20
1677.774,520.33
1678.639,523.70
1679.505,527.83
1680.370,557.03
1681.236,503.77
1682.099,489.43
1682.965,505.30
1683.830,512.47
1684.695,523.93
1685.560,526.60
1686.423,521.43
1687.288,503.93
1688.153,510.40
1689.017,507.70
1689.880,504.97
1690.745,562.17
1691.609,522.17
1692.473,523.47
1693.338,498.80
1694.200,519.20
1695.064,546.33
1695.928,515.50
1696.792,479.60
1697.654,549.47
1698.517,531.63
1699.381,538.87
1700.245,501.77
1701.106,562.00
1701.969,499.97
1702.833,493.47
1703.696,518.23
1704.557,511.20
1705.420,526.00
1706.283,507.90
1707.146,507.40
1708.007,513.90
1708.870,492.70
1709.732,535.80
1710.595,508.00
1711.455,530.33
1712.318,522.57
1713.180,490.03
1714.040,513.47
1714.902,515.10
1715.764,487.70
1716.626,495.33
1717.486,478.33
1718.348,496.90
1719.209,486.53
1720.071,484.83
1720.930,498.63
1721.792,508.17
1722.653,489.50
1723.512,497.80
1724.374,488.97
1725.234,529.80
1726.095,493.53
1726.954,509.30
1727.815,501.10
1728.676,511.80
1729.535,550.67
1730.395,477.93
1731.256,503.33
1732.114,501.93
1732.974,488.20
1733.834,492.57
1734.693,478.03
1735.553,479.40
1736.413,489.80
1737.272,514.93
1738.130,493.20
1738.990,525.67
1739.849,497.03
1740.707,542.07
1741.566,495.50
1742.426,497.27
1743.283,505.23
1744.142,500.13
1745.001,469.33
1745.858,500.80
1746.717,509.00
1747.576,498.67
1748.433,529.23
1749.292,479.70
1750.150,502.33
1751.007,517.30
1751.865,491.77
1752.723,486.67
1753.579,461.83
1754.438,488.10
1755.296,493.77
1756.152,511.47
1757.010,500.17
1757.865,480.10
1758.723,471.33
1759.581,465.37
1760.436,522.43
1761.294,550.03
1762.151,447.17
1763.006,473.60
1763.864,496.03
1764.721,474.47
1765.576,467.40
1766.433,484.23
1767.288,490.20
1768.144,490.33
1769.001,465.50
1769.856,515.57
1770.712,474.90
1771.568,494.63
1772.423,496.07
1773.279,490.53
1774.133,479.97
1774.989,507.50
1775.845,503.77
1776.699,496.13
1777.555,482.23
1778.409,473.53
1779.265,465.37
1780.120,484.43
1780.974,458.23
1781.829,459.47
1782.682,456.67
1783.538,480.80
1784.393,482.93
1785.246,461.97
1786.101,500.27
1786.954,470.80
1787.808,494.93
1788.661,492.20
1789.516,499.73
1790.370,485.30
1791.223,497.10
1792.077,490.30
1792.930,482.27
1793.784,496.70
1794.636,491.30
1795.490,459.83
1796.344,504.47
1797.196,493.87
1798.049,473.90
1798.901,499.43
1799.755,519.47
1800.606,462.47
1801.460,487.33
1802.311,509.57
1803.165,497.47
1804.018,487.67
1804.869,512.43
1805.722,465.80
1806.573,521.10
1807.426,489.90
1808.276,472.33
1809.129,516.77
1809.980,473.10
1810.832,507.73
1811.683,446.13
1812.535,504.80
1813.385,447.17
1814.237,486.60
1815.089,465.97
1815.940,500.40
1816.791,462.03
1817.641,488.43
1818.493,474.73
1819.343,470.53
1820.194,481.60
1821.044,457.07
1821.895,486.53
1822.745,435.40
1823.596,497.90
1824.445,456.40
1825.296,446.53
1826.145,458.87
1826.996,486.13
1827.845,452.10
1828.695,465.50
1829.544,499.87
1830.395,470.13
1831.243,473.60
1832.094,452.73
1832.942,459.20
1833.792,476.27
1834.640,471.17
1835.490,482.20
1836.338,475.77
1837.186,480.63
1838.036,481.03
1838.884,463.27
1839.733,477.37
1840.581,459.97
1841.430,443.33
1842.278,491.57
1843.127,452.43
1843.974,507.80
1844.823,474.67
1845.671,441.23
1846.519,459.13
1847.366,443.33
1848.213,516.03
1849.062,470.10
1849.909,484.97
1850.757,482.30
1851.604,455.03
1852.452,453.50
1853.298,459.17
1854.146,453.10
1854.993,438.30
1855.839,441.40
1856.687,459.23
1857.532,469.93
1858.380,453.57
1859.226,491.07
1860.073,443.73
1860.919,474.53
1861.765,451.43
1862.612,448.27
1863.457,462.70
1864.304,450.07
1865.150,456.60
1865.995,468.83
1866.842,456.43
1867.686,437.13
1868.533,429.77
1869.378,441.60
1870.223,474.43
1871.069,477.40
1871.914,465.63
1872.760,448.47
1873.604,429.37
1874.448,458.40
1875.294,492.70
1876.139,414.60
1876.984,432.67
1877.828,447.93
1878.672,469.40
1879.518,465.77
1880.361,476.53
1881.205,452.53
1882.050,482.17
1882.894,471.43
1883.739,471.87
1884.582,451.20
1885.425,481.90
1886.270,431.33
1887.113,455.77
1887.956,456.93
1888.801,469.13
1889.644,463.00
1890.486,485.33
1891.331,442.43
1892.173,459.40
1893.017,454.37
1893.860,465.43
1894.702,400.63
1895.546,466.10
1896.388,451.67
1897.230,437.70
1898.074,444.23
1898.916,448.00
1899.757,413.97
1900.601,410.67
1901.443,440.20
1902.284,447.10
1903.125,431.57
1903.969,449.70
1904.810,425.37
1905.651,430.97
1906.494,425.60
1907.335,451.50
1908.176,475.80
1909.018,434.80
1909.859,440.97
1910.700,452.40
1911.542,427.60
1912.383,468.80
1913.223,474.33
1914.064,482.57
1914.906,478.70
1915.746,417.77
1916.586,451.00
1917.428,448.43
1918.268,458.20
1919.107,417.30
1919.947,462.70
1920.789,435.10
1921.628,429.57
1922.468,418.43
1923.309,465.27
1924.148,469.47
1924.988,471.27
1925.827,421.63
1926.667,461.10
1927.507,454.47
1928.345,443.07
1929.184,433.30
1930.025,458.13
1930.864,435.57
1931.702,430.43
1932.541,467.07
1933.381,429.90
1934.219,478.50
1935.057,465.77
1935.896,425.93
1936.735,416.20
1937.573,464.57
1938.411,457.17
1939.249,437.07
1940.089,447.47
1940.927,447.93
1941.764,434.97
1942.602,423.23
1943.439,421.90
1944.278,446.23
1945.115,466.43
1945.953,448.57
1946.790,406.87
1947.628,434.73
1948.465,457.17
1949.302,443.27
1950.139,426.90
1950.976,457.83
1951.814,445.37
1952.651,437.93
1953.487,427.30
1954.323,436.33
1955.160,450.83
1955.998,475.60
1956.834,423.93
1957.670,412.43
1958.506,401.17
1959.342,419.50
1960.177,451.97
1961.015,432.90
1961.850,457.77
1962.686,424.20
1963.521,446.07
1964.357,413.93
1965.192,428.63
1966.029,431.17
1966.864,411.70
1967.699,428.37
1968.534,408.37
1969.369,429.27
1970.204,413.77
1971.040,427.60
1971.875,446.70
1972.709,462.60
1973.544,454.00
1974.378,464.87
1975.212,385.87
1976.047,418.37
1976.882,433.13
1977.716,454.27
1978.550,434.67
1979.384,431.30
1980.218,435.10
1981.052,389.10
1981.885,429.60
1982.719,457.60
1983.554,469.43
1984.388,403.93
1985.221,404.40
1986.054,446.67
1986.887,413.57
1987.720,416.23
1988.553,395.30
1989.386,424.47
1990.219,447.10
1991.053,435.13
1991.886,442.13
1992.719,426.20
1993.551,413.07
1994.383,407.33
1995.216,453.80
1996.048,424.53
1996.880,423.30
1997.712,435.80
1998.544,417.47
1999.376,449.43
2000.208,440.23
2001.040,442.23
2001.873,397.20
2002.705,427.97
2003.536,420.17
2004.367,460.17
2005.199,442.23
2006.030,418.43
2006.861,460.03
2007.692,445.60
2008.523,409.20
2009.354,414.13
2010.185,426.33
2011.016,423.70
2011.846,443.47
2012.677,442.13
2013.507,371.63
2014.338,438.00
2015.168,416.13
2015.999,413.17
2016.829,439.60
2017.659,445.97
2018.489,471.17
2019.319,442.80
2020.149,399.73
2020.980,426.53
2021.810,443.83
2022.639,414.13
2023.469,442.30
2024.298,422.93
2025.128,458.30
2025.957,432.00
2026.786,452.03
2027.615,467.00
2028.444,488.53
2029.273,449.77
2030.102,447.13
2030.931,435.47
2031.758,450.07
2032.586,448.93
2033.415,463.20
2034.243,429.90
2035.072,443.27
2035.900,424.87
2036.728,435.13
2037.556,445.33
2038.385,457.43
2039.213,454.37
2040.040,445.20
2040.868,441.37
2041.696,424.83
2042.524,450.77
2043.351,453.23
2044.179,440.40
2045.006,422.70
2045.006,422.70

Max Intensity Wave.,220.959
Max Intensity Data,6540.90
Min Intensity Wave.,2013.507
Min Intensity Data,371.63
FWHM Wave.,400.358
FWHM Value,1.76
Pressure Wave.,685.744
Pressure Value [GPa],-22.11679
G/D Ratio,0.53289
G/D Gband Wave.,1542.414
G/D Gband Intensity,646.91
G/D Dband Wave.,1301.707
G/D Dband Intensity,1213.97

<< BACKGROUND SPECTRUM >>
Wave[dcm-1],No259
146.591,2220.00
147.626,2107.00
148.664,2058.00
149.699,2526.00
150.737,2205.00
151.772,2369.00
152.809,2359.00
153.846,2273.00
154.881,2373.00
155.918,1979.00
156.953,2303.00
157.989,2594.00
159.026,2403.00
160.060,2615.00
161.096,2819.00
162.130,2490.00
163.167,2541.00
164.200,2459.00
165.236,2619.00
166.272,2623.00
167.305,2268.00
168.341,2515.00
169.374,2755.00
170.409,2754.00
171.445,2678.00
172.477,2492.00
173.512,2398.00
174.545,2643.00
175.580,2821.00
176.614,3044.00
177.647,2765.00
178.681,3037.00
179.713,3334.00
180.747,2775.00
181.781,2665.00
182.813,2982.00
183.847,3086.00
184.878,2697.00
185.912,2962.00
186.945,3098.00
187.976,3036.00
189.010,2680.00
190.043,2822.00
191.073,2932.00
192.106,2724.00
193.137,3173.00
194.170,2536.00
195.202,2852.00
196.232,2648.00
197.265,2941.00
198.297,3031.00
199.327,2757.00
200.359,2921.00
201.388,3297.00
202.420,2918.00
203.452,3047.00
204.481,2671.00
205.512,3323.00
206.544,3055.00
207.573,3049.00
208.604,3406.00
209.635,3510.00
210.663,2903.00
211.694,2951.00
212.725,2819.00
213.753,2752.00
214.783,3356.00
215.813,3234.00
216.841,2963.00
217.871,3175.00
218.899,2892.00
219.929,3136.00
220.959,2856.00
221.986,3131.00
223.016,2754.00
224.045,3140.00
225.072,3105.00
226.101,3168.00
227.130,3234.00
228.157,2816.00
229.185,2316.00
230.214,3158.00
231.241,2788.00
232.269,2468.00
233.297,2704.00
234.323,3169.00
235.351,2769.00
236.379,3060.00
237.407,2725.00
238.433,2909.00
239.460,3083.00
240.488,3030.00
241.513,3208.00
242.540,3099.00
243.568,3166.00
244.592,3231.00
245.619,3172.00
246.646,2865.00
247.671,2931.00
248.697,2753.00
249.724,2998.00
250.748,2997.00
251.774,3002.00
252.801,3247.00
253.827,3078.00
254.850,3005.00
255.876,2630.00
256.902,3117.00
257.925,2922.00
258.951,2729.00
259.976,2747.00
260.999,3088.00
262.024,2774.00
263.049,3629.00
264.074,3082.00
265.097,2990.00
266.122,3052.00
267.146,2993.00
268.168,3166.00
269.193,2789.00
270.217,3189.00
271.241,2677.00
272.263,2863.00
273.287,3161.00
274.311,2747.00
275.332,3282.00
276.356,2831.00
277.379,3062.00
278.402,3098.00
279.424,2910.00
280.447,2880.00
281.470,2755.00
282.492,3024.00
283.513,2841.00
284.536,3125.00
285.558,3112.00
286.581,3082.00
287.601,2856.00
288.623,2798.00
289.645,3007.00
290.665,3101.00
291.687,3085.00
292.709,3073.00
293.730,3332.00
294.750,2847.00
295.771,2715.00
296.792,3046.00
297.813,2895.00
298.832,3017.00
299.853,2682.00
300.874,2962.00
301.895,2941.00
302.913,2931.00
303.934,3255.00
304.954,3020.00
305.975,4208.00
306.993,2703.00
308.013,3087.00
309.033,2962.00
310.052,2885.00
311.072,2888.00
312.090,2983.00
313.109,3226.00
314.129,3381.00
315.148,2995.00
316.165,3032.00
317.184,3223.00
318.203,2721.00
319.222,2763.00
320.238,3131.00
321.257,2805.00
322.275,2638.00
323.294,2943.00
324.312,3111.00
325.328,3259.00
326.346,3234.00
327.364,3201.00
328.382,3131.00
329.397,3090.00
330.415,3242.00
331.432,3160.00
332.450,3214.00
333.467,3406.00
334.482,2573.00
335.499,3316.00
336.516,2865.00
337.533,2553.00
338.547,2777.00
339.564,2839.00
340.580,3033.00
341.597,2894.00
342.613,3395.00
343.627,2959.00
344.643,2966.00
345.659,3071.00
346.675,2961.00
347.690,2875.00
348.704,3063.00
349.719,2857.00
350.735,2751.00
351.750,3202.00
352.765,2995.00
353.778,2947.00
354.793,3155.00
355.808,2846.00
356.822,3180.00
357.837,2626.00
358.851,3203.00
359.864,2942.00
360.878,2733.00
361.892,2937.00
362.906,3180.00
363.920,2571.00
364.932,3101.00
365.945,3110.00
366.959,2990.00
367.972,2869.00
368.986,2722.00
369.999,3331.00
371.010,2853.00
372.023,3312.00
373.036,2907.00
374.049,3381.00
375.061,3026.00
376.072,2987.00
377.084,2828.00
378.097,2682.00
379.109,3179.00
380.121,2964.00
381.133,2647.00
382.143,3096.00
383.155,2721.00
384.166,2867.00
385.178,3097.00
386.189,3179.00
387.201,2713.00
388.212,2914.00
389.221,2887.00
390.232,3003.00
391.243,2931.00
392.254,3018.00
393.264,2813.00
394.275,3214.00
395.283,3150.00
396.294,3591.00
397.304,3481.00
398.314,3074.00
399.324,3029.00
400.334,2628.00
401.344,3122.00
402.351,2618.00
403.361,3221.00
404.370,2922.00
405.380,2929.00
406.389,3301.00
407.398,3101.00
408.407,3067.00
409.414,3121.00
410.423,3303.00
411.431,2755.00
412.440,2647.00
413.448,3294.00
414.457,2863.00
415.465,2791.00
416.471,2866.00
417.479,2998.00
418.487,2801.00
419.495,3283.00
420.503,3107.00
421.510,2609.00
422.518,3129.00
423.525,3130.00
424.530,3415.00
425.537,2858.00
426.544,3183.00
427.551,2842.00
428.558,3544.00
429.565,3386.00
430.571,2872.00
431.578,2870.00
432.582,2836.00
433.588,2972.00
434.595,2628.00
435.601,3248.00
436.607,3236.00
437.612,2736.00
438.618,3301.00
439.624,2920.00
440.627,2944.00
441.633,3100.00
442.638,3597.00
443.643,3074.00
444.648,2956.00
445.653,3129.00
446.658,2884.00
447.663,3006.00
448.667,2880.00
449.672,2900.00
450.674,2995.00
451.678,2672.00
452.682,2865.00
453.687,2848.00
454.690,3569.00
455.694,3266.00
456.698,2557.00
457.702,2646.00
458.705,2773.00
459.709,2790.00
460.710,2849.00
461.713,3010.00
462.716,3057.00
463.719,2987.00
464.722,3113.00
465.725,2930.00
466.727,2820.00
467.730,3015.00
468.732,2743.00
469.735,3279.00
470.737,2901.00
471.737,2872.00
472.739,2858.00
473.741,2842.00
474.742,3047.00
475.744,3054.00
476.746,3013.00
477.747,2949.00
478.748,3169.00
479.750,2915.00
480.751,3020.00
481.752,3631.00
482.753,3074.00
483.751,3506.00
484.752,2602.00
485.753,2936.00
486.753,2839.00
487.753,2960.00
488.754,3376.00
489.754,2713.00
490.754,3289.00
491.754,3067.00
492.754,2645.00
493.753,3005.00
494.753,2879.00
495.752,3355.00
496.752,3050.00
497.749,2974.00
498.748,2850.00
499.747,3362.00
500.746,3099.00
501.745,2752.00
502.744,2704.00
503.742,3301.00
504.741,2944.00
505.739,2507.00
506.737,2909.00
507.735,3121.00
508.734,3330.00
509.732,3140.00
510.729,3370.00
511.727,2890.00
512.725,2887.00
513.720,2781.00
514.718,3244.00
515.715,2665.00
516.712,2593.00
517.709,2966.00
518.706,2899.00
519.703,3033.00
520.700,3174.00
521.696,3330.00
522.693,2936.00
523.689,2827.00
524.686,3159.00
525.682,2792.00
526.678,3444.00
527.674,2888.00
528.670,2594.00
529.666,3475.00
530.661,3456.00
531.657,3092.00
532.652,3137.00
533.648,2965.00
534.641,3191.00
535.636,3000.00
536.631,3092.00
537.626,3143.00
538.621,2730.00
539.616,2591.00
540.610,2513.00
541.605,2992.00
542.599,3018.00
543.593,2941.00
544.587,3910.00
545.581,2807.00
546.575,3028.00
547.569,3013.00
548.563,2687.00
549.557,2652.00
550.550,2758.00
551.543,2736.00
552.537,3159.00
553.530,2767.00
554.523,2792.00
555.516,3092.00
556.509,2924.00
557.502,2606.00
558.494,3202.00
559.487,2892.00
560.479,3181.00
561.472,3225.00
562.464,3112.00
563.456,3252.00
564.448,2929.00
565.440,2998.00
566.432,3367.00
567.423,2876.00
568.415,2880.00
569.404,3078.00
570.396,2808.00
571.387,3111.00
572.378,3016.00
573.369,3960.00
574.360,3684.00
575.351,2925.00
576.341,2795.00
577.332,2836.00
578.323,2669.00
579.313,2856.00
580.303,3219.00
581.293,3098.00
582.283,2973.00
583.273,3094.00
584.263,3005.00
585.253,3055.00
586.243,3112.00
587.232,2666.00
588.222,2948.00
589.211,3186.00
590.200,3055.00
591.189,2916.00
592.178,2965.00
593.167,3400.00
594.156,3249.00
595.145,2886.00
596.133,3448.00
597.122,3114.00
598.110,3141.00
599.098,3067.00
600.086,2988.00
601.074,3145.00
602.062,2836.00
603.050,2738.00
604.038,3094.00
605.025,2768.00
606.013,3167.00
607.000,3308.00
607.987,3001.00
608.975,3077.00
609.962,2752.00
610.949,3106.00
611.936,3216.00
612.922,3171.00
613.909,2703.00
614.895,3324.00
615.882,2820.00
616.868,2949.00
617.854,2759.00
618.841,2990.00
619.826,3116.00
620.812,2996.00
621.798,2787.00
622.784,3162.00
623.769,3088.00
624.755,2704.00
625.740,3040.00
626.725,2703.00
627.711,2833.00
628.698,3037.00
629.683,2792.00
630.667,3173.00
631.652,2722.00
632.637,2974.00
633.621,3167.00
634.606,2893.00
635.590,3115.00
636.574,2940.00
637.558,3049.00
638.542,3023.00
639.526,2847.00
640.510,2642.00
641.493,3029.00
642.477,3007.00
643.460,2723.00
644.444,3234.00
645.427,3200.00
646.410,2631.00
647.393,2951.00
648.376,3035.00
649.359,2916.00
650.341,3060.00
651.324,3043.00
652.307,3022.00
653.289,2922.00
654.271,2828.00
655.253,2916.00
656.235,3107.00
657.217,3241.00
658.199,2596.00
659.181,2737.00
660.163,2969.00
661.144,2835.00
662.126,2911.00
663.107,2769.00
664.088,6179.00
665.069,3210.00
666.050,2799.00
667.033,2723.00
668.014,3034.00
668.995,2598.00
669.975,2964.00
670.956,2982.00
671.936,3118.00
672.916,2924.00
673.896,3057.00
674.876,2901.00
675.856,2840.00
676.836,2724.00
677.816,2324.00
678.795,2791.00
679.775,2639.00
680.754,3032.00
681.734,3145.00
682.713,3128.00
683.692,2758.00
684.671,2655.00
685.650,2704.00
686.629,2854.00
687.607,2733.00
688.586,2748.00
689.564,2875.00
690.543,3257.00
691.523,2372.00
692.501,2806.00
693.479,2936.00
694.457,2823.00
695.435,2883.00
696.413,2677.00
697.390,2500.00
698.368,2669.00
699.345,3107.00
700.322,2931.00
701.300,3078.00
702.277,3044.00
703.254,3235.00
704.231,2562.00
705.207,2931.00
706.184,2805.00
707.161,2677.00
708.137,2822.00
709.113,2789.00
710.090,2798.00
711.068,2579.00
712.044,2587.00
713.020,2873.00
713.996,2635.00
714.971,2805.00
715.947,2878.00
716.922,2786.00
717.898,2778.00
718.873,2858.00
719.848,2726.00
720.823,2680.00
721.798,3009.00
722.773,2744.00
723.748,2520.00
724.723,3001.00
725.697,2833.00
726.672,2751.00
727.646,2521.00
728.622,2992.00
729.596,2607.00
730.570,2719.00
731.544,3098.00
732.518,3270.00
733.492,2813.00
734.466,2867.00
735.439,2986.00
736.413,3081.00
737.386,2453.00
738.359,2430.00
739.332,2531.00
740.305,2812.00
741.278,3275.00
742.251,2878.00
743.224,2733.00
744.196,2530.00
745.171,3129.00
746.143,3019.00
747.115,2761.00
748.087,2698.00
749.059,3121.00
750.031,2883.00
751.003,3646.00
751.975,3235.00
752.947,2660.00
753.918,3094.00
754.890,2547.00
755.861,2769.00
756.832,3031.00
757.803,2881.00
758.774,2817.00
759.747,2634.00
760.718,3179.00
761.689,2759.00
762.659,2579.00
763.630,3131.00
764.600,2532.00
765.570,3007.00
766.540,3146.00
767.510,2910.00
768.480,3034.00
769.450,2700.00
770.420,2794.00
771.390,2628.00
772.359,2741.00
773.329,2644.00
774.300,2496.00
775.269,2772.00
776.238,2964.00
777.207,3131.00
778.176,2501.00
779.145,2768.00
780.114,2673.00
781.083,2565.00
782.051,2746.00
783.019,2695.00
783.988,3048.00
784.956,2874.00
785.924,2967.00
786.894,2872.00
787.862,2662.00
788.830,3128.00
789.797,2620.00
790.765,2603.00
791.732,2757.00
792.700,2629.00
793.667,2572.00
794.634,2740.00
795.601,2702.00
796.568,2782.00
797.535,2843.00
798.502,3441.00
799.468,2921.00
800.437,2376.00
801.403,2641.00
802.370,3247.00
803.336,2999.00
804.302,2879.00
805.268,2473.00
806.234,2558.00
807.200,2775.00
808.166,2758.00
809.131,2563.00
810.097,2963.00
811.062,3613.00
812.027,3026.00
812.994,2612.00
813.960,2586.00
814.925,2938.00
815.889,2502.00
816.854,2996.00
817.819,2637.00
818.783,2733.00
819.748,3049.00
820.712,2732.00
821.677,2709.00
822.641,2683.00
823.605,2674.00
824.571,3110.00
825.534,2665.00
826.498,2658.00
827.462,2818.00
828.425,2617.00
829.389,3044.00
830.352,2827.00
831.315,2893.00
832.279,2513.00
833.242,2739.00
834.204,2633.00
835.167,2647.00
836.132,2986.00
837.095,2494.00
838.057,2670.00
839.020,2811.00
839.982,2843.00
840.944,2673.00
841.906,2629.00
842.868,2953.00
843.830,2563.00
844.792,3038.00
845.753,2715.00
846.715,2455.00
847.679,2571.00
848.640,2622.00
849.601,2753.00
850.562,3230.00
851.523,2679.00
852.484,2483.00
853.445,2969.00
854.406,2719.00
855.367,2741.00
856.327,3059.00
857.288,2543.00
858.248,2667.00
859.210,2703.00
860.170,2542.00
861.130,3030.00
862.090,2426.00
863.050,2614.00
864.010,2694.00
864.969,2916.00
865.929,2576.00
866.888,2520.00
867.848,2804.00
868.807,2661.00
869.766,2824.00
870.727,2716.00
871.686,2965.00
872.645,3025.00
873.604,3306.00
874.562,2796.00
875.521,2785.00
876.479,3366.00
877.437,2574.00
878.396,2573.00
879.354,3184.00
880.312,2574.00
881.270,2625.00
882.229,3104.00
883.187,2618.00
884.145,2672.00
885.102,2929.00
886.059,2815.00
887.017,2901.00
887.974,2988.00
888.931,3052.00
889.888,2518.00
890.845,2427.00
891.802,2371.00
892.758,2652.00
893.717,2436.00
894.673,2596.00
895.630,2646.00
896.586,2894.00
897.542,2673.00
898.498,2529.00
899.454,2900.00
900.410,2664.00
901.366,2664.00
902.321,2610.00
903.277,2691.00
904.232,2733.00
905.189,2476.00
906.145,2644.00
907.100,2228.00
908.055,2727.00
909.010,2910.00
909.965,2332.00
910.919,2821.00
911.874,2565.00
912.828,2731.00
913.783,2780.00
914.737,2369.00
915.693,2747.00
916.648,2927.00
917.602,2898.00
918.555,2796.00
919.509,2806.00
920.463,2751.00
921.417,2754.00
922.370,2572.00
923.324,2708.00
924.277,2709.00
925.230,2767.00
926.183,2429.00
927.138,2645.00
928.091,2941.00
929.044,2842.00
929.996,2598.00
930.949,2618.00
931.902,2818.00
932.854,2847.00
933.806,2577.00
934.758,3004.00
935.711,3001.00
936.663,2761.00
937.614,2779.00
938.568,2731.00
939.520,2429.00
940.471,2731.00
941.423,2794.00
942.374,2906.00
943.326,2814.00
944.277,2566.00
945.228,2823.00
946.179,2713.00
947.130,3013.00
948.080,2665.00
949.031,2545.00
949.984,2663.00
950.934,2719.00
951.884,2483.00
952.835,2678.00
953.785,2738.00
954.735,2614.00
955.685,2371.00
956.635,2622.00
957.585,2644.00
958.534,2644.00
959.484,2748.00
960.433,2626.00
961.383,2496.00
962.334,2960.00
963.283,2820.00
964.232,2864.00
965.181,2741.00
966.130,2781.00
967.079,2641.00
968.027,2732.00
968.976,2701.00
969.924,2599.00
970.873,2806.00
971.821,2735.00
972.769,2929.00
973.719,2842.00
974.667,2479.00
975.615,2705.00
976.562,2723.00
977.510,2398.00
978.458,2584.00
979.405,2835.00
980.352,2743.00
981.300,2963.00
982.247,2812.00
983.194,2572.00
984.141,2606.00
985.088,2747.00
986.036,2743.00
986.983,3065.00
987.930,3104.00
988.876,2401.00
989.822,2931.00
990.769,2558.00
991.715,2606.00
992.661,2441.00
993.607,2778.00
994.553,3299.00
995.498,2617.00
996.444,2292.00
997.389,2778.00
998.337,2561.00
999.282,2842.00
1000.227,2642.00
1001.173,2736.00
1002.118,2457.00
1003.062,2910.00
1004.007,2692.00
1004.952,2997.00
1005.897,2941.00
1006.841,2747.00
1007.786,2456.00
1008.730,2437.00
1009.674,3187.00
1010.618,2706.00
1011.564,2498.00
1012.508,2401.00
1013.452,2958.00
1014.396,2727.00
1015.339,2628.00
1016.283,2704.00
1017.226,2738.00
1018.170,2728.00
1019.113,2890.00
1020.056,2693.00
1020.999,2741.00
1021.942,2584.00
1022.885,2876.00
1023.828,3020.00
1024.770,2507.00
1025.715,2742.00
1026.657,2673.00
1027.600,2752.00
1028.542,2912.00
1029.484,2727.00
1030.426,2848.00
1031.368,2791.00
1032.310,2569.00
1033.251,2520.00
1034.193,2686.00
1035.135,2496.00
1036.076,2646.00
1037.017,2543.00
1037.959,2840.00
1038.900,2801.00
1039.843,2800.00
1040.784,2753.00
1041.725,2782.00
1042.665,2637.00
1043.606,2723.00
1044.547,2748.00
1045.487,2370.00
1046.427,2656.00
1047.368,2775.00
1048.308,2254.00
1049.248,2521.00
1050.188,2729.00
1051.128,2601.00
1052.067,2650.00
1053.007,2405.00
1053.947,2370.00
1054.886,2590.00
1055.827,2479.00
1056.766,2877.00
1057.706,2495.00
1058.645,2672.00
1059.584,2716.00
1060.522,2975.00
1061.461,2439.00
1062.400,2470.00
1063.338,2652.00
1064.277,2501.00
1065.215,2495.00
1066.154,2394.00
1067.092,2593.00
1068.030,2668.00
1068.968,2863.00
1069.906,3014.00
1070.843,2960.00
1071.781,2742.00
1072.720,2836.00
1073.658,2786.00
1074.595,2576.00
1075.533,2553.00
1076.470,2592.00
1077.407,3005.00
1078.344,2772.00
1079.281,2776.00
1080.217,2307.00
1081.154,2640.00
1082.091,2743.00
1083.027,2572.00
1083.964,2916.00
1084.900,2555.00
1085.836,2613.00
1086.772,2863.00
1087.708,2453.00
1088.644,2853.00
1089.580,2694.00
1090.515,2735.00
1091.451,2586.00
1092.388,2722.00
1093.324,2458.00
1094.259,3221.00
1095.194,2767.00
1096.129,2621.00
1097.064,2580.00
1097.999,2812.00
1098.934,2535.00
1099.869,2543.00
1100.803,2698.00
1101.738,2692.00
1102.672,2392.00
1103.607,2822.00
1104.541,2563.00
1105.475,2572.00
1106.409,2469.00
1107.343,2608.00
1108.277,2452.00
1109.210,2707.00
1110.144,2700.00
1111.078,2686.00
1112.011,2433.00
1112.944,2801.00
1113.878,2730.00
1114.811,2192.00
1115.744,2592.00
1116.678,2251.00
1117.611,2542.00
1118.544,2584.00
1119.477,2749.00
1120.409,2541.00
1121.342,3107.00
1122.274,2761.00
1123.206,4213.00
1124.138,2686.00
1125.070,2982.00
1126.002,2874.00
1126.934,2283.00
1127.866,2546.00
1128.798,2345.00
1129.729,2357.00
1130.661,2653.00
1131.592,2550.00
1132.523,2757.00
1133.454,2750.00
1134.385,2323.00
1135.317,2671.00
1136.247,2560.00
1137.178,2846.00
1138.109,2392.00
1139.039,3015.00
1139.970,2874.00
1140.900,2581.00
1141.831,2344.00
1142.761,2252.00
1143.691,3139.00
1144.621,2668.00
1145.551,2714.00
1146.480,2681.00
1147.410,2861.00
1148.340,2323.00
1149.269,2368.00
1150.199,2593.00
1151.128,3070.00
1152.057,2470.00
1152.979,2591.00
1153.898,2644.00
1154.819,2759.00
1155.739,2645.00
1156.658,2581.00
1157.579,2671.00
1158.498,2661.00
1159.419,2186.00
1160.338,2678.00
1161.256,2750.00
1162.177,2498.00
1163.095,2627.00
1164.016,2720.00
1164.934,2905.00
1165.852,2840.00
1166.772,2620.00
1167.690,2662.00
1168.610,2701.00
1169.528,2622.00
1170.446,2228.00
1171.365,2553.00
1172.283,2497.00
1173.202,2634.00
1174.120,2712.00
1175.037,2488.00
1175.956,2458.00
1176.873,2515.00
1177.792,2520.00
1178.709,3100.00
1179.626,2545.00
1180.544,2824.00
1181.461,2502.00
1182.379,2724.00
1183.296,2605.00
1184.212,2267.00
1185.130,2529.00
1186.046,2985.00
1186.962,2648.00
1187.880,2899.00
1188.796,2690.00
1189.714,2443.00
1190.629,2778.00
1191.545,2676.00
1192.462,2550.00
1193.378,2621.00
1194.295,2362.00
1195.210,2664.00
1196.125,2788.00
1197.042,2733.00
1197.957,2647.00
1198.872,2505.00
1199.788,2541.00
1200.703,2952.00
1201.619,2630.00
1202.534,2483.00
1203.448,2695.00
1204.364,2563.00
1205.278,2332.00
1206.192,2669.00
1207.108,3147.00
1208.022,3022.00
1208.938,2479.00
1209.851,2756.00
1210.765,2894.00
1211.680,2522.00
1212.594,2432.00
1213.507,2543.00
1214.422,3009.00
1215.335,2769.00
1216.248,2573.00
1217.163,2648.00
1218.076,3238.00
1218.990,2766.00
1219.903,2402.00
1220.816,2454.00
1221.730,2584.00
1222.642,2520.00
1223.554,2545.00
1224.469,2713.00
1225.380,2596.00
1226.292,2277.00
1227.206,2753.00
1228.118,2927.00
1229.032,2223.00
1229.943,2509.00
1230.855,2546.00
1231.768,2383.00
1232.679,2670.00
1233.590,2607.00
1234.503,2858.00
1235.414,2493.00
1236.325,2511.00
1237.238,2724.00
1238.149,2719.00
1239.059,2469.00
1239.972,2791.00
1240.882,2470.00
1241.793,2772.00
1242.705,3046.00
1243.615,2555.00
1244.525,2731.00
1245.437,2209.00
1246.347,2705.00
1247.259,2813.00
1248.168,3098.00
1249.078,2867.00
1249.989,2911.00
1250.899,2446.00
1251.808,2483.00
1252.719,2557.00
1253.628,2531.00
1254.537,3023.00
1255.448,2492.00
1256.357,2471.00
1257.266,2634.00
1258.176,2362.00
1259.085,2359.00
1259.993,2449.00
1260.904,2462.00
1261.812,2477.00
1262.720,3213.00
1263.630,2807.00
1264.538,2470.00
1265.446,2736.00
1266.356,2607.00
1267.263,2866.00
1268.171,2402.00
1269.080,2685.00
1269.988,2796.00
1270.895,2559.00
1271.804,2625.00
1272.711,2796.00
1273.619,2794.00
1274.527,2433.00
1275.434,2714.00
1276.341,2442.00
1277.248,2653.00
1278.156,2929.00
1279.063,2514.00
1279.969,2712.00
1280.877,3540.00
1281.783,2842.00
1282.690,2694.00
1283.598,2553.00
1284.503,2492.00
1285.409,2464.00
1286.317,2985.00
1287.223,3065.00
1288.128,2667.00
1289.036,2493.00
1289.941,2560.00
1290.846,2662.00
1291.751,2467.00
1292.658,2551.00
1293.563,3038.00
1294.468,2661.00
1295.375,2716.00
1296.280,2851.00
1297.184,3327.00
1298.091,2757.00
1298.995,2786.00
1299.900,3005.00
1300.806,2539.00
1301.710,2347.00
1302.614,2206.00
1303.518,2880.00
1304.424,2582.00
1305.327,2843.00
1306.231,2606.00
1307.137,2793.00
1308.040,2692.00
1308.943,2636.00
1309.847,2871.00
1310.752,2832.00
1311.655,2310.00
1312.558,2388.00
1313.463,2565.00
1314.366,2534.00
1315.269,2688.00
1316.171,2624.00
1317.076,2544.00
1317.978,2435.00
1318.881,2288.00
1319.785,2496.00
1320.687,2525.00
1321.589,2233.00
1322.491,2482.00
1323.395,2701.00
1324.297,3181.00
1325.198,2751.00
1326.102,2422.00
1327.004,2456.00
1327.905,3031.00
1328.806,2615.00
1329.709,2674.00
1330.611,2540.00
1331.512,2444.00
1332.413,3110.00
1333.316,2667.00
1334.216,2801.00
1335.117,2349.00
1336.020,2661.00
1336.920,2644.00
1337.821,2502.00
1338.721,2898.00
1339.623,2699.00
1340.523,2574.00
1341.423,2493.00
1342.323,2924.00
1343.225,2768.00
1344.125,2467.00
1345.025,2493.00
1345.924,2310.00
1346.826,2997.00
1347.725,3045.00
1348.624,2855.00
1349.524,2494.00
1350.425,2585.00
1351.324,2747.00
1352.223,2811.00
1353.121,2626.00
1354.022,2816.00
1354.921,3034.00
1355.819,2790.00
1356.718,2682.00
1357.618,2384.00
1358.516,2792.00
1359.415,3017.00
1360.313,2713.00
1361.213,2593.00
1362.111,2917.00
1363.008,3272.00
1363.906,2631.00
1364.806,2658.00
1365.703,2707.00
1366.601,2439.00
1367.498,2456.00
1368.397,2818.00
1369.295,2721.00
1370.192,2466.00
1371.089,2674.00
1371.987,2620.00
1372.884,2888.00
1373.781,2438.00
1374.678,2640.00
1375.574,2461.00
1376.473,2721.00
1377.369,2849.00
1378.265,2496.00
1379.161,2616.00
1380.059,2346.00
1380.955,2739.00
1381.851,2426.00
1382.747,2560.00
1383.643,2573.00
1384.540,2456.00
1385.436,2539.00
1386.331,2685.00
1387.227,2785.00
1388.124,2755.00
1389.019,2413.00
1389.914,2602.00
1390.809,2294.00
1391.704,3023.00
1392.601,2523.00
1393.495,2915.00
1394.390,2748.00
1395.285,2876.00
1396.179,2682.00
1397.075,2599.00
1397.969,2726.00
1398.864,2336.00
1399.758,2597.00
1400.652,2653.00
1401.547,2475.00
1402.441,2420.00
1403.335,2957.00
1404.229,2690.00
1405.122,2691.00
1406.017,2615.00
1406.911,2769.00
1407.804,3051.00
1408.697,2589.00
1409.590,2467.00
1410.485,2803.00
1411.378,2691.00
1412.271,2382.00
1413.163,2738.00
1414.056,2779.00
1414.949,3014.00
1415.843,2694.00
1416.735,2572.00
1417.627,2617.00
1418.520,2627.00
1419.412,2864.00
1420.306,2780.00
1421.197,2868.00
1422.089,2858.00
1422.981,3082.00
1423.873,2824.00
1424.764,2753.00
1425.657,2688.00
1426.549,2789.00
1427.440,2829.00
1428.331,2544.00
1429.222,2355.00
1430.113,2653.00
1431.006,2814.00
1431.897,2567.00
1432.787,2673.00
1433.678,2554.00
1434.568,2454.00
1435.459,2860.00
1436.351,2798.00
1437.241,2803.00
1438.131,2765.00
1439.021,2417.00
1439.911,2617.00
1440.801,2709.00
1441.693,2866.00
1442.583,2690.00
1443.472,2606.00
1444.362,2739.00
1445.251,2583.00
1446.140,2569.00
1447.030,2833.00
1447.921,2844.00
1448.810,2479.00
1449.699,3007.00
1450.588,2671.00
1451.476,2567.00
1452.365,2753.00
1453.254,2582.00
1454.144,2555.00
1455.032,2791.00
1455.921,2387.00
1456.809,2934.00
1457.697,2456.00
1458.585,2590.00
1459.473,2562.00
1460.361,2494.00
1461.251,2712.00
1462.138,2740.00
1463.026,2616.00
1463.913,2877.00
1464.801,2565.00
1465.688,2733.00
1466.575,2685.00
1467.463,3101.00
1468.351,2487.00
1469.238,2603.00
1470.125,2258.00
1471.012,2683.00
1471.899,2719.00
1472.785,2442.00
1473.672,2667.00
1474.558,2869.00
1475.446,2759.00
1476.333,2799.00
1477.219,2457.00
1478.105,2611.00
1478.991,2630.00
1479.877,2934.00
1480.762,2626.00
1481.648,2543.00
1482.534,2719.00
1483.419,2709.00
1484.307,2780.00
1485.192,2604.00
1486.077,2479.00
1486.962,2506.00
1487.847,2394.00
1488.732,2489.00
1489.617,2668.00
1490.502,2914.00
1491.387,2769.00
1492.271,2481.00
1493.156,2510.00
1494.042,2433.00
1494.927,2812.00
1495.811,2534.00
1496.695,2783.00
1497.579,2920.00
1498.463,2638.00
1499.347,2677.00
1500.231,2664.00
1501.114,2715.00
1501.998,2928.00
1502.881,2689.00
1503.765,2911.00
1504.648,3020.00
1505.533,2751.00
1506.417,2648.00
1507.300,2631.00
1508.183,2703.00
1509.066,2089.00
1509.948,2886.00
1510.831,3013.00
1511.714,2478.00
1512.596,2755.00
1513.479,2867.00
1514.361,2840.00
1515.243,2654.00
1516.125,2829.00
1517.008,2883.00
1517.890,2631.00
1518.771,2693.00
1519.655,2856.00
1520.537,2630.00
1521.419,2431.00
1522.300,2683.00
1523.182,2782.00
1524.063,2748.00
1524.944,2905.00
1525.825,2850.00
1526.707,2479.00
1527.588,2457.00
1528.468,2725.00
1529.349,2331.00
1530.230,2549.00
1531.111,2827.00
1531.991,2706.00
1532.872,2327.00
1533.752,2626.00
1534.632,2518.00
1535.513,2507.00
1536.393,2809.00
1537.273,2939.00
1538.153,3277.00
1539.032,2409.00
1539.912,2667.00
1540.792,2687.00
1541.672,2650.00
1542.551,2730.00
1543.430,3271.00
1544.310,2694.00
1545.189,2551.00
1546.068,3052.00
1546.947,2764.00
1547.826,2954.00
1548.705,2632.00
1549.584,2842.00
1550.462,2592.00
1551.341,2800.00
1552.219,2732.00
1553.098,2828.00
1553.976,2877.00
1554.854,3060.00
1555.733,2889.00
1556.611,2568.00
1557.489,2456.00
1558.367,2655.00
1559.244,2796.00
1560.122,2662.00
1561.000,2753.00
1561.877,2920.00
1562.755,2538.00
1563.632,2612.00
1564.509,2929.00
1565.386,3006.00
1566.264,2425.00
1567.141,2321.00
1568.017,2793.00
1568.894,2634.00
1569.771,2708.00
1570.648,2786.00
1571.524,2675.00
1572.401,2431.00
1573.277,2441.00
1574.153,2688.00
1575.029,2516.00
1575.906,3339.00
1576.781,2827.00
1577.657,2602.00
1578.533,2908.00
1579.409,2280.00
1580.285,2618.00
1581.160,3079.00
1582.036,2845.00
1582.911,2504.00
1583.786,2996.00
1584.662,2500.00
1585.537,2623.00
1586.412,2710.00
1587.287,2465.00
1588.160,2821.00
1589.035,2352.00
1589.909,2675.00
1590.784,2632.00
1591.658,2451.00
1592.533,2702.00
1593.407,2688.00
1594.281,2559.00
1595.155,3024.00
1596.029,2563.00
1596.903,2624.00
1597.777,2612.00
1598.651,2891.00
1599.525,2329.00
1600.398,2679.00
1601.272,2636.00
1602.144,3156.00
1603.017,2595.00
1603.890,2882.00
1604.763,2743.00
1605.636,2852.00
1606.509,2361.00
1607.382,2491.00
1608.255,2737.00
1609.128,2887.00
1610.000,2601.00
1610.873,2362.00
1611.746,2555.00
1612.616,2602.00
1613.488,2254.00
1614.361,2642.00
1615.233,2621.00
1616.105,2858.00
1616.977,2565.00
1617.849,2509.00
1618.720,2957.00
1619.592,2970.00
1620.464,2717.00
1621.333,3103.00
1622.205,2694.00
1623.076,2642.00
1623.947,2644.00
1624.818,2878.00
1625.689,2799.00
1626.560,2584.00
1627.431,2725.00
1628.302,3057.00
1629.171,2780.00
1630.042,3003.00
1630.912,3637.00
1631.782,3218.00
1632.653,2454.00
1633.523,2837.00
1634.393,2855.00
1635.263,2495.00
1636.131,2648.00
1637.001,2589.00
1637.871,2302.00
1638.741,2290.00
1639.611,2431.00
1640.480,2776.00
1641.350,2547.00
1642.219,2477.00
1643.087,2180.00
1643.956,3074.00
1644.825,2896.00
1645.694,2879.00
1646.563,2819.00
1647.432,2692.00
1648.299,2688.00
1649.167,2821.00
1650.036,2482.00
1650.904,2795.00
1651.773,2901.00
1652.641,2684.00
1653.509,2846.00
1654.376,2512.00
1655.244,2722.00
1656.112,2734.00
1656.980,2708.00
1657.847,2529.00
1658.715,2864.00
1659.581,2557.00
1660.448,2912.00
1661.316,2204.00
1662.183,2742.00
1663.051,2692.00
1663.918,2698.00
1664.783,2649.00
1665.650,2757.00
1666.517,2825.00
1667.384,2693.00
1668.251,2697.00
1669.115,2850.00
1669.982,2638.00
1670.849,2927.00
1671.715,2623.00
1672.581,2774.00
1673.446,2777.00
1674.312,2688.00
1675.178,3139.00
1676.044,2750.00
1676.910,2761.00
1677.774,2714.00
1678.639,2333.00
1679.505,2659.00
1680.370,2757.00
1681.236,3327.00
1682.099,2644.00
1682.965,2706.00
1683.830,2286.00
1684.695,2491.00
1685.560,2591.00
1686.423,2808.00
1687.288,2813.00
1688.153,2721.00
1689.017,2614.00
1689.880,2755.00
1690.745,2776.00
1691.609,2511.00
1692.473,2815.00
1693.338,2904.00
1694.200,2930.00
1695.064,2641.00
1695.928,2579.00
1696.792,2714.00
1697.654,3136.00
1698.517,2681.00
1699.381,2399.00
1700.245,2354.00
1701.106,2913.00
1701.969,2581.00
1702.833,2822.00
1703.696,2578.00
1704.557,2636.00
1705.420,2523.00
1706.283,2694.00
1707.146,2804.00
1708.007,2472.00
1708.870,2488.00
1709.732,2338.00
1710.595,2561.00
1711.455,2420.00
1712.318,2577.00
1713.180,2949.00
1714.040,2716.00
1714.902,2830.00
1715.764,2704.00
1716.626,2478.00
1717.486,2650.00
1718.348,2933.00
1719.209,4921.00
1720.071,2368.00
1720.930,2437.00
1721.792,2516.00
1722.653,2550.00
1723.512,2575.00
1724.374,2641.00
1725.234,2695.00
1726.095,2708.00
1726.954,2657.00
1727.815,2794.00
1728.676,2659.00
1729.535,2842.00
1730.395,2673.00
1731.256,2574.00
1732.114,2712.00
1732.974,2162.00
1733.834,3032.00
1734.693,2862.00
1735.553,2717.00
1736.413,3085.00
1737.272,2545.00
1738.130,2616.00
1738.990,2732.00
1739.849,2571.00
1740.707,3602.00
1741.566,2707.00
1742.426,2713.00
1743.283,3057.00
1744.142,2558.00
1745.001,2381.00
1745.858,2839.00
1746.717,2718.00
1747.576,2778.00
1748.433,2789.00
1749.292,3255.00
1750.150,3274.00
1751.007,2848.00
1751.865,2889.00
1752.723,2699.00
1753.579,2631.00
1754.438,2904.00
1755.296,2876.00
1756.152,2230.00
1757.010,2362.00
1757.865,2878.00
1758.723,2360.00
1759.581,3009.00
1760.436,2605.00
1761.294,2972.00
1762.151,2704.00
1763.006,2617.00
1763.864,2322.00
1764.721,2886.00
1765.576,2728.00
1766.433,2824.00
1767.288,2582.00
1768.144,2713.00
1769.001,2657.00
1769.856,2724.00
1770.712,2901.00
1771.568,2464.00
1772.423,2567.00
1773.279,2587.00
1774.133,2592.00
1774.989,3039.00
1775.845,3036.00
1776.699,2911.00
1777.555,2662.00
1778.409,3213.00
1779.265,2654.00
1780.120,2645.00
1780.974,2683.00
1781.829,2308.00
1782.682,2762.00
1783.538,2496.00
1784.393,2714.00
1785.246,2591.00
1786.101,2761.00
1786.954,2817.00
1787.808,2872.00
1788.661,2388.00
1789.516,2587.00
1790.370,2614.00
1791.223,2843.00
1792.077,2669.00
1792.930,2749.00
1793.784,2547.00
1794.636,2685.00
1795.490,2654.00
1796.344,2679.00
1797.196,2654.00
1798.049,2846.00
1798.901,2546.00
1799.755,2864.00
1800.606,2491.00
1801.460,3184.00
1802.311,2936.00
1803.165,3048.00
1804.018,3017.00
1804.869,2731.00
1805.722,3145.00
1806.573,2677.00
1807.426,2497.00
1808.276,2675.00
1809.129,2546.00
1809.980,2878.00
1810.832,2935.00
1811.683,2627.00
1812.535,2978.00
1813.385,2637.00
1814.237,2941.00
1815.089,2726.00
1815.940,2927.00
1816.791,2636.00
1817.641,2530.00
1818.493,2822.00
1819.343,2765.00
1820.194,2547.00
1821.044,2801.00
1821.895,2877.00
1822.745,2452.00
1823.596,2546.00
1824.445,3086.00
1825.296,2810.00
1826.145,2666.00
1826.996,2860.00
1827.845,2744.00
1828.695,2744.00
1829.544,2640.00
1830.395,2729.00
1831.243,2597.00
1832.094,2440.00
1832.942,3293.00
1833.792,2788.00
1834.640,2738.00
1835.490,2679.00
1836.338,2741.00
1837.186,2566.00
1838.036,2540.00
1838.884,2680.00
1839.733,2999.00
1840.581,2870.00
1841.430,2824.00
1842.278,2997.00
1843.127,2588.00
1843.974,2339.00
1844.823,3100.00
1845.671,2853.00
1846.519,2702.00
1847.366,2777.00
1848.213,2290.00
1849.062,2509.00
1849.909,2402.00
1850.757,3297.00
1851.604,2799.00
1852.452,2624.00
1853.298,2874.00
1854.146,2737.00
1854.993,2751.00
1855.839,3191.00
1856.687,2817.00
1857.532,2809.00
1858.380,2702.00
1859.226,2726.00
1860.073,2822.00
1860.919,2510.00
1861.765,2591.00
1862.612,2933.00
1863.457,2896.00
1864.304,2656.00
1865.150,2809.00
1865.995,2655.00
1866.842,2810.00
1867.686,2944.00
1868.533,2797.00
1869.378,2763.00
1870.223,2698.00
1871.069,2568.00
1871.914,2701.00
1872.760,2682.00
1873.604,2511.00
1874.448,2832.00
1875.294,2836.00
1876.139,2607.00
1876.984,2832.00
1877.828,2370.00
1878.672,2205.00
1879.518,2569.00
1880.361,2851.00
1881.205,2848.00
1882.050,2484.00
1882.894,3175.00
1883.739,2550.00
1884.582,2471.00
1885.425,2496.00
1886.270,2960.00
1887.113,2463.00
1887.956,2781.00
1888.801,2731.00
1889.644,2505.00
1890.486,2269.00
1891.331,2638.00
1892.173,2730.00
1893.017,2755.00
1893.860,2955.00
1894.702,3038.00
1895.546,2692.00
1896.388,3372.00
1897.230,3058.00
1898.074,2603.00
1898.916,2493.00
1899.757,2564.00
1900.601,3385.00
1901.443,2989.00
1902.284,2991.00
1903.125,3186.00
1903.969,2881.00
1904.810,2954.00
1905.651,2798.00
1906.494,3038.00
1907.335,3141.00
1908.176,2794.00
1909.018,2796.00
1909.859,2673.00
1910.700,2568.00
1911.542,3250.00
1912.383,2748.00
1913.223,2325.00
1914.064,2794.00
1914.906,2928.00
1915.746,3052.00
1916.586,3157.00
1917.428,2683.00
1918.268,2721.00
1919.107,2625.00
1919.947,2465.00
1920.789,2638.00
1921.628,2939.00
1922.468,2723.00
1923.309,2526.00
1924.148,2978.00
1924.988,2749.00
1925.827,2703.00
1926.667,2579.00
1927.507,2736.00
1928.345,2541.00
1929.184,2870.00
1930.025,2515.00
1930.864,2955.00
1931.702,3021.00
1932.541,2594.00
1933.381,2844.00
1934.219,2827.00
1935.057,2959.00
1935.896,2435.00
1936.735,2692.00
1937.573,2593.00
1938.411,2495.00
1939.249,2874.00
1940.089,2587.00
1940.927,2941.00
1941.764,2983.00
1942.602,2643.00
1943.439,2621.00
1944.278,2662.00
1945.115,2606.00
1945.953,2439.00
1946.790,2806.00
1947.628,3054.00
1948.465,2792.00
1949.302,2844.00
1950.139,2859.00
1950.976,2568.00
1951.814,2872.00
1952.651,2769.00
1953.487,2537.00
1954.323,2951.00
1955.160,2689.00
1955.998,3029.00
1956.834,2699.00
1957.670,2794.00
1958.506,2971.00
1959.342,2827.00
1960.177,2739.00
1961.015,2851.00
1961.850,2729.00
1962.686,2771.00
1963.521,2743.00
1964.357,3011.00
1965.192,2506.00
1966.029,2854.00
1966.864,2659.00
1967.699,2947.00
1968.534,2775.00
1969.369,2992.00
1970.204,2704.00
1971.040,2751.00
1971.875,2639.00
1972.709,2719.00
1973.544,2545.00
1974.378,2585.00
1975.212,2855.00
1976.047,2623.00
1976.882,2583.00
1977.716,3079.00
1978.550,2422.00
1979.384,2671.00
1980.218,2671.00
1981.052,2690.00
1981.885,2743.00
1982.719,2693.00
1983.554,2826.00
1984.388,3035.00
1985.221,2817.00
1986.054,2947.00
1986.887,2782.00
1987.720,2585.00
1988.553,3051.00
1989.386,2806.00
1990.219,2830.00
1991.053,3020.00
1991.886,2590.00
1992.719,2914.00
1993.551,2268.00
1994.383,2888.00
1995.216,2628.00
1996.048,2464.00
1996.880,2888.00
1997.712,2596.00
1998.544,2744.00
1999.376,2773.00
2000.208,2992.00
2001.040,3128.00
2001.873,2588.00
2002.705,2544.00
2003.536,2774.00
2004.367,2729.00
2005.199,2748.00
2006.030,2608.00
2006.861,2497.00
2007.692,2713.00
2008.523,2602.00
2009.354,2773.00
2010.185,2536.00
2011.016,2859.00
2011.846,2902.00
2012.677,2653.00
2013.507,3110.00
2014.338,2933.00
2015.168,2654.00
2015.999,3249.00
2016.829,2662.00
2017.659,2933.00
2018.489,3190.00
2019.319,2537.00
2020.149,2907.00
2020.980,2749.00
2021.810,2530.00
2022.639,2608.00
2023.469,2598.00
2024.298,2435.00
2025.128,2342.00
2025.957,2365.00
2026.786,2172.00
2027.615,2352.00
2028.444,2531.00
2029.273,2721.00
2030.102,2322.00
2030.931,2572.00
2031.758,2833.00
2032.586,2503.00
2033.415,2558.00
2034.243,2224.00
2035.072,2009.00
2035.900,2491.00
2036.728,2306.00
2037.556,2340.00
2038.385,2341.00
2039.213,2163.00
2040.040,2158.00
2040.868,2129.00
2041.696,2197.00
2042.524,2195.00
2043.351,2390.00
2044.179,2184.00
2045.006,1995.00
