RamanScope Measure Spectrum Data V3.72

<< MEASURE CONDITION >>
Exposure Type,Aver
Exposure Time [sec],15
Exposure Count,30
Measure Time,2023/07/03 21:06:25
Data Name,""
Data Comment,""
Rayleigh Wave[nm],532.0

<< SAMPLE SPECTRUM >>
Wave[dcm-1],No219
146.591,699.10
147.626,832.57
148.664,965.17
149.699,1089.60
150.737,1243.70
151.772,1356.20
152.809,1462.73
153.846,1606.23
154.881,1737.50
155.918,1850.63
156.953,1909.07
157.989,1964.33
159.026,2044.20
160.060,2071.43
161.096,2124.07
162.130,2142.93
163.167,2177.70
164.200,2236.13
165.236,2287.33
166.272,2313.30
167.305,2346.47
168.341,2352.50
169.374,2413.00
170.409,2446.00
171.445,2496.40
172.477,2517.17
173.512,2516.97
174.545,2591.90
175.580,2599.23
176.614,2653.87
177.647,2658.37
178.681,2613.17
179.713,2660.43
180.747,2623.87
181.781,2591.53
182.813,2645.97
183.847,2612.13
184.878,2589.73
185.912,2614.60
186.945,2662.87
187.976,2634.27
189.010,2676.43
190.043,2695.93
191.073,2675.40
192.106,2734.27
193.137,2765.80
194.170,2783.63
195.202,2797.40
196.232,2880.27
197.265,2943.57
198.297,2950.57
199.327,2975.97
200.359,3064.53
201.388,3123.20
202.420,3151.17
203.452,3258.83
204.481,3340.23
205.512,3447.47
206.544,3518.77
207.573,3607.30
208.604,3738.97
209.635,3937.57
210.663,4027.17
211.694,4269.50
212.725,4436.37
213.753,4662.63
214.783,4912.07
215.813,5043.83
216.841,5204.90
217.871,5334.20
218.899,5455.70
219.929,5497.93
220.959,5494.73
221.986,5443.83
223.016,5320.43
224.045,5132.23
225.072,4963.73
226.101,4728.17
227.130,4561.70
228.157,4388.17
229.185,4194.33
230.214,4027.80
231.241,3911.90
232.269,3801.50
233.297,3749.63
234.323,3693.93
235.351,3569.93
236.379,3545.20
237.407,3541.77
238.433,3410.70
239.460,3467.90
240.488,3443.70
241.513,3454.53
242.540,3514.40
243.568,3530.43
244.592,3551.43
245.619,3575.80
246.646,3587.43
247.671,3554.53
248.697,3547.70
249.724,3521.07
250.748,3488.93
251.774,3508.73
252.801,3437.37
253.827,3441.63
254.850,3425.80
255.876,3468.03
256.902,3451.00
257.925,3446.57
258.951,3478.33
259.976,3476.87
260.999,3585.97
262.024,3580.13
263.049,3576.90
264.074,3649.07
265.097,3689.77
266.122,3726.93
267.146,3812.47
268.168,3857.83
269.193,3938.63
270.217,4036.03
271.241,4002.23
272.263,4106.07
273.287,4153.57
274.311,4214.80
275.332,4289.47
276.356,4356.10
277.379,4404.73
278.402,4407.77
279.424,4427.33
280.447,4390.87
281.470,4402.20
282.492,4373.87
283.513,4332.70
284.536,4252.47
285.558,4170.87
286.581,4126.60
287.601,4076.13
288.623,4018.30
289.645,3947.60
290.665,3878.83
291.687,3762.23
292.709,3697.93
293.730,3616.40
294.750,3570.27
295.771,3518.63
296.792,3379.63
297.813,3406.13
298.832,3305.13
299.853,3268.50
300.874,3224.27
301.895,3166.10
302.913,3107.10
303.934,3028.03
304.954,3019.90
305.975,2982.50
306.993,2938.77
308.013,2883.77
309.033,2879.13
310.052,2844.77
311.072,2762.77
312.090,2773.67
313.109,2712.90
314.129,2686.87
315.148,2658.20
316.165,2665.00
317.184,2616.77
318.203,2623.07
319.222,2608.33
320.238,2557.83
321.257,2600.03
322.275,2554.57
323.294,2532.83
324.312,2555.63
325.328,2466.80
326.346,2488.37
327.364,2526.20
328.382,2475.10
329.397,2477.80
330.415,2442.83
331.432,2402.60
332.450,2419.90
333.467,2384.47
334.482,2411.60
335.499,2422.47
336.516,2427.83
337.533,2404.00
338.547,2388.57
339.564,2362.50
340.580,2409.80
341.597,2377.03
342.613,2378.73
343.627,2356.87
344.643,2352.63
345.659,2321.03
346.675,2341.17
347.690,2298.40
348.704,2355.33
349.719,2326.60
350.735,2334.60
351.750,2371.30
352.765,2343.60
353.778,2338.63
354.793,2331.17
355.808,2355.83
356.822,2312.50
357.837,2292.80
358.851,2363.50
359.864,2344.30
360.878,2324.93
361.892,2320.87
362.906,2371.23
363.920,2366.43
364.932,2352.10
365.945,2358.57
366.959,2378.40
367.972,2388.70
368.986,2369.23
369.999,2402.10
371.010,2388.80
372.023,2431.27
373.036,2423.57
374.049,2433.40
375.061,2473.87
376.072,2498.37
377.084,2459.43
378.097,2500.80
379.109,2509.80
380.121,2502.20
381.133,2521.17
382.143,2518.63
383.155,2530.87
384.166,2561.20
385.178,2564.20
386.189,2541.47
387.201,2563.80
388.212,2598.43
389.221,2584.03
390.232,2586.17
391.243,2567.60
392.254,2579.23
393.264,2583.73
394.275,2585.23
395.283,2591.13
396.294,2542.20
397.304,2550.63
398.314,2541.30
399.324,2553.27
400.334,2495.63
401.344,2505.13
402.351,2462.03
403.361,2463.70
404.370,2415.40
405.380,2423.43
406.389,2359.00
407.398,2386.90
408.407,2357.70
409.414,2496.33
410.423,2325.83
411.431,2320.50
412.440,2286.47
413.448,2290.60
414.457,2260.80
415.465,2315.37
416.471,2273.47
417.479,2241.10
418.487,2294.17
419.495,2223.23
420.503,2250.37
421.510,2225.50
422.518,2215.33
423.525,2218.00
424.530,2217.57
425.537,2226.57
426.544,2210.60
427.551,2202.53
428.558,2186.60
429.565,2223.53
430.571,2190.10
431.578,2173.00
432.582,2183.90
433.588,2175.13
434.595,2191.13
435.601,2209.80
436.607,2194.37
437.612,2176.47
438.618,2177.53
439.624,2191.10
440.627,2165.63
441.633,2189.73
442.638,2215.73
443.643,2142.40
444.648,2154.17
445.653,2176.97
446.658,2186.50
447.663,2148.23
448.667,2204.77
449.672,2155.27
450.674,2236.20
451.678,2195.77
452.682,2225.20
453.687,2210.80
454.690,2245.77
455.694,2211.37
456.698,2217.20
457.702,2202.67
458.705,2222.97
459.709,2233.80
460.710,2246.53
461.713,2204.13
462.716,2259.20
463.719,2208.20
464.722,2223.97
465.725,2268.37
466.727,2290.13
467.730,2237.97
468.732,2307.77
469.735,2268.70
470.737,2293.13
471.737,2299.53
472.739,2260.40
473.741,2258.23
474.742,2274.07
475.744,2269.87
476.746,2314.73
477.747,2290.00
478.748,2298.60
479.750,2276.43
480.751,2321.17
481.752,2343.47
482.753,2314.23
483.751,2297.53
484.752,2324.93
485.753,2342.83
486.753,2292.80
487.753,2338.33
488.754,2341.50
489.754,2301.90
490.754,2291.23
491.754,2297.70
492.754,2344.53
493.753,2301.20
494.753,2285.27
495.752,2292.33
496.752,2282.87
497.749,2308.67
498.748,2306.23
499.747,2254.40
500.746,2276.33
501.745,2277.43
502.744,2289.53
503.742,2253.67
504.741,2253.33
505.739,2257.90
506.737,2282.87
507.735,2266.37
508.734,2260.37
509.732,2198.87
510.729,2235.13
511.727,2275.70
512.725,2205.80
513.720,2227.10
514.718,2152.73
515.715,2205.43
516.712,2161.60
517.709,2180.33
518.706,2177.83
519.703,2212.73
520.700,2201.07
521.696,2137.30
522.693,2158.07
523.689,2213.77
524.686,2169.77
525.682,2134.07
526.678,2177.00
527.674,2199.37
528.670,2229.80
529.666,2184.80
530.661,2213.53
531.657,2251.27
532.652,2224.90
533.648,2248.97
534.641,2223.13
535.636,2230.10
536.631,2233.47
537.626,2238.73
538.621,2271.73
539.616,2221.33
540.610,2230.23
541.605,2259.13
542.599,2259.27
543.593,2235.07
544.587,2251.93
545.581,2279.33
546.575,2296.97
547.569,2291.93
548.563,2277.90
549.557,2277.80
550.550,2243.47
551.543,2260.50
552.537,2307.83
553.530,2249.00
554.523,2295.23
555.516,2255.83
556.509,2241.87
557.502,2309.60
558.494,2270.27
559.487,2302.33
560.479,2296.57
561.472,2295.67
562.464,2295.80
563.456,2226.37
564.448,2270.80
565.440,2346.50
566.432,2331.43
567.423,2255.47
568.415,2231.10
569.404,2308.83
570.396,2306.87
571.387,2357.73
572.378,2332.83
573.369,2315.63
574.360,2370.40
575.351,2376.57
576.341,2335.80
577.332,2380.63
578.323,2371.43
579.313,2401.63
580.303,2413.40
581.293,2403.03
582.283,2403.23
583.273,2412.00
584.263,2425.03
585.253,2449.27
586.243,2483.67
587.232,2418.70
588.222,2432.57
589.211,2482.07
590.200,2470.47
591.189,2430.40
592.178,2471.60
593.167,2414.17
594.156,2437.90
595.145,2431.20
596.133,2457.57
597.122,2425.80
598.110,2460.30
599.098,2411.30
600.086,2412.30
601.074,2505.17
602.062,2467.93
603.050,2420.13
604.038,2441.87
605.025,2445.80
606.013,2460.43
607.000,2471.90
607.987,2469.20
608.975,2435.67
609.962,2403.77
610.949,2420.80
611.936,2445.23
612.922,2426.20
613.909,2431.93
614.895,2404.97
615.882,2403.00
616.868,2374.87
617.854,2378.53
618.841,2380.37
619.826,2343.20
620.812,2325.63
621.798,2349.03
622.784,2357.50
623.769,2329.80
624.755,2249.13
625.740,2256.67
626.725,2293.53
627.711,2245.53
628.698,2241.40
629.683,2208.60
630.667,2187.10
631.652,2185.57
632.637,2206.07
633.621,2184.10
634.606,2151.80
635.590,2096.73
636.574,2151.33
637.558,2151.33
638.542,2106.00
639.526,2087.57
640.510,2089.33
641.493,2043.13
642.477,2069.30
643.460,2081.23
644.444,2064.87
645.427,2085.40
646.410,2043.93
647.393,2059.30
648.376,2036.00
649.359,1993.87
650.341,1983.63
651.324,1935.40
652.307,2001.80
653.289,1945.90
654.271,1950.93
655.253,1961.77
656.235,1906.27
657.217,1931.07
658.199,1960.00
659.181,1883.13
660.163,1943.13
661.144,1892.80
662.126,1911.73
663.107,1882.87
664.088,1868.97
665.069,1906.60
666.050,1857.00
667.033,1862.33
668.014,1860.70
668.995,1827.13
669.975,1858.00
670.956,1850.77
671.936,1822.17
672.916,1801.93
673.896,1837.77
674.876,1752.53
675.856,1803.73
676.836,1776.63
677.816,1773.23
678.795,1744.67
679.775,1744.47
680.754,1747.03
681.734,1706.47
682.713,1713.13
683.692,1683.63
684.671,1714.00
685.650,1689.67
686.629,1644.90
687.607,1647.73
688.586,1659.17
689.564,1635.17
690.543,1626.73
691.523,1581.43
692.501,1599.20
693.479,1581.60
694.457,1563.97
695.435,1578.50
696.413,1586.37
697.390,1570.17
698.368,1546.13
699.345,1534.30
700.322,1557.77
701.300,1532.30
702.277,1526.87
703.254,1502.90
704.231,1520.50
705.207,1508.57
706.184,1506.10
707.161,1470.17
708.137,1485.00
709.113,1480.97
710.090,1505.43
711.068,1481.10
712.044,1455.90
713.020,1452.67
713.996,1448.40
714.971,1486.50
715.947,1439.70
716.922,1464.60
717.898,1431.43
718.873,1488.20
719.848,1424.97
720.823,1420.80
721.798,1437.97
722.773,1375.37
723.748,1381.23
724.723,1391.80
725.697,1388.27
726.672,1396.97
727.646,1363.77
728.622,1333.37
729.596,1375.40
730.570,1377.93
731.544,1353.33
732.518,1346.53
733.492,1354.30
734.466,1345.43
735.439,1343.30
736.413,1351.87
737.386,1365.03
738.359,1344.23
739.332,1344.57
740.305,1345.53
741.278,1376.30
742.251,1349.40
743.224,1340.20
744.196,1326.67
745.171,1305.87
746.143,1299.57
747.115,1345.30
748.087,1329.23
749.059,1251.10
750.031,1342.63
751.003,1268.47
751.975,1318.20
752.947,1295.67
753.918,1265.20
754.890,1293.87
755.861,1288.07
756.832,1270.47
757.803,1280.63
758.774,1288.43
759.747,1271.10
760.718,1310.90
761.689,1268.60
762.659,1252.20
763.630,1214.07
764.600,1261.60
765.570,1260.10
766.540,1241.60
767.510,1270.93
768.480,1242.50
769.450,1259.27
770.420,1265.97
771.390,1240.20
772.359,1264.77
773.329,1243.47
774.300,1228.70
775.269,1270.70
776.238,1224.13
777.207,1192.83
778.176,1228.77
779.145,1201.27
780.114,1215.77
781.083,1185.17
782.051,1178.30
783.019,1193.00
783.988,1219.33
784.956,1185.40
785.924,1216.60
786.894,1185.40
787.862,1174.67
788.830,1164.13
789.797,1209.23
790.765,1184.67
791.732,1186.40
792.700,1144.53
793.667,1208.67
794.634,1177.03
795.601,1165.87
796.568,1148.17
797.535,1144.63
798.502,1152.90
799.468,1146.07
800.437,1146.63
801.403,1178.73
802.370,1132.43
803.336,1169.70
804.302,1153.97
805.268,1159.07
806.234,1144.27
807.200,1128.17
808.166,1074.40
809.131,1147.73
810.097,1145.77
811.062,1152.47
812.027,1092.20
812.994,1080.03
813.960,1142.30
814.925,1113.20
815.889,1077.03
816.854,1147.70
817.819,1095.27
818.783,1152.60
819.748,1102.30
820.712,1103.97
821.677,1100.43
822.641,1099.40
823.605,1107.83
824.571,1106.27
825.534,1058.27
826.498,1108.93
827.462,1073.30
828.425,1085.77
829.389,1102.67
830.352,1052.23
831.315,1076.80
832.279,1082.07
833.242,1035.30
834.204,1053.30
835.167,1073.20
836.132,1104.10
837.095,1102.47
838.057,1069.17
839.020,1073.37
839.982,1103.57
840.944,1097.93
841.906,1087.10
842.868,1055.77
843.830,1103.70
844.792,1044.07
845.753,1084.00
846.715,1060.83
847.679,1054.70
848.640,1061.40
849.601,1081.63
850.562,1051.70
851.523,1040.17
852.484,1069.40
853.445,1066.30
854.406,1035.20
855.367,1054.80
856.327,1060.63
857.288,1035.77
858.248,1053.10
859.210,1067.70
860.170,1044.53
861.130,1075.23
862.090,1002.07
863.050,1073.90
864.010,1027.27
864.969,1053.20
865.929,1049.60
866.888,1041.03
867.848,1043.43
868.807,1048.13
869.766,990.50
870.727,1020.33
871.686,1028.97
872.645,1063.37
873.604,1012.77
874.562,1001.40
875.521,1016.53
876.479,1043.50
877.437,1018.50
878.396,1014.73
879.354,986.70
880.312,1030.73
881.270,1007.10
882.229,990.87
883.187,1018.23
884.145,1012.30
885.102,1033.23
886.059,1014.63
887.017,1006.80
887.974,1006.77
888.931,1004.30
889.888,1004.53
890.845,1046.87
891.802,1028.73
892.758,1025.67
893.717,1018.10
894.673,1023.93
895.630,1044.50
896.586,987.60
897.542,996.10
898.498,1028.03
899.454,1044.27
900.410,1027.27
901.366,1024.20
902.321,1025.47
903.277,1019.03
904.232,1018.73
905.189,1011.37
906.145,999.03
907.100,1029.57
908.055,995.40
909.010,1025.53
909.965,1053.27
910.919,1052.67
911.874,1016.37
912.828,1017.10
913.783,1028.40
914.737,1021.97
915.693,1054.43
916.648,1054.60
917.602,1054.07
918.555,998.97
919.509,1062.90
920.463,1042.13
921.417,1025.60
922.370,1024.87
923.324,1024.20
924.277,994.60
925.230,1039.87
926.183,1045.80
927.138,1031.90
928.091,1003.27
929.044,1030.97
929.996,1041.07
930.949,1038.03
931.902,1059.70
932.854,1033.07
933.806,1048.37
934.758,1032.57
935.711,1088.63
936.663,1060.33
937.614,1071.50
938.568,1018.53
939.520,1059.77
940.471,1018.10
941.423,1016.67
942.374,1015.67
943.326,1020.27
944.277,1024.60
945.228,1039.60
946.179,1056.07
947.130,1066.20
948.080,1015.20
949.031,1057.80
949.984,1019.20
950.934,1043.77
951.884,1041.07
952.835,1035.97
953.785,1041.83
954.735,1014.70
955.685,1061.93
956.635,1025.43
957.585,1044.53
958.534,1052.57
959.484,1051.33
960.433,1045.60
961.383,1034.73
962.334,1064.40
963.283,1012.37
964.232,1064.23
965.181,1051.20
966.130,1028.23
967.079,1012.03
968.027,1034.40
968.976,1011.70
969.924,989.83
970.873,1074.40
971.821,1026.30
972.769,1046.37
973.719,1049.33
974.667,1023.33
975.615,1044.10
976.562,1025.30
977.510,1057.10
978.458,1036.13
979.405,1023.77
980.352,1049.00
981.300,1032.80
982.247,1054.47
983.194,1041.20
984.141,1032.00
985.088,1059.40
986.036,1034.13
986.983,1044.70
987.930,1045.97
988.876,1056.40
989.822,1042.13
990.769,1057.00
991.715,1062.13
992.661,1011.37
993.607,1040.97
994.553,1050.00
995.498,1046.20
996.444,1077.07
997.389,1069.07
998.337,1051.73
999.282,1038.37
1000.227,1047.83
1001.173,1026.63
1002.118,1030.30
1003.062,1065.93
1004.007,1082.37
1004.952,1056.30
1005.897,1032.13
1006.841,1073.10
1007.786,1038.50
1008.730,1067.40
1009.674,1076.90
1010.618,1087.40
1011.564,1064.77
1012.508,1062.77
1013.452,1064.60
1014.396,1076.30
1015.339,1048.17
1016.283,1062.10
1017.226,1071.27
1018.170,1045.17
1019.113,1071.50
1020.056,1082.60
1020.999,1082.90
1021.942,1058.23
1022.885,1084.70
1023.828,1118.13
1024.770,1090.27
1025.715,1083.47
1026.657,1102.27
1027.600,1069.63
1028.542,1087.57
1029.484,1148.53
1030.426,1088.13
1031.368,1064.93
1032.310,1114.73
1033.251,1084.03
1034.193,1103.67
1035.135,1120.17
1036.076,1120.53
1037.017,1115.87
1037.959,1125.07
1038.900,1089.17
1039.843,1128.70
1040.784,1111.47
1041.725,1101.73
1042.665,1138.13
1043.606,1126.73
1044.547,1135.10
1045.487,1150.50
1046.427,1128.23
1047.368,1176.57
1048.308,1152.43
1049.248,1115.57
1050.188,1131.50
1051.128,1095.93
1052.067,1149.40
1053.007,1162.03
1053.947,1138.27
1054.886,1136.67
1055.827,1192.23
1056.766,1177.37
1057.706,1177.27
1058.645,1162.67
1059.584,1179.83
1060.522,1184.73
1061.461,1186.53
1062.400,1195.67
1063.338,1183.97
1064.277,1171.20
1065.215,1194.87
1066.154,1236.83
1067.092,1167.53
1068.030,1183.23
1068.968,1221.47
1069.906,1199.37
1070.843,1184.13
1071.781,1228.03
1072.720,1204.87
1073.658,1236.97
1074.595,1224.37
1075.533,1217.33
1076.470,1202.73
1077.407,1211.83
1078.344,1247.33
1079.281,1264.37
1080.217,1273.47
1081.154,1219.07
1082.091,1234.63
1083.027,1245.57
1083.964,1263.47
1084.900,1243.17
1085.836,1243.30
1086.772,1241.10
1087.708,1271.03
1088.644,1234.23
1089.580,1271.60
1090.515,1263.03
1091.451,1227.67
1092.388,1231.33
1093.324,1240.27
1094.259,1259.53
1095.194,1239.37
1096.129,1230.73
1097.064,1212.97
1097.999,1246.07
1098.934,1252.13
1099.869,1245.23
1100.803,1219.17
1101.738,1223.87
1102.672,1203.80
1103.607,1206.03
1104.541,1216.73
1105.475,1217.43
1106.409,1204.93
1107.343,1236.53
1108.277,1177.27
1109.210,1178.03
1110.144,1166.63
1111.078,1172.37
1112.011,1179.67
1112.944,1159.97
1113.878,1172.73
1114.811,1183.27
1115.744,1150.23
1116.678,1182.27
1117.611,1129.67
1118.544,1123.53
1119.477,1136.73
1120.409,1138.23
1121.342,1187.00
1122.274,1119.87
1123.206,1121.93
1124.138,1100.57
1125.070,1117.53
1126.002,1101.60
1126.934,1090.27
1127.866,1134.13
1128.798,1079.23
1129.729,1100.33
1130.661,1102.53
1131.592,1106.37
1132.523,1120.57
1133.454,1072.77
1134.385,1070.07
1135.317,1092.77
1136.247,1081.67
1137.178,1083.27
1138.109,1095.43
1139.039,1053.70
1139.970,1056.27
1140.900,1065.63
1141.831,1078.50
1142.761,1058.53
1143.691,1022.20
1144.621,1058.57
1145.551,1061.27
1146.480,1046.53
1147.410,1054.07
1148.340,1058.80
1149.269,1012.13
1150.199,1031.93
1151.128,1050.27
1152.057,1055.37
1152.979,1017.87
1153.898,1023.07
1154.819,1012.13
1155.739,994.70
1156.658,1029.23
1157.579,1047.33
1158.498,1053.73
1159.419,1003.57
1160.338,1010.40
1161.256,1044.57
1162.177,1010.07
1163.095,999.47
1164.016,1025.80
1164.934,994.63
1165.852,985.33
1166.772,1015.27
1167.690,1051.27
1168.610,993.27
1169.528,997.13
1170.446,991.27
1171.365,996.13
1172.283,985.47
1173.202,1014.00
1174.120,1058.13
1175.037,984.77
1175.956,955.87
1176.873,1003.00
1177.792,957.83
1178.709,999.03
1179.626,1009.83
1180.544,954.10
1181.461,970.23
1182.379,981.73
1183.296,964.90
1184.212,970.07
1185.130,969.40
1186.046,977.43
1186.962,940.93
1187.880,998.10
1188.796,979.90
1189.714,985.87
1190.629,984.57
1191.545,982.17
1192.462,957.80
1193.378,974.63
1194.295,993.10
1195.210,990.73
1196.125,980.37
1197.042,985.63
1197.957,980.17
1198.872,971.57
1199.788,981.50
1200.703,1012.33
1201.619,966.13
1202.534,985.47
1203.448,944.70
1204.364,994.57
1205.278,959.93
1206.192,1010.60
1207.108,992.70
1208.022,992.53
1208.938,1000.63
1209.851,985.03
1210.765,989.23
1211.680,988.27
1212.594,1004.70
1213.507,989.20
1214.422,976.43
1215.335,989.10
1216.248,945.50
1217.163,1000.13
1218.076,988.70
1218.990,1030.87
1219.903,964.03
1220.816,968.47
1221.730,1013.23
1222.642,1002.27
1223.554,1005.87
1224.469,1041.10
1225.380,1007.27
1226.292,1023.70
1227.206,1046.60
1228.118,1044.67
1229.032,1008.77
1229.943,1025.70
1230.855,1057.67
1231.768,1040.27
1232.679,1018.07
1233.590,1014.03
1234.503,1057.07
1235.414,1062.97
1236.325,1045.50
1237.238,1033.03
1238.149,1069.27
1239.059,1042.67
1239.972,1083.23
1240.882,1042.77
1241.793,1055.00
1242.705,1061.73
1243.615,1048.83
1244.525,1070.50
1245.437,1078.67
1246.347,1050.50
1247.259,1029.93
1248.168,1066.07
1249.078,1064.73
1249.989,1120.13
1250.899,1107.60
1251.808,1056.57
1252.719,1113.83
1253.628,1075.13
1254.537,1062.43
1255.448,1074.37
1256.357,1076.17
1257.266,1079.50
1258.176,1108.60
1259.085,1118.60
1259.993,1129.47
1260.904,1112.73
1261.812,1116.13
1262.720,1113.10
1263.630,1124.77
1264.538,1113.67
1265.446,1092.57
1266.356,1137.67
1267.263,1130.97
1268.171,1095.03
1269.080,1155.70
1269.988,1072.23
1270.895,1110.77
1271.804,1122.43
1272.711,1115.90
1273.619,1146.77
1274.527,1111.93
1275.434,1079.07
1276.341,1089.63
1277.248,1125.90
1278.156,1086.50
1279.063,1116.87
1279.969,1119.07
1280.877,1131.90
1281.783,1130.20
1282.690,1093.33
1283.598,1096.63
1284.503,1096.67
1285.409,1138.70
1286.317,1105.67
1287.223,1118.53
1288.128,1096.47
1289.036,1108.93
1289.941,1127.90
1290.846,1087.30
1291.751,1086.90
1292.658,1076.33
1293.563,1080.47
1294.468,1109.07
1295.375,1053.23
1296.280,1110.83
1297.184,1091.20
1298.091,1067.97
1298.995,1071.73
1299.900,1079.50
1300.806,1101.93
1301.710,1099.07
1302.614,1066.90
1303.518,1040.83
1304.424,1030.27
1305.327,1068.90
1306.231,1032.33
1307.137,1000.53
1308.040,1009.80
1308.943,1051.93
1309.847,996.93
1310.752,997.20
1311.655,1043.87
1312.558,983.17
1313.463,1029.50
1314.366,1007.83
1315.269,1024.30
1316.171,997.63
1317.076,1016.03
1317.978,1008.87
1318.881,1004.20
1319.785,1004.23
1320.687,1006.83
1321.589,995.60
1322.491,963.00
1323.395,959.83
1324.297,980.67
1325.198,958.63
1326.102,974.13
1327.004,957.40
1327.905,985.07
1328.806,954.87
1329.709,980.47
1330.611,919.87
1331.512,955.07
1332.413,939.87
1333.316,943.80
1334.216,949.40
1335.117,913.37
1336.020,903.30
1336.920,946.43
1337.821,938.07
1338.721,951.40
1339.623,918.60
1340.523,865.60
1341.423,870.07
1342.323,870.17
1343.225,889.03
1344.125,883.13
1345.025,882.10
1345.924,894.87
1346.826,868.00
1347.725,874.40
1348.624,875.13
1349.524,838.60
1350.425,824.73
1351.324,848.27
1352.223,885.53
1353.121,883.67
1354.022,835.53
1354.921,833.13
1355.819,863.67
1356.718,860.87
1357.618,835.37
1358.516,821.43
1359.415,838.37
1360.313,869.10
1361.213,802.37
1362.111,842.43
1363.008,810.17
1363.906,799.37
1364.806,798.47
1365.703,793.53
1366.601,793.70
1367.498,781.97
1368.397,843.53
1369.295,793.90
1370.192,769.30
1371.089,766.93
1371.987,770.90
1372.884,734.90
1373.781,802.60
1374.678,793.23
1375.574,777.37
1376.473,767.33
1377.369,799.77
1378.265,792.30
1379.161,800.13
1380.059,761.73
1380.955,789.53
1381.851,761.03
1382.747,773.03
1383.643,733.43
1384.540,771.07
1385.436,728.87
1386.331,775.60
1387.227,759.67
1388.124,733.53
1389.019,744.83
1389.914,760.03
1390.809,749.93
1391.704,733.40
1392.601,741.27
1393.495,726.13
1394.390,752.43
1395.285,755.57
1396.179,751.60
1397.075,704.40
1397.969,728.87
1398.864,680.07
1399.758,722.97
1400.652,710.23
1401.547,711.93
1402.441,722.30
1403.335,749.37
1404.229,732.97
1405.122,706.80
1406.017,722.80
1406.911,712.83
1407.804,713.33
1408.697,706.87
1409.590,694.50
1410.485,687.07
1411.378,707.57
1412.271,682.07
1413.163,705.80
1414.056,699.90
1414.949,709.40
1415.843,701.60
1416.735,695.07
1417.627,703.77
1418.520,693.93
1419.412,683.47
1420.306,702.70
1421.197,668.07
1422.089,639.70
1422.981,665.60
1423.873,704.20
1424.764,703.40
1425.657,639.37
1426.549,655.37
1427.440,688.47
1428.331,646.03
1429.222,674.07
1430.113,663.87
1431.006,670.57
1431.897,643.30
1432.787,649.33
1433.678,684.60
1434.568,680.83
1435.459,641.93
1436.351,643.90
1437.241,647.57
1438.131,641.27
1439.021,640.90
1439.911,623.33
1440.801,641.27
1441.693,658.50
1442.583,643.63
1443.472,653.20
1444.362,673.73
1445.251,608.10
1446.140,640.53
1447.030,643.33
1447.921,638.20
1448.810,664.77
1449.699,621.13
1450.588,644.37
1451.476,617.57
1452.365,635.00
1453.254,618.80
1454.144,615.33
1455.032,634.13
1455.921,629.73
1456.809,646.50
1457.697,622.93
1458.585,634.70
1459.473,634.67
1460.361,624.80
1461.251,626.40
1462.138,650.33
1463.026,600.80
1463.913,636.30
1464.801,622.50
1465.688,671.53
1466.575,607.90
1467.463,559.87
1468.351,603.67
1469.238,599.23
1470.125,607.00
1471.012,601.77
1471.899,596.63
1472.785,611.70
1473.672,601.07
1474.558,596.57
1475.446,602.30
1476.333,625.27
1477.219,627.43
1478.105,624.70
1478.991,580.03
1479.877,608.50
1480.762,614.53
1481.648,612.17
1482.534,631.43
1483.419,563.53
1484.307,620.70
1485.192,632.97
1486.077,617.57
1486.962,574.60
1487.847,593.77
1488.732,563.00
1489.617,588.33
1490.502,573.17
1491.387,580.70
1492.271,596.80
1493.156,614.20
1494.042,594.67
1494.927,575.57
1495.811,582.33
1496.695,605.23
1497.579,581.93
1498.463,567.53
1499.347,594.07
1500.231,607.03
1501.114,596.97
1501.998,602.50
1502.881,631.23
1503.765,608.53
1504.648,552.87
1505.533,608.43
1506.417,568.43
1507.300,593.43
1508.183,576.27
1509.066,557.43
1509.948,547.27
1510.831,597.93
1511.714,601.30
1512.596,568.70
1513.479,588.30
1514.361,603.57
1515.243,580.50
1516.125,587.03
1517.008,565.60
1517.890,549.97
1518.771,520.07
1519.655,565.60
1520.537,566.10
1521.419,572.80
1522.300,564.70
1523.182,545.27
1524.063,552.37
1524.944,530.20
1525.825,574.87
1526.707,538.63
1527.588,589.37
1528.468,550.97
1529.349,523.20
1530.230,564.10
1531.111,591.27
1531.991,563.47
1532.872,591.90
1533.752,545.43
1534.632,576.03
1535.513,565.13
1536.393,545.33
1537.273,557.93
1538.153,533.30
1539.032,542.27
1539.912,535.70
1540.792,538.77
1541.672,524.53
1542.551,533.80
1543.430,566.57
1544.310,548.83
1545.189,493.07
1546.068,553.20
1546.947,578.97
1547.826,520.33
1548.705,563.97
1549.584,539.60
1550.462,536.57
1551.341,553.83
1552.219,532.10
1553.098,556.03
1553.976,530.03
1554.854,533.33
1555.733,539.53
1556.611,551.73
1557.489,483.93
1558.367,527.67
1559.244,516.07
1560.122,518.37
1561.000,542.13
1561.877,535.63
1562.755,533.73
1563.632,503.33
1564.509,589.90
1565.386,521.97
1566.264,528.97
1567.141,547.30
1568.017,557.83
1568.894,538.93
1569.771,504.83
1570.648,535.67
1571.524,505.87
1572.401,513.27
1573.277,519.90
1574.153,518.97
1575.029,507.57
1575.906,573.87
1576.781,529.77
1577.657,523.83
1578.533,515.40
1579.409,532.37
1580.285,499.10
1581.160,527.07
1582.036,502.40
1582.911,514.23
1583.786,538.70
1584.662,497.33
1585.537,472.57
1586.412,499.00
1587.287,530.17
1588.160,515.27
1589.035,540.17
1589.909,519.27
1590.784,510.20
1591.658,528.07
1592.533,539.67
1593.407,521.20
1594.281,521.73
1595.155,511.63
1596.029,508.30
1596.903,505.77
1597.777,538.10
1598.651,525.13
1599.525,521.67
1600.398,504.03
1601.272,527.30
1602.144,554.10
1603.017,476.37
1603.890,548.03
1604.763,537.53
1605.636,520.20
1606.509,490.83
1607.382,490.63
1608.255,532.13
1609.128,539.60
1610.000,488.57
1610.873,527.10
1611.746,549.13
1612.616,514.03
1613.488,519.17
1614.361,495.13
1615.233,514.10
1616.105,526.77
1616.977,510.10
1617.849,515.40
1618.720,511.73
1619.592,510.33
1620.464,500.20
1621.333,475.40
1622.205,503.37
1623.076,480.77
1623.947,482.63
1624.818,533.40
1625.689,481.73
1626.560,460.83
1627.431,496.13
1628.302,524.70
1629.171,469.93
1630.042,491.27
1630.912,419.83
1631.782,506.57
1632.653,491.70
1633.523,498.57
1634.393,508.07
1635.263,479.80
1636.131,498.30
1637.001,500.23
1637.871,488.77
1638.741,509.33
1639.611,478.57
1640.480,458.50
1641.350,465.20
1642.219,507.10
1643.087,492.23
1643.956,503.43
1644.825,506.07
1645.694,475.40
1646.563,535.57
1647.432,476.53
1648.299,512.17
1649.167,476.63
1650.036,462.43
1650.904,500.70
1651.773,456.63
1652.641,473.00
1653.509,487.73
1654.376,514.87
1655.244,519.57
1656.112,467.00
1656.980,482.13
1657.847,462.27
1658.715,451.50
1659.581,504.43
1660.448,442.93
1661.316,470.47
1662.183,471.67
1663.051,488.07
1663.918,465.30
1664.783,490.17
1665.650,495.37
1666.517,490.03
1667.384,453.03
1668.251,486.53
1669.115,477.43
1669.982,478.93
1670.849,471.43
1671.715,508.40
1672.581,439.57
1673.446,430.93
1674.312,496.00
1675.178,489.77
1676.044,458.20
1676.910,497.63
1677.774,452.70
1678.639,487.93
1679.505,445.10
1680.370,451.60
1681.236,490.63
1682.099,497.83
1682.965,489.53
1683.830,460.57
1684.695,462.57
1685.560,504.70
1686.423,475.13
1687.288,440.00
1688.153,520.60
1689.017,445.17
1689.880,475.47
1690.745,520.23
1691.609,484.57
1692.473,431.50
1693.338,481.03
1694.200,475.47
1695.064,471.37
1695.928,442.63
1696.792,453.97
1697.654,452.63
1698.517,413.53
1699.381,459.53
1700.245,434.43
1701.106,413.10
1701.969,451.80
1702.833,425.67
1703.696,441.67
1704.557,483.80
1705.420,452.83
1706.283,458.90
1707.146,430.97
1708.007,478.30
1708.870,452.30
1709.732,442.10
1710.595,470.87
1711.455,464.77
1712.318,443.93
1713.180,406.77
1714.040,468.53
1714.902,440.83
1715.764,483.97
1716.626,462.50
1717.486,440.33
1718.348,438.40
1719.209,662.93
1720.071,450.73
1720.930,472.67
1721.792,449.97
1722.653,439.77
1723.512,460.80
1724.374,444.77
1725.234,446.10
1726.095,436.40
1726.954,468.07
1727.815,448.33
1728.676,458.97
1729.535,420.57
1730.395,460.10
1731.256,436.27
1732.114,449.43
1732.974,420.07
1733.834,457.20
1734.693,460.33
1735.553,437.33
1736.413,469.37
1737.272,417.97
1738.130,447.23
1738.990,437.63
1739.849,457.77
1740.707,441.37
1741.566,433.70
1742.426,452.77
1743.283,486.73
1744.142,434.67
1745.001,442.03
1745.858,422.10
1746.717,470.10
1747.576,398.30
1748.433,452.10
1749.292,427.10
1750.150,450.13
1751.007,468.80
1751.865,446.53
1752.723,461.13
1753.579,406.37
1754.438,409.13
1755.296,467.47
1756.152,444.10
1757.010,483.87
1757.865,461.30
1758.723,428.20
1759.581,442.10
1760.436,442.00
1761.294,439.83
1762.151,421.73
1763.006,447.97
1763.864,422.40
1764.721,433.27
1765.576,453.23
1766.433,452.37
1767.288,458.17
1768.144,420.27
1769.001,417.27
1769.856,440.40
1770.712,404.43
1771.568,429.53
1772.423,411.33
1773.279,441.97
1774.133,465.13
1774.989,450.70
1775.845,485.23
1776.699,418.13
1777.555,448.53
1778.409,433.03
1779.265,439.63
1780.120,414.00
1780.974,437.73
1781.829,440.70
1782.682,453.43
1783.538,413.00
1784.393,435.60
1785.246,447.03
1786.101,424.33
1786.954,463.23
1787.808,447.07
1788.661,447.57
1789.516,441.43
1790.370,417.53
1791.223,456.43
1792.077,450.40
1792.930,462.33
1793.784,399.70
1794.636,429.10
1795.490,441.27
1796.344,417.20
1797.196,414.00
1798.049,446.13
1798.901,456.33
1799.755,433.57
1800.606,409.03
1801.460,408.87
1802.311,426.30
1803.165,428.87
1804.018,428.43
1804.869,410.30
1805.722,438.00
1806.573,386.47
1807.426,455.97
1808.276,429.57
1809.129,399.40
1809.980,423.93
1810.832,432.20
1811.683,412.67
1812.535,425.43
1813.385,439.93
1814.237,459.73
1815.089,448.20
1815.940,472.57
1816.791,455.80
1817.641,420.73
1818.493,407.10
1819.343,436.80
1820.194,424.20
1821.044,419.47
1821.895,365.17
1822.745,455.60
1823.596,408.30
1824.445,460.57
1825.296,423.30
1826.145,413.80
1826.996,425.50
1827.845,421.77
1828.695,408.30
1829.544,440.87
1830.395,453.63
1831.243,450.30
1832.094,451.27
1832.942,382.90
1833.792,424.93
1834.640,432.60
1835.490,446.23
1836.338,418.20
1837.186,429.57
1838.036,458.90
1838.884,421.80
1839.733,448.20
1840.581,431.23
1841.430,449.27
1842.278,424.67
1843.127,441.80
1843.974,410.67
1844.823,437.10
1845.671,386.63
1846.519,432.10
1847.366,397.17
1848.213,413.87
1849.062,424.20
1849.909,386.07
1850.757,402.73
1851.604,419.90
1852.452,435.83
1853.298,387.73
1854.146,406.53
1854.993,409.10
1855.839,415.60
1856.687,401.77
1857.532,424.50
1858.380,388.43
1859.226,403.47
1860.073,403.83
1860.919,422.57
1861.765,433.57
1862.612,462.37
1863.457,444.97
1864.304,387.83
1865.150,402.70
1865.995,426.00
1866.842,404.53
1867.686,410.80
1868.533,373.43
1869.378,423.93
1870.223,403.53
1871.069,412.23
1871.914,441.47
1872.760,391.97
1873.604,391.47
1874.448,419.47
1875.294,402.30
1876.139,417.17
1876.984,400.13
1877.828,399.60
1878.672,430.33
1879.518,451.50
1880.361,402.00
1881.205,401.57
1882.050,390.67
1882.894,409.77
1883.739,403.33
1884.582,401.37
1885.425,383.47
1886.270,393.83
1887.113,396.03
1887.956,435.40
1888.801,407.63
1889.644,380.00
1890.486,424.93
1891.331,386.30
1892.173,440.83
1893.017,407.33
1893.860,422.87
1894.702,390.30
1895.546,421.07
1896.388,433.83
1897.230,427.87
1898.074,440.80
1898.916,405.50
1899.757,404.87
1900.601,385.70
1901.443,401.77
1902.284,417.10
1903.125,423.03
1903.969,403.40
1904.810,421.90
1905.651,411.60
1906.494,376.87
1907.335,389.93
1908.176,413.03
1909.018,411.07
1909.859,406.70
1910.700,387.03
1911.542,388.13
1912.383,412.20
1913.223,394.40
1914.064,420.00
1914.906,412.33
1915.746,404.30
1916.586,444.67
1917.428,420.83
1918.268,432.90
1919.107,396.93
1919.947,418.07
1920.789,396.77
1921.628,389.50
1922.468,419.10
1923.309,415.87
1924.148,411.60
1924.988,433.10
1925.827,422.57
1926.667,388.93
1927.507,399.17
1928.345,414.70
1929.184,412.17
1930.025,411.63
1930.864,386.20
1931.702,401.67
1932.541,404.77
1933.381,416.60
1934.219,393.27
1935.057,407.10
1935.896,430.80
1936.735,415.03
1937.573,431.30
1938.411,407.77
1939.249,446.07
1940.089,431.17
1940.927,390.63
1941.764,416.37
1942.602,382.20
1943.439,371.87
1944.278,424.90
1945.115,402.40
1945.953,405.63
1946.790,412.13
1947.628,420.07
1948.465,410.67
1949.302,418.43
1950.139,411.37
1950.976,416.57
1951.814,401.37
1952.651,390.83
1953.487,363.27
1954.323,384.50
1955.160,422.03
1955.998,438.63
1956.834,439.50
1957.670,382.93
1958.506,394.00
1959.342,384.53
1960.177,407.47
1961.015,391.03
1961.850,406.63
1962.686,398.77
1963.521,416.37
1964.357,412.63
1965.192,375.47
1966.029,433.23
1966.864,392.27
1967.699,436.33
1968.534,422.57
1969.369,346.73
1970.204,393.03
1971.040,386.67
1971.875,387.63
1972.709,432.87
1973.544,377.83
1974.378,395.03
1975.212,386.90
1976.047,418.27
1976.882,374.53
1977.716,416.20
1978.550,381.33
1979.384,407.87
1980.218,397.07
1981.052,400.07
1981.885,378.03
1982.719,385.77
1983.554,400.83
1984.388,399.93
1985.221,405.00
1986.054,415.37
1986.887,400.83
1987.720,384.00
1988.553,389.57
1989.386,401.20
1990.219,392.93
1991.053,399.67
1991.886,388.27
1992.719,431.57
1993.551,378.87
1994.383,412.77
1995.216,399.53
1996.048,385.97
1996.880,382.50
1997.712,373.87
1998.544,401.37
1999.376,396.90
2000.208,388.60
2001.040,414.10
2001.873,390.17
2002.705,384.10
2003.536,373.13
2004.367,402.27
2005.199,410.77
2006.030,381.33
2006.861,398.50
2007.692,374.53
2008.523,391.67
2009.354,361.20
2010.185,417.87
2011.016,420.00
2011.846,379.07
2012.677,354.07
2013.507,400.30
2014.338,387.60
2015.168,403.97
2015.999,396.77
2016.829,418.17
2017.659,387.87
2018.489,357.37
2019.319,427.87
2020.149,385.23
2020.980,415.03
2021.810,422.50
2022.639,389.80
2023.469,400.33
2024.298,402.57
2025.128,434.07
2025.957,431.10
2026.786,401.43
2027.615,391.83
2028.444,390.03
2029.273,428.30
2030.102,394.03
2030.931,394.57
2031.758,379.83
2032.586,395.43
2033.415,405.43
2034.243,393.13
2035.072,392.63
2035.900,410.67
2036.728,423.97
2037.556,370.00
2038.385,414.27
2039.213,402.00
2040.040,372.93
2040.868,406.10
2041.696,404.03
2042.524,399.30
2043.351,414.43
2044.179,398.03
2045.006,392.33
2045.006,392.33

Max Intensity Wave.,219.929
Max Intensity Data,5497.93
Min Intensity Wave.,1969.369
Min Intensity Data,346.73
FWHM Wave.,598.173
FWHM Value,43.35
Pressure Wave.,684.671
Pressure Value [GPa],-24.91530
G/D Ratio,0.53559
G/D Gband Wave.,1564.562
G/D Gband Intensity,590.18
G/D Dband Wave.,1300.806
G/D Dband Intensity,1101.93

<< BACKGROUND SPECTRUM >>
Wave[dcm-1],No219
146.591,2234.00
147.626,2063.00
148.664,2021.00
149.699,2505.00
150.737,2213.00
151.772,2392.00
152.809,2399.00
153.846,2287.00
154.881,2367.00
155.918,1934.00
156.953,2261.00
157.989,2594.00
159.026,2426.00
160.060,2627.00
161.096,2853.00
162.130,2510.00
163.167,2596.00
164.200,2444.00
165.236,2615.00
166.272,2646.00
167.305,2268.00
168.341,2561.00
169.374,2757.00
170.409,2791.00
171.445,2716.00
172.477,2536.00
173.512,2443.00
174.545,2666.00
175.580,2874.00
176.614,3005.00
177.647,2781.00
178.681,3054.00
179.713,3305.00
180.747,2801.00
181.781,2723.00
182.813,2947.00
183.847,3088.00
184.878,2718.00
185.912,2967.00
186.945,3098.00
187.976,3059.00
189.010,2692.00
190.043,2805.00
191.073,2939.00
192.106,2729.00
193.137,3170.00
194.170,2553.00
195.202,2927.00
196.232,2666.00
197.265,2938.00
198.297,3064.00
199.327,2802.00
200.359,2915.00
201.388,3297.00
202.420,2916.00
203.452,3081.00
204.481,2660.00
205.512,3258.00
206.544,3063.00
207.573,3072.00
208.604,3402.00
209.635,3492.00
210.663,2989.00
211.694,2950.00
212.725,2825.00
213.753,2801.00
214.783,3317.00
215.813,3227.00
216.841,2989.00
217.871,3171.00
218.899,2898.00
219.929,3127.00
220.959,2863.00
221.986,3115.00
223.016,2746.00
224.045,3148.00
225.072,3062.00
226.101,3190.00
227.130,3218.00
228.157,2789.00
229.185,2348.00
230.214,3217.00
231.241,2840.00
232.269,2480.00
233.297,2678.00
234.323,3201.00
235.351,2827.00
236.379,3092.00
237.407,2732.00
238.433,2989.00
239.460,3098.00
240.488,3142.00
241.513,3221.00
242.540,3080.00
243.568,3182.00
244.592,3228.00
245.619,3200.00
246.646,2918.00
247.671,2968.00
248.697,2805.00
249.724,3021.00
250.748,3017.00
251.774,2964.00
252.801,3304.00
253.827,3131.00
254.850,3099.00
255.876,2654.00
256.902,3124.00
257.925,2996.00
258.951,2755.00
259.976,2826.00
260.999,3060.00
262.024,2788.00
263.049,3653.00
264.074,3122.00
265.097,3025.00
266.122,3080.00
267.146,3012.00
268.168,3198.00
269.193,2813.00
270.217,3147.00
271.241,2729.00
272.263,2888.00
273.287,3176.00
274.311,2799.00
275.332,3290.00
276.356,2842.00
277.379,3064.00
278.402,3117.00
279.424,2938.00
280.447,2900.00
281.470,2716.00
282.492,3069.00
283.513,2883.00
284.536,3180.00
285.558,3180.00
286.581,3128.00
287.601,2831.00
288.623,2770.00
289.645,3053.00
290.665,3105.00
291.687,3145.00
292.709,3122.00
293.730,3380.00
294.750,2887.00
295.771,2742.00
296.792,3110.00
297.813,2888.00
298.832,3049.00
299.853,2726.00
300.874,2973.00
301.895,2944.00
302.913,2961.00
303.934,3267.00
304.954,3013.00
305.975,4218.00
306.993,2728.00
308.013,3111.00
309.033,2982.00
310.052,2887.00
311.072,2908.00
312.090,3045.00
313.109,3275.00
314.129,3417.00
315.148,3035.00
316.165,3049.00
317.184,3255.00
318.203,2746.00
319.222,2730.00
320.238,3127.00
321.257,2783.00
322.275,2695.00
323.294,2984.00
324.312,3101.00
325.328,3286.00
326.346,3286.00
327.364,3194.00
328.382,3156.00
329.397,3098.00
330.415,3236.00
331.432,3253.00
332.450,3265.00
333.467,3480.00
334.482,2588.00
335.499,3317.00
336.516,2863.00
337.533,2578.00
338.547,2817.00
339.564,2869.00
340.580,3054.00
341.597,2959.00
342.613,3393.00
343.627,2991.00
344.643,3010.00
345.659,3133.00
346.675,2983.00
347.690,2934.00
348.704,3062.00
349.719,2881.00
350.735,2747.00
351.750,3147.00
352.765,3000.00
353.778,2980.00
354.793,3154.00
355.808,2807.00
356.822,3210.00
357.837,2672.00
358.851,3236.00
359.864,2941.00
360.878,2734.00
361.892,2972.00
362.906,3148.00
363.920,2584.00
364.932,3098.00
365.945,3069.00
366.959,3004.00
367.972,2924.00
368.986,2745.00
369.999,3369.00
371.010,2850.00
372.023,3329.00
373.036,2944.00
374.049,3375.00
375.061,3055.00
376.072,2980.00
377.084,2883.00
378.097,2712.00
379.109,3191.00
380.121,3002.00
381.133,2680.00
382.143,3158.00
383.155,2733.00
384.166,2899.00
385.178,3100.00
386.189,3236.00
387.201,2724.00
388.212,2907.00
389.221,2943.00
390.232,3021.00
391.243,2929.00
392.254,3020.00
393.264,2834.00
394.275,3203.00
395.283,3154.00
396.294,3607.00
397.304,3457.00
398.314,3077.00
399.324,2999.00
400.334,2665.00
401.344,3114.00
402.351,2663.00
403.361,3194.00
404.370,2986.00
405.380,2914.00
406.389,3381.00
407.398,3119.00
408.407,3116.00
409.414,3161.00
410.423,3340.00
411.431,2775.00
412.440,2690.00
413.448,3344.00
414.457,2895.00
415.465,2776.00
416.471,2882.00
417.479,3024.00
418.487,2761.00
419.495,3330.00
420.503,3101.00
421.510,2621.00
422.518,3160.00
423.525,3175.00
424.530,3389.00
425.537,2866.00
426.544,3222.00
427.551,2841.00
428.558,3571.00
429.565,3375.00
430.571,2876.00
431.578,2909.00
432.582,2855.00
433.588,2943.00
434.595,2611.00
435.601,3260.00
436.607,3219.00
437.612,2750.00
438.618,3327.00
439.624,2923.00
440.627,2941.00
441.633,3098.00
442.638,3540.00
443.643,3119.00
444.648,3023.00
445.653,3186.00
446.658,2885.00
447.663,3040.00
448.667,2838.00
449.672,2931.00
450.674,2933.00
451.678,2727.00
452.682,2849.00
453.687,2825.00
454.690,3555.00
455.694,3270.00
456.698,2567.00
457.702,2675.00
458.705,2782.00
459.709,2803.00
460.710,2860.00
461.713,3074.00
462.716,3042.00
463.719,3028.00
464.722,3226.00
465.725,2956.00
466.727,2805.00
467.730,3065.00
468.732,2732.00
469.735,3285.00
470.737,2888.00
471.737,2870.00
472.739,2906.00
473.741,2837.00
474.742,3090.00
475.744,3124.00
476.746,3025.00
477.747,2980.00
478.748,3170.00
479.750,2953.00
480.751,2997.00
481.752,3706.00
482.753,3081.00
483.751,3556.00
484.752,2610.00
485.753,2938.00
486.753,2893.00
487.753,2975.00
488.754,3389.00
489.754,2700.00
490.754,3316.00
491.754,3147.00
492.754,2658.00
493.753,3015.00
494.753,2917.00
495.752,3341.00
496.752,3046.00
497.749,3016.00
498.748,2819.00
499.747,3411.00
500.746,3087.00
501.745,2761.00
502.744,2732.00
503.742,3322.00
504.741,2943.00
505.739,2454.00
506.737,2875.00
507.735,3097.00
508.734,3353.00
509.732,3166.00
510.729,3308.00
511.727,2827.00
512.725,2914.00
513.720,2774.00
514.718,3288.00
515.715,2669.00
516.712,2654.00
517.709,2989.00
518.706,2901.00
519.703,3032.00
520.700,3171.00
521.696,3384.00
522.693,2943.00
523.689,2823.00
524.686,3184.00
525.682,2851.00
526.678,3481.00
527.674,2911.00
528.670,2566.00
529.666,3521.00
530.661,3478.00
531.657,3094.00
532.652,3151.00
533.648,2996.00
534.641,3223.00
535.636,3048.00
536.631,3092.00
537.626,3154.00
538.621,2729.00
539.616,2623.00
540.610,2524.00
541.605,2992.00
542.599,3049.00
543.593,3014.00
544.587,3915.00
545.581,2821.00
546.575,3005.00
547.569,2999.00
548.563,2685.00
549.557,2658.00
550.550,2803.00
551.543,2739.00
552.537,3102.00
553.530,2790.00
554.523,2761.00
555.516,3135.00
556.509,2983.00
557.502,2593.00
558.494,3180.00
559.487,2899.00
560.479,3158.00
561.472,3207.00
562.464,3114.00
563.456,3324.00
564.448,2959.00
565.440,2941.00
566.432,3339.00
567.423,2929.00
568.415,2956.00
569.404,3119.00
570.396,2815.00
571.387,3098.00
572.378,3007.00
573.369,3949.00
574.360,3647.00
575.351,2931.00
576.341,2877.00
577.332,2854.00
578.323,2690.00
579.313,2851.00
580.303,3214.00
581.293,3122.00
582.283,2981.00
583.273,3109.00
584.263,2994.00
585.253,3068.00
586.243,3097.00
587.232,2667.00
588.222,2939.00
589.211,3129.00
590.200,3041.00
591.189,2963.00
592.178,2943.00
593.167,3430.00
594.156,3267.00
595.145,2919.00
596.133,3439.00
597.122,3131.00
598.110,3181.00
599.098,3091.00
600.086,3035.00
601.074,3123.00
602.062,2818.00
603.050,2758.00
604.038,3095.00
605.025,2783.00
606.013,3187.00
607.000,3345.00
607.987,2997.00
608.975,3046.00
609.962,2782.00
610.949,3131.00
611.936,3234.00
612.922,3166.00
613.909,2677.00
614.895,3348.00
615.882,2830.00
616.868,3021.00
617.854,2737.00
618.841,2994.00
619.826,3097.00
620.812,2993.00
621.798,2782.00
622.784,3131.00
623.769,3061.00
624.755,2738.00
625.740,3067.00
626.725,2700.00
627.711,2855.00
628.698,3071.00
629.683,2808.00
630.667,3183.00
631.652,2765.00
632.637,2930.00
633.621,3158.00
634.606,2924.00
635.590,3158.00
636.574,2919.00
637.558,3041.00
638.542,3052.00
639.526,2844.00
640.510,2636.00
641.493,3070.00
642.477,2994.00
643.460,2693.00
644.444,3212.00
645.427,3184.00
646.410,2668.00
647.393,2940.00
648.376,3050.00
649.359,2909.00
650.341,3080.00
651.324,3125.00
652.307,3021.00
653.289,2972.00
654.271,2882.00
655.253,2897.00
656.235,3150.00
657.217,3243.00
658.199,2608.00
659.181,2789.00
660.163,2982.00
661.144,2868.00
662.126,2871.00
663.107,2793.00
664.088,6227.00
665.069,3204.00
666.050,2816.00
667.033,2710.00
668.014,3038.00
668.995,2615.00
669.975,2977.00
670.956,2977.00
671.936,3128.00
672.916,2964.00
673.896,3059.00
674.876,2959.00
675.856,2846.00
676.836,2729.00
677.816,2308.00
678.795,2819.00
679.775,2691.00
680.754,3021.00
681.734,3147.00
682.713,3132.00
683.692,2791.00
684.671,2630.00
685.650,2739.00
686.629,2879.00
687.607,2748.00
688.586,2743.00
689.564,2836.00
690.543,3239.00
691.523,2410.00
692.501,2825.00
693.479,2939.00
694.457,2816.00
695.435,2859.00
696.413,2652.00
697.390,2491.00
698.368,2671.00
699.345,3104.00
700.322,2906.00
701.300,3069.00
702.277,3059.00
703.254,3258.00
704.231,2549.00
705.207,2969.00
706.184,2778.00
707.161,2682.00
708.137,2825.00
709.113,2803.00
710.090,2766.00
711.068,2577.00
712.044,2620.00
713.020,2890.00
713.996,2614.00
714.971,2764.00
715.947,2851.00
716.922,2788.00
717.898,2740.00
718.873,2820.00
719.848,2712.00
720.823,2695.00
721.798,2956.00
722.773,2788.00
723.748,2556.00
724.723,3017.00
725.697,2838.00
726.672,2752.00
727.646,2532.00
728.622,3016.00
729.596,2598.00
730.570,2721.00
731.544,3089.00
732.518,3280.00
733.492,2813.00
734.466,2880.00
735.439,3006.00
736.413,3110.00
737.386,2437.00
738.359,2419.00
739.332,2521.00
740.305,2829.00
741.278,3264.00
742.251,2906.00
743.224,2718.00
744.196,2543.00
745.171,3150.00
746.143,3049.00
747.115,2748.00
748.087,2701.00
749.059,3147.00
750.031,2865.00
751.003,3702.00
751.975,3236.00
752.947,2686.00
753.918,3107.00
754.890,2566.00
755.861,2768.00
756.832,3044.00
757.803,2844.00
758.774,2819.00
759.747,2609.00
760.718,3149.00
761.689,2733.00
762.659,2601.00
763.630,3195.00
764.600,2547.00
765.570,3038.00
766.540,3146.00
767.510,2914.00
768.480,3058.00
769.450,2715.00
770.420,2796.00
771.390,2641.00
772.359,2721.00
773.329,2664.00
774.300,2523.00
775.269,2708.00
776.238,2983.00
777.207,3170.00
778.176,2496.00
779.145,2810.00
780.114,2685.00
781.083,2579.00
782.051,2769.00
783.019,2685.00
783.988,3077.00
784.956,2863.00
785.924,2967.00
786.894,2875.00
787.862,2715.00
788.830,3159.00
789.797,2598.00
790.765,2602.00
791.732,2762.00
792.700,2683.00
793.667,2570.00
794.634,2749.00
795.601,2749.00
796.568,2800.00
797.535,2850.00
798.502,3433.00
799.468,2915.00
800.437,2418.00
801.403,2628.00
802.370,3280.00
803.336,2959.00
804.302,2866.00
805.268,2440.00
806.234,2549.00
807.200,2740.00
808.166,2830.00
809.131,2557.00
810.097,2960.00
811.062,3622.00
812.027,3045.00
812.994,2652.00
813.960,2591.00
814.925,2940.00
815.889,2545.00
816.854,2979.00
817.819,2649.00
818.783,2675.00
819.748,3093.00
820.712,2762.00
821.677,2670.00
822.641,2695.00
823.605,2690.00
824.571,3115.00
825.534,2776.00
826.498,2673.00
827.462,2827.00
828.425,2617.00
829.389,3030.00
830.352,2853.00
831.315,2914.00
832.279,2495.00
833.242,2783.00
834.204,2681.00
835.167,2666.00
836.132,3041.00
837.095,2502.00
838.057,2698.00
839.020,2814.00
839.982,2816.00
840.944,2654.00
841.906,2620.00
842.868,2972.00
843.830,2504.00
844.792,3061.00
845.753,2657.00
846.715,2448.00
847.679,2604.00
848.640,2621.00
849.601,2727.00
850.562,3254.00
851.523,2713.00
852.484,2465.00
853.445,2967.00
854.406,2727.00
855.367,2712.00
856.327,3027.00
857.288,2519.00
858.248,2682.00
859.210,2686.00
860.170,2533.00
861.130,2971.00
862.090,2471.00
863.050,2600.00
864.010,2700.00
864.969,2886.00
865.929,2583.00
866.888,2523.00
867.848,2829.00
868.807,2649.00
869.766,2897.00
870.727,2730.00
871.686,2990.00
872.645,2971.00
873.604,3314.00
874.562,2799.00
875.521,2805.00
876.479,3332.00
877.437,2599.00
878.396,2609.00
879.354,3215.00
880.312,2591.00
881.270,2681.00
882.229,3122.00
883.187,2626.00
884.145,2683.00
885.102,2926.00
886.059,2834.00
887.017,2912.00
887.974,2961.00
888.931,3095.00
889.888,2540.00
890.845,2413.00
891.802,2341.00
892.758,2642.00
893.717,2455.00
894.673,2572.00
895.630,2607.00
896.586,2935.00
897.542,2705.00
898.498,2527.00
899.454,2841.00
900.410,2678.00
901.366,2667.00
902.321,2615.00
903.277,2698.00
904.232,2747.00
905.189,2489.00
906.145,2679.00
907.100,2214.00
908.055,2729.00
909.010,2926.00
909.965,2315.00
910.919,2778.00
911.874,2576.00
912.828,2775.00
913.783,2769.00
914.737,2366.00
915.693,2737.00
916.648,2888.00
917.602,2926.00
918.555,2810.00
919.509,2808.00
920.463,2750.00
921.417,2764.00
922.370,2584.00
923.324,2680.00
924.277,2693.00
925.230,2740.00
926.183,2412.00
927.138,2688.00
928.091,2968.00
929.044,2818.00
929.996,2648.00
930.949,2649.00
931.902,2812.00
932.854,2841.00
933.806,2569.00
934.758,2981.00
935.711,2938.00
936.663,2769.00
937.614,2763.00
938.568,2759.00
939.520,2371.00
940.471,2740.00
941.423,2814.00
942.374,2914.00
943.326,2767.00
944.277,2607.00
945.228,2841.00
946.179,2696.00
947.130,3000.00
948.080,2691.00
949.031,2563.00
949.984,2695.00
950.934,2704.00
951.884,2480.00
952.835,2706.00
953.785,2743.00
954.735,2630.00
955.685,2325.00
956.635,2645.00
957.585,2628.00
958.534,2623.00
959.484,2720.00
960.433,2602.00
961.383,2467.00
962.334,2940.00
963.283,2794.00
964.232,2824.00
965.181,2701.00
966.130,2783.00
967.079,2636.00
968.027,2725.00
968.976,2749.00
969.924,2655.00
970.873,2762.00
971.821,2757.00
972.769,2919.00
973.719,2850.00
974.667,2502.00
975.615,2720.00
976.562,2727.00
977.510,2402.00
978.458,2621.00
979.405,2841.00
980.352,2752.00
981.300,2970.00
982.247,2785.00
983.194,2551.00
984.141,2651.00
985.088,2729.00
986.036,2788.00
986.983,3006.00
987.930,3114.00
988.876,2366.00
989.822,2950.00
990.769,2541.00
991.715,2580.00
992.661,2472.00
993.607,2797.00
994.553,3261.00
995.498,2602.00
996.444,2261.00
997.389,2760.00
998.337,2535.00
999.282,2886.00
1000.227,2660.00
1001.173,2746.00
1002.118,2468.00
1003.062,2894.00
1004.007,2657.00
1004.952,2997.00
1005.897,2956.00
1006.841,2669.00
1007.786,2485.00
1008.730,2418.00
1009.674,3150.00
1010.618,2632.00
1011.564,2515.00
1012.508,2403.00
1013.452,2937.00
1014.396,2721.00
1015.339,2640.00
1016.283,2706.00
1017.226,2747.00
1018.170,2730.00
1019.113,2895.00
1020.056,2729.00
1020.999,2717.00
1021.942,2631.00
1022.885,2852.00
1023.828,2966.00
1024.770,2514.00
1025.715,2755.00
1026.657,2663.00
1027.600,2780.00
1028.542,2933.00
1029.484,2688.00
1030.426,2870.00
1031.368,2807.00
1032.310,2561.00
1033.251,2555.00
1034.193,2696.00
1035.135,2489.00
1036.076,2619.00
1037.017,2534.00
1037.959,2819.00
1038.900,2788.00
1039.843,2795.00
1040.784,2751.00
1041.725,2813.00
1042.665,2603.00
1043.606,2777.00
1044.547,2743.00
1045.487,2351.00
1046.427,2682.00
1047.368,2726.00
1048.308,2234.00
1049.248,2534.00
1050.188,2714.00
1051.128,2661.00
1052.067,2660.00
1053.007,2405.00
1053.947,2420.00
1054.886,2596.00
1055.827,2459.00
1056.766,2876.00
1057.706,2459.00
1058.645,2681.00
1059.584,2748.00
1060.522,2958.00
1061.461,2441.00
1062.400,2463.00
1063.338,2642.00
1064.277,2517.00
1065.215,2517.00
1066.154,2374.00
1067.092,2623.00
1068.030,2645.00
1068.968,2850.00
1069.906,3006.00
1070.843,2980.00
1071.781,2731.00
1072.720,2815.00
1073.658,2801.00
1074.595,2597.00
1075.533,2568.00
1076.470,2603.00
1077.407,2994.00
1078.344,2755.00
1079.281,2779.00
1080.217,2277.00
1081.154,2687.00
1082.091,2745.00
1083.027,2466.00
1083.964,2906.00
1084.900,2559.00
1085.836,2610.00
1086.772,2875.00
1087.708,2433.00
1088.644,2848.00
1089.580,2662.00
1090.515,2725.00
1091.451,2614.00
1092.388,2723.00
1093.324,2452.00
1094.259,3229.00
1095.194,2771.00
1096.129,2624.00
1097.064,2595.00
1097.999,2809.00
1098.934,2523.00
1099.869,2543.00
1100.803,2728.00
1101.738,2711.00
1102.672,2407.00
1103.607,2814.00
1104.541,2539.00
1105.475,2541.00
1106.409,2427.00
1107.343,2566.00
1108.277,2445.00
1109.210,2726.00
1110.144,2702.00
1111.078,2679.00
1112.011,2445.00
1112.944,2783.00
1113.878,2725.00
1114.811,2176.00
1115.744,2599.00
1116.678,2294.00
1117.611,2594.00
1118.544,2623.00
1119.477,2757.00
1120.409,2558.00
1121.342,3073.00
1122.274,2757.00
1123.206,4230.00
1124.138,2694.00
1125.070,2981.00
1126.002,2858.00
1126.934,2323.00
1127.866,2541.00
1128.798,2344.00
1129.729,2387.00
1130.661,2664.00
1131.592,2554.00
1132.523,2706.00
1133.454,2769.00
1134.385,2306.00
1135.317,2628.00
1136.247,2577.00
1137.178,2848.00
1138.109,2355.00
1139.039,3021.00
1139.970,2829.00
1140.900,2562.00
1141.831,2333.00
1142.761,2227.00
1143.691,3287.00
1144.621,2643.00
1145.551,2681.00
1146.480,2690.00
1147.410,2838.00
1148.340,2295.00
1149.269,2399.00
1150.199,2586.00
1151.128,3025.00
1152.057,2412.00
1152.979,2582.00
1153.898,2622.00
1154.819,2737.00
1155.739,2655.00
1156.658,2552.00
1157.579,2648.00
1158.498,2600.00
1159.419,2202.00
1160.338,2667.00
1161.256,2680.00
1162.177,2496.00
1163.095,2637.00
1164.016,2677.00
1164.934,2902.00
1165.852,2829.00
1166.772,2609.00
1167.690,2602.00
1168.610,2707.00
1169.528,2652.00
1170.446,2203.00
1171.365,2555.00
1172.283,2524.00
1173.202,2614.00
1174.120,2617.00
1175.037,2511.00
1175.956,2495.00
1176.873,2484.00
1177.792,2557.00
1178.709,3095.00
1179.626,2507.00
1180.544,2882.00
1181.461,2532.00
1182.379,2722.00
1183.296,2654.00
1184.212,2283.00
1185.130,2497.00
1186.046,2968.00
1186.962,2669.00
1187.880,2896.00
1188.796,2686.00
1189.714,2435.00
1190.629,2761.00
1191.545,2698.00
1192.462,2580.00
1193.378,2617.00
1194.295,2338.00
1195.210,2643.00
1196.125,2776.00
1197.042,2704.00
1197.957,2635.00
1198.872,2524.00
1199.788,2555.00
1200.703,2921.00
1201.619,2664.00
1202.534,2491.00
1203.448,2736.00
1204.364,2551.00
1205.278,2318.00
1206.192,2665.00
1207.108,3135.00
1208.022,2988.00
1208.938,2474.00
1209.851,2793.00
1210.765,2867.00
1211.680,2539.00
1212.594,2405.00
1213.507,2577.00
1214.422,3042.00
1215.335,2754.00
1216.248,2619.00
1217.163,2655.00
1218.076,3234.00
1218.990,2732.00
1219.903,2440.00
1220.816,2494.00
1221.730,2603.00
1222.642,2512.00
1223.554,2552.00
1224.469,2692.00
1225.380,2592.00
1226.292,2287.00
1227.206,2740.00
1228.118,2937.00
1229.032,2277.00
1229.943,2524.00
1230.855,2562.00
1231.768,2380.00
1232.679,2730.00
1233.590,2630.00
1234.503,2832.00
1235.414,2472.00
1236.325,2516.00
1237.238,2709.00
1238.149,2701.00
1239.059,2460.00
1239.972,2785.00
1240.882,2460.00
1241.793,2759.00
1242.705,2978.00
1243.615,2605.00
1244.525,2715.00
1245.437,2193.00
1246.347,2710.00
1247.259,2828.00
1248.168,3070.00
1249.078,2898.00
1249.989,2851.00
1250.899,2408.00
1251.808,2528.00
1252.719,2544.00
1253.628,2501.00
1254.537,3015.00
1255.448,2469.00
1256.357,2480.00
1257.266,2652.00
1258.176,2354.00
1259.085,2335.00
1259.993,2414.00
1260.904,2464.00
1261.812,2444.00
1262.720,3228.00
1263.630,2767.00
1264.538,2456.00
1265.446,2725.00
1266.356,2597.00
1267.263,2880.00
1268.171,2443.00
1269.080,2660.00
1269.988,2847.00
1270.895,2534.00
1271.804,2581.00
1272.711,2795.00
1273.619,2741.00
1274.527,2450.00
1275.434,2780.00
1276.341,2451.00
1277.248,2638.00
1278.156,2926.00
1279.063,2492.00
1279.969,2729.00
1280.877,3499.00
1281.783,2816.00
1282.690,2712.00
1283.598,2608.00
1284.503,2499.00
1285.409,2439.00
1286.317,2984.00
1287.223,3004.00
1288.128,2685.00
1289.036,2518.00
1289.941,2547.00
1290.846,2637.00
1291.751,2477.00
1292.658,2551.00
1293.563,3076.00
1294.468,2631.00
1295.375,2831.00
1296.280,2834.00
1297.184,3330.00
1298.091,2736.00
1298.995,2794.00
1299.900,3007.00
1300.806,2501.00
1301.710,2365.00
1302.614,2205.00
1303.518,2897.00
1304.424,2602.00
1305.327,2810.00
1306.231,2634.00
1307.137,2822.00
1308.040,2714.00
1308.943,2645.00
1309.847,2889.00
1310.752,2852.00
1311.655,2280.00
1312.558,2445.00
1313.463,2566.00
1314.366,2534.00
1315.269,2669.00
1316.171,2625.00
1317.076,2510.00
1317.978,2429.00
1318.881,2236.00
1319.785,2483.00
1320.687,2486.00
1321.589,2245.00
1322.491,2483.00
1323.395,2720.00
1324.297,3183.00
1325.198,2765.00
1326.102,2442.00
1327.004,2458.00
1327.905,2984.00
1328.806,2595.00
1329.709,2663.00
1330.611,2585.00
1331.512,2425.00
1332.413,3081.00
1333.316,2670.00
1334.216,2778.00
1335.117,2375.00
1336.020,2679.00
1336.920,2615.00
1337.821,2501.00
1338.721,2845.00
1339.623,2674.00
1340.523,2631.00
1341.423,2534.00
1342.323,2938.00
1343.225,2710.00
1344.125,2460.00
1345.025,2514.00
1345.924,2285.00
1346.826,2972.00
1347.725,3044.00
1348.624,2864.00
1349.524,2517.00
1350.425,2619.00
1351.324,2744.00
1352.223,2777.00
1353.121,2585.00
1354.022,2826.00
1354.921,3031.00
1355.819,2736.00
1356.718,2659.00
1357.618,2387.00
1358.516,2756.00
1359.415,3003.00
1360.313,2689.00
1361.213,2598.00
1362.111,2886.00
1363.008,3269.00
1363.906,2623.00
1364.806,2655.00
1365.703,2732.00
1366.601,2468.00
1367.498,2466.00
1368.397,2770.00
1369.295,2691.00
1370.192,2489.00
1371.089,2741.00
1371.987,2641.00
1372.884,2953.00
1373.781,2422.00
1374.678,2627.00
1375.574,2467.00
1376.473,2763.00
1377.369,2827.00
1378.265,2448.00
1379.161,2551.00
1380.059,2343.00
1380.955,2719.00
1381.851,2403.00
1382.747,2493.00
1383.643,2578.00
1384.540,2418.00
1385.436,2539.00
1386.331,2670.00
1387.227,2782.00
1388.124,2756.00
1389.019,2445.00
1389.914,2583.00
1390.809,2269.00
1391.704,3053.00
1392.601,2525.00
1393.495,2919.00
1394.390,2771.00
1395.285,2847.00
1396.179,2670.00
1397.075,2599.00
1397.969,2687.00
1398.864,2374.00
1399.758,2595.00
1400.652,2664.00
1401.547,2462.00
1402.441,2403.00
1403.335,2924.00
1404.229,2642.00
1405.122,2725.00
1406.017,2601.00
1406.911,2755.00
1407.804,3021.00
1408.697,2604.00
1409.590,2474.00
1410.485,2822.00
1411.378,2686.00
1412.271,2358.00
1413.163,2680.00
1414.056,2764.00
1414.949,2988.00
1415.843,2664.00
1416.735,2596.00
1417.627,2628.00
1418.520,2605.00
1419.412,2856.00
1420.306,2780.00
1421.197,2924.00
1422.089,2884.00
1422.981,3099.00
1423.873,2781.00
1424.764,2724.00
1425.657,2688.00
1426.549,2792.00
1427.440,2814.00
1428.331,2578.00
1429.222,2324.00
1430.113,2684.00
1431.006,2821.00
1431.897,2561.00
1432.787,2673.00
1433.678,2548.00
1434.568,2448.00
1435.459,2882.00
1436.351,2827.00
1437.241,2791.00
1438.131,2805.00
1439.021,2416.00
1439.911,2636.00
1440.801,2711.00
1441.693,2863.00
1442.583,2651.00
1443.472,2632.00
1444.362,2732.00
1445.251,2627.00
1446.140,2566.00
1447.030,2831.00
1447.921,2832.00
1448.810,2453.00
1449.699,3026.00
1450.588,2657.00
1451.476,2574.00
1452.365,2753.00
1453.254,2567.00
1454.144,2548.00
1455.032,2787.00
1455.921,2384.00
1456.809,2919.00
1457.697,2454.00
1458.585,2588.00
1459.473,2579.00
1460.361,2492.00
1461.251,2707.00
1462.138,2696.00
1463.026,2628.00
1463.913,2855.00
1464.801,2552.00
1465.688,2679.00
1466.575,2668.00
1467.463,3144.00
1468.351,2526.00
1469.238,2644.00
1470.125,2267.00
1471.012,2708.00
1471.899,2749.00
1472.785,2473.00
1473.672,2653.00
1474.558,2887.00
1475.446,2789.00
1476.333,2790.00
1477.219,2427.00
1478.105,2602.00
1478.991,2642.00
1479.877,2934.00
1480.762,2633.00
1481.648,2510.00
1482.534,2761.00
1483.419,2745.00
1484.307,2741.00
1485.192,2586.00
1486.077,2485.00
1486.962,2530.00
1487.847,2410.00
1488.732,2518.00
1489.617,2669.00
1490.502,2931.00
1491.387,2785.00
1492.271,2485.00
1493.156,2464.00
1494.042,2447.00
1494.927,2871.00
1495.811,2542.00
1496.695,2779.00
1497.579,2925.00
1498.463,2663.00
1499.347,2679.00
1500.231,2664.00
1501.114,2694.00
1501.998,2890.00
1502.881,2634.00
1503.765,2907.00
1504.648,3076.00
1505.533,2736.00
1506.417,2669.00
1507.300,2585.00
1508.183,2722.00
1509.066,2160.00
1509.948,2904.00
1510.831,2971.00
1511.714,2422.00
1512.596,2784.00
1513.479,2869.00
1514.361,2824.00
1515.243,2663.00
1516.125,2793.00
1517.008,2916.00
1517.890,2618.00
1518.771,2717.00
1519.655,2882.00
1520.537,2602.00
1521.419,2477.00
1522.300,2689.00
1523.182,2807.00
1524.063,2784.00
1524.944,2972.00
1525.825,2831.00
1526.707,2495.00
1527.588,2403.00
1528.468,2733.00
1529.349,2365.00
1530.230,2566.00
1531.111,2790.00
1531.991,2694.00
1532.872,2334.00
1533.752,2631.00
1534.632,2501.00
1535.513,2516.00
1536.393,2804.00
1537.273,2933.00
1538.153,3314.00
1539.032,2423.00
1539.912,2644.00
1540.792,2676.00
1541.672,2674.00
1542.551,2781.00
1543.430,3226.00
1544.310,2692.00
1545.189,2601.00
1546.068,3061.00
1546.947,2731.00
1547.826,2993.00
1548.705,2625.00
1549.584,2887.00
1550.462,2627.00
1551.341,2803.00
1552.219,2730.00
1553.098,2790.00
1553.976,2890.00
1554.854,3075.00
1555.733,2862.00
1556.611,2576.00
1557.489,2512.00
1558.367,2673.00
1559.244,2838.00
1560.122,2657.00
1561.000,2721.00
1561.877,2957.00
1562.755,2542.00
1563.632,2648.00
1564.509,2871.00
1565.386,3043.00
1566.264,2423.00
1567.141,2277.00
1568.017,2781.00
1568.894,2647.00
1569.771,2735.00
1570.648,2763.00
1571.524,2699.00
1572.401,2439.00
1573.277,2451.00
1574.153,2714.00
1575.029,2542.00
1575.906,3314.00
1576.781,2822.00
1577.657,2607.00
1578.533,2901.00
1579.409,2297.00
1580.285,2649.00
1581.160,3076.00
1582.036,2843.00
1582.911,2491.00
1583.786,2974.00
1584.662,2490.00
1585.537,2680.00
1586.412,2722.00
1587.287,2490.00
1588.160,2844.00
1589.035,2304.00
1589.909,2684.00
1590.784,2644.00
1591.658,2456.00
1592.533,2696.00
1593.407,2676.00
1594.281,2556.00
1595.155,3060.00
1596.029,2589.00
1596.903,2617.00
1597.777,2561.00
1598.651,2900.00
1599.525,2369.00
1600.398,2691.00
1601.272,2602.00
1602.144,3155.00
1603.017,2640.00
1603.890,2870.00
1604.763,2731.00
1605.636,2809.00
1606.509,2403.00
1607.382,2520.00
1608.255,2716.00
1609.128,2854.00
1610.000,2639.00
1610.873,2347.00
1611.746,2525.00
1612.616,2592.00
1613.488,2236.00
1614.361,2674.00
1615.233,2611.00
1616.105,2879.00
1616.977,2577.00
1617.849,2489.00
1618.720,2961.00
1619.592,2971.00
1620.464,2758.00
1621.333,3139.00
1622.205,2655.00
1623.076,2667.00
1623.947,2659.00
1624.818,2880.00
1625.689,2798.00
1626.560,2619.00
1627.431,2722.00
1628.302,3022.00
1629.171,2832.00
1630.042,2985.00
1630.912,3595.00
1631.782,3232.00
1632.653,2481.00
1633.523,2809.00
1634.393,2887.00
1635.263,2558.00
1636.131,2640.00
1637.001,2583.00
1637.871,2306.00
1638.741,2298.00
1639.611,2429.00
1640.480,2816.00
1641.350,2554.00
1642.219,2492.00
1643.087,2176.00
1643.956,3070.00
1644.825,2904.00
1645.694,2876.00
1646.563,2781.00
1647.432,2721.00
1648.299,2672.00
1649.167,2816.00
1650.036,2508.00
1650.904,2835.00
1651.773,2914.00
1652.641,2696.00
1653.509,2872.00
1654.376,2500.00
1655.244,2674.00
1656.112,2728.00
1656.980,2685.00
1657.847,2549.00
1658.715,2860.00
1659.581,2548.00
1660.448,2928.00
1661.316,2202.00
1662.183,2719.00
1663.051,2705.00
1663.918,2717.00
1664.783,2672.00
1665.650,2748.00
1666.517,2826.00
1667.384,2707.00
1668.251,2698.00
1669.115,2876.00
1669.982,2628.00
1670.849,2945.00
1671.715,2607.00
1672.581,2840.00
1673.446,2816.00
1674.312,2660.00
1675.178,3043.00
1676.044,2779.00
1676.910,2737.00
1677.774,2728.00
1678.639,2329.00
1679.505,2687.00
1680.370,2819.00
1681.236,3294.00
1682.099,2596.00
1682.965,2666.00
1683.830,2294.00
1684.695,2510.00
1685.560,2568.00
1686.423,2801.00
1687.288,2837.00
1688.153,2661.00
1689.017,2629.00
1689.880,2748.00
1690.745,2770.00
1691.609,2502.00
1692.473,2858.00
1693.338,2874.00
1694.200,2937.00
1695.064,2673.00
1695.928,2601.00
1696.792,2693.00
1697.654,3189.00
1698.517,2747.00
1699.381,2438.00
1700.245,2371.00
1701.106,3019.00
1701.969,2586.00
1702.833,2850.00
1703.696,2612.00
1704.557,2627.00
1705.420,2555.00
1706.283,2701.00
1707.146,2836.00
1708.007,2469.00
1708.870,2487.00
1709.732,2382.00
1710.595,2551.00
1711.455,2436.00
1712.318,2607.00
1713.180,2990.00
1714.040,2705.00
1714.902,2870.00
1715.764,2660.00
1716.626,2463.00
1717.486,2644.00
1718.348,2954.00
1719.209,4897.00
1720.071,2344.00
1720.930,2411.00
1721.792,2529.00
1722.653,2556.00
1723.512,2570.00
1724.374,2644.00
1725.234,2735.00
1726.095,2714.00
1726.954,2672.00
1727.815,2809.00
1728.676,2661.00
1729.535,2926.00
1730.395,2641.00
1731.256,2616.00
1732.114,2734.00
1732.974,2190.00
1733.834,3024.00
1734.693,2839.00
1735.553,2712.00
1736.413,3077.00
1737.272,2608.00
1738.130,2612.00
1738.990,2774.00
1739.849,2569.00
1740.707,3670.00
1741.566,2725.00
1742.426,2717.00
1743.283,3044.00
1744.142,2590.00
1745.001,2360.00
1745.858,2875.00
1746.717,2718.00
1747.576,2825.00
1748.433,2828.00
1749.292,3268.00
1750.150,3287.00
1751.007,2853.00
1751.865,2886.00
1752.723,2692.00
1753.579,2648.00
1754.438,2935.00
1755.296,2875.00
1756.152,2256.00
1757.010,2336.00
1757.865,2865.00
1758.723,2367.00
1759.581,2995.00
1760.436,2652.00
1761.294,3061.00
1762.151,2694.00
1763.006,2598.00
1763.864,2351.00
1764.721,2889.00
1765.576,2699.00
1766.433,2820.00
1767.288,2581.00
1768.144,2746.00
1769.001,2662.00
1769.856,2774.00
1770.712,2937.00
1771.568,2490.00
1772.423,2616.00
1773.279,2592.00
1774.133,2565.00
1774.989,3063.00
1775.845,3208.00
1776.699,2953.00
1777.555,2664.00
1778.409,3219.00
1779.265,2643.00
1780.120,2668.00
1780.974,2663.00
1781.829,2296.00
1782.682,2722.00
1783.538,2530.00
1784.393,2729.00
1785.246,2574.00
1786.101,2800.00
1786.954,2781.00
1787.808,2897.00
1788.661,2394.00
1789.516,2588.00
1790.370,2644.00
1791.223,2851.00
1792.077,2678.00
1792.930,2741.00
1793.784,2608.00
1794.636,2717.00
1795.490,2647.00
1796.344,2724.00
1797.196,2690.00
1798.049,2829.00
1798.901,2555.00
1799.755,2914.00
1800.606,2513.00
1801.460,3232.00
1802.311,2994.00
1803.165,3090.00
1804.018,3033.00
1804.869,2795.00
1805.722,3144.00
1806.573,2764.00
1807.426,2504.00
1808.276,2682.00
1809.129,2630.00
1809.980,2893.00
1810.832,2981.00
1811.683,2621.00
1812.535,3017.00
1813.385,2616.00
1814.237,2939.00
1815.089,2706.00
1815.940,2930.00
1816.791,2607.00
1817.641,2577.00
1818.493,2863.00
1819.343,2765.00
1820.194,2573.00
1821.044,2798.00
1821.895,2963.00
1822.745,2398.00
1823.596,2599.00
1824.445,3078.00
1825.296,2800.00
1826.145,2679.00
1826.996,2885.00
1827.845,2743.00
1828.695,2776.00
1829.544,2660.00
1830.395,2706.00
1831.243,2586.00
1832.094,2414.00
1832.942,3340.00
1833.792,2812.00
1834.640,2749.00
1835.490,2688.00
1836.338,2757.00
1837.186,2588.00
1838.036,2532.00
1838.884,2691.00
1839.733,2996.00
1840.581,2866.00
1841.430,2789.00
1842.278,3025.00
1843.127,2566.00
1843.974,2396.00
1844.823,3113.00
1845.671,2871.00
1846.519,2707.00
1847.366,2789.00
1848.213,2349.00
1849.062,2515.00
1849.909,2470.00
1850.757,3350.00
1851.604,2814.00
1852.452,2619.00
1853.298,2907.00
1854.146,2765.00
1854.993,2752.00
1855.839,3213.00
1856.687,2842.00
1857.532,2826.00
1858.380,2742.00
1859.226,2777.00
1860.073,2834.00
1860.919,2533.00
1861.765,2584.00
1862.612,2888.00
1863.457,2895.00
1864.304,2677.00
1865.150,2835.00
1865.995,2673.00
1866.842,2825.00
1867.686,2943.00
1868.533,2807.00
1869.378,2759.00
1870.223,2747.00
1871.069,2598.00
1871.914,2710.00
1872.760,2718.00
1873.604,2526.00
1874.448,2850.00
1875.294,2896.00
1876.139,2573.00
1876.984,2840.00
1877.828,2389.00
1878.672,2216.00
1879.518,2537.00
1880.361,2895.00
1881.205,2865.00
1882.050,2531.00
1882.894,3196.00
1883.739,2594.00
1884.582,2499.00
1885.425,2558.00
1886.270,2970.00
1887.113,2489.00
1887.956,2780.00
1888.801,2770.00
1889.644,2553.00
1890.486,2296.00
1891.331,2666.00
1892.173,2720.00
1893.017,2777.00
1893.860,2971.00
1894.702,3021.00
1895.546,2704.00
1896.388,3368.00
1897.230,3043.00
1898.074,2591.00
1898.916,2510.00
1899.757,2548.00
1900.601,3393.00
1901.443,2998.00
1902.284,2994.00
1903.125,3157.00
1903.969,2905.00
1904.810,2935.00
1905.651,2797.00
1906.494,3064.00
1907.335,3174.00
1908.176,2827.00
1909.018,2795.00
1909.859,2679.00
1910.700,2605.00
1911.542,3256.00
1912.383,2782.00
1913.223,2366.00
1914.064,2834.00
1914.906,2966.00
1915.746,3048.00
1916.586,3145.00
1917.428,2693.00
1918.268,2724.00
1919.107,2625.00
1919.947,2484.00
1920.789,2655.00
1921.628,2963.00
1922.468,2701.00
1923.309,2554.00
1924.148,3021.00
1924.988,2771.00
1925.827,2682.00
1926.667,2631.00
1927.507,2764.00
1928.345,2543.00
1929.184,2863.00
1930.025,2532.00
1930.864,2971.00
1931.702,3025.00
1932.541,2627.00
1933.381,2838.00
1934.219,2884.00
1935.057,3006.00
1935.896,2403.00
1936.735,2659.00
1937.573,2608.00
1938.411,2529.00
1939.249,2840.00
1940.089,2582.00
1940.927,2978.00
1941.764,2984.00
1942.602,2666.00
1943.439,2636.00
1944.278,2669.00
1945.115,2652.00
1945.953,2456.00
1946.790,2788.00
1947.628,3056.00
1948.465,2819.00
1949.302,2852.00
1950.139,2852.00
1950.976,2584.00
1951.814,2880.00
1952.651,2782.00
1953.487,2560.00
1954.323,2989.00
1955.160,2689.00
1955.998,3045.00
1956.834,2673.00
1957.670,2801.00
1958.506,2958.00
1959.342,2839.00
1960.177,2758.00
1961.015,2851.00
1961.850,2758.00
1962.686,2773.00
1963.521,2750.00
1964.357,2997.00
1965.192,2531.00
1966.029,2837.00
1966.864,2662.00
1967.699,2916.00
1968.534,2742.00
1969.369,3046.00
1970.204,2695.00
1971.040,2781.00
1971.875,2673.00
1972.709,2736.00
1973.544,2592.00
1974.378,2626.00
1975.212,2842.00
1976.047,2598.00
1976.882,2616.00
1977.716,3092.00
1978.550,2456.00
1979.384,2677.00
1980.218,2696.00
1981.052,2665.00
1981.885,2777.00
1982.719,2745.00
1983.554,2879.00
1984.388,3024.00
1985.221,2795.00
1986.054,2967.00
1986.887,2778.00
1987.720,2598.00
1988.553,3048.00
1989.386,2819.00
1990.219,2871.00
1991.053,3032.00
1991.886,2633.00
1992.719,2897.00
1993.551,2291.00
1994.383,2854.00
1995.216,2656.00
1996.048,2474.00
1996.880,2907.00
1997.712,2643.00
1998.544,2737.00
1999.376,2820.00
2000.208,3009.00
2001.040,3134.00
2001.873,2578.00
2002.705,2559.00
2003.536,2804.00
2004.367,2762.00
2005.199,2760.00
2006.030,2628.00
2006.861,2538.00
2007.692,2769.00
2008.523,2605.00
2009.354,2793.00
2010.185,2529.00
2011.016,2865.00
2011.846,2950.00
2012.677,2723.00
2013.507,3071.00
2014.338,2970.00
2015.168,2646.00
2015.999,3260.00
2016.829,2659.00
2017.659,2966.00
2018.489,3288.00
2019.319,2521.00
2020.149,2909.00
2020.980,2746.00
2021.810,2528.00
2022.639,2612.00
2023.469,2618.00
2024.298,2427.00
2025.128,2341.00
2025.957,2345.00
2026.786,2196.00
2027.615,2404.00
2028.444,2599.00
2029.273,2738.00
2030.102,2354.00
2030.931,2597.00
2031.758,2884.00
2032.586,2535.00
2033.415,2589.00
2034.243,2240.00
2035.072,2034.00
2035.900,2484.00
2036.728,2291.00
2037.556,2378.00
2038.385,2353.00
2039.213,2176.00
2040.040,2204.00
2040.868,2143.00
2041.696,2197.00
2042.524,2219.00
2043.351,2396.00
2044.179,2204.00
2045.006,1995.00
