RamanScope Measure Spectrum Data V3.72

<< MEASURE CONDITION >>
Exposure Type,Aver
Exposure Time [sec],15
Exposure Count,30
Measure Time,2023/07/04 12:20:12
Data Name,""
Data Comment,""
Rayleigh Wave[nm],532.0

<< SAMPLE SPECTRUM >>
Wave[dcm-1],No233
146.591,531.77
147.626,691.87
148.664,788.43
149.699,944.10
150.737,1109.97
151.772,1259.47
152.809,1415.03
153.846,1570.33
154.881,1742.87
155.918,1872.37
156.953,1971.27
157.989,2093.20
159.026,2137.00
160.060,2209.70
161.096,2281.40
162.130,2358.83
163.167,2382.53
164.200,2435.53
165.236,2480.37
166.272,2544.03
167.305,2570.13
168.341,2606.10
169.374,2635.57
170.409,2742.97
171.445,2750.10
172.477,2785.07
173.512,2811.77
174.545,2888.13
175.580,2896.57
176.614,2899.20
177.647,2944.80
178.681,2975.73
179.713,2983.80
180.747,3001.00
181.781,2943.43
182.813,2939.87
183.847,2979.27
184.878,2940.63
185.912,2929.50
186.945,2941.47
187.976,2942.13
189.010,2973.50
190.043,2971.00
191.073,2980.83
192.106,3027.53
193.137,3095.93
194.170,3114.00
195.202,3208.57
196.232,3194.23
197.265,3155.70
198.297,3279.23
199.327,3276.13
200.359,3353.63
201.388,3376.80
202.420,3431.67
203.452,3501.97
204.481,3585.00
205.512,3668.07
206.544,3754.23
207.573,3879.37
208.604,3934.87
209.635,4086.83
210.663,4240.40
211.694,4424.90
212.725,4594.63
213.753,4745.60
214.783,4958.73
215.813,5111.03
216.841,5180.03
217.871,5309.87
218.899,5392.10
219.929,5441.70
220.959,5402.50
221.986,5336.87
223.016,5252.93
224.045,5128.87
225.072,5005.93
226.101,4896.37
227.130,4706.27
228.157,4568.00
229.185,4435.73
230.214,4347.67
231.241,4216.93
232.269,4170.57
233.297,4059.70
234.323,3984.20
235.351,3941.87
236.379,3919.43
237.407,3904.37
238.433,3817.90
239.460,3849.83
240.488,3879.97
241.513,3878.20
242.540,3860.13
243.568,3879.50
244.592,3930.37
245.619,3982.30
246.646,4040.33
247.671,4000.90
248.697,3989.23
249.724,3967.53
250.748,3999.83
251.774,3993.53
252.801,3903.27
253.827,3905.50
254.850,3927.40
255.876,3963.60
256.902,3958.97
257.925,3984.90
258.951,3983.70
259.976,4005.17
260.999,4076.37
262.024,4131.60
263.049,4143.60
264.074,4138.73
265.097,4150.10
266.122,4277.57
267.146,4338.40
268.168,4380.43
269.193,4402.60
270.217,4479.90
271.241,4523.60
272.263,4610.33
273.287,4675.07
274.311,4733.97
275.332,4741.47
276.356,4808.70
277.379,4831.70
278.402,4875.87
279.424,4855.80
280.447,4805.83
281.470,4803.67
282.492,4800.63
283.513,4756.67
284.536,4642.50
285.558,4589.40
286.581,4564.70
287.601,4458.97
288.623,4441.20
289.645,4324.23
290.665,4236.40
291.687,4215.23
292.709,4129.57
293.730,4071.03
294.750,3973.30
295.771,3895.07
296.792,3811.17
297.813,3821.23
298.832,3777.93
299.853,3690.60
300.874,3599.37
301.895,3535.43
302.913,3519.70
303.934,3455.37
304.954,3432.23
305.975,3381.93
306.993,3371.03
308.013,3328.07
309.033,3290.60
310.052,3198.07
311.072,3196.93
312.090,3185.37
313.109,3146.50
314.129,3140.20
315.148,3095.20
316.165,3045.50
317.184,3069.90
318.203,3055.83
319.222,3033.33
320.238,3007.20
321.257,2990.43
322.275,2944.83
323.294,2989.30
324.312,2987.43
325.328,2915.97
326.346,2921.93
327.364,2935.27
328.382,2935.20
329.397,2937.03
330.415,2882.30
331.432,2868.00
332.450,2856.67
333.467,2902.50
334.482,2845.20
335.499,2858.53
336.516,2884.30
337.533,2856.30
338.547,2853.57
339.564,2883.97
340.580,2833.37
341.597,2834.13
342.613,2842.00
343.627,2867.47
344.643,2844.80
345.659,2799.13
346.675,2810.37
347.690,2792.77
348.704,2876.37
349.719,2803.93
350.735,2837.13
351.750,2829.63
352.765,2784.93
353.778,2858.87
354.793,2801.47
355.808,2803.90
356.822,2804.07
357.837,2819.13
358.851,2833.73
359.864,2860.33
360.878,2866.80
361.892,2819.97
362.906,2829.77
363.920,2836.77
364.932,2894.33
365.945,2861.87
366.959,2845.83
367.972,2868.47
368.986,2954.47
369.999,2878.70
371.010,2931.20
372.023,2922.97
373.036,2937.80
374.049,2955.90
375.061,2969.10
376.072,3039.40
377.084,3026.60
378.097,3005.63
379.109,3056.60
380.121,3047.93
381.133,3083.00
382.143,3050.73
383.155,3043.93
384.166,3056.60
385.178,3069.40
386.189,3071.33
387.201,3081.50
388.212,3100.57
389.221,3080.57
390.232,3061.37
391.243,3061.90
392.254,3042.80
393.264,3040.03
394.275,3042.77
395.283,3043.43
396.294,3065.63
397.304,3000.00
398.314,2997.63
399.324,2983.53
400.334,2999.97
401.344,2944.17
402.351,2951.87
403.361,2859.20
404.370,2861.57
405.380,2899.07
406.389,2835.40
407.398,2827.83
408.407,2797.27
409.414,2781.60
410.423,2789.83
411.431,2784.00
412.440,2757.17
413.448,2685.93
414.457,2710.37
415.465,2719.80
416.471,2695.23
417.479,2663.37
418.487,2650.77
419.495,2633.87
420.503,2685.40
421.510,2679.13
422.518,2651.93
423.525,2636.03
424.530,2649.07
425.537,2606.03
426.544,2604.00
427.551,2644.13
428.558,2576.10
429.565,2556.83
430.571,2554.67
431.578,2595.77
432.582,2633.60
433.588,2632.33
434.595,2547.03
435.601,2553.43
436.607,2541.60
437.612,2579.53
438.618,2589.23
439.624,2527.77
440.627,2546.67
441.633,2573.60
442.638,2569.33
443.643,2559.57
444.648,2534.93
445.653,2533.60
446.658,2509.30
447.663,2588.53
448.667,2534.77
449.672,2550.10
450.674,2577.97
451.678,2548.97
452.682,2601.57
453.687,2598.80
454.690,2601.20
455.694,2533.70
456.698,2605.57
457.702,2587.47
458.705,2630.63
459.709,2584.13
460.710,2623.23
461.713,2619.30
462.716,2617.93
463.719,2595.07
464.722,2597.33
465.725,2626.33
466.727,2599.53
467.730,2615.80
468.732,2607.30
469.735,2611.20
470.737,2646.27
471.737,2618.20
472.739,2685.80
473.741,2674.77
474.742,2668.83
475.744,2611.10
476.746,2612.87
477.747,2668.00
478.748,2651.83
479.750,2669.27
480.751,2658.57
481.752,2619.73
482.753,2601.13
483.751,2663.73
484.752,2619.00
485.753,2589.30
486.753,2656.17
487.753,2665.60
488.754,2688.10
489.754,2631.17
490.754,2628.53
491.754,2600.03
492.754,2632.63
493.753,2634.03
494.753,2625.30
495.752,2568.03
496.752,2616.30
497.749,2622.97
498.748,2636.07
499.747,2610.53
500.746,2581.67
501.745,2559.53
502.744,2602.33
503.742,2594.43
504.741,2533.93
505.739,2564.77
506.737,2549.63
507.735,2521.40
508.734,2522.03
509.732,2585.50
510.729,2507.70
511.727,2551.40
512.725,2500.43
513.720,2511.40
514.718,2512.63
515.715,2519.23
516.712,2470.77
517.709,2469.13
518.706,2486.47
519.703,2515.13
520.700,2503.70
521.696,2467.70
522.693,2443.70
523.689,2488.83
524.686,2482.70
525.682,2503.37
526.678,2499.97
527.674,2468.97
528.670,2505.53
529.666,2516.97
530.661,2489.33
531.657,2369.77
532.652,2509.50
533.648,2497.03
534.641,2520.40
535.636,2521.13
536.631,2539.10
537.626,2539.23
538.621,2549.13
539.616,2542.67
540.610,2541.87
541.605,2568.10
542.599,2561.40
543.593,2503.87
544.587,2545.50
545.581,2614.77
546.575,2568.83
547.569,2559.13
548.563,2537.20
549.557,2532.60
550.550,2563.97
551.543,2570.10
552.537,2578.70
553.530,2566.63
554.523,2546.93
555.516,2579.77
556.509,2596.27
557.502,2607.10
558.494,2566.13
559.487,2580.87
560.479,2584.37
561.472,2596.83
562.464,2632.57
563.456,2582.83
564.448,2615.17
565.440,2618.30
566.432,2629.73
567.423,2662.30
568.415,2564.43
569.404,2639.37
570.396,2613.93
571.387,2664.00
572.378,2658.37
573.369,2675.00
574.360,2634.47
575.351,2688.00
576.341,2677.17
577.332,2674.83
578.323,2692.37
579.313,2665.50
580.303,2731.33
581.293,2695.57
582.283,2727.47
583.273,2757.53
584.263,2691.17
585.253,2661.63
586.243,2720.30
587.232,2731.53
588.222,2718.67
589.211,2752.07
590.200,2735.77
591.189,2741.87
592.178,2761.63
593.167,2791.67
594.156,2766.50
595.145,2769.77
596.133,2736.27
597.122,2743.87
598.110,2764.70
599.098,2747.53
600.086,2737.33
601.074,2690.00
602.062,2728.90
603.050,2725.77
604.038,2736.57
605.025,2717.57
606.013,2710.67
607.000,2683.97
607.987,2691.70
608.975,2702.57
609.962,2639.67
610.949,2657.93
611.936,2607.77
612.922,2655.93
613.909,2653.80
614.895,2615.07
615.882,2605.60
616.868,2624.03
617.854,2565.80
618.841,2560.50
619.826,2567.87
620.812,2529.20
621.798,2492.97
622.784,2519.23
623.769,2478.80
624.755,2447.90
625.740,2423.63
626.725,2394.70
627.711,2409.67
628.698,2415.00
629.683,2392.67
630.667,2346.87
631.652,2340.17
632.637,2263.43
633.621,2361.37
634.606,2335.90
635.590,2281.63
636.574,2266.87
637.558,2241.90
638.542,2262.30
639.526,2231.20
640.510,2214.50
641.493,2166.73
642.477,2211.53
643.460,2201.00
644.444,2152.07
645.427,2192.40
646.410,2192.10
647.393,2144.83
648.376,2170.93
649.359,2129.80
650.341,2151.00
651.324,2102.17
652.307,2064.00
653.289,2075.40
654.271,2088.43
655.253,2071.80
656.235,2058.10
657.217,2061.53
658.199,2058.17
659.181,2032.27
660.163,2050.23
661.144,2070.43
662.126,2006.23
663.107,2000.33
664.088,2012.17
665.069,2028.07
666.050,2058.93
667.033,1997.50
668.014,1964.13
668.995,1981.40
669.975,1978.50
670.956,2007.23
671.936,1931.57
672.916,1926.63
673.896,1921.37
674.876,2012.03
675.856,1928.60
676.836,1906.50
677.816,1871.03
678.795,1870.23
679.775,1866.50
680.754,1861.67
681.734,1845.43
682.713,1839.33
683.692,1839.40
684.671,1792.40
685.650,1842.03
686.629,1771.23
687.607,1834.80
688.586,1789.20
689.564,1705.83
690.543,1746.07
691.523,1749.97
692.501,1711.03
693.479,1667.07
694.457,1713.20
695.435,1721.00
696.413,1743.83
697.390,1708.17
698.368,1689.90
699.345,1719.53
700.322,1653.17
701.300,1617.87
702.277,1681.97
703.254,1648.40
704.231,1699.37
705.207,1631.03
706.184,1672.30
707.161,1641.97
708.137,1641.57
709.113,1612.83
710.090,1587.67
711.068,1636.27
712.044,1576.97
713.020,1636.60
713.996,1578.50
714.971,1584.90
715.947,1595.83
716.922,1567.33
717.898,1603.83
718.873,1593.57
719.848,1579.07
720.823,1546.53
721.798,1568.20
722.773,1520.97
723.748,1545.60
724.723,1552.57
725.697,1529.37
726.672,1532.23
727.646,1537.83
728.622,1577.87
729.596,1512.20
730.570,1537.33
731.544,1491.43
732.518,1510.17
733.492,1501.90
734.466,1527.10
735.439,1513.83
736.413,1508.20
737.386,1464.30
738.359,1469.33
739.332,1465.43
740.305,1475.73
741.278,1520.73
742.251,1442.53
743.224,999.70
744.196,1426.00
745.171,1456.07
746.143,1425.70
747.115,1444.77
748.087,1454.40
749.059,1455.73
750.031,1432.53
751.003,1456.23
751.975,1442.30
752.947,1408.13
753.918,1429.30
754.890,1412.23
755.861,1448.10
756.832,1419.33
757.803,1380.53
758.774,1410.67
759.747,1411.70
760.718,1403.07
761.689,1393.90
762.659,1384.03
763.630,1374.77
764.600,1365.57
765.570,1396.50
766.540,1349.37
767.510,1354.13
768.480,1366.23
769.450,1357.23
770.420,1353.63
771.390,1392.67
772.359,1377.90
773.329,1367.57
774.300,1394.73
775.269,1368.00
776.238,1364.40
777.207,1349.93
778.176,1362.63
779.145,1304.70
780.114,1342.10
781.083,1357.30
782.051,1340.97
783.019,1321.77
783.988,1333.07
784.956,1343.17
785.924,1313.33
786.894,1351.50
787.862,1329.53
788.830,1337.63
789.797,1361.00
790.765,1292.10
791.732,1293.83
792.700,1328.37
793.667,1306.27
794.634,1270.00
795.601,1287.23
796.568,1315.97
797.535,1303.50
798.502,1299.10
799.468,1252.63
800.437,1288.50
801.403,1301.10
802.370,1278.93
803.336,1275.27
804.302,1239.07
805.268,1242.23
806.234,1265.50
807.200,1240.43
808.166,1236.83
809.131,1236.27
810.097,1228.10
811.062,1244.73
812.027,1258.40
812.994,1259.87
813.960,1247.47
814.925,1204.30
815.889,1208.57
816.854,1225.70
817.819,1205.37
818.783,1191.17
819.748,1163.80
820.712,1226.13
821.677,1231.40
822.641,1236.03
823.605,1211.43
824.571,1208.43
825.534,1221.80
826.498,1204.83
827.462,1202.17
828.425,1191.13
829.389,1192.93
830.352,1214.73
831.315,1183.70
832.279,1176.10
833.242,1183.33
834.204,1169.40
835.167,1195.70
836.132,1184.20
837.095,1164.73
838.057,1158.77
839.020,1180.10
839.982,1170.17
840.944,1196.00
841.906,1156.93
842.868,1167.47
843.830,1128.67
844.792,1163.80
845.753,1160.67
846.715,1151.97
847.679,1171.23
848.640,1145.57
849.601,1168.37
850.562,1189.47
851.523,1142.87
852.484,1133.70
853.445,1149.07
854.406,1169.00
855.367,1120.53
856.327,1154.50
857.288,1138.13
858.248,1152.07
859.210,1151.07
860.170,1141.67
861.130,1158.00
862.090,1115.77
863.050,1149.97
864.010,1098.03
864.969,1135.63
865.929,1139.90
866.888,1144.37
867.848,1133.30
868.807,1130.77
869.766,1131.83
870.727,1121.13
871.686,1074.47
872.645,1139.60
873.604,1129.37
874.562,1143.27
875.521,1136.53
876.479,1130.07
877.437,1148.27
878.396,1101.93
879.354,1127.93
880.312,1131.50
881.270,1091.60
882.229,1115.87
883.187,1107.23
884.145,1147.00
885.102,1112.20
886.059,1147.67
887.017,1142.70
887.974,1146.30
888.931,1147.63
889.888,1147.67
890.845,1124.47
891.802,1144.00
892.758,1113.70
893.717,1145.57
894.673,1168.53
895.630,1133.97
896.586,1145.43
897.542,1178.57
898.498,1148.23
899.454,1184.57
900.410,1127.30
901.366,1118.23
902.321,1181.57
903.277,1150.23
904.232,1139.60
905.189,1095.63
906.145,1159.90
907.100,1145.10
908.055,1118.30
909.010,1148.43
909.965,1159.43
910.919,1160.73
911.874,1186.47
912.828,1143.47
913.783,1160.53
914.737,1144.33
915.693,1128.73
916.648,1139.10
917.602,1175.17
918.555,1163.53
919.509,1162.87
920.463,1183.07
921.417,1128.17
922.370,1180.70
923.324,1135.43
924.277,1110.07
925.230,1179.53
926.183,1174.00
927.138,1168.57
928.091,1171.93
929.044,1152.83
929.996,1172.20
930.949,1152.17
931.902,1184.67
932.854,1217.83
933.806,1216.60
934.758,1158.27
935.711,1195.77
936.663,1213.33
937.614,1201.27
938.568,1166.37
939.520,1187.67
940.471,1233.83
941.423,1239.93
942.374,1169.40
943.326,1191.37
944.277,1199.93
945.228,1252.83
946.179,1190.80
947.130,1159.17
948.080,1188.23
949.031,1210.87
949.984,1194.17
950.934,1194.73
951.884,1177.87
952.835,1222.87
953.785,1247.60
954.735,1186.50
955.685,1170.07
956.635,1192.83
957.585,1167.37
958.534,1170.20
959.484,1194.13
960.433,1191.83
961.383,1180.73
962.334,1165.50
963.283,1178.83
964.232,1212.77
965.181,1178.50
966.130,1135.17
967.079,1173.07
968.027,1181.37
968.976,1174.07
969.924,1170.87
970.873,1159.67
971.821,1135.83
972.769,1153.27
973.719,1160.70
974.667,1162.57
975.615,1154.07
976.562,1170.77
977.510,1189.23
978.458,1131.97
979.405,1180.23
980.352,1174.07
981.300,1163.00
982.247,1210.90
983.194,1157.07
984.141,1183.03
985.088,1207.90
986.036,1193.63
986.983,1204.33
987.930,1159.53
988.876,1176.53
989.822,1197.70
990.769,1164.00
991.715,1182.70
992.661,1173.83
993.607,1156.80
994.553,1173.90
995.498,1183.20
996.444,1156.67
997.389,1164.60
998.337,1172.63
999.282,1155.13
1000.227,1216.17
1001.173,1180.67
1002.118,1139.50
1003.062,1148.00
1004.007,1135.47
1004.952,1180.70
1005.897,1150.43
1006.841,1160.00
1007.786,1171.40
1008.730,1179.47
1009.674,1134.50
1010.618,1152.13
1011.564,1133.33
1012.508,1183.10
1013.452,1172.77
1014.396,1197.07
1015.339,1189.87
1016.283,1170.20
1017.226,1193.40
1018.170,1200.90
1019.113,1183.67
1020.056,1142.47
1020.999,1140.90
1021.942,1178.63
1022.885,1205.27
1023.828,1173.33
1024.770,1188.83
1025.715,1201.30
1026.657,1198.33
1027.600,1194.10
1028.542,1188.60
1029.484,1189.43
1030.426,1242.23
1031.368,1205.07
1032.310,1222.97
1033.251,1197.07
1034.193,1213.00
1035.135,1202.77
1036.076,1200.10
1037.017,1177.23
1037.959,1240.63
1038.900,1184.43
1039.843,1192.63
1040.784,1208.17
1041.725,1212.47
1042.665,1211.43
1043.606,1221.43
1044.547,1228.30
1045.487,1263.87
1046.427,1204.77
1047.368,1227.97
1048.308,1230.97
1049.248,1236.67
1050.188,1255.77
1051.128,1289.40
1052.067,1230.20
1053.007,1264.93
1053.947,1250.10
1054.886,1232.60
1055.827,1273.43
1056.766,1264.50
1057.706,1273.20
1058.645,1287.80
1059.584,1269.27
1060.522,1281.23
1061.461,1271.17
1062.400,1289.57
1063.338,1314.67
1064.277,1293.20
1065.215,1299.90
1066.154,1301.43
1067.092,1319.50
1068.030,1276.73
1068.968,1303.77
1069.906,1313.33
1070.843,1321.83
1071.781,1302.33
1072.720,1353.93
1073.658,1303.40
1074.595,1383.60
1075.533,1366.33
1076.470,1337.80
1077.407,1356.50
1078.344,1320.00
1079.281,1320.50
1080.217,1349.53
1081.154,1362.47
1082.091,1360.77
1083.027,1350.53
1083.964,1362.63
1084.900,1353.00
1085.836,1364.30
1086.772,1360.77
1087.708,1342.27
1088.644,1330.93
1089.580,1311.73
1090.515,1388.57
1091.451,1395.47
1092.388,1364.77
1093.324,1344.77
1094.259,1371.37
1095.194,1311.23
1096.129,1336.37
1097.064,1336.77
1097.999,1336.03
1098.934,1350.17
1099.869,1322.10
1100.803,1361.93
1101.738,1351.90
1102.672,1336.27
1103.607,1307.93
1104.541,1319.90
1105.475,1297.10
1106.409,1302.73
1107.343,1299.73
1108.277,1299.03
1109.210,1288.10
1110.144,1256.23
1111.078,1310.10
1112.011,1266.57
1112.944,1302.57
1113.878,1275.87
1114.811,1286.17
1115.744,1266.13
1116.678,1283.50
1117.611,1230.87
1118.544,1227.50
1119.477,1231.07
1120.409,1243.10
1121.342,1207.00
1122.274,1188.97
1123.206,1202.13
1124.138,1211.47
1125.070,1193.20
1126.002,1212.33
1126.934,1201.00
1127.866,1195.10
1128.798,1196.57
1129.729,1161.07
1130.661,1210.50
1131.592,1159.67
1132.523,1183.17
1133.454,1187.67
1134.385,1126.83
1135.317,1177.33
1136.247,1155.97
1137.178,1113.30
1138.109,1139.03
1139.039,1150.10
1139.970,1117.07
1140.900,1091.43
1141.831,1157.00
1142.761,1124.47
1143.691,1116.27
1144.621,1126.87
1145.551,1156.23
1146.480,1120.53
1147.410,1118.80
1148.340,1107.30
1149.269,1079.27
1150.199,1113.27
1151.128,1112.20
1152.057,1086.23
1152.979,1088.13
1153.898,1080.70
1154.819,1109.97
1155.739,1099.03
1156.658,1099.70
1157.579,1083.67
1158.498,1068.23
1159.419,1074.20
1160.338,1075.97
1161.256,1108.20
1162.177,1074.43
1163.095,1050.83
1164.016,1084.57
1164.934,1090.43
1165.852,1077.97
1166.772,1080.30
1167.690,1073.77
1168.610,1076.73
1169.528,1028.17
1170.446,1042.43
1171.365,1018.50
1172.283,1062.50
1173.202,1067.50
1174.120,1023.90
1175.037,1044.27
1175.956,1049.03
1176.873,1067.87
1177.792,1023.83
1178.709,1035.40
1179.626,1066.03
1180.544,1049.63
1181.461,1040.70
1182.379,1037.57
1183.296,1038.40
1184.212,1038.23
1185.130,1014.53
1186.046,1052.83
1186.962,1023.87
1187.880,1063.57
1188.796,1041.80
1189.714,1010.83
1190.629,1014.40
1191.545,1008.80
1192.462,1015.87
1193.378,1024.70
1194.295,974.90
1195.210,1011.10
1196.125,1021.27
1197.042,1023.80
1197.957,1017.77
1198.872,1049.50
1199.788,1015.27
1200.703,1039.87
1201.619,994.03
1202.534,1001.77
1203.448,1054.57
1204.364,1015.40
1205.278,1016.20
1206.192,1039.43
1207.108,1041.90
1208.022,1037.80
1208.938,996.47
1209.851,1042.03
1210.765,1037.77
1211.680,1026.87
1212.594,1001.53
1213.507,1024.23
1214.422,1008.20
1215.335,1010.80
1216.248,1004.87
1217.163,1040.83
1218.076,1025.10
1218.990,1045.87
1219.903,1021.97
1220.816,1037.73
1221.730,1026.37
1222.642,1039.30
1223.554,1038.27
1224.469,1063.67
1225.380,1041.67
1226.292,1000.77
1227.206,1037.93
1228.118,1047.60
1229.032,1035.33
1229.943,1059.97
1230.855,1025.67
1231.768,1024.47
1232.679,1050.53
1233.590,1052.70
1234.503,1020.73
1235.414,1062.93
1236.325,1054.67
1237.238,1069.47
1238.149,1060.87
1239.059,1059.07
1239.972,1048.63
1240.882,1051.70
1241.793,1077.13
1242.705,1038.60
1243.615,1095.17
1244.525,1095.43
1245.437,1080.90
1246.347,1059.70
1247.259,1060.83
1248.168,1112.30
1249.078,1063.87
1249.989,1059.70
1250.899,1065.23
1251.808,1054.53
1252.719,1065.40
1253.628,1060.10
1254.537,1082.27
1255.448,1079.67
1256.357,1084.00
1257.266,1094.47
1258.176,1071.00
1259.085,1073.53
1259.993,1097.47
1260.904,1091.67
1261.812,1086.53
1262.720,1066.23
1263.630,1058.83
1264.538,1068.00
1265.446,1098.57
1266.356,1108.53
1267.263,1071.57
1268.171,1078.87
1269.080,1070.97
1269.988,1126.13
1270.895,1088.97
1271.804,1077.90
1272.711,1096.10
1273.619,1093.07
1274.527,1083.17
1275.434,1058.23
1276.341,1098.23
1277.248,1104.50
1278.156,1056.90
1279.063,1051.37
1279.969,1088.17
1280.877,1068.43
1281.783,1056.77
1282.690,1056.03
1283.598,1033.10
1284.503,1029.50
1285.409,1083.27
1286.317,1064.13
1287.223,1115.30
1288.128,1047.37
1289.036,1058.60
1289.941,1078.20
1290.846,1036.97
1291.751,1065.90
1292.658,1018.00
1293.563,1060.53
1294.468,1045.40
1295.375,1025.57
1296.280,1034.53
1297.184,1025.17
1298.091,1043.27
1298.995,1022.97
1299.900,1026.40
1300.806,985.23
1301.710,1027.73
1302.614,1015.97
1303.518,987.93
1304.424,1030.17
1305.327,1063.80
1306.231,1032.77
1307.137,1031.73
1308.040,1003.87
1308.943,1000.90
1309.847,1019.37
1310.752,1027.63
1311.655,990.83
1312.558,990.30
1313.463,1007.33
1314.366,959.87
1315.269,960.63
1316.171,938.07
1317.076,991.60
1317.978,970.60
1318.881,938.13
1319.785,928.30
1320.687,976.80
1321.589,954.17
1322.491,955.83
1323.395,925.83
1324.297,924.77
1325.198,939.13
1326.102,967.90
1327.004,929.27
1327.905,965.67
1328.806,896.67
1329.709,921.20
1330.611,911.53
1331.512,895.37
1332.413,919.77
1333.316,937.03
1334.216,905.53
1335.117,942.07
1336.020,911.37
1336.920,911.20
1337.821,904.77
1338.721,906.10
1339.623,900.60
1340.523,901.30
1341.423,883.83
1342.323,859.43
1343.225,870.23
1344.125,876.07
1345.025,873.33
1345.924,867.33
1346.826,841.77
1347.725,842.73
1348.624,883.77
1349.524,808.77
1350.425,888.13
1351.324,843.83
1352.223,854.83
1353.121,869.80
1354.022,889.67
1354.921,886.93
1355.819,848.37
1356.718,865.47
1357.618,827.87
1358.516,846.60
1359.415,831.53
1360.313,867.43
1361.213,867.37
1362.111,848.60
1363.008,790.53
1363.906,814.93
1364.806,834.63
1365.703,807.70
1366.601,765.27
1367.498,819.10
1368.397,832.03
1369.295,837.23
1370.192,819.90
1371.089,804.13
1371.987,813.13
1372.884,772.03
1373.781,803.30
1374.678,825.83
1375.574,801.03
1376.473,823.90
1377.369,771.77
1378.265,770.13
1379.161,774.37
1380.059,773.70
1380.955,773.93
1381.851,782.57
1382.747,756.33
1383.643,756.50
1384.540,761.63
1385.436,775.47
1386.331,751.03
1387.227,772.13
1388.124,765.90
1389.019,733.63
1389.914,780.63
1390.809,724.07
1391.704,800.60
1392.601,759.07
1393.495,760.13
1394.390,784.73
1395.285,750.70
1396.179,763.37
1397.075,749.70
1397.969,738.53
1398.864,739.60
1399.758,730.93
1400.652,771.40
1401.547,720.63
1402.441,699.70
1403.335,745.00
1404.229,787.40
1405.122,727.03
1406.017,697.37
1406.911,743.63
1407.804,726.23
1408.697,697.53
1409.590,721.90
1410.485,710.80
1411.378,726.30
1412.271,710.60
1413.163,688.93
1414.056,739.63
1414.949,712.00
1415.843,699.73
1416.735,700.90
1417.627,707.90
1418.520,681.63
1419.412,703.60
1420.306,703.10
1421.197,744.37
1422.089,710.40
1422.981,743.50
1423.873,734.67
1424.764,698.37
1425.657,717.63
1426.549,677.40
1427.440,738.53
1428.331,686.33
1429.222,677.03
1430.113,705.83
1431.006,702.93
1431.897,683.20
1432.787,692.30
1433.678,726.10
1434.568,711.13
1435.459,702.97
1436.351,711.67
1437.241,694.00
1438.131,686.37
1439.021,684.90
1439.911,644.70
1440.801,681.87
1441.693,676.83
1442.583,692.40
1443.472,669.70
1444.362,689.63
1445.251,677.03
1446.140,684.70
1447.030,676.00
1447.921,690.13
1448.810,679.63
1449.699,630.67
1450.588,689.53
1451.476,660.13
1452.365,645.23
1453.254,671.27
1454.144,669.27
1455.032,699.73
1455.921,651.17
1456.809,642.73
1457.697,613.97
1458.585,658.03
1459.473,609.13
1460.361,649.33
1461.251,661.93
1462.138,702.77
1463.026,654.53
1463.913,638.37
1464.801,668.37
1465.688,635.23
1466.575,638.47
1467.463,610.33
1468.351,662.20
1469.238,630.27
1470.125,670.47
1471.012,702.03
1471.899,638.53
1472.785,630.87
1473.672,636.97
1474.558,658.57
1475.446,660.93
1476.333,634.43
1477.219,639.97
1478.105,633.03
1478.991,641.30
1479.877,614.27
1480.762,624.40
1481.648,636.23
1482.534,644.13
1483.419,582.20
1484.307,620.80
1485.192,623.87
1486.077,623.57
1486.962,606.10
1487.847,619.63
1488.732,603.77
1489.617,625.97
1490.502,622.23
1491.387,600.83
1492.271,640.10
1493.156,596.93
1494.042,654.57
1494.927,676.43
1495.811,588.30
1496.695,649.13
1497.579,623.03
1498.463,596.93
1499.347,583.50
1500.231,591.60
1501.114,598.63
1501.998,617.90
1502.881,592.07
1503.765,610.87
1504.648,597.90
1505.533,649.60
1506.417,581.60
1507.300,635.63
1508.183,577.17
1509.066,634.23
1509.948,586.20
1510.831,615.13
1511.714,600.73
1512.596,570.43
1513.479,604.30
1514.361,589.57
1515.243,580.30
1516.125,566.33
1517.008,583.40
1517.890,599.87
1518.771,596.87
1519.655,559.43
1520.537,613.27
1521.419,582.77
1522.300,611.30
1523.182,569.10
1524.063,563.67
1524.944,600.83
1525.825,573.37
1526.707,560.97
1527.588,570.10
1528.468,563.03
1529.349,591.87
1530.230,577.80
1531.111,573.60
1531.991,607.47
1532.872,592.53
1533.752,577.93
1534.632,564.23
1535.513,570.63
1536.393,577.57
1537.273,565.40
1538.153,533.03
1539.032,555.43
1539.912,542.67
1540.792,579.43
1541.672,559.47
1542.551,572.27
1543.430,609.20
1544.310,567.43
1545.189,584.70
1546.068,596.73
1546.947,580.07
1547.826,587.33
1548.705,553.03
1549.584,548.37
1550.462,546.03
1551.341,540.10
1552.219,543.03
1553.098,555.43
1553.976,556.83
1554.854,613.83
1555.733,549.50
1556.611,600.00
1557.489,567.20
1558.367,567.67
1559.244,525.00
1560.122,561.37
1561.000,533.10
1561.877,576.53
1562.755,583.13
1563.632,577.50
1564.509,524.33
1565.386,529.07
1566.264,577.73
1567.141,553.50
1568.017,529.93
1568.894,537.20
1569.771,580.63
1570.648,564.23
1571.524,546.57
1572.401,549.20
1573.277,563.47
1574.153,552.13
1575.029,552.50
1575.906,567.43
1576.781,562.30
1577.657,567.93
1578.533,523.03
1579.409,578.30
1580.285,590.80
1581.160,535.03
1582.036,546.27
1582.911,525.77
1583.786,514.23
1584.662,536.47
1585.537,570.60
1586.412,560.70
1587.287,534.73
1588.160,541.80
1589.035,509.67
1589.909,538.47
1590.784,542.87
1591.658,528.30
1592.533,519.30
1593.407,566.23
1594.281,552.83
1595.155,537.50
1596.029,541.23
1596.903,548.13
1597.777,504.93
1598.651,525.60
1599.525,493.20
1600.398,563.03
1601.272,549.23
1602.144,533.27
1603.017,554.13
1603.890,546.70
1604.763,489.17
1605.636,551.63
1606.509,537.63
1607.382,515.50
1608.255,514.67
1609.128,520.83
1610.000,517.23
1610.873,526.73
1611.746,501.30
1612.616,557.03
1613.488,527.43
1614.361,509.73
1615.233,510.80
1616.105,477.13
1616.977,538.30
1617.849,544.37
1618.720,495.60
1619.592,531.70
1620.464,529.77
1621.333,541.47
1622.205,513.07
1623.076,524.40
1623.947,515.47
1624.818,531.87
1625.689,519.50
1626.560,530.50
1627.431,531.97
1628.302,526.67
1629.171,551.40
1630.042,535.03
1630.912,505.23
1631.782,488.50
1632.653,520.50
1633.523,475.00
1634.393,521.73
1635.263,536.13
1636.131,539.33
1637.001,515.80
1637.871,506.47
1638.741,519.03
1639.611,524.37
1640.480,520.73
1641.350,499.60
1642.219,518.67
1643.087,508.20
1643.956,494.33
1644.825,512.27
1645.694,531.73
1646.563,510.13
1647.432,513.17
1648.299,473.43
1649.167,499.30
1650.036,497.10
1650.904,486.43
1651.773,487.47
1652.641,483.60
1653.509,473.20
1654.376,535.30
1655.244,496.67
1656.112,513.73
1656.980,470.77
1657.847,490.27
1658.715,508.07
1659.581,485.90
1660.448,510.57
1661.316,505.70
1662.183,530.97
1663.051,483.30
1663.918,514.10
1664.783,494.17
1665.650,522.70
1666.517,476.43
1667.384,483.83
1668.251,516.70
1669.115,501.87
1669.982,502.53
1670.849,484.00
1671.715,505.03
1672.581,487.77
1673.446,492.00
1674.312,483.70
1675.178,483.30
1676.044,506.50
1676.910,508.23
1677.774,512.77
1678.639,475.87
1679.505,493.90
1680.370,489.70
1681.236,501.37
1682.099,549.20
1682.965,522.20
1683.830,486.67
1684.695,512.43
1685.560,498.23
1686.423,479.23
1687.288,488.13
1688.153,513.53
1689.017,512.00
1689.880,491.90
1690.745,473.47
1691.609,483.13
1692.473,505.77
1693.338,500.83
1694.200,460.77
1695.064,468.17
1695.928,476.33
1696.792,458.20
1697.654,504.67
1698.517,497.97
1699.381,500.43
1700.245,475.80
1701.106,450.40
1701.969,461.80
1702.833,490.10
1703.696,468.93
1704.557,468.27
1705.420,491.43
1706.283,512.97
1707.146,482.90
1708.007,476.93
1708.870,539.10
1709.732,484.50
1710.595,468.33
1711.455,488.60
1712.318,446.70
1713.180,512.13
1714.040,480.57
1714.902,483.53
1715.764,459.10
1716.626,458.60
1717.486,482.40
1718.348,487.50
1719.209,463.00
1720.071,424.77
1720.930,483.07
1721.792,464.40
1722.653,489.97
1723.512,462.00
1724.374,461.30
1725.234,453.37
1726.095,460.93
1726.954,447.67
1727.815,451.93
1728.676,489.83
1729.535,483.27
1730.395,491.10
1731.256,513.53
1732.114,487.47
1732.974,487.97
1733.834,459.50
1734.693,501.00
1735.553,462.40
1736.413,477.37
1737.272,474.50
1738.130,466.93
1738.990,486.30
1739.849,456.33
1740.707,472.00
1741.566,479.27
1742.426,434.80
1743.283,497.73
1744.142,549.23
1745.001,445.87
1745.858,461.10
1746.717,470.60
1747.576,436.33
1748.433,510.10
1749.292,460.53
1750.150,489.23
1751.007,477.23
1751.865,493.43
1752.723,478.43
1753.579,494.37
1754.438,456.27
1755.296,454.13
1756.152,454.43
1757.010,474.73
1757.865,457.30
1758.723,476.13
1759.581,482.53
1760.436,470.93
1761.294,515.53
1762.151,473.13
1763.006,475.67
1763.864,458.33
1764.721,440.73
1765.576,483.17
1766.433,497.13
1767.288,426.10
1768.144,473.97
1769.001,472.80
1769.856,482.13
1770.712,419.37
1771.568,485.03
1772.423,505.17
1773.279,465.60
1774.133,456.13
1774.989,485.13
1775.845,497.40
1776.699,503.07
1777.555,462.30
1778.409,487.80
1779.265,439.03
1780.120,469.17
1780.974,481.20
1781.829,475.10
1782.682,435.03
1783.538,462.87
1784.393,513.17
1785.246,465.57
1786.101,444.27
1786.954,466.07
1787.808,493.57
1788.661,452.90
1789.516,455.97
1790.370,439.03
1791.223,436.57
1792.077,451.13
1792.930,446.33
1793.784,494.67
1794.636,451.80
1795.490,459.80
1796.344,447.27
1797.196,490.80
1798.049,444.73
1798.901,433.57
1799.755,437.73
1800.606,489.50
1801.460,468.33
1802.311,444.80
1803.165,488.33
1804.018,444.17
1804.869,443.53
1805.722,438.83
1806.573,483.80
1807.426,454.33
1808.276,470.23
1809.129,439.77
1809.980,454.97
1810.832,484.40
1811.683,430.33
1812.535,460.87
1813.385,464.93
1814.237,489.27
1815.089,467.33
1815.940,471.07
1816.791,440.40
1817.641,452.27
1818.493,422.60
1819.343,451.13
1820.194,438.10
1821.044,439.40
1821.895,442.30
1822.745,436.37
1823.596,405.87
1824.445,422.83
1825.296,444.27
1826.145,456.60
1826.996,479.33
1827.845,447.93
1828.695,447.07
1829.544,434.30
1830.395,458.50
1831.243,434.30
1832.094,425.70
1832.942,427.17
1833.792,445.90
1834.640,444.43
1835.490,444.37
1836.338,408.63
1837.186,460.50
1838.036,476.50
1838.884,430.97
1839.733,418.50
1840.581,472.50
1841.430,480.20
1842.278,444.83
1843.127,457.27
1843.974,435.17
1844.823,426.70
1845.671,431.63
1846.519,450.50
1847.366,435.30
1848.213,428.37
1849.062,454.30
1849.909,433.17
1850.757,416.13
1851.604,450.87
1852.452,470.27
1853.298,447.03
1854.146,453.17
1854.993,424.97
1855.839,425.20
1856.687,468.00
1857.532,429.87
1858.380,462.70
1859.226,419.23
1860.073,466.90
1860.919,432.13
1861.765,443.47
1862.612,422.83
1863.457,449.17
1864.304,440.13
1865.150,462.67
1865.995,462.93
1866.842,424.10
1867.686,464.23
1868.533,419.77
1869.378,410.67
1870.223,454.87
1871.069,448.00
1871.914,413.73
1872.760,443.60
1873.604,464.80
1874.448,439.30
1875.294,447.83
1876.139,432.83
1876.984,413.57
1877.828,425.57
1878.672,429.63
1879.518,440.80
1880.361,444.80
1881.205,420.00
1882.050,469.80
1882.894,438.87
1883.739,456.37
1884.582,448.57
1885.425,444.13
1886.270,441.77
1887.113,443.10
1887.956,411.97
1888.801,475.40
1889.644,442.60
1890.486,447.23
1891.331,403.73
1892.173,413.67
1893.017,433.23
1893.860,454.33
1894.702,438.33
1895.546,400.60
1896.388,461.23
1897.230,456.83
1898.074,402.03
1898.916,404.00
1899.757,423.00
1900.601,430.63
1901.443,426.53
1902.284,448.93
1903.125,458.17
1903.969,435.07
1904.810,452.43
1905.651,430.67
1906.494,410.80
1907.335,398.33
1908.176,424.50
1909.018,408.43
1909.859,458.27
1910.700,433.50
1911.542,435.87
1912.383,412.00
1913.223,452.50
1914.064,430.37
1914.906,416.87
1915.746,443.57
1916.586,424.23
1917.428,386.43
1918.268,444.20
1919.107,414.13
1919.947,461.23
1920.789,414.73
1921.628,425.57
1922.468,424.63
1923.309,428.87
1924.148,448.33
1924.988,432.90
1925.827,426.83
1926.667,427.27
1927.507,425.63
1928.345,445.83
1929.184,406.43
1930.025,432.80
1930.864,443.50
1931.702,414.73
1932.541,407.53
1933.381,442.83
1934.219,378.03
1935.057,435.17
1935.896,405.37
1936.735,421.73
1937.573,447.53
1938.411,420.40
1939.249,419.47
1940.089,431.20
1940.927,420.83
1941.764,467.73
1942.602,438.50
1943.439,448.07
1944.278,459.27
1945.115,436.03
1945.953,424.97
1946.790,407.83
1947.628,424.03
1948.465,423.33
1949.302,435.33
1950.139,425.40
1950.976,410.87
1951.814,415.10
1952.651,437.27
1953.487,457.80
1954.323,414.40
1955.160,438.57
1955.998,422.63
1956.834,390.63
1957.670,416.90
1958.506,412.57
1959.342,393.03
1960.177,426.30
1961.015,421.10
1961.850,420.33
1962.686,399.03
1963.521,392.60
1964.357,410.40
1965.192,417.97
1966.029,434.70
1966.864,413.97
1967.699,395.87
1968.534,398.27
1969.369,414.10
1970.204,431.53
1971.040,395.33
1971.875,403.03
1972.709,410.63
1973.544,439.13
1974.378,424.10
1975.212,408.97
1976.047,419.17
1976.882,428.20
1977.716,428.60
1978.550,407.67
1979.384,424.03
1980.218,409.77
1981.052,394.23
1981.885,379.33
1982.719,382.83
1983.554,435.87
1984.388,389.93
1985.221,386.63
1986.054,412.57
1986.887,405.57
1987.720,415.00
1988.553,430.83
1989.386,399.63
1990.219,411.77
1991.053,431.77
1991.886,394.77
1992.719,428.00
1993.551,389.60
1994.383,411.37
1995.216,422.17
1996.048,412.90
1996.880,416.73
1997.712,397.83
1998.544,411.90
1999.376,426.73
2000.208,427.67
2001.040,439.20
2001.873,417.50
2002.705,392.53
2003.536,375.63
2004.367,413.97
2005.199,418.93
2006.030,381.27
2006.861,458.07
2007.692,385.70
2008.523,393.93
2009.354,426.10
2010.185,397.27
2011.016,386.57
2011.846,422.60
2012.677,443.90
2013.507,391.77
2014.338,397.47
2015.168,423.33
2015.999,457.00
2016.829,430.57
2017.659,417.80
2018.489,412.63
2019.319,405.93
2020.149,391.73
2020.980,405.10
2021.810,445.47
2022.639,444.50
2023.469,406.23
2024.298,381.03
2025.128,398.07
2025.957,439.57
2026.786,414.50
2027.615,419.47
2028.444,420.93
2029.273,392.03
2030.102,387.63
2030.931,422.33
2031.758,403.60
2032.586,369.23
2033.415,419.50
2034.243,414.57
2035.072,406.43
2035.900,459.30
2036.728,416.57
2037.556,433.67
2038.385,426.30
2039.213,402.00
2040.040,408.87
2040.868,449.90
2041.696,423.23
2042.524,436.33
2043.351,411.73
2044.179,443.00
2045.006,424.90
2045.006,424.90

Max Intensity Wave.,219.929
Max Intensity Data,5441.70
Min Intensity Wave.,2032.586
Min Intensity Data,369.23
FWHM Wave.,387.959
FWHM Value,25.53
Pressure Wave.,685.564
Pressure Value [GPa],-22.58888
G/D Ratio,0.57706
G/D Gband Wave.,1554.828
G/D Gband Intensity,613.89
G/D Dband Wave.,1305.345
G/D Dband Intensity,1063.81

<< BACKGROUND SPECTRUM >>
Wave[dcm-1],No233
146.591,2270.00
147.626,2081.00
148.664,2067.00
149.699,2526.00
150.737,2242.00
151.772,2397.00
152.809,2383.00
153.846,2290.00
154.881,2364.00
155.918,1948.00
156.953,2274.00
157.989,2554.00
159.026,2460.00
160.060,2632.00
161.096,2845.00
162.130,2473.00
163.167,2560.00
164.200,2425.00
165.236,2640.00
166.272,2631.00
167.305,2247.00
168.341,2517.00
169.374,2755.00
170.409,2713.00
171.445,2683.00
172.477,2506.00
173.512,2371.00
174.545,2627.00
175.580,2847.00
176.614,3038.00
177.647,2773.00
178.681,2999.00
179.713,3299.00
180.747,2754.00
181.781,2712.00
182.813,2954.00
183.847,3015.00
184.878,2683.00
185.912,2953.00
186.945,3105.00
187.976,3029.00
189.010,2690.00
190.043,2823.00
191.073,2914.00
192.106,2702.00
193.137,3111.00
194.170,2508.00
195.202,2826.00
196.232,2665.00
197.265,2992.00
198.297,3011.00
199.327,2761.00
200.359,2916.00
201.388,3319.00
202.420,2896.00
203.452,3082.00
204.481,2675.00
205.512,3296.00
206.544,3063.00
207.573,3000.00
208.604,3393.00
209.635,3515.00
210.663,2948.00
211.694,2955.00
212.725,2793.00
213.753,2766.00
214.783,3318.00
215.813,3217.00
216.841,3023.00
217.871,3147.00
218.899,2885.00
219.929,3100.00
220.959,2902.00
221.986,3167.00
223.016,2751.00
224.045,3134.00
225.072,3105.00
226.101,3144.00
227.130,3222.00
228.157,2782.00
229.185,2321.00
230.214,3122.00
231.241,2809.00
232.269,2425.00
233.297,2669.00
234.323,3211.00
235.351,2793.00
236.379,3070.00
237.407,2731.00
238.433,2947.00
239.460,3071.00
240.488,3058.00
241.513,3177.00
242.540,3119.00
243.568,3190.00
244.592,3199.00
245.619,3180.00
246.646,2875.00
247.671,2931.00
248.697,2792.00
249.724,3022.00
250.748,2969.00
251.774,2959.00
252.801,3315.00
253.827,3116.00
254.850,3049.00
255.876,2650.00
256.902,3110.00
257.925,2959.00
258.951,2728.00
259.976,2774.00
260.999,3049.00
262.024,2737.00
263.049,3606.00
264.074,3097.00
265.097,3041.00
266.122,3039.00
267.146,3019.00
268.168,3177.00
269.193,2826.00
270.217,3183.00
271.241,2710.00
272.263,2854.00
273.287,3143.00
274.311,2733.00
275.332,3275.00
276.356,2837.00
277.379,3089.00
278.402,3099.00
279.424,2918.00
280.447,2883.00
281.470,2714.00
282.492,3039.00
283.513,2863.00
284.536,3157.00
285.558,3118.00
286.581,3081.00
287.601,2859.00
288.623,2771.00
289.645,3059.00
290.665,3125.00
291.687,3087.00
292.709,3107.00
293.730,3359.00
294.750,2870.00
295.771,2755.00
296.792,3070.00
297.813,2875.00
298.832,2979.00
299.853,2700.00
300.874,2967.00
301.895,2961.00
302.913,2962.00
303.934,3243.00
304.954,2988.00
305.975,3170.00
306.993,2698.00
308.013,3068.00
309.033,2982.00
310.052,2928.00
311.072,2873.00
312.090,3012.00
313.109,3260.00
314.129,3377.00
315.148,2992.00
316.165,3058.00
317.184,3221.00
318.203,2740.00
319.222,2742.00
320.238,3116.00
321.257,2792.00
322.275,2711.00
323.294,2944.00
324.312,3100.00
325.328,3264.00
326.346,3272.00
327.364,3190.00
328.382,3141.00
329.397,3084.00
330.415,3217.00
331.432,3196.00
332.450,3245.00
333.467,3422.00
334.482,2597.00
335.499,3322.00
336.516,2828.00
337.533,2558.00
338.547,2825.00
339.564,2810.00
340.580,3077.00
341.597,2940.00
342.613,3380.00
343.627,2930.00
344.643,2985.00
345.659,3115.00
346.675,2969.00
347.690,2901.00
348.704,3024.00
349.719,2894.00
350.735,2730.00
351.750,3159.00
352.765,3011.00
353.778,2932.00
354.793,3156.00
355.808,2837.00
356.822,3183.00
357.837,2638.00
358.851,3240.00
359.864,2937.00
360.878,2711.00
361.892,2955.00
362.906,3168.00
363.920,2605.00
364.932,3066.00
365.945,3082.00
366.959,3026.00
367.972,2937.00
368.986,2663.00
369.999,3380.00
371.010,2821.00
372.023,3349.00
373.036,2930.00
374.049,3362.00
375.061,3088.00
376.072,2959.00
377.084,2830.00
378.097,2712.00
379.109,3156.00
380.121,2993.00
381.133,2642.00
382.143,3128.00
383.155,2708.00
384.166,2893.00
385.178,3102.00
386.189,3204.00
387.201,2709.00
388.212,2877.00
389.221,2902.00
390.232,3028.00
391.243,2924.00
392.254,3031.00
393.264,2826.00
394.275,3216.00
395.283,3164.00
396.294,3556.00
397.304,3462.00
398.314,3065.00
399.324,3005.00
400.334,2621.00
401.344,3141.00
402.351,2620.00
403.361,3242.00
404.370,2966.00
405.380,2862.00
406.389,3359.00
407.398,3117.00
408.407,3093.00
409.414,3141.00
410.423,3300.00
411.431,2746.00
412.440,2655.00
413.448,3354.00
414.457,2863.00
415.465,2784.00
416.471,2877.00
417.479,3031.00
418.487,2825.00
419.495,3318.00
420.503,3068.00
421.510,2582.00
422.518,3127.00
423.525,3142.00
424.530,3336.00
425.537,2877.00
426.544,3220.00
427.551,2823.00
428.558,3568.00
429.565,3425.00
430.571,2898.00
431.578,2880.00
432.582,2823.00
433.588,2880.00
434.595,2630.00
435.601,3276.00
436.607,3257.00
437.612,2738.00
438.618,3297.00
439.624,2945.00
440.627,2929.00
441.633,3087.00
442.638,3581.00
443.643,3091.00
444.648,3022.00
445.653,3190.00
446.658,2914.00
447.663,2982.00
448.667,2883.00
449.672,2909.00
450.674,2948.00
451.678,2724.00
452.682,2849.00
453.687,2807.00
454.690,3546.00
455.694,3288.00
456.698,2536.00
457.702,2646.00
458.705,2739.00
459.709,2805.00
460.710,2821.00
461.713,3005.00
462.716,3064.00
463.719,3003.00
464.722,3163.00
465.725,2926.00
466.727,2835.00
467.730,3037.00
468.732,2778.00
469.735,3274.00
470.737,2868.00
471.737,2891.00
472.739,2827.00
473.741,2768.00
474.742,3021.00
475.744,3092.00
476.746,3039.00
477.747,2919.00
478.748,3144.00
479.750,2890.00
480.751,2972.00
481.752,3711.00
482.753,3095.00
483.751,3512.00
484.752,2637.00
485.753,2997.00
486.753,2826.00
487.753,2946.00
488.754,3349.00
489.754,2706.00
490.754,3283.00
491.754,3125.00
492.754,2664.00
493.753,2990.00
494.753,2896.00
495.752,3355.00
496.752,3018.00
497.749,2964.00
498.748,2824.00
499.747,3380.00
500.746,3091.00
501.745,2784.00
502.744,2712.00
503.742,3284.00
504.741,2981.00
505.739,2483.00
506.737,2900.00
507.735,3137.00
508.734,3392.00
509.732,3106.00
510.729,3331.00
511.727,2841.00
512.725,2911.00
513.720,2773.00
514.718,3232.00
515.715,2659.00
516.712,2635.00
517.709,2999.00
518.706,2874.00
519.703,3008.00
520.700,3183.00
521.696,3327.00
522.693,2927.00
523.689,2816.00
524.686,3160.00
525.682,2771.00
526.678,3443.00
527.674,2911.00
528.670,2576.00
529.666,3461.00
530.661,3471.00
531.657,3655.00
532.652,3143.00
533.648,3004.00
534.641,3198.00
535.636,3035.00
536.631,3098.00
537.626,3150.00
538.621,2717.00
539.616,2581.00
540.610,2506.00
541.605,2981.00
542.599,3037.00
543.593,3003.00
544.587,3878.00
545.581,2789.00
546.575,3039.00
547.569,3022.00
548.563,2694.00
549.557,2676.00
550.550,2754.00
551.543,2726.00
552.537,3132.00
553.530,2757.00
554.523,2796.00
555.516,3112.00
556.509,2941.00
557.502,2604.00
558.494,3175.00
559.487,2900.00
560.479,3172.00
561.472,3242.00
562.464,3101.00
563.456,3290.00
564.448,2916.00
565.440,2984.00
566.432,3380.00
567.423,2830.00
568.415,2932.00
569.404,3089.00
570.396,2824.00
571.387,3096.00
572.378,3012.00
573.369,3921.00
574.360,3683.00
575.351,2917.00
576.341,2852.00
577.332,2884.00
578.323,2667.00
579.313,2895.00
580.303,3195.00
581.293,3125.00
582.283,2976.00
583.273,3087.00
584.263,3010.00
585.253,3127.00
586.243,3138.00
587.232,2664.00
588.222,2970.00
589.211,3149.00
590.200,3047.00
591.189,2929.00
592.178,2940.00
593.167,3340.00
594.156,3215.00
595.145,2863.00
596.133,3419.00
597.122,3128.00
598.110,3157.00
599.098,3027.00
600.086,2974.00
601.074,3182.00
602.062,2804.00
603.050,2726.00
604.038,3062.00
605.025,2784.00
606.013,3176.00
607.000,3377.00
607.987,3016.00
608.975,3049.00
609.962,2793.00
610.949,3113.00
611.936,3270.00
612.922,3140.00
613.909,2687.00
614.895,3342.00
615.882,2818.00
616.868,2952.00
617.854,2733.00
618.841,3002.00
619.826,3072.00
620.812,2961.00
621.798,2801.00
622.784,3138.00
623.769,3089.00
624.755,2712.00
625.740,3051.00
626.725,2730.00
627.711,2833.00
628.698,3042.00
629.683,2797.00
630.667,3170.00
631.652,2748.00
632.637,2994.00
633.621,3120.00
634.606,2870.00
635.590,3100.00
636.574,2933.00
637.558,3077.00
638.542,3008.00
639.526,2848.00
640.510,2640.00
641.493,3075.00
642.477,2950.00
643.460,2669.00
644.444,3264.00
645.427,3212.00
646.410,2631.00
647.393,2953.00
648.376,3018.00
649.359,2892.00
650.341,3041.00
651.324,3079.00
652.307,3058.00
653.289,2952.00
654.271,2873.00
655.253,2899.00
656.235,3115.00
657.217,3220.00
658.199,2620.00
659.181,2758.00
660.163,2999.00
661.144,2838.00
662.126,2892.00
663.107,2788.00
664.088,6181.00
665.069,3207.00
666.050,2756.00
667.033,2716.00
668.014,3057.00
668.995,2575.00
669.975,2963.00
670.956,2945.00
671.936,3145.00
672.916,2958.00
673.896,3086.00
674.876,2831.00
675.856,2858.00
676.836,2747.00
677.816,2332.00
678.795,2808.00
679.775,2679.00
680.754,3020.00
681.734,3147.00
682.713,3140.00
683.692,2749.00
684.671,2655.00
685.650,2701.00
686.629,2882.00
687.607,2680.00
688.586,2739.00
689.564,2894.00
690.543,3243.00
691.523,2372.00
692.501,2844.00
693.479,2967.00
694.457,2784.00
695.435,2846.00
696.413,2629.00
697.390,2509.00
698.368,2675.00
699.345,3037.00
700.322,2936.00
701.300,3099.00
702.277,3018.00
703.254,3247.00
704.231,2519.00
705.207,2957.00
706.184,2735.00
707.161,2648.00
708.137,2803.00
709.113,2811.00
710.090,2810.00
711.068,2546.00
712.044,2632.00
713.020,2846.00
713.996,2619.00
714.971,2792.00
715.947,2817.00
716.922,2812.00
717.898,2716.00
718.873,2858.00
719.848,2685.00
720.823,2682.00
721.798,2936.00
722.773,2781.00
723.748,2536.00
724.723,2991.00
725.697,2833.00
726.672,2745.00
727.646,2495.00
728.622,2925.00
729.596,2595.00
730.570,2707.00
731.544,3074.00
732.518,3251.00
733.492,2811.00
734.466,2843.00
735.439,2982.00
736.413,3084.00
737.386,2474.00
738.359,2442.00
739.332,2547.00
740.305,2836.00
741.278,3245.00
742.251,2944.00
743.224,3205.00
744.196,2595.00
745.171,3113.00
746.143,3046.00
747.115,2773.00
748.087,2706.00
749.059,3074.00
750.031,2903.00
751.003,3636.00
751.975,3234.00
752.947,2713.00
753.918,3080.00
754.890,2590.00
755.861,2736.00
756.832,3008.00
757.803,2854.00
758.774,2832.00
759.747,2605.00
760.718,3189.00
761.689,2733.00
762.659,2592.00
763.630,3149.00
764.600,2566.00
765.570,3038.00
766.540,3150.00
767.510,2940.00
768.480,3046.00
769.450,2724.00
770.420,2849.00
771.390,2624.00
772.359,2737.00
773.329,2652.00
774.300,2480.00
775.269,2734.00
776.238,2961.00
777.207,3146.00
778.176,2481.00
779.145,2824.00
780.114,2673.00
781.083,2566.00
782.051,2741.00
783.019,2694.00
783.988,3068.00
784.956,2831.00
785.924,2980.00
786.894,2823.00
787.862,2681.00
788.830,3105.00
789.797,2570.00
790.765,2620.00
791.732,2774.00
792.700,2623.00
793.667,2571.00
794.634,2768.00
795.601,2752.00
796.568,2765.00
797.535,2803.00
798.502,3399.00
799.468,2920.00
800.437,2377.00
801.403,2634.00
802.370,3238.00
803.336,2974.00
804.302,2884.00
805.268,2467.00
806.234,2544.00
807.200,2745.00
808.166,2780.00
809.131,2564.00
810.097,2986.00
811.062,3640.00
812.027,2998.00
812.994,2580.00
813.960,2593.00
814.925,2961.00
815.889,2533.00
816.854,3001.00
817.819,2661.00
818.783,2750.00
819.748,3138.00
820.712,2715.00
821.677,2654.00
822.641,2682.00
823.605,2704.00
824.571,3128.00
825.534,2699.00
826.498,2681.00
827.462,2801.00
828.425,2620.00
829.389,3049.00
830.352,2798.00
831.315,2894.00
832.279,2522.00
833.242,2761.00
834.204,2667.00
835.167,2637.00
836.132,3040.00
837.095,2536.00
838.057,2723.00
839.020,2806.00
839.982,2854.00
840.944,2665.00
841.906,2648.00
842.868,2955.00
843.830,2584.00
844.792,3044.00
845.753,2662.00
846.715,2449.00
847.679,2587.00
848.640,2633.00
849.601,2733.00
850.562,3201.00
851.523,2715.00
852.484,2490.00
853.445,2975.00
854.406,2690.00
855.367,2743.00
856.327,3026.00
857.288,2520.00
858.248,2683.00
859.210,2692.00
860.170,2527.00
861.130,2980.00
862.090,2448.00
863.050,2606.00
864.010,2713.00
864.969,2898.00
865.929,2593.00
866.888,2517.00
867.848,2829.00
868.807,2666.00
869.766,2848.00
870.727,2739.00
871.686,3038.00
872.645,2978.00
873.604,3289.00
874.562,2744.00
875.521,2798.00
876.479,3348.00
877.437,2560.00
878.396,2611.00
879.354,3180.00
880.312,2589.00
881.270,2704.00
882.229,3108.00
883.187,2642.00
884.145,2652.00
885.102,2955.00
886.059,2817.00
887.017,2885.00
887.974,2929.00
888.931,3044.00
889.888,2499.00
890.845,2443.00
891.802,2342.00
892.758,2658.00
893.717,2420.00
894.673,2538.00
895.630,2627.00
896.586,2893.00
897.542,2636.00
898.498,2512.00
899.454,2812.00
900.410,2691.00
901.366,2687.00
902.321,2572.00
903.277,2684.00
904.232,2749.00
905.189,2527.00
906.145,2651.00
907.100,2236.00
908.055,2732.00
909.010,2907.00
909.965,2330.00
910.919,2786.00
911.874,2537.00
912.828,2777.00
913.783,2758.00
914.737,2373.00
915.693,2776.00
916.648,2927.00
917.602,2938.00
918.555,2777.00
919.509,2827.00
920.463,2724.00
921.417,2786.00
922.370,2560.00
923.324,2707.00
924.277,2718.00
925.230,2744.00
926.183,2416.00
927.138,2697.00
928.091,2946.00
929.044,2828.00
929.996,2653.00
930.949,2665.00
931.902,2823.00
932.854,2805.00
933.806,2552.00
934.758,2990.00
935.711,2975.00
936.663,2754.00
937.614,2791.00
938.568,2757.00
939.520,2409.00
940.471,2663.00
941.423,2736.00
942.374,2903.00
943.326,2759.00
944.277,2591.00
945.228,2782.00
946.179,2712.00
947.130,3055.00
948.080,2663.00
949.031,2547.00
949.984,2680.00
950.934,2701.00
951.884,2482.00
952.835,2671.00
953.785,2699.00
954.735,2612.00
955.685,2363.00
956.635,2609.00
957.585,2651.00
958.534,2654.00
959.484,2729.00
960.433,2610.00
961.383,2470.00
962.334,2967.00
963.283,2772.00
964.232,2818.00
965.181,2716.00
966.130,2828.00
967.079,2614.00
968.027,2704.00
968.976,2745.00
969.924,2617.00
970.873,2808.00
971.821,2781.00
972.769,2945.00
973.719,2859.00
974.667,2495.00
975.615,2736.00
976.562,2719.00
977.510,2391.00
978.458,2655.00
979.405,2815.00
980.352,2765.00
981.300,2979.00
982.247,2758.00
983.194,2551.00
984.141,2626.00
985.088,2687.00
986.036,2759.00
986.983,2985.00
987.930,3138.00
988.876,2368.00
989.822,2914.00
990.769,2563.00
991.715,2591.00
992.661,2436.00
993.607,2793.00
994.553,3264.00
995.498,2582.00
996.444,2303.00
997.389,2788.00
998.337,2530.00
999.282,2872.00
1000.227,2612.00
1001.173,2710.00
1002.118,2480.00
1003.062,2916.00
1004.007,2712.00
1004.952,2976.00
1005.897,2949.00
1006.841,2696.00
1007.786,2461.00
1008.730,2425.00
1009.674,3192.00
1010.618,2663.00
1011.564,2564.00
1012.508,2379.00
1013.452,2934.00
1014.396,2708.00
1015.339,2595.00
1016.283,2701.00
1017.226,2730.00
1018.170,2684.00
1019.113,2876.00
1020.056,2758.00
1020.999,2759.00
1021.942,2609.00
1022.885,2837.00
1023.828,3008.00
1024.770,2508.00
1025.715,2730.00
1026.657,2659.00
1027.600,2751.00
1028.542,2917.00
1029.484,2745.00
1030.426,2812.00
1031.368,2763.00
1032.310,2547.00
1033.251,2535.00
1034.193,2683.00
1035.135,2496.00
1036.076,2639.00
1037.017,2562.00
1037.959,2799.00
1038.900,2799.00
1039.843,2820.00
1040.784,2754.00
1041.725,2808.00
1042.665,2623.00
1043.606,2779.00
1044.547,2752.00
1045.487,2337.00
1046.427,2701.00
1047.368,2775.00
1048.308,2262.00
1049.248,2516.00
1050.188,2691.00
1051.128,2554.00
1052.067,2674.00
1053.007,2389.00
1053.947,2401.00
1054.886,2602.00
1055.827,2477.00
1056.766,2889.00
1057.706,2446.00
1058.645,2650.00
1059.584,2761.00
1060.522,2971.00
1061.461,2462.00
1062.400,2469.00
1063.338,2616.00
1064.277,2503.00
1065.215,2510.00
1066.154,2400.00
1067.092,2567.00
1068.030,2653.00
1068.968,2866.00
1069.906,3001.00
1070.843,2949.00
1071.781,2755.00
1072.720,2782.00
1073.658,2829.00
1074.595,2546.00
1075.533,2523.00
1076.470,2575.00
1077.407,2952.00
1078.344,2782.00
1079.281,2825.00
1080.217,2310.00
1081.154,2651.00
1082.091,2724.00
1083.027,2452.00
1083.964,2895.00
1084.900,2557.00
1085.836,2602.00
1086.772,2876.00
1087.708,2473.00
1088.644,2839.00
1089.580,2715.00
1090.515,2721.00
1091.451,2573.00
1092.388,2702.00
1093.324,2459.00
1094.259,3219.00
1095.194,2798.00
1096.129,2634.00
1097.064,2581.00
1097.999,2835.00
1098.934,2530.00
1099.869,2577.00
1100.803,2684.00
1101.738,2691.00
1102.672,2391.00
1103.607,2817.00
1104.541,2535.00
1105.475,2564.00
1106.409,2446.00
1107.343,2615.00
1108.277,2442.00
1109.210,2723.00
1110.144,2716.00
1111.078,2660.00
1112.011,2471.00
1112.944,2760.00
1113.878,2730.00
1114.811,2165.00
1115.744,2573.00
1116.678,2294.00
1117.611,2601.00
1118.544,2616.00
1119.477,2751.00
1120.409,2547.00
1121.342,3140.00
1122.274,2778.00
1123.206,3097.00
1124.138,2687.00
1125.070,2990.00
1126.002,2833.00
1126.934,2293.00
1127.866,2566.00
1128.798,2326.00
1129.729,2412.00
1130.661,2630.00
1131.592,2587.00
1132.523,2740.00
1133.454,2753.00
1134.385,2340.00
1135.317,2624.00
1136.247,2570.00
1137.178,2897.00
1138.109,2382.00
1139.039,3008.00
1139.970,2860.00
1140.900,2612.00
1141.831,2319.00
1142.761,2244.00
1143.691,2784.00
1144.621,2632.00
1145.551,2665.00
1146.480,2690.00
1147.410,2844.00
1148.340,2312.00
1149.269,2400.00
1150.199,2574.00
1151.128,3017.00
1152.057,2457.00
1152.979,2573.00
1153.898,2644.00
1154.819,2709.00
1155.739,2618.00
1156.658,2542.00
1157.579,2666.00
1158.498,2637.00
1159.419,2199.00
1160.338,2684.00
1161.256,2664.00
1162.177,2488.00
1163.095,2635.00
1164.016,2691.00
1164.934,2864.00
1165.852,2804.00
1166.772,2604.00
1167.690,2635.00
1168.610,2686.00
1169.528,2673.00
1170.446,2212.00
1171.365,2593.00
1172.283,2506.00
1173.202,2613.00
1174.120,2695.00
1175.037,2508.00
1175.956,2459.00
1176.873,2492.00
1177.792,2538.00
1178.709,3114.00
1179.626,2513.00
1180.544,2839.00
1181.461,2504.00
1182.379,2709.00
1183.296,2624.00
1184.212,2275.00
1185.130,2502.00
1186.046,2948.00
1186.962,2639.00
1187.880,2869.00
1188.796,2667.00
1189.714,2452.00
1190.629,2785.00
1191.545,2702.00
1192.462,2578.00
1193.378,2618.00
1194.295,2388.00
1195.210,2663.00
1196.125,2776.00
1197.042,2712.00
1197.957,2644.00
1198.872,2492.00
1199.788,2547.00
1200.703,2937.00
1201.619,2677.00
1202.534,2509.00
1203.448,2677.00
1204.364,2566.00
1205.278,2303.00
1206.192,2670.00
1207.108,3122.00
1208.022,2982.00
1208.938,2505.00
1209.851,2758.00
1210.765,2852.00
1211.680,2533.00
1212.594,2449.00
1213.507,2570.00
1214.422,3040.00
1215.335,2768.00
1216.248,2587.00
1217.163,2643.00
1218.076,3216.00
1218.990,2732.00
1219.903,2416.00
1220.816,2459.00
1221.730,2615.00
1222.642,2512.00
1223.554,2549.00
1224.469,2681.00
1225.380,2566.00
1226.292,2335.00
1227.206,2764.00
1228.118,2942.00
1229.032,2266.00
1229.943,2493.00
1230.855,2587.00
1231.768,2404.00
1232.679,2704.00
1233.590,2604.00
1234.503,2878.00
1235.414,2474.00
1236.325,2509.00
1237.238,2681.00
1238.149,2733.00
1239.059,2441.00
1239.972,2821.00
1240.882,2450.00
1241.793,2734.00
1242.705,3002.00
1243.615,2550.00
1244.525,2694.00
1245.437,2193.00
1246.347,2696.00
1247.259,2792.00
1248.168,3024.00
1249.078,2884.00
1249.989,2895.00
1250.899,2449.00
1251.808,2513.00
1252.719,2573.00
1253.628,2509.00
1254.537,2994.00
1255.448,2462.00
1256.357,2450.00
1257.266,2623.00
1258.176,2379.00
1259.085,2364.00
1259.993,2437.00
1260.904,2461.00
1261.812,2454.00
1262.720,3251.00
1263.630,2820.00
1264.538,2475.00
1265.446,2714.00
1266.356,2601.00
1267.263,2910.00
1268.171,2428.00
1269.080,2702.00
1269.988,2761.00
1270.895,2539.00
1271.804,2601.00
1272.711,2797.00
1273.619,2777.00
1274.527,2447.00
1275.434,2763.00
1276.341,2411.00
1277.248,2634.00
1278.156,2934.00
1279.063,2522.00
1279.969,2718.00
1280.877,3522.00
1281.783,2849.00
1282.690,2708.00
1283.598,2628.00
1284.503,2520.00
1285.409,2460.00
1286.317,2999.00
1287.223,2968.00
1288.128,2701.00
1289.036,2533.00
1289.941,2553.00
1290.846,2650.00
1291.751,2452.00
1292.658,2571.00
1293.563,3058.00
1294.468,2654.00
1295.375,2801.00
1296.280,2884.00
1297.184,3354.00
1298.091,2725.00
1298.995,2796.00
1299.900,3011.00
1300.806,2576.00
1301.710,2393.00
1302.614,2218.00
1303.518,2913.00
1304.424,2567.00
1305.327,2769.00
1306.231,2590.00
1307.137,2756.00
1308.040,2694.00
1308.943,2654.00
1309.847,2835.00
1310.752,2788.00
1311.655,2308.00
1312.558,2417.00
1313.463,2553.00
1314.366,2547.00
1315.269,2693.00
1316.171,2648.00
1317.076,2506.00
1317.978,2427.00
1318.881,2267.00
1319.785,2515.00
1320.687,2489.00
1321.589,2252.00
1322.491,2459.00
1323.395,2726.00
1324.297,3202.00
1325.198,2754.00
1326.102,2412.00
1327.004,2462.00
1327.905,2988.00
1328.806,2637.00
1329.709,2709.00
1330.611,2573.00
1331.512,2460.00
1332.413,3081.00
1333.316,2662.00
1334.216,2811.00
1335.117,2335.00
1336.020,2652.00
1336.920,2627.00
1337.821,2517.00
1338.721,2879.00
1339.623,2686.00
1340.523,2581.00
1341.423,2499.00
1342.323,2922.00
1343.225,2727.00
1344.125,2460.00
1345.025,2510.00
1345.924,2310.00
1346.826,2997.00
1347.725,3067.00
1348.624,2857.00
1349.524,2536.00
1350.425,2560.00
1351.324,2735.00
1352.223,2794.00
1353.121,2598.00
1354.022,2784.00
1354.921,2984.00
1355.819,2743.00
1356.718,2656.00
1357.618,2392.00
1358.516,2724.00
1359.415,3020.00
1360.313,2682.00
1361.213,2536.00
1362.111,2877.00
1363.008,3288.00
1363.906,2612.00
1364.806,2620.00
1365.703,2728.00
1366.601,2507.00
1367.498,2449.00
1368.397,2793.00
1369.295,2653.00
1370.192,2445.00
1371.089,2715.00
1371.987,2602.00
1372.884,2894.00
1373.781,2419.00
1374.678,2603.00
1375.574,2451.00
1376.473,2716.00
1377.369,2864.00
1378.265,2483.00
1379.161,2587.00
1380.059,2355.00
1380.955,2756.00
1381.851,2388.00
1382.747,2534.00
1383.643,2575.00
1384.540,2438.00
1385.436,2509.00
1386.331,2712.00
1387.227,2765.00
1388.124,2738.00
1389.019,2460.00
1389.914,2579.00
1390.809,2304.00
1391.704,2998.00
1392.601,2525.00
1393.495,2904.00
1394.390,2759.00
1395.285,2880.00
1396.179,2684.00
1397.075,2591.00
1397.969,2700.00
1398.864,2327.00
1399.758,2592.00
1400.652,2612.00
1401.547,2475.00
1402.441,2440.00
1403.335,2947.00
1404.229,2620.00
1405.122,2717.00
1406.017,2651.00
1406.911,2769.00
1407.804,3027.00
1408.697,2636.00
1409.590,2455.00
1410.485,2814.00
1411.378,2691.00
1412.271,2359.00
1413.163,2721.00
1414.056,2758.00
1414.949,3009.00
1415.843,2690.00
1416.735,2606.00
1417.627,2650.00
1418.520,2641.00
1419.412,2846.00
1420.306,2809.00
1421.197,2869.00
1422.089,2841.00
1422.981,3050.00
1423.873,2785.00
1424.764,2750.00
1425.657,2650.00
1426.549,2802.00
1427.440,2788.00
1428.331,2550.00
1429.222,2352.00
1430.113,2676.00
1431.006,2809.00
1431.897,2544.00
1432.787,2657.00
1433.678,2529.00
1434.568,2448.00
1435.459,2843.00
1436.351,2776.00
1437.241,2770.00
1438.131,2786.00
1439.021,2401.00
1439.911,2651.00
1440.801,2692.00
1441.693,2860.00
1442.583,2637.00
1443.472,2638.00
1444.362,2742.00
1445.251,2584.00
1446.140,2544.00
1447.030,2823.00
1447.921,2825.00
1448.810,2465.00
1449.699,3040.00
1450.588,2644.00
1451.476,2554.00
1452.365,2771.00
1453.254,2538.00
1454.144,2525.00
1455.032,2749.00
1455.921,2380.00
1456.809,2946.00
1457.697,2481.00
1458.585,2579.00
1459.473,2635.00
1460.361,2496.00
1461.251,2701.00
1462.138,2663.00
1463.026,2595.00
1463.913,2890.00
1464.801,2533.00
1465.688,2742.00
1466.575,2671.00
1467.463,3130.00
1468.351,2493.00
1469.238,2627.00
1470.125,2236.00
1471.012,2635.00
1471.899,2732.00
1472.785,2475.00
1473.672,2642.00
1474.558,2840.00
1475.446,2762.00
1476.333,2804.00
1477.219,2450.00
1478.105,2613.00
1478.991,2597.00
1479.877,2956.00
1480.762,2645.00
1481.648,2501.00
1482.534,2767.00
1483.419,2743.00
1484.307,2773.00
1485.192,2619.00
1486.077,2494.00
1486.962,2519.00
1487.847,2402.00
1488.732,2518.00
1489.617,2654.00
1490.502,2908.00
1491.387,2782.00
1492.271,2465.00
1493.156,2512.00
1494.042,2425.00
1494.927,2777.00
1495.811,2561.00
1496.695,2746.00
1497.579,2908.00
1498.463,2658.00
1499.347,2715.00
1500.231,2698.00
1501.114,2716.00
1501.998,2892.00
1502.881,2696.00
1503.765,2930.00
1504.648,3048.00
1505.533,2716.00
1506.417,2680.00
1507.300,2576.00
1508.183,2733.00
1509.066,2124.00
1509.948,2905.00
1510.831,2972.00
1511.714,2437.00
1512.596,2806.00
1513.479,2869.00
1514.361,2867.00
1515.243,2685.00
1516.125,2835.00
1517.008,2909.00
1517.890,2591.00
1518.771,2670.00
1519.655,2902.00
1520.537,2578.00
1521.419,2490.00
1522.300,2675.00
1523.182,2801.00
1524.063,2801.00
1524.944,2920.00
1525.825,2848.00
1526.707,2494.00
1527.588,2459.00
1528.468,2731.00
1529.349,2321.00
1530.230,2577.00
1531.111,2836.00
1531.991,2675.00
1532.872,2358.00
1533.752,2618.00
1534.632,2526.00
1535.513,2536.00
1536.393,2794.00
1537.273,2952.00
1538.153,3320.00
1539.032,2420.00
1539.912,2656.00
1540.792,2669.00
1541.672,2653.00
1542.551,2757.00
1543.430,3208.00
1544.310,2681.00
1545.189,2527.00
1546.068,3038.00
1546.947,2754.00
1547.826,2952.00
1548.705,2667.00
1549.584,2886.00
1550.462,2640.00
1551.341,2837.00
1552.219,2736.00
1553.098,2811.00
1553.976,2873.00
1554.854,3001.00
1555.733,2866.00
1556.611,2544.00
1557.489,2450.00
1558.367,2655.00
1559.244,2859.00
1560.122,2633.00
1561.000,2748.00
1561.877,2928.00
1562.755,2511.00
1563.632,2610.00
1564.509,2942.00
1565.386,3040.00
1566.264,2388.00
1567.141,2298.00
1568.017,2829.00
1568.894,2665.00
1569.771,2677.00
1570.648,2753.00
1571.524,2676.00
1572.401,2426.00
1573.277,2427.00
1574.153,2695.00
1575.029,2518.00
1575.906,3337.00
1576.781,2809.00
1577.657,2575.00
1578.533,2910.00
1579.409,2276.00
1580.285,2587.00
1581.160,3082.00
1582.036,2818.00
1582.911,2496.00
1583.786,3017.00
1584.662,2474.00
1585.537,2597.00
1586.412,2668.00
1587.287,2501.00
1588.160,2834.00
1589.035,2349.00
1589.909,2679.00
1590.784,2620.00
1591.658,2479.00
1592.533,2725.00
1593.407,2643.00
1594.281,2538.00
1595.155,3057.00
1596.029,2571.00
1596.903,2591.00
1597.777,2611.00
1598.651,2909.00
1599.525,2411.00
1600.398,2658.00
1601.272,2610.00
1602.144,3175.00
1603.017,2583.00
1603.890,2887.00
1604.763,2796.00
1605.636,2793.00
1606.509,2366.00
1607.382,2514.00
1608.255,2746.00
1609.128,2892.00
1610.000,2639.00
1610.873,2368.00
1611.746,2588.00
1612.616,2568.00
1613.488,2244.00
1614.361,2666.00
1615.233,2628.00
1616.105,2913.00
1616.977,2556.00
1617.849,2480.00
1618.720,2989.00
1619.592,2952.00
1620.464,2734.00
1621.333,3089.00
1622.205,2669.00
1623.076,2643.00
1623.947,2649.00
1624.818,2881.00
1625.689,2775.00
1626.560,2566.00
1627.431,2695.00
1628.302,3030.00
1629.171,2759.00
1630.042,2950.00
1630.912,3637.00
1631.782,3251.00
1632.653,2469.00
1633.523,2846.00
1634.393,2884.00
1635.263,2518.00
1636.131,2615.00
1637.001,2587.00
1637.871,2296.00
1638.741,2304.00
1639.611,2396.00
1640.480,2770.00
1641.350,2543.00
1642.219,2493.00
1643.087,2180.00
1643.956,3097.00
1644.825,2905.00
1645.694,2834.00
1646.563,2827.00
1647.432,2705.00
1648.299,2711.00
1649.167,2799.00
1650.036,2480.00
1650.904,2803.00
1651.773,2898.00
1652.641,2710.00
1653.509,2895.00
1654.376,2500.00
1655.244,2715.00
1656.112,2696.00
1656.980,2705.00
1657.847,2547.00
1658.715,2828.00
1659.581,2586.00
1660.448,2876.00
1661.316,2183.00
1662.183,2679.00
1663.051,2732.00
1663.918,2677.00
1664.783,2688.00
1665.650,2726.00
1666.517,2851.00
1667.384,2693.00
1668.251,2682.00
1669.115,2873.00
1669.982,2625.00
1670.849,2958.00
1671.715,2626.00
1672.581,2801.00
1673.446,2771.00
1674.312,2691.00
1675.178,3065.00
1676.044,2736.00
1676.910,2723.00
1677.774,2686.00
1678.639,2354.00
1679.505,2655.00
1680.370,2797.00
1681.236,3299.00
1682.099,2560.00
1682.965,2657.00
1683.830,2275.00
1684.695,2471.00
1685.560,2583.00
1686.423,2824.00
1687.288,2802.00
1688.153,2691.00
1689.017,2578.00
1689.880,2739.00
1690.745,2825.00
1691.609,2512.00
1692.473,2802.00
1693.338,2872.00
1694.200,2958.00
1695.064,2690.00
1695.928,2588.00
1696.792,2700.00
1697.654,3145.00
1698.517,2684.00
1699.381,2405.00
1700.245,2340.00
1701.106,2992.00
1701.969,2595.00
1702.833,2800.00
1703.696,2583.00
1704.557,2645.00
1705.420,2524.00
1706.283,2659.00
1707.146,2809.00
1708.007,2479.00
1708.870,2418.00
1709.732,2353.00
1710.595,2570.00
1711.455,2430.00
1712.318,2615.00
1713.180,2905.00
1714.040,2711.00
1714.902,2832.00
1715.764,2696.00
1716.626,2474.00
1717.486,2619.00
1718.348,2915.00
1719.209,4864.00
1720.071,2392.00
1720.930,2421.00
1721.792,2523.00
1722.653,2515.00
1723.512,2585.00
1724.374,2636.00
1725.234,2731.00
1726.095,2707.00
1726.954,2695.00
1727.815,2819.00
1728.676,2653.00
1729.535,2875.00
1730.395,2626.00
1731.256,2551.00
1732.114,2702.00
1732.974,2135.00
1733.834,3043.00
1734.693,2812.00
1735.553,2699.00
1736.413,3080.00
1737.272,2559.00
1738.130,2614.00
1738.990,2744.00
1739.849,2587.00
1740.707,3645.00
1741.566,2703.00
1742.426,2745.00
1743.283,3041.00
1744.142,2487.00
1745.001,2371.00
1745.858,2846.00
1746.717,2731.00
1747.576,2807.00
1748.433,2778.00
1749.292,3243.00
1750.150,3265.00
1751.007,2862.00
1751.865,2862.00
1752.723,2685.00
1753.579,2575.00
1754.438,2902.00
1755.296,2897.00
1756.152,2260.00
1757.010,2354.00
1757.865,2878.00
1758.723,2332.00
1759.581,2963.00
1760.436,2637.00
1761.294,2988.00
1762.151,2653.00
1763.006,2593.00
1763.864,2326.00
1764.721,2887.00
1765.576,2681.00
1766.433,2782.00
1767.288,2618.00
1768.144,2709.00
1769.001,2630.00
1769.856,2735.00
1770.712,2937.00
1771.568,2444.00
1772.423,2534.00
1773.279,2588.00
1774.133,2578.00
1774.989,3046.00
1775.845,3021.00
1776.699,2872.00
1777.555,2661.00
1778.409,3180.00
1779.265,2653.00
1780.120,2630.00
1780.974,2632.00
1781.829,2271.00
1782.682,2749.00
1783.538,2490.00
1784.393,2661.00
1785.246,2564.00
1786.101,2790.00
1786.954,2795.00
1787.808,2857.00
1788.661,2423.00
1789.516,2605.00
1790.370,2640.00
1791.223,2867.00
1792.077,2687.00
1792.930,2763.00
1793.784,2518.00
1794.636,2700.00
1795.490,2638.00
1796.344,2707.00
1797.196,2634.00
1798.049,2849.00
1798.901,2593.00
1799.755,2909.00
1800.606,2431.00
1801.460,3184.00
1802.311,2986.00
1803.165,3039.00
1804.018,3030.00
1804.869,2771.00
1805.722,3149.00
1806.573,2693.00
1807.426,2506.00
1808.276,2653.00
1809.129,2607.00
1809.980,2874.00
1810.832,2931.00
1811.683,2616.00
1812.535,2998.00
1813.385,2603.00
1814.237,2920.00
1815.089,2703.00
1815.940,2932.00
1816.791,2641.00
1817.641,2543.00
1818.493,2849.00
1819.343,2751.00
1820.194,2569.00
1821.044,2791.00
1821.895,2907.00
1822.745,2422.00
1823.596,2614.00
1824.445,3095.00
1825.296,2787.00
1826.145,2646.00
1826.996,2841.00
1827.845,2729.00
1828.695,2739.00
1829.544,2687.00
1830.395,2713.00
1831.243,2606.00
1832.094,2443.00
1832.942,3302.00
1833.792,2803.00
1834.640,2747.00
1835.490,2693.00
1836.338,2787.00
1837.186,2564.00
1838.036,2519.00
1838.884,2683.00
1839.733,3030.00
1840.581,2835.00
1841.430,2773.00
1842.278,3014.00
1843.127,2563.00
1843.974,2384.00
1844.823,3123.00
1845.671,2839.00
1846.519,2692.00
1847.366,2758.00
1848.213,2349.00
1849.062,2490.00
1849.909,2426.00
1850.757,3341.00
1851.604,2784.00
1852.452,2583.00
1853.298,2857.00
1854.146,2721.00
1854.993,2747.00
1855.839,3193.00
1856.687,2783.00
1857.532,2823.00
1858.380,2678.00
1859.226,2771.00
1860.073,2775.00
1860.919,2539.00
1861.765,2575.00
1862.612,2937.00
1863.457,2890.00
1864.304,2647.00
1865.150,2778.00
1865.995,2646.00
1866.842,2815.00
1867.686,2889.00
1868.533,2775.00
1869.378,2769.00
1870.223,2704.00
1871.069,2574.00
1871.914,2723.00
1872.760,2675.00
1873.604,2462.00
1874.448,2845.00
1875.294,2865.00
1876.139,2566.00
1876.984,2835.00
1877.828,2369.00
1878.672,2222.00
1879.518,2566.00
1880.361,2865.00
1881.205,2862.00
1882.050,2470.00
1882.894,3181.00
1883.739,2556.00
1884.582,2467.00
1885.425,2505.00
1886.270,2929.00
1887.113,2450.00
1887.956,2813.00
1888.801,2707.00
1889.644,2498.00
1890.486,2287.00
1891.331,2656.00
1892.173,2759.00
1893.017,2759.00
1893.860,2944.00
1894.702,2982.00
1895.546,2733.00
1896.388,3354.00
1897.230,3023.00
1898.074,2633.00
1898.916,2516.00
1899.757,2534.00
1900.601,3360.00
1901.443,2982.00
1902.284,2975.00
1903.125,3133.00
1903.969,2872.00
1904.810,2908.00
1905.651,2785.00
1906.494,3034.00
1907.335,3170.00
1908.176,2820.00
1909.018,2804.00
1909.859,2634.00
1910.700,2569.00
1911.542,3224.00
1912.383,2781.00
1913.223,2325.00
1914.064,2824.00
1914.906,2966.00
1915.746,3020.00
1916.586,3162.00
1917.428,2731.00
1918.268,2716.00
1919.107,2616.00
1919.947,2452.00
1920.789,2641.00
1921.628,2927.00
1922.468,2701.00
1923.309,2545.00
1924.148,2989.00
1924.988,2774.00
1925.827,2682.00
1926.667,2595.00
1927.507,2747.00
1928.345,2511.00
1929.184,2876.00
1930.025,2528.00
1930.864,2942.00
1931.702,3018.00
1932.541,2631.00
1933.381,2812.00
1934.219,2908.00
1935.057,2984.00
1935.896,2437.00
1936.735,2671.00
1937.573,2589.00
1938.411,2521.00
1939.249,2876.00
1940.089,2586.00
1940.927,2958.00
1941.764,2938.00
1942.602,2618.00
1943.439,2572.00
1944.278,2648.00
1945.115,2616.00
1945.953,2457.00
1946.790,2793.00
1947.628,3060.00
1948.465,2813.00
1949.302,2841.00
1950.139,2847.00
1950.976,2598.00
1951.814,2872.00
1952.651,2754.00
1953.487,2490.00
1954.323,2975.00
1955.160,2681.00
1955.998,3069.00
1956.834,2729.00
1957.670,2781.00
1958.506,2939.00
1959.342,2827.00
1960.177,2734.00
1961.015,2846.00
1961.850,2754.00
1962.686,2771.00
1963.521,2787.00
1964.357,2993.00
1965.192,2504.00
1966.029,2832.00
1966.864,2643.00
1967.699,2958.00
1968.534,2763.00
1969.369,2989.00
1970.204,2664.00
1971.040,2763.00
1971.875,2676.00
1972.709,2755.00
1973.544,2542.00
1974.378,2609.00
1975.212,2823.00
1976.047,2604.00
1976.882,2579.00
1977.716,3089.00
1978.550,2438.00
1979.384,2671.00
1980.218,2689.00
1981.052,2675.00
1981.885,2778.00
1982.719,2752.00
1983.554,2843.00
1984.388,3030.00
1985.221,2822.00
1986.054,2960.00
1986.887,2769.00
1987.720,2566.00
1988.553,3005.00
1989.386,2809.00
1990.219,2848.00
1991.053,3006.00
1991.886,2621.00
1992.719,2899.00
1993.551,2278.00
1994.383,2868.00
1995.216,2633.00
1996.048,2462.00
1996.880,2891.00
1997.712,2617.00
1998.544,2732.00
1999.376,2774.00
2000.208,2985.00
2001.040,3114.00
2001.873,2538.00
2002.705,2568.00
2003.536,2809.00
2004.367,2754.00
2005.199,2753.00
2006.030,2628.00
2006.861,2481.00
2007.692,2759.00
2008.523,2601.00
2009.354,2743.00
2010.185,2553.00
2011.016,2886.00
2011.846,2910.00
2012.677,2631.00
2013.507,3074.00
2014.338,2951.00
2015.168,2636.00
2015.999,3196.00
2016.829,2650.00
2017.659,2940.00
2018.489,3234.00
2019.319,2557.00
2020.149,2921.00
2020.980,2756.00
2021.810,2512.00
2022.639,2576.00
2023.469,2619.00
2024.298,2454.00
2025.128,2381.00
2025.957,2349.00
2026.786,2193.00
2027.615,2383.00
2028.444,2573.00
2029.273,2767.00
2030.102,2363.00
2030.931,2575.00
2031.758,2866.00
2032.586,2562.00
2033.415,2579.00
2034.243,2223.00
2035.072,2030.00
2035.900,2440.00
2036.728,2312.00
2037.556,2335.00
2038.385,2359.00
2039.213,2189.00
2040.040,2169.00
2040.868,2105.00
2041.696,2182.00
2042.524,2198.00
2043.351,2410.00
2044.179,2170.00
2045.006,1979.00
