RamanScope Measure Spectrum Data V3.72

<< MEASURE CONDITION >>
Exposure Type,Aver
Exposure Time [sec],15
Exposure Count,4
Measure Time,2023/07/15 16:20:54
Data Name,""
Data Comment,""
Rayleigh Wave[nm],532.0

<< SAMPLE SPECTRUM >>
Wave[dcm-1],No167
146.591,962.00
147.626,1123.00
148.664,1310.00
149.699,1464.25
150.737,1672.00
151.772,1866.50
152.809,1992.50
153.846,2207.00
154.881,2289.00
155.918,2433.25
156.953,2544.00
157.989,2604.50
159.026,2693.50
160.060,2723.25
161.096,2807.00
162.130,2825.50
163.167,2832.50
164.200,2956.75
165.236,2979.50
166.272,3035.25
167.305,3043.75
168.341,3176.50
169.374,3207.00
170.409,3241.50
171.445,3312.25
172.477,3405.00
173.512,3414.50
174.545,3444.25
175.580,3458.25
176.614,3478.00
177.647,3522.25
178.681,3460.75
179.713,3388.00
180.747,3411.25
181.781,3441.50
182.813,3441.00
183.847,3422.25
184.878,3473.50
185.912,3416.25
186.945,3471.25
187.976,3528.50
189.010,3509.25
190.043,3540.50
191.073,3564.00
192.106,3651.00
193.137,3669.25
194.170,3737.00
195.202,3765.00
196.232,3839.25
197.265,3900.75
198.297,4010.00
199.327,4073.75
200.359,4108.50
201.388,4172.75
202.420,4284.25
203.452,4433.75
204.481,4503.00
205.512,4569.75
206.544,4768.00
207.573,4856.00
208.604,4978.25
209.635,5140.25
210.663,5307.00
211.694,5317.50
212.725,5502.00
213.753,5552.00
214.783,5638.75
215.813,5645.50
216.841,5586.50
217.871,5573.25
218.899,5518.75
219.929,5483.50
220.959,5386.75
221.986,5231.50
223.016,5106.25
224.045,5098.25
225.072,4943.75
226.101,4829.75
227.130,4753.50
228.157,4699.50
229.185,4607.50
230.214,4612.00
231.241,4495.25
232.269,4463.50
233.297,4467.00
234.323,4442.50
235.351,4384.25
236.379,4391.00
237.407,4367.50
238.433,4363.25
239.460,4391.50
240.488,4445.75
241.513,4440.25
242.540,4432.50
243.568,4527.50
244.592,4535.50
245.619,4511.00
246.646,4528.25
247.671,4471.00
248.697,4512.25
249.724,4530.50
250.748,4467.75
251.774,4493.50
252.801,4483.00
253.827,4483.25
254.850,4501.00
255.876,4558.00
256.902,4555.50
257.925,4573.50
258.951,4619.00
259.976,4696.00
260.999,4700.75
262.024,4695.50
263.049,4710.50
264.074,4787.50
265.097,4869.50
266.122,4842.75
267.146,4893.25
268.168,4949.50
269.193,4950.25
270.217,5018.25
271.241,5048.00
272.263,5037.00
273.287,5040.25
274.311,5087.25
275.332,5015.50
276.356,5101.00
277.379,4990.75
278.402,4990.50
279.424,4938.75
280.447,4909.25
281.470,4839.50
282.492,4752.75
283.513,4736.75
284.536,4674.50
285.558,4657.75
286.581,4574.50
287.601,4538.00
288.623,4489.75
289.645,4448.00
290.665,4359.00
291.687,4258.50
292.709,4220.75
293.730,4177.50
294.750,4190.25
295.771,4136.50
296.792,4073.50
297.813,4001.25
298.832,3929.75
299.853,3906.25
300.874,3869.25
301.895,3841.25
302.913,3804.00
303.934,3699.75
304.954,3733.00
305.975,3673.75
306.993,3675.25
308.013,3590.25
309.033,3603.00
310.052,3587.25
311.072,3558.00
312.090,3533.00
313.109,3535.25
314.129,3461.75
315.148,3509.00
316.165,3440.25
317.184,3472.25
318.203,3447.25
319.222,3436.25
320.238,3366.50
321.257,3418.25
322.275,3411.75
323.294,3382.75
324.312,3359.00
325.328,3325.50
326.346,3388.00
327.364,3350.75
328.382,3317.00
329.397,3284.25
330.415,3281.75
331.432,3346.25
332.450,3318.50
333.467,3295.50
334.482,3239.25
335.499,3208.25
336.516,3256.00
337.533,3236.25
338.547,3241.50
339.564,3214.25
340.580,3193.75
341.597,3210.75
342.613,3255.50
343.627,3264.50
344.643,3242.00
345.659,3160.00
346.675,3222.25
347.690,3209.75
348.704,3236.25
349.719,3170.25
350.735,3173.75
351.750,3229.75
352.765,3210.00
353.778,3161.25
354.793,3226.50
355.808,3180.25
356.822,3180.00
357.837,3265.00
358.851,3205.25
359.864,3221.25
360.878,3223.75
361.892,3231.25
362.906,3263.50
363.920,3222.75
364.932,3146.00
365.945,3242.25
366.959,3252.00
367.972,3215.50
368.986,3209.25
369.999,3261.50
371.010,3287.50
372.023,3229.00
373.036,3220.25
374.049,3290.25
375.061,3245.25
376.072,3259.00
377.084,3293.50
378.097,3271.75
379.109,3255.75
380.121,3280.00
381.133,3268.00
382.143,3280.75
383.155,3281.00
384.166,3229.75
385.178,3283.00
386.189,3268.25
387.201,3235.00
388.212,3276.50
389.221,3221.00
390.232,3200.50
391.243,3267.25
392.254,3177.00
393.264,3232.50
394.275,3131.50
395.283,3161.50
396.294,3116.00
397.304,3183.50
398.314,3141.25
399.324,3164.75
400.334,3108.75
401.344,3096.75
402.351,3119.75
403.361,3133.50
404.370,3084.00
405.380,3121.25
406.389,3000.50
407.398,2987.25
408.407,3024.25
409.414,3053.25
410.423,2988.75
411.431,3040.50
412.440,2991.75
413.448,3017.75
414.457,3064.00
415.465,3019.75
416.471,2934.00
417.479,2920.00
418.487,2975.75
419.495,2950.50
420.503,3007.50
421.510,2959.75
422.518,2905.00
423.525,2939.25
424.530,2922.50
425.537,2919.25
426.544,2908.50
427.551,2886.25
428.558,2929.25
429.565,2902.50
430.571,2903.00
431.578,2902.75
432.582,2868.25
433.588,2888.75
434.595,2868.50
435.601,2836.50
436.607,2874.25
437.612,2843.75
438.618,2870.75
439.624,2874.75
440.627,2905.50
441.633,2843.25
442.638,2860.75
443.643,2801.75
444.648,2878.25
445.653,2879.75
446.658,2837.50
447.663,2822.75
448.667,2805.50
449.672,2898.00
450.674,2903.50
451.678,2896.00
452.682,2874.75
453.687,2882.75
454.690,2912.50
455.694,2871.25
456.698,2901.00
457.702,2887.25
458.705,2824.50
459.709,2851.50
460.710,2888.75
461.713,2906.75
462.716,2896.75
463.719,2847.50
464.722,2869.50
465.725,2910.25
466.727,2893.25
467.730,2866.75
468.732,2869.50
469.735,2876.50
470.737,2924.00
471.737,2868.00
472.739,2863.75
473.741,2897.50
474.742,2855.50
475.744,2890.25
476.746,2949.50
477.747,2917.75
478.748,2892.50
479.750,2896.50
480.751,2960.50
481.752,2922.50
482.753,2930.75
483.751,2894.00
484.752,2941.50
485.753,2940.50
486.753,2918.75
487.753,2916.25
488.754,2902.00
489.754,2873.75
490.754,2868.50
491.754,2915.25
492.754,2890.50
493.753,2870.00
494.753,2880.25
495.752,2854.50
496.752,2890.00
497.749,2914.50
498.748,2883.00
499.747,2869.00
500.746,2880.75
501.745,2836.50
502.744,2847.25
503.742,2887.25
504.741,2811.50
505.739,2841.75
506.737,2807.75
507.735,2835.75
508.734,2822.75
509.732,2843.25
510.729,2777.25
511.727,2817.50
512.725,2808.00
513.720,2802.25
514.718,2796.75
515.715,2759.00
516.712,2772.50
517.709,2798.75
518.706,2788.00
519.703,2761.25
520.700,2754.75
521.696,2765.50
522.693,2782.75
523.689,2811.25
524.686,2762.50
525.682,2749.50
526.678,2751.25
527.674,2774.25
528.670,2769.25
529.666,2743.75
530.661,2797.00
531.657,2769.00
532.652,2822.00
533.648,2795.25
534.641,2810.25
535.636,2775.25
536.631,2791.25
537.626,2744.75
538.621,2788.00
539.616,2791.00
540.610,2775.25
541.605,2779.00
542.599,2795.25
543.593,2808.25
544.587,2838.25
545.581,2815.50
546.575,2761.25
547.569,2806.00
548.563,2826.75
549.557,2811.25
550.550,2807.50
551.543,2810.00
552.537,2804.50
553.530,2817.25
554.523,2836.75
555.516,2845.50
556.509,2841.25
557.502,2841.75
558.494,2824.75
559.487,2796.50
560.479,2843.50
561.472,2916.00
562.464,2798.75
563.456,2804.50
564.448,2835.50
565.440,2836.50
566.432,2879.50
567.423,2865.75
568.415,2852.75
569.404,2852.75
570.396,2854.25
571.387,2837.50
572.378,2831.75
573.369,2848.00
574.360,2904.75
575.351,2917.75
576.341,2889.50
577.332,2905.25
578.323,2905.50
579.313,2894.25
580.303,2911.25
581.293,2892.25
582.283,2871.00
583.273,2918.50
584.263,2960.25
585.253,2882.00
586.243,2968.00
587.232,2949.50
588.222,2912.50
589.211,2918.50
590.200,2950.00
591.189,2931.50
592.178,2949.25
593.167,2886.75
594.156,2868.75
595.145,2943.00
596.133,2906.25
597.122,2906.50
598.110,2908.00
599.098,2910.00
600.086,2846.75
601.074,2891.00
602.062,2926.25
603.050,2839.25
604.038,2846.75
605.025,2848.00
606.013,2866.50
607.000,2812.75
607.987,2875.00
608.975,2852.25
609.962,2791.75
610.949,2826.50
611.936,2780.25
612.922,2792.25
613.909,2731.00
614.895,2751.25
615.882,2720.75
616.868,2769.25
617.854,2702.00
618.841,2716.50
619.826,2668.25
620.812,2659.75
621.798,2653.00
622.784,2634.25
623.769,2610.25
624.755,2660.25
625.740,2600.75
626.725,2618.50
627.711,2616.00
628.698,2561.00
629.683,2539.00
630.667,2498.00
631.652,2535.25
632.637,2546.50
633.621,2516.75
634.606,2474.50
635.590,2472.50
636.574,2462.00
637.558,2465.25
638.542,2470.00
639.526,2415.75
640.510,2413.50
641.493,2482.75
642.477,2383.75
643.460,2365.50
644.444,2366.00
645.427,2416.50
646.410,2358.00
647.393,2358.75
648.376,2362.75
649.359,2332.25
650.341,2323.50
651.324,2339.25
652.307,2267.25
653.289,2342.00
654.271,2289.25
655.253,2324.25
656.235,2301.75
657.217,2292.25
658.199,2328.50
659.181,2295.25
660.163,2323.75
661.144,2273.00
662.126,2248.00
663.107,2319.75
664.088,2241.25
665.069,2256.50
666.050,2273.50
667.033,2260.00
668.014,2269.00
668.995,2214.00
669.975,2137.50
670.956,2201.50
671.936,2180.25
672.916,2210.75
673.896,2202.75
674.876,2160.25
675.856,2146.50
676.836,2119.00
677.816,2112.25
678.795,2109.75
679.775,2135.75
680.754,2099.50
681.734,2058.50
682.713,2079.75
683.692,2086.25
684.671,2039.25
685.650,2088.25
686.629,2075.75
687.607,1994.00
688.586,2022.00
689.564,1988.25
690.543,1964.50
691.523,2003.00
692.501,2015.25
693.479,1993.50
694.457,2004.00
695.435,1987.25
696.413,1921.25
697.390,1944.25
698.368,1943.50
699.345,1917.00
700.322,1915.25
701.300,1928.50
702.277,1927.25
703.254,1920.50
704.231,1924.75
705.207,1893.75
706.184,1948.00
707.161,1912.00
708.137,1862.50
709.113,1858.25
710.090,1870.75
711.068,1849.25
712.044,1867.75
713.020,1830.25
713.996,1898.00
714.971,1799.25
715.947,1792.25
716.922,1817.75
717.898,1798.25
718.873,1823.25
719.848,1800.00
720.823,1852.50
721.798,1797.00
722.773,1816.50
723.748,1783.50
724.723,1774.25
725.697,1780.00
726.672,1801.25
727.646,1764.25
728.622,1777.75
729.596,1766.00
730.570,1800.25
731.544,1730.75
732.518,1732.00
733.492,1749.00
734.466,1717.50
735.439,1724.25
736.413,1707.25
737.386,1746.75
738.359,1684.75
739.332,1718.50
740.305,1677.00
741.278,1710.50
742.251,1744.75
743.224,1709.75
744.196,1688.50
745.171,1672.75
746.143,1694.25
747.115,1678.00
748.087,1684.75
749.059,1674.50
750.031,1671.00
751.003,1649.50
751.975,1672.25
752.947,1622.25
753.918,1655.50
754.890,1637.50
755.861,1633.50
756.832,1666.00
757.803,1623.00
758.774,1647.00
759.747,1639.75
760.718,1617.75
761.689,1620.25
762.659,1648.00
763.630,1608.25
764.600,1619.75
765.570,1639.50
766.540,1600.50
767.510,1616.00
768.480,1599.00
769.450,1604.25
770.420,1631.25
771.390,1579.00
772.359,1608.00
773.329,1581.25
774.300,1615.00
775.269,1539.50
776.238,1570.00
777.207,1568.75
778.176,1531.00
779.145,1545.50
780.114,1551.75
781.083,1548.50
782.051,1545.00
783.019,1560.25
783.988,1534.25
784.956,1527.75
785.924,1502.00
786.894,1501.25
787.862,1536.50
788.830,1549.75
789.797,1555.25
790.765,1516.00
791.732,1464.75
792.700,1514.25
793.667,1573.25
794.634,1496.00
795.601,1480.25
796.568,1487.75
797.535,1474.25
798.502,1468.25
799.468,1453.75
800.437,1444.25
801.403,1444.00
802.370,1442.75
803.336,1474.75
804.302,1439.75
805.268,1472.25
806.234,1458.25
807.200,1428.00
808.166,1451.00
809.131,1430.00
810.097,1458.00
811.062,1469.25
812.027,1393.50
812.994,1408.25
813.960,1407.50
814.925,1487.50
815.889,1415.00
816.854,1445.75
817.819,1378.25
818.783,1377.50
819.748,1367.50
820.712,1420.50
821.677,1417.25
822.641,1396.25
823.605,1418.25
824.571,1368.50
825.534,1395.25
826.498,1392.50
827.462,1370.25
828.425,1392.00
829.389,1385.75
830.352,1437.50
831.315,1402.00
832.279,1400.75
833.242,1382.50
834.204,1371.00
835.167,1400.50
836.132,1375.00
837.095,1350.75
838.057,1374.00
839.020,1399.50
839.982,1381.25
840.944,1354.25
841.906,1327.75
842.868,1363.25
843.830,1359.75
844.792,1335.25
845.753,1323.50
846.715,1345.00
847.679,1300.50
848.640,1357.00
849.601,1333.75
850.562,1346.00
851.523,1364.75
852.484,1350.25
853.445,1289.25
854.406,1317.75
855.367,1304.25
856.327,1311.00
857.288,1305.75
858.248,1283.75
859.210,1309.50
860.170,1323.25
861.130,1308.00
862.090,1314.50
863.050,1279.25
864.010,1289.25
864.969,1313.75
865.929,1285.50
866.888,1305.50
867.848,1294.00
868.807,1289.25
869.766,1269.00
870.727,1296.50
871.686,1274.25
872.645,1267.00
873.604,1322.25
874.562,1307.75
875.521,1296.75
876.479,1283.00
877.437,1277.50
878.396,1305.50
879.354,1306.25
880.312,1286.00
881.270,1307.75
882.229,1298.50
883.187,1281.50
884.145,1267.50
885.102,1291.50
886.059,1267.00
887.017,1283.75
887.974,1276.25
888.931,1280.25
889.888,1235.25
890.845,1251.75
891.802,1289.75
892.758,1293.00
893.717,1275.25
894.673,1283.25
895.630,1272.25
896.586,1250.25
897.542,1288.00
898.498,1284.00
899.454,1301.00
900.410,1249.00
901.366,1313.00
902.321,1290.50
903.277,1296.25
904.232,1294.00
905.189,1276.75
906.145,1241.25
907.100,1299.50
908.055,1290.25
909.010,1297.25
909.965,1310.50
910.919,1347.00
911.874,1266.50
912.828,1303.25
913.783,1299.75
914.737,1304.25
915.693,1263.50
916.648,1274.25
917.602,1258.00
918.555,1295.25
919.509,1295.00
920.463,1271.25
921.417,1343.25
922.370,1283.50
923.324,1299.25
924.277,1303.25
925.230,1327.50
926.183,1266.25
927.138,1293.50
928.091,1291.50
929.044,1335.00
929.996,1288.75
930.949,1322.00
931.902,1346.75
932.854,1287.50
933.806,1296.50
934.758,1286.75
935.711,1261.50
936.663,1338.25
937.614,1305.50
938.568,1278.25
939.520,1298.25
940.471,1312.25
941.423,1262.75
942.374,1309.00
943.326,1334.75
944.277,1295.00
945.228,1293.25
946.179,1312.25
947.130,1293.25
948.080,1272.00
949.031,1299.25
949.984,1238.00
950.934,1269.50
951.884,1289.75
952.835,1305.50
953.785,1253.75
954.735,1263.75
955.685,1268.75
956.635,1293.25
957.585,1295.75
958.534,1294.00
959.484,1248.25
960.433,1259.00
961.383,1259.50
962.334,1289.00
963.283,1251.25
964.232,1263.25
965.181,1303.25
966.130,1305.25
967.079,1258.50
968.027,1246.25
968.976,1274.00
969.924,1222.25
970.873,1276.00
971.821,1299.50
972.769,1252.00
973.719,1281.50
974.667,1253.00
975.615,1207.75
976.562,1250.50
977.510,1271.75
978.458,1249.50
979.405,1245.75
980.352,1231.00
981.300,1269.25
982.247,1288.25
983.194,1242.75
984.141,1250.25
985.088,1300.25
986.036,1273.75
986.983,1227.00
987.930,1273.00
988.876,1259.00
989.822,1276.25
990.769,1272.50
991.715,1253.25
992.661,1257.25
993.607,1252.75
994.553,1230.75
995.498,1241.25
996.444,1243.75
997.389,1269.75
998.337,1275.25
999.282,1245.00
1000.227,1264.75
1001.173,1212.00
1002.118,1230.00
1003.062,1248.00
1004.007,1233.50
1004.952,1241.75
1005.897,1276.75
1006.841,1259.75
1007.786,1255.00
1008.730,1218.50
1009.674,1241.00
1010.618,1227.00
1011.564,1204.00
1012.508,1226.50
1013.452,1265.75
1014.396,1204.50
1015.339,1274.75
1016.283,1271.00
1017.226,1231.25
1018.170,1247.00
1019.113,1219.75
1020.056,1273.00
1020.999,1264.25
1021.942,1231.00
1022.885,1275.50
1023.828,1240.50
1024.770,1229.00
1025.715,1279.00
1026.657,1255.50
1027.600,1226.50
1028.542,1252.25
1029.484,1260.75
1030.426,1262.75
1031.368,1269.75
1032.310,1260.25
1033.251,1258.25
1034.193,1234.75
1035.135,1263.75
1036.076,1301.75
1037.017,1275.00
1037.959,1259.75
1038.900,1264.00
1039.843,1262.00
1040.784,1250.00
1041.725,1272.50
1042.665,1296.25
1043.606,1272.00
1044.547,1308.25
1045.487,1292.75
1046.427,1284.50
1047.368,1296.75
1048.308,1300.75
1049.248,1273.00
1050.188,1245.75
1051.128,1310.25
1052.067,1270.25
1053.007,1278.00
1053.947,1323.50
1054.886,1292.00
1055.827,1322.25
1056.766,1332.75
1057.706,1300.25
1058.645,1306.50
1059.584,1264.50
1060.522,1356.75
1061.461,1325.75
1062.400,1312.00
1063.338,1330.75
1064.277,1342.75
1065.215,1292.50
1066.154,1324.00
1067.092,1351.75
1068.030,1307.75
1068.968,1322.75
1069.906,1367.75
1070.843,1306.00
1071.781,1356.00
1072.720,1350.75
1073.658,1370.75
1074.595,1332.75
1075.533,1373.00
1076.470,1349.75
1077.407,1399.75
1078.344,1365.00
1079.281,1357.50
1080.217,1362.50
1081.154,1366.25
1082.091,1344.00
1083.027,1361.50
1083.964,1375.50
1084.900,1374.25
1085.836,1375.50
1086.772,1368.75
1087.708,1352.50
1088.644,1351.00
1089.580,1350.25
1090.515,1407.25
1091.451,1345.75
1092.388,1346.50
1093.324,1372.00
1094.259,1351.75
1095.194,1349.00
1096.129,1354.25
1097.064,1330.50
1097.999,1331.75
1098.934,1324.75
1099.869,1340.75
1100.803,1338.00
1101.738,1307.75
1102.672,1330.25
1103.607,1348.50
1104.541,1352.00
1105.475,1328.75
1106.409,1322.00
1107.343,1343.00
1108.277,1328.50
1109.210,1339.50
1110.144,1290.25
1111.078,1299.50
1112.011,1282.50
1112.944,1306.50
1113.878,1284.75
1114.811,1267.25
1115.744,1257.50
1116.678,1228.25
1117.611,1287.50
1118.544,1248.00
1119.477,1264.50
1120.409,1315.50
1121.342,1236.75
1122.274,1207.75
1123.206,1222.25
1124.138,1247.25
1125.070,1259.50
1126.002,1265.00
1126.934,1242.25
1127.866,1244.50
1128.798,1248.25
1129.729,1234.25
1130.661,1180.50
1131.592,1201.25
1132.523,1133.75
1133.454,1223.25
1134.385,1197.25
1135.317,1198.25
1136.247,1178.75
1137.178,1201.00
1138.109,1206.00
1139.039,1241.25
1139.970,1181.75
1140.900,1197.50
1141.831,1184.75
1142.761,1109.75
1143.691,1215.00
1144.621,1180.00
1145.551,1157.50
1146.480,1181.25
1147.410,1147.25
1148.340,1176.50
1149.269,1192.25
1150.199,1132.50
1151.128,1126.00
1152.057,1170.00
1152.979,1120.75
1153.898,1191.50
1154.819,1189.25
1155.739,1167.50
1156.658,1137.25
1157.579,1187.00
1158.498,1142.75
1159.419,1151.00
1160.338,1145.00
1161.256,1163.25
1162.177,1155.25
1163.095,1142.25
1164.016,1154.75
1164.934,1089.50
1165.852,1143.50
1166.772,1124.25
1167.690,1131.50
1168.610,1115.00
1169.528,1110.50
1170.446,1107.75
1171.365,1102.00
1172.283,1135.75
1173.202,1090.75
1174.120,1115.50
1175.037,1131.25
1175.956,1066.50
1176.873,1129.00
1177.792,1114.00
1178.709,1101.00
1179.626,1120.75
1180.544,1098.50
1181.461,1106.75
1182.379,1086.75
1183.296,1113.50
1184.212,1076.00
1185.130,1099.50
1186.046,1141.75
1186.962,1088.25
1187.880,1063.50
1188.796,1074.25
1189.714,1100.50
1190.629,1076.00
1191.545,1096.25
1192.462,1094.00
1193.378,1120.75
1194.295,1100.25
1195.210,1093.75
1196.125,1108.00
1197.042,1101.25
1197.957,1136.00
1198.872,1066.50
1199.788,1119.25
1200.703,1075.50
1201.619,1089.50
1202.534,1104.50
1203.448,1083.50
1204.364,1066.75
1205.278,1105.75
1206.192,1103.50
1207.108,1068.25
1208.022,1094.75
1208.938,1084.25
1209.851,1087.00
1210.765,1099.25
1211.680,1096.00
1212.594,1098.00
1213.507,1096.25
1214.422,1096.25
1215.335,1092.00
1216.248,1109.00
1217.163,1086.50
1218.076,1152.75
1218.990,1080.00
1219.903,1106.75
1220.816,1072.75
1221.730,1101.50
1222.642,1074.00
1223.554,1098.75
1224.469,1092.00
1225.380,1058.00
1226.292,1088.25
1227.206,1096.75
1228.118,1069.75
1229.032,1120.25
1229.943,1100.50
1230.855,1129.00
1231.768,1094.00
1232.679,1087.00
1233.590,1090.25
1234.503,1092.50
1235.414,1098.50
1236.325,1068.00
1237.238,1072.25
1238.149,1118.00
1239.059,1107.00
1239.972,1050.25
1240.882,1082.25
1241.793,1085.00
1242.705,1071.50
1243.615,1081.50
1244.525,1081.50
1245.437,1079.00
1246.347,1124.25
1247.259,1097.50
1248.168,1105.50
1249.078,1152.50
1249.989,1082.25
1250.899,1053.25
1251.808,1116.75
1252.719,1111.25
1253.628,1076.75
1254.537,1140.25
1255.448,1092.25
1256.357,1126.00
1257.266,1131.75
1258.176,1095.75
1259.085,1095.00
1259.993,1105.00
1260.904,1094.25
1261.812,1110.00
1262.720,1086.25
1263.630,1101.50
1264.538,1102.00
1265.446,1084.25
1266.356,1080.50
1267.263,1123.50
1268.171,1098.25
1269.080,1083.75
1269.988,1111.00
1270.895,1120.75
1271.804,1073.75
1272.711,1123.25
1273.619,1096.50
1274.527,1104.50
1275.434,1065.00
1276.341,1093.25
1277.248,1132.75
1278.156,1072.75
1279.063,1111.75
1279.969,1092.50
1280.877,1054.50
1281.783,1119.25
1282.690,1094.50
1283.598,1085.25
1284.503,1096.25
1285.409,1094.75
1286.317,1081.25
1287.223,1104.25
1288.128,1071.00
1289.036,1078.25
1289.941,1093.75
1290.846,1092.25
1291.751,1048.00
1292.658,1109.25
1293.563,1075.00
1294.468,1065.75
1295.375,1024.00
1296.280,1066.50
1297.184,1058.75
1298.091,1056.00
1298.995,1008.25
1299.900,1043.50
1300.806,1029.75
1301.710,1025.00
1302.614,1043.00
1303.518,1062.75
1304.424,1049.25
1305.327,1094.50
1306.231,1023.50
1307.137,1050.50
1308.040,1040.25
1308.943,985.75
1309.847,1043.25
1310.752,1035.75
1311.655,1068.50
1312.558,1018.00
1313.463,1022.00
1314.366,996.50
1315.269,1067.25
1316.171,1021.50
1317.076,985.75
1317.978,1072.25
1318.881,1037.50
1319.785,1054.00
1320.687,993.25
1321.589,1012.75
1322.491,1014.00
1323.395,1020.50
1324.297,1007.75
1325.198,1025.00
1326.102,1003.25
1327.004,1029.50
1327.905,974.50
1328.806,1019.25
1329.709,978.50
1330.611,1001.25
1331.512,998.50
1332.413,982.25
1333.316,1015.00
1334.216,972.00
1335.117,980.25
1336.020,987.00
1336.920,969.50
1337.821,1018.50
1338.721,953.50
1339.623,990.75
1340.523,976.25
1341.423,980.50
1342.323,974.75
1343.225,991.50
1344.125,959.25
1345.025,948.25
1345.924,966.50
1346.826,962.00
1347.725,956.75
1348.624,920.25
1349.524,917.00
1350.425,955.75
1351.324,931.00
1352.223,914.00
1353.121,964.00
1354.022,926.50
1354.921,918.25
1355.819,908.50
1356.718,928.50
1357.618,909.50
1358.516,978.50
1359.415,936.00
1360.313,929.50
1361.213,934.00
1362.111,984.75
1363.008,903.25
1363.906,917.50
1364.806,919.00
1365.703,919.75
1366.601,951.75
1367.498,902.25
1368.397,966.25
1369.295,939.75
1370.192,901.00
1371.089,929.00
1371.987,893.25
1372.884,945.25
1373.781,886.00
1374.678,846.75
1375.574,873.75
1376.473,929.50
1377.369,886.00
1378.265,875.75
1379.161,935.00
1380.059,855.00
1380.955,890.75
1381.851,913.00
1382.747,916.50
1383.643,952.75
1384.540,854.25
1385.436,909.25
1386.331,940.75
1387.227,918.25
1388.124,879.00
1389.019,871.00
1389.914,849.00
1390.809,888.25
1391.704,873.25
1392.601,895.00
1393.495,901.75
1394.390,853.50
1395.285,886.75
1396.179,870.25
1397.075,880.25
1397.969,850.00
1398.864,835.75
1399.758,837.25
1400.652,860.25
1401.547,853.25
1402.441,890.75
1403.335,855.00
1404.229,892.75
1405.122,861.75
1406.017,853.25
1406.911,860.00
1407.804,813.50
1408.697,879.00
1409.590,857.75
1410.485,875.50
1411.378,866.00
1412.271,858.25
1413.163,854.25
1414.056,868.75
1414.949,879.75
1415.843,803.50
1416.735,841.75
1417.627,845.00
1418.520,825.75
1419.412,878.00
1420.306,861.50
1421.197,856.00
1422.089,840.75
1422.981,851.75
1423.873,838.25
1424.764,843.50
1425.657,849.75
1426.549,880.00
1427.440,812.75
1428.331,849.00
1429.222,868.00
1430.113,844.75
1431.006,828.50
1431.897,850.75
1432.787,825.75
1433.678,855.50
1434.568,814.00
1435.459,819.00
1436.351,813.25
1437.241,831.25
1438.131,858.50
1439.021,848.00
1439.911,794.75
1440.801,870.75
1441.693,830.00
1442.583,825.75
1443.472,799.75
1444.362,816.75
1445.251,841.00
1446.140,788.50
1447.030,810.25
1447.921,851.75
1448.810,852.50
1449.699,800.50
1450.588,788.75
1451.476,823.50
1452.365,862.75
1453.254,809.25
1454.144,794.75
1455.032,807.00
1455.921,810.25
1456.809,795.25
1457.697,834.00
1458.585,808.00
1459.473,797.50
1460.361,780.50
1461.251,786.00
1462.138,796.25
1463.026,811.25
1463.913,827.00
1464.801,766.50
1465.688,836.50
1466.575,819.25
1467.463,818.50
1468.351,788.00
1469.238,760.50
1470.125,803.25
1471.012,751.50
1471.899,792.50
1472.785,813.50
1473.672,783.00
1474.558,813.75
1475.446,778.25
1476.333,731.75
1477.219,788.25
1478.105,782.50
1478.991,736.00
1479.877,721.25
1480.762,778.00
1481.648,784.50
1482.534,738.75
1483.419,798.50
1484.307,793.75
1485.192,772.50
1486.077,781.50
1486.962,761.25
1487.847,788.50
1488.732,753.75
1489.617,817.75
1490.502,760.50
1491.387,772.25
1492.271,770.50
1493.156,785.00
1494.042,772.75
1494.927,778.50
1495.811,787.00
1496.695,740.50
1497.579,773.25
1498.463,779.75
1499.347,739.75
1500.231,740.25
1501.114,758.25
1501.998,780.00
1502.881,739.25
1503.765,771.75
1504.648,728.25
1505.533,760.25
1506.417,755.50
1507.300,769.25
1508.183,743.75
1509.066,743.75
1509.948,763.75
1510.831,759.50
1511.714,739.00
1512.596,741.25
1513.479,756.75
1514.361,740.00
1515.243,765.75
1516.125,753.50
1517.008,748.00
1517.890,711.25
1518.771,755.00
1519.655,747.25
1520.537,766.50
1521.419,719.75
1522.300,783.00
1523.182,748.25
1524.063,788.25
1524.944,733.75
1525.825,737.00
1526.707,724.50
1527.588,717.00
1528.468,700.50
1529.349,776.75
1530.230,717.75
1531.111,716.25
1531.991,730.00
1532.872,711.25
1533.752,700.25
1534.632,709.25
1535.513,734.00
1536.393,740.25
1537.273,763.00
1538.153,737.00
1539.032,687.25
1539.912,704.75
1540.792,710.00
1541.672,725.50
1542.551,710.75
1543.430,746.75
1544.310,733.00
1545.189,692.50
1546.068,737.00
1546.947,716.75
1547.826,494.50
1548.705,226.50
1549.584,632.75
1550.462,709.00
1551.341,712.75
1552.219,702.50
1553.098,687.75
1553.976,707.75
1554.854,707.75
1555.733,763.00
1556.611,705.00
1557.489,704.75
1558.367,712.25
1559.244,707.00
1560.122,718.25
1561.000,723.50
1561.877,689.75
1562.755,719.75
1563.632,724.50
1564.509,695.00
1565.386,702.50
1566.264,702.50
1567.141,718.00
1568.017,737.50
1568.894,659.25
1569.771,665.50
1570.648,701.50
1571.524,682.50
1572.401,692.50
1573.277,711.25
1574.153,694.00
1575.029,656.75
1575.906,704.50
1576.781,705.25
1577.657,680.75
1578.533,698.50
1579.409,738.00
1580.285,730.50
1581.160,690.00
1582.036,689.25
1582.911,698.50
1583.786,705.25
1584.662,717.50
1585.537,734.50
1586.412,685.25
1587.287,692.00
1588.160,674.00
1589.035,691.75
1589.909,672.50
1590.784,677.75
1591.658,705.25
1592.533,697.50
1593.407,673.75
1594.281,691.25
1595.155,714.25
1596.029,688.25
1596.903,664.00
1597.777,713.25
1598.651,693.00
1599.525,691.25
1600.398,685.75
1601.272,682.50
1602.144,682.75
1603.017,693.25
1603.890,664.25
1604.763,711.75
1605.636,705.50
1606.509,659.25
1607.382,705.75
1608.255,677.25
1609.128,679.75
1610.000,705.25
1610.873,630.00
1611.746,704.25
1612.616,687.00
1613.488,701.25
1614.361,639.25
1615.233,663.75
1616.105,710.00
1616.977,666.50
1617.849,666.00
1618.720,697.00
1619.592,690.75
1620.464,746.50
1621.333,678.25
1622.205,640.50
1623.076,639.50
1623.947,647.00
1624.818,664.25
1625.689,695.25
1626.560,676.75
1627.431,698.25
1628.302,657.00
1629.171,671.50
1630.042,672.00
1630.912,712.75
1631.782,680.25
1632.653,703.50
1633.523,723.50
1634.393,659.75
1635.263,641.25
1636.131,672.25
1637.001,658.50
1637.871,666.75
1638.741,671.75
1639.611,678.00
1640.480,666.75
1641.350,662.00
1642.219,677.00
1643.087,678.00
1643.956,708.50
1644.825,680.00
1645.694,725.50
1646.563,638.25
1647.432,707.75
1648.299,625.75
1649.167,697.00
1650.036,672.75
1650.904,702.75
1651.773,674.00
1652.641,647.00
1653.509,643.50
1654.376,654.00
1655.244,697.00
1656.112,679.75
1656.980,704.75
1657.847,684.25
1658.715,644.25
1659.581,667.50
1660.448,604.50
1661.316,648.25
1662.183,684.25
1663.051,634.50
1663.918,653.25
1664.783,680.25
1665.650,664.00
1666.517,660.75
1667.384,623.25
1668.251,691.75
1669.115,705.50
1669.982,695.50
1670.849,716.75
1671.715,648.75
1672.581,668.25
1673.446,632.75
1674.312,684.75
1675.178,653.25
1676.044,677.75
1676.910,650.75
1677.774,646.50
1678.639,660.00
1679.505,677.00
1680.370,654.75
1681.236,622.00
1682.099,666.50
1682.965,639.50
1683.830,640.25
1684.695,663.00
1685.560,642.25
1686.423,673.50
1687.288,659.50
1688.153,655.00
1689.017,680.75
1689.880,610.75
1690.745,650.50
1691.609,667.75
1692.473,613.50
1693.338,675.25
1694.200,650.00
1695.064,656.25
1695.928,639.00
1696.792,627.75
1697.654,681.50
1698.517,646.75
1699.381,656.25
1700.245,683.50
1701.106,695.75
1701.969,633.50
1702.833,634.00
1703.696,633.25
1704.557,628.50
1705.420,704.75
1706.283,665.25
1707.146,660.25
1708.007,638.75
1708.870,654.25
1709.732,595.25
1710.595,686.00
1711.455,644.50
1712.318,649.25
1713.180,631.75
1714.040,667.00
1714.902,642.50
1715.764,631.75
1716.626,632.25
1717.486,647.00
1718.348,639.50
1719.209,645.75
1720.071,634.75
1720.930,659.25
1721.792,628.75
1722.653,620.00
1723.512,681.25
1724.374,640.75
1725.234,629.25
1726.095,664.75
1726.954,627.50
1727.815,638.00
1728.676,627.00
1729.535,650.25
1730.395,655.75
1731.256,629.25
1732.114,627.75
1732.974,647.25
1733.834,635.00
1734.693,617.00
1735.553,648.25
1736.413,668.50
1737.272,627.75
1738.130,658.50
1738.990,644.50
1739.849,615.25
1740.707,651.75
1741.566,658.75
1742.426,641.50
1743.283,608.50
1744.142,638.75
1745.001,655.25
1745.858,688.75
1746.717,662.00
1747.576,626.50
1748.433,647.25
1749.292,638.00
1750.150,647.50
1751.007,623.50
1751.865,643.75
1752.723,657.25
1753.579,628.25
1754.438,636.50
1755.296,646.25
1756.152,638.25
1757.010,643.25
1757.865,612.25
1758.723,647.50
1759.581,625.75
1760.436,619.75
1761.294,648.25
1762.151,603.00
1763.006,609.50
1763.864,620.75
1764.721,631.00
1765.576,621.75
1766.433,613.50
1767.288,645.75
1768.144,630.25
1769.001,676.00
1769.856,656.00
1770.712,655.25
1771.568,629.50
1772.423,632.00
1773.279,635.00
1774.133,590.25
1774.989,647.25
1775.845,614.50
1776.699,637.50
1777.555,648.50
1778.409,653.75
1779.265,622.25
1780.120,656.50
1780.974,645.50
1781.829,675.50
1782.682,660.25
1783.538,640.50
1784.393,618.50
1785.246,558.50
1786.101,630.50
1786.954,649.75
1787.808,651.00
1788.661,625.75
1789.516,663.50
1790.370,610.00
1791.223,599.75
1792.077,633.75
1792.930,624.50
1793.784,629.75
1794.636,612.25
1795.490,655.25
1796.344,636.50
1797.196,653.25
1798.049,584.25
1798.901,583.00
1799.755,632.00
1800.606,608.50
1801.460,642.00
1802.311,611.50
1803.165,577.50
1804.018,638.25
1804.869,629.00
1805.722,645.00
1806.573,591.75
1807.426,608.50
1808.276,614.25
1809.129,604.75
1809.980,585.25
1810.832,599.75
1811.683,611.75
1812.535,613.00
1813.385,630.50
1814.237,582.75
1815.089,610.75
1815.940,616.25
1816.791,634.50
1817.641,630.25
1818.493,572.00
1819.343,603.75
1820.194,631.25
1821.044,586.50
1821.895,622.75
1822.745,646.25
1823.596,635.00
1824.445,590.25
1825.296,599.50
1826.145,615.00
1826.996,595.75
1827.845,633.75
1828.695,673.50
1829.544,599.50
1830.395,613.50
1831.243,643.75
1832.094,631.25
1832.942,649.75
1833.792,606.25
1834.640,626.25
1835.490,626.00
1836.338,645.00
1837.186,673.00
1838.036,603.00
1838.884,613.75
1839.733,644.00
1840.581,648.25
1841.430,627.00
1842.278,600.50
1843.127,593.00
1843.974,626.75
1844.823,609.50
1845.671,617.25
1846.519,606.75
1847.366,628.50
1848.213,594.00
1849.062,615.00
1849.909,632.00
1850.757,560.00
1851.604,600.50
1852.452,625.75
1853.298,611.25
1854.146,658.75
1854.993,629.50
1855.839,621.50
1856.687,628.75
1857.532,621.50
1858.380,624.00
1859.226,638.25
1860.073,597.75
1860.919,611.00
1861.765,623.50
1862.612,623.25
1863.457,593.00
1864.304,615.00
1865.150,573.50
1865.995,622.50
1866.842,608.75
1867.686,573.25
1868.533,646.50
1869.378,618.75
1870.223,592.25
1871.069,564.00
1871.914,603.25
1872.760,571.25
1873.604,596.25
1874.448,599.00
1875.294,602.50
1876.139,607.75
1876.984,635.00
1877.828,597.25
1878.672,607.75
1879.518,640.50
1880.361,562.00
1881.205,617.50
1882.050,630.00
1882.894,593.00
1883.739,626.25
1884.582,581.00
1885.425,621.50
1886.270,591.25
1887.113,584.50
1887.956,612.75
1888.801,598.50
1889.644,631.50
1890.486,609.00
1891.331,625.25
1892.173,629.00
1893.017,579.25
1893.860,597.50
1894.702,590.25
1895.546,606.75
1896.388,601.50
1897.230,631.00
1898.074,616.75
1898.916,621.75
1899.757,672.25
1900.601,625.25
1901.443,654.25
1902.284,587.75
1903.125,616.75
1903.969,595.25
1904.810,607.00
1905.651,615.75
1906.494,558.25
1907.335,591.75
1908.176,610.75
1909.018,567.00
1909.859,588.25
1910.700,581.75
1911.542,595.00
1912.383,564.00
1913.223,623.25
1914.064,584.75
1914.906,559.50
1915.746,619.50
1916.586,632.50
1917.428,652.00
1918.268,593.50
1919.107,612.75
1919.947,612.25
1920.789,611.75
1921.628,619.50
1922.468,594.50
1923.309,582.00
1924.148,621.75
1924.988,585.25
1925.827,600.50
1926.667,575.50
1927.507,608.50
1928.345,612.25
1929.184,565.25
1930.025,582.50
1930.864,575.50
1931.702,587.50
1932.541,567.50
1933.381,639.00
1934.219,605.25
1935.057,609.75
1935.896,568.50
1936.735,631.75
1937.573,624.75
1938.411,589.50
1939.249,553.25
1940.089,585.00
1940.927,604.75
1941.764,613.00
1942.602,594.50
1943.439,598.75
1944.278,639.00
1945.115,636.75
1945.953,600.00
1946.790,574.50
1947.628,646.75
1948.465,581.50
1949.302,568.25
1950.139,598.50
1950.976,578.00
1951.814,619.75
1952.651,588.00
1953.487,551.50
1954.323,601.75
1955.160,564.25
1955.998,627.75
1956.834,568.75
1957.670,607.50
1958.506,623.00
1959.342,618.25
1960.177,637.75
1961.015,573.00
1961.850,612.50
1962.686,579.75
1963.521,592.00
1964.357,622.75
1965.192,581.25
1966.029,629.75
1966.864,596.25
1967.699,616.25
1968.534,572.00
1969.369,647.25
1970.204,585.00
1971.040,571.50
1971.875,556.25
1972.709,572.25
1973.544,597.50
1974.378,630.25
1975.212,641.50
1976.047,593.75
1976.882,601.00
1977.716,599.75
1978.550,578.25
1979.384,627.00
1980.218,568.00
1981.052,641.50
1981.885,581.00
1982.719,629.00
1983.554,604.75
1984.388,584.50
1985.221,596.75
1986.054,586.50
1986.887,592.75
1987.720,581.00
1988.553,624.75
1989.386,635.25
1990.219,624.75
1991.053,605.75
1991.886,550.75
1992.719,602.00
1993.551,583.00
1994.383,554.25
1995.216,593.75
1996.048,580.50
1996.880,581.50
1997.712,617.75
1998.544,580.75
1999.376,626.25
2000.208,590.25
2001.040,611.25
2001.873,579.25
2002.705,604.25
2003.536,587.75
2004.367,591.00
2005.199,559.75
2006.030,623.00
2006.861,609.50
2007.692,586.00
2008.523,603.50
2009.354,601.75
2010.185,582.75
2011.016,604.25
2011.846,634.50
2012.677,630.50
2013.507,630.25
2014.338,619.00
2015.168,583.25
2015.999,609.50
2016.829,633.50
2017.659,648.25
2018.489,569.75
2019.319,597.25
2020.149,611.50
2020.980,555.50
2021.810,635.00
2022.639,590.75
2023.469,619.25
2024.298,598.75
2025.128,637.75
2025.957,613.00
2026.786,630.25
2027.615,595.75
2028.444,584.00
2029.273,681.75
2030.102,561.50
2030.931,576.75
2031.758,584.50
2032.586,622.50
2033.415,648.75
2034.243,619.75
2035.072,613.50
2035.900,612.00
2036.728,609.25
2037.556,644.00
2038.385,618.75
2039.213,605.50
2040.040,623.75
2040.868,615.75
2041.696,591.50
2042.524,601.25
2043.351,595.50
2044.179,627.75
2045.006,621.00
2045.006,621.00

Max Intensity Wave.,215.813
Max Intensity Data,5645.50
Min Intensity Wave.,1548.705
Min Intensity Data,226.50
FWHM Wave.,402.976
FWHM Value,1.40
Pressure Wave.,685.940
Pressure Value [GPa],-21.60422
G/D Ratio,0.69668
G/D Gband Wave.,1555.722
G/D Gband Intensity,763.01
G/D Dband Wave.,1305.227
G/D Dband Intensity,1095.21

<< BACKGROUND SPECTRUM >>
Wave[dcm-1],No167
146.591,2261.00
147.626,2125.00
148.664,2040.00
149.699,2564.00
150.737,2292.00
151.772,2422.00
152.809,2402.00
153.846,2277.00
154.881,2432.00
155.918,1960.00
156.953,2260.00
157.989,2632.00
159.026,2462.00
160.060,2664.00
161.096,2876.00
162.130,2540.00
163.167,2605.00
164.200,2445.00
165.236,2629.00
166.272,2692.00
167.305,2348.00
168.341,2530.00
169.374,2811.00
170.409,2823.00
171.445,2761.00
172.477,2553.00
173.512,2445.00
174.545,2718.00
175.580,2910.00
176.614,3078.00
177.647,2819.00
178.681,3091.00
179.713,3404.00
180.747,2848.00
181.781,2744.00
182.813,2999.00
183.847,3111.00
184.878,2737.00
185.912,3024.00
186.945,3144.00
187.976,3090.00
189.010,2742.00
190.043,2862.00
191.073,2964.00
192.106,2745.00
193.137,3217.00
194.170,2569.00
195.202,2925.00
196.232,2717.00
197.265,3027.00
198.297,3083.00
199.327,2783.00
200.359,2966.00
201.388,3394.00
202.420,2926.00
203.452,3134.00
204.481,2738.00
205.512,3365.00
206.544,3101.00
207.573,3093.00
208.604,3401.00
209.635,3549.00
210.663,2943.00
211.694,3030.00
212.725,2878.00
213.753,2798.00
214.783,3383.00
215.813,3239.00
216.841,3049.00
217.871,3213.00
218.899,2929.00
219.929,3123.00
220.959,2899.00
221.986,3187.00
223.016,2819.00
224.045,3179.00
225.072,3171.00
226.101,3234.00
227.130,3266.00
228.157,2854.00
229.185,2379.00
230.214,3203.00
231.241,2852.00
232.269,2461.00
233.297,2673.00
234.323,3246.00
235.351,2859.00
236.379,3089.00
237.407,2783.00
238.433,2954.00
239.460,3160.00
240.488,3119.00
241.513,3218.00
242.540,3154.00
243.568,3201.00
244.592,3248.00
245.619,3210.00
246.646,2929.00
247.671,2984.00
248.697,2814.00
249.724,3001.00
250.748,3032.00
251.774,3015.00
252.801,3328.00
253.827,3133.00
254.850,3119.00
255.876,2716.00
256.902,3178.00
257.925,3001.00
258.951,2770.00
259.976,2799.00
260.999,3101.00
262.024,2844.00
263.049,3679.00
264.074,3148.00
265.097,3063.00
266.122,3131.00
267.146,3081.00
268.168,3246.00
269.193,2877.00
270.217,3246.00
271.241,2751.00
272.263,2891.00
273.287,3201.00
274.311,2810.00
275.332,3337.00
276.356,2866.00
277.379,3102.00
278.402,3154.00
279.424,2988.00
280.447,2930.00
281.470,2745.00
282.492,3137.00
283.513,2920.00
284.536,3184.00
285.558,3177.00
286.581,3142.00
287.601,2835.00
288.623,2789.00
289.645,3049.00
290.665,3123.00
291.687,3181.00
292.709,3139.00
293.730,3438.00
294.750,2891.00
295.771,2746.00
296.792,3082.00
297.813,2955.00
298.832,3064.00
299.853,2775.00
300.874,3009.00
301.895,3017.00
302.913,2998.00
303.934,3312.00
304.954,3042.00
305.975,3235.00
306.993,2742.00
308.013,3160.00
309.033,3032.00
310.052,2957.00
311.072,2894.00
312.090,3097.00
313.109,3273.00
314.129,3460.00
315.148,3011.00
316.165,3109.00
317.184,3250.00
318.203,2779.00
319.222,2760.00
320.238,3174.00
321.257,2846.00
322.275,2709.00
323.294,2982.00
324.312,3149.00
325.328,3313.00
326.346,3264.00
327.364,3243.00
328.382,3188.00
329.397,3175.00
330.415,3286.00
331.432,3212.00
332.450,3246.00
333.467,3501.00
334.482,2631.00
335.499,3408.00
336.516,2908.00
337.533,2617.00
338.547,2878.00
339.564,2883.00
340.580,3141.00
341.597,3004.00
342.613,3466.00
343.627,2985.00
344.643,3043.00
345.659,3195.00
346.675,3008.00
347.690,2909.00
348.704,3114.00
349.719,2906.00
350.735,2807.00
351.750,3209.00
352.765,3034.00
353.778,3028.00
354.793,3125.00
355.808,2887.00
356.822,3223.00
357.837,2636.00
358.851,3273.00
359.864,2995.00
360.878,2743.00
361.892,2990.00
362.906,3181.00
363.920,2618.00
364.932,3182.00
365.945,3079.00
366.959,3021.00
367.972,2987.00
368.986,2733.00
369.999,3405.00
371.010,2839.00
372.023,3370.00
373.036,3007.00
374.049,3386.00
375.061,3127.00
376.072,3007.00
377.084,2880.00
378.097,2698.00
379.109,3224.00
380.121,3010.00
381.133,2706.00
382.143,3184.00
383.155,2729.00
384.166,2928.00
385.178,3116.00
386.189,3209.00
387.201,2757.00
388.212,2894.00
389.221,2952.00
390.232,3052.00
391.243,2934.00
392.254,3066.00
393.264,2836.00
394.275,3260.00
395.283,3208.00
396.294,3680.00
397.304,3449.00
398.314,3140.00
399.324,3041.00
400.334,2681.00
401.344,3168.00
402.351,2662.00
403.361,3212.00
404.370,2971.00
405.380,2903.00
406.389,3405.00
407.398,3188.00
408.407,3133.00
409.414,3146.00
410.423,3331.00
411.431,2771.00
412.440,2692.00
413.448,3318.00
414.457,2852.00
415.465,2799.00
416.471,2907.00
417.479,3045.00
418.487,2824.00
419.495,3312.00
420.503,3110.00
421.510,2623.00
422.518,3162.00
423.525,3133.00
424.530,3401.00
425.537,2928.00
426.544,3246.00
427.551,2876.00
428.558,3603.00
429.565,3446.00
430.571,2876.00
431.578,2897.00
432.582,2881.00
433.588,2974.00
434.595,2624.00
435.601,3345.00
436.607,3258.00
437.612,2775.00
438.618,3368.00
439.624,2961.00
440.627,2951.00
441.633,3172.00
442.638,3623.00
443.643,3152.00
444.648,3035.00
445.653,3210.00
446.658,2928.00
447.663,3054.00
448.667,2928.00
449.672,2918.00
450.674,2985.00
451.678,2701.00
452.682,2897.00
453.687,2865.00
454.690,3588.00
455.694,3306.00
456.698,2563.00
457.702,2670.00
458.705,2871.00
459.709,2848.00
460.710,2896.00
461.713,3050.00
462.716,3072.00
463.719,3051.00
464.722,3232.00
465.725,3000.00
466.727,2860.00
467.730,3108.00
468.732,2823.00
469.735,3312.00
470.737,2925.00
471.737,2924.00
472.739,2937.00
473.741,2818.00
474.742,3105.00
475.744,3115.00
476.746,3048.00
477.747,2959.00
478.748,3185.00
479.750,2947.00
480.751,2994.00
481.752,3773.00
482.753,3086.00
483.751,3574.00
484.752,2626.00
485.753,2973.00
486.753,2883.00
487.753,3013.00
488.754,3421.00
489.754,2752.00
490.754,3346.00
491.754,3138.00
492.754,2699.00
493.753,3050.00
494.753,2921.00
495.752,3381.00
496.752,3065.00
497.749,2987.00
498.748,2856.00
499.747,3395.00
500.746,3115.00
501.745,2803.00
502.744,2787.00
503.742,3329.00
504.741,2935.00
505.739,2474.00
506.737,2943.00
507.735,3142.00
508.734,3367.00
509.732,3110.00
510.729,3380.00
511.727,2899.00
512.725,2928.00
513.720,2802.00
514.718,3264.00
515.715,2693.00
516.712,2667.00
517.709,2964.00
518.706,2888.00
519.703,3077.00
520.700,3194.00
521.696,3354.00
522.693,2929.00
523.689,2845.00
524.686,3170.00
525.682,2817.00
526.678,3493.00
527.674,2934.00
528.670,2603.00
529.666,3537.00
530.661,3455.00
531.657,3179.00
532.652,3144.00
533.648,3019.00
534.641,3214.00
535.636,3043.00
536.631,3119.00
537.626,3209.00
538.621,2774.00
539.616,2632.00
540.610,2551.00
541.605,3030.00
542.599,3059.00
543.593,3004.00
544.587,3876.00
545.581,2854.00
546.575,3081.00
547.569,3070.00
548.563,2692.00
549.557,2672.00
550.550,2780.00
551.543,2734.00
552.537,3169.00
553.530,2784.00
554.523,2756.00
555.516,3137.00
556.509,2944.00
557.502,2619.00
558.494,3201.00
559.487,2965.00
560.479,3211.00
561.472,3233.00
562.464,3171.00
563.456,3334.00
564.448,2982.00
565.440,3043.00
566.432,3351.00
567.423,2890.00
568.415,2904.00
569.404,3124.00
570.396,2843.00
571.387,3178.00
572.378,3081.00
573.369,3980.00
574.360,3673.00
575.351,2966.00
576.341,2849.00
577.332,2891.00
578.323,2673.00
579.313,2910.00
580.303,3241.00
581.293,3154.00
582.283,3030.00
583.273,3143.00
584.263,3000.00
585.253,3142.00
586.243,3125.00
587.232,2668.00
588.222,2987.00
589.211,3192.00
590.200,3052.00
591.189,2971.00
592.178,2969.00
593.167,3435.00
594.156,3328.00
595.145,2877.00
596.133,3482.00
597.122,3134.00
598.110,3222.00
599.098,3068.00
600.086,3063.00
601.074,3204.00
602.062,2840.00
603.050,2805.00
604.038,3137.00
605.025,2806.00
606.013,3208.00
607.000,3416.00
607.987,3006.00
608.975,3063.00
609.962,2793.00
610.949,3152.00
611.936,3284.00
612.922,3177.00
613.909,2775.00
614.895,3395.00
615.882,2881.00
616.868,2997.00
617.854,2775.00
618.841,3030.00
619.826,3143.00
620.812,2994.00
621.798,2851.00
622.784,3182.00
623.769,3145.00
624.755,2687.00
625.740,3077.00
626.725,2710.00
627.711,2857.00
628.698,3079.00
629.683,2827.00
630.667,3214.00
631.652,2760.00
632.637,2962.00
633.621,3154.00
634.606,2962.00
635.590,3129.00
636.574,2965.00
637.558,3080.00
638.542,3033.00
639.526,2841.00
640.510,2630.00
641.493,3031.00
642.477,3009.00
643.460,2723.00
644.444,3239.00
645.427,3244.00
646.410,2683.00
647.393,2970.00
648.376,3086.00
649.359,2935.00
650.341,3092.00
651.324,3099.00
652.307,3097.00
653.289,2984.00
654.271,2895.00
655.253,2892.00
656.235,3143.00
657.217,3246.00
658.199,2657.00
659.181,2742.00
660.163,2996.00
661.144,2863.00
662.126,2897.00
663.107,2758.00
664.088,4725.00
665.069,3240.00
666.050,2810.00
667.033,2715.00
668.014,3004.00
668.995,2590.00
669.975,3048.00
670.956,3008.00
671.936,3151.00
672.916,2949.00
673.896,3096.00
674.876,2928.00
675.856,2853.00
676.836,2778.00
677.816,2335.00
678.795,2821.00
679.775,2669.00
680.754,2999.00
681.734,3168.00
682.713,3151.00
683.692,2766.00
684.671,2651.00
685.650,2751.00
686.629,2840.00
687.607,2794.00
688.586,2777.00
689.564,2871.00
690.543,3279.00
691.523,2373.00
692.501,2808.00
693.479,2922.00
694.457,2786.00
695.435,2867.00
696.413,2714.00
697.390,2512.00
698.368,2684.00
699.345,3121.00
700.322,2954.00
701.300,3073.00
702.277,3045.00
703.254,3264.00
704.231,2563.00
705.207,2977.00
706.184,2755.00
707.161,2651.00
708.137,2864.00
709.113,2831.00
710.090,2799.00
711.068,2615.00
712.044,2630.00
713.020,2929.00
713.996,2575.00
714.971,2850.00
715.947,2887.00
716.922,2824.00
717.898,2771.00
718.873,2870.00
719.848,2760.00
720.823,2686.00
721.798,3005.00
722.773,2731.00
723.748,2536.00
724.723,3020.00
725.697,2849.00
726.672,2754.00
727.646,2507.00
728.622,3001.00
729.596,2612.00
730.570,2719.00
731.544,3113.00
732.518,3319.00
733.492,2815.00
734.466,2921.00
735.439,3019.00
736.413,3130.00
737.386,2463.00
738.359,2463.00
739.332,2531.00
740.305,2859.00
741.278,3320.00
742.251,2915.00
743.224,2754.00
744.196,2579.00
745.171,3174.00
746.143,3048.00
747.115,2803.00
748.087,2729.00
749.059,3095.00
750.031,2917.00
751.003,3720.00
751.975,3263.00
752.947,2747.00
753.918,3103.00
754.890,2611.00
755.861,2761.00
756.832,3051.00
757.803,2863.00
758.774,2843.00
759.747,2583.00
760.718,3230.00
761.689,2735.00
762.659,2583.00
763.630,3178.00
764.600,2583.00
765.570,3036.00
766.540,3138.00
767.510,2934.00
768.480,3040.00
769.450,2711.00
770.420,2801.00
771.390,2644.00
772.359,2741.00
773.329,2665.00
774.300,2490.00
775.269,2770.00
776.238,3005.00
777.207,3154.00
778.176,2542.00
779.145,2805.00
780.114,2688.00
781.083,2570.00
782.051,2765.00
783.019,2684.00
783.988,3078.00
784.956,2848.00
785.924,2996.00
786.894,2894.00
787.862,2701.00
788.830,3100.00
789.797,2609.00
790.765,2600.00
791.732,2817.00
792.700,2622.00
793.667,2544.00
794.634,2775.00
795.601,2741.00
796.568,2798.00
797.535,2865.00
798.502,3460.00
799.468,2923.00
800.437,2443.00
801.403,2673.00
802.370,3318.00
803.336,2993.00
804.302,2882.00
805.268,2431.00
806.234,2551.00
807.200,2745.00
808.166,2774.00
809.131,2592.00
810.097,2974.00
811.062,3623.00
812.027,3022.00
812.994,2625.00
813.960,2645.00
814.925,2893.00
815.889,2531.00
816.854,3000.00
817.819,2694.00
818.783,2747.00
819.748,3114.00
820.712,2731.00
821.677,2609.00
822.641,2693.00
823.605,2707.00
824.571,3161.00
825.534,2767.00
826.498,2690.00
827.462,2827.00
828.425,2626.00
829.389,3058.00
830.352,2795.00
831.315,2908.00
832.279,2487.00
833.242,2768.00
834.204,2669.00
835.167,2651.00
836.132,3049.00
837.095,2539.00
838.057,2689.00
839.020,2795.00
839.982,2851.00
840.944,2678.00
841.906,2666.00
842.868,2951.00
843.830,2539.00
844.792,3074.00
845.753,2713.00
846.715,2449.00
847.679,2626.00
848.640,2607.00
849.601,2753.00
850.562,3251.00
851.523,2707.00
852.484,2488.00
853.445,3022.00
854.406,2719.00
855.367,2759.00
856.327,3070.00
857.288,2504.00
858.248,2705.00
859.210,2710.00
860.170,2506.00
861.130,3029.00
862.090,2440.00
863.050,2634.00
864.010,2701.00
864.969,2885.00
865.929,2619.00
866.888,2541.00
867.848,2837.00
868.807,2682.00
869.766,2887.00
870.727,2723.00
871.686,3011.00
872.645,3027.00
873.604,3269.00
874.562,2755.00
875.521,2795.00
876.479,3370.00
877.437,2598.00
878.396,2567.00
879.354,3170.00
880.312,2619.00
881.270,2656.00
882.229,3112.00
883.187,2622.00
884.145,2693.00
885.102,2918.00
886.059,2845.00
887.017,2888.00
887.974,2952.00
888.931,3063.00
889.888,2572.00
890.845,2450.00
891.802,2333.00
892.758,2621.00
893.717,2438.00
894.673,2569.00
895.630,2629.00
896.586,2906.00
897.542,2663.00
898.498,2545.00
899.454,2838.00
900.410,2698.00
901.366,2648.00
902.321,2690.00
903.277,2683.00
904.232,2748.00
905.189,2501.00
906.145,2680.00
907.100,2201.00
908.055,2727.00
909.010,2917.00
909.965,2335.00
910.919,2768.00
911.874,2582.00
912.828,2755.00
913.783,2775.00
914.737,2351.00
915.693,2765.00
916.648,2889.00
917.602,2974.00
918.555,2803.00
919.509,2819.00
920.463,2779.00
921.417,2739.00
922.370,2565.00
923.324,2682.00
924.277,2662.00
925.230,2746.00
926.183,2427.00
927.138,2666.00
928.091,2953.00
929.044,2793.00
929.996,2641.00
930.949,2635.00
931.902,2801.00
932.854,2843.00
933.806,2591.00
934.758,2962.00
935.711,3026.00
936.663,2739.00
937.614,2782.00
938.568,2754.00
939.520,2377.00
940.471,2708.00
941.423,2807.00
942.374,2885.00
943.326,2732.00
944.277,2619.00
945.228,2825.00
946.179,2678.00
947.130,3046.00
948.080,2680.00
949.031,2563.00
949.984,2714.00
950.934,2745.00
951.884,2497.00
952.835,2688.00
953.785,2771.00
954.735,2605.00
955.685,2370.00
956.635,2607.00
957.585,2617.00
958.534,2623.00
959.484,2758.00
960.433,2621.00
961.383,2486.00
962.334,2927.00
963.283,2779.00
964.232,2845.00
965.181,2691.00
966.130,2773.00
967.079,2642.00
968.027,2739.00
968.976,2731.00
969.924,2655.00
970.873,2810.00
971.821,2724.00
972.769,2939.00
973.719,2847.00
974.667,2486.00
975.615,2753.00
976.562,2724.00
977.510,2410.00
978.458,2635.00
979.405,2837.00
980.352,2786.00
981.300,2977.00
982.247,2773.00
983.194,2559.00
984.141,2627.00
985.088,2704.00
986.036,2759.00
986.983,3031.00
987.930,3114.00
988.876,2379.00
989.822,2929.00
990.769,2539.00
991.715,2627.00
992.661,2437.00
993.607,2799.00
994.553,3298.00
995.498,2610.00
996.444,2291.00
997.389,2770.00
998.337,2527.00
999.282,2885.00
1000.227,2637.00
1001.173,2726.00
1002.118,2445.00
1003.062,2891.00
1004.007,2707.00
1004.952,2983.00
1005.897,2917.00
1006.841,2679.00
1007.786,2443.00
1008.730,2454.00
1009.674,3171.00
1010.618,2631.00
1011.564,2535.00
1012.508,2423.00
1013.452,2909.00
1014.396,2751.00
1015.339,2595.00
1016.283,2667.00
1017.226,2739.00
1018.170,2710.00
1019.113,2902.00
1020.056,2707.00
1020.999,2703.00
1021.942,2614.00
1022.885,2837.00
1023.828,2985.00
1024.770,2519.00
1025.715,2747.00
1026.657,2709.00
1027.600,2763.00
1028.542,2915.00
1029.484,2743.00
1030.426,2839.00
1031.368,2787.00
1032.310,2586.00
1033.251,2531.00
1034.193,2703.00
1035.135,2494.00
1036.076,2611.00
1037.017,2521.00
1037.959,2850.00
1038.900,2779.00
1039.843,2805.00
1040.784,2774.00
1041.725,2778.00
1042.665,2600.00
1043.606,2762.00
1044.547,2714.00
1045.487,2365.00
1046.427,2648.00
1047.368,2764.00
1048.308,2225.00
1049.248,2540.00
1050.188,2710.00
1051.128,2589.00
1052.067,2684.00
1053.007,2430.00
1053.947,2381.00
1054.886,2592.00
1055.827,2471.00
1056.766,2941.00
1057.706,2452.00
1058.645,2654.00
1059.584,2761.00
1060.522,2950.00
1061.461,2447.00
1062.400,2465.00
1063.338,2624.00
1064.277,2510.00
1065.215,2532.00
1066.154,2399.00
1067.092,2567.00
1068.030,2645.00
1068.968,2877.00
1069.906,2980.00
1070.843,2962.00
1071.781,2723.00
1072.720,2791.00
1073.658,2799.00
1074.595,2629.00
1075.533,2552.00
1076.470,2574.00
1077.407,2939.00
1078.344,2727.00
1079.281,2818.00
1080.217,2293.00
1081.154,2652.00
1082.091,2751.00
1083.027,2443.00
1083.964,2905.00
1084.900,2563.00
1085.836,2585.00
1086.772,2874.00
1087.708,2470.00
1088.644,2862.00
1089.580,2702.00
1090.515,2710.00
1091.451,2616.00
1092.388,2720.00
1093.324,2433.00
1094.259,3257.00
1095.194,2740.00
1096.129,2589.00
1097.064,2585.00
1097.999,2802.00
1098.934,2534.00
1099.869,2540.00
1100.803,2722.00
1101.738,2722.00
1102.672,2377.00
1103.607,2780.00
1104.541,2517.00
1105.475,2533.00
1106.409,2416.00
1107.343,2595.00
1108.277,2401.00
1109.210,2682.00
1110.144,2682.00
1111.078,2648.00
1112.011,2455.00
1112.944,2731.00
1113.878,2709.00
1114.811,2176.00
1115.744,2584.00
1116.678,2343.00
1117.611,2586.00
1118.544,2591.00
1119.477,2761.00
1120.409,2516.00
1121.342,3130.00
1122.274,2780.00
1123.206,2975.00
1124.138,2659.00
1125.070,2981.00
1126.002,2809.00
1126.934,2276.00
1127.866,2539.00
1128.798,2307.00
1129.729,2351.00
1130.661,2683.00
1131.592,2585.00
1132.523,2802.00
1133.454,2754.00
1134.385,2310.00
1135.317,2634.00
1136.247,2594.00
1137.178,2852.00
1138.109,2345.00
1139.039,2945.00
1139.970,2844.00
1140.900,2592.00
1141.831,2341.00
1142.761,2286.00
1143.691,2731.00
1144.621,2624.00
1145.551,2701.00
1146.480,2675.00
1147.410,2864.00
1148.340,2295.00
1149.269,2353.00
1150.199,2611.00
1151.128,3075.00
1152.057,2425.00
1152.979,2615.00
1153.898,2579.00
1154.819,2695.00
1155.739,2630.00
1156.658,2566.00
1157.579,2634.00
1158.498,2631.00
1159.419,2167.00
1160.338,2653.00
1161.256,2681.00
1162.177,2469.00
1163.095,2610.00
1164.016,2698.00
1164.934,2927.00
1165.852,2803.00
1166.772,2614.00
1167.690,2652.00
1168.610,2697.00
1169.528,2650.00
1170.446,2203.00
1171.365,2597.00
1172.283,2500.00
1173.202,2659.00
1174.120,2689.00
1175.037,2494.00
1175.956,2483.00
1176.873,2469.00
1177.792,2522.00
1178.709,3118.00
1179.626,2520.00
1180.544,2843.00
1181.461,2510.00
1182.379,2748.00
1183.296,2609.00
1184.212,2288.00
1185.130,2478.00
1186.046,2924.00
1186.962,2649.00
1187.880,2946.00
1188.796,2708.00
1189.714,2432.00
1190.629,2785.00
1191.545,2694.00
1192.462,2565.00
1193.378,2565.00
1194.295,2344.00
1195.210,2646.00
1196.125,2765.00
1197.042,2678.00
1197.957,2587.00
1198.872,2517.00
1199.788,2528.00
1200.703,2986.00
1201.619,2636.00
1202.534,2491.00
1203.448,2714.00
1204.364,2601.00
1205.278,2300.00
1206.192,2704.00
1207.108,3118.00
1208.022,2981.00
1208.938,2479.00
1209.851,2788.00
1210.765,2852.00
1211.680,2544.00
1212.594,2407.00
1213.507,2586.00
1214.422,2989.00
1215.335,2757.00
1216.248,2548.00
1217.163,2642.00
1218.076,3156.00
1218.990,2754.00
1219.903,2403.00
1220.816,2464.00
1221.730,2596.00
1222.642,2524.00
1223.554,2549.00
1224.469,2711.00
1225.380,2616.00
1226.292,2288.00
1227.206,2761.00
1228.118,2971.00
1229.032,2255.00
1229.943,2500.00
1230.855,2549.00
1231.768,2383.00
1232.679,2719.00
1233.590,2618.00
1234.503,2860.00
1235.414,2495.00
1236.325,2519.00
1237.238,2722.00
1238.149,2709.00
1239.059,2420.00
1239.972,2827.00
1240.882,2466.00
1241.793,2773.00
1242.705,2987.00
1243.615,2605.00
1244.525,2726.00
1245.437,2216.00
1246.347,2647.00
1247.259,2782.00
1248.168,3043.00
1249.078,2832.00
1249.989,2916.00
1250.899,2479.00
1251.808,2484.00
1252.719,2559.00
1253.628,2513.00
1254.537,2980.00
1255.448,2471.00
1256.357,2448.00
1257.266,2603.00
1258.176,2375.00
1259.085,2356.00
1259.993,2454.00
1260.904,2461.00
1261.812,2455.00
1262.720,3174.00
1263.630,2788.00
1264.538,2477.00
1265.446,2758.00
1266.356,2618.00
1267.263,2876.00
1268.171,2429.00
1269.080,2722.00
1269.988,2809.00
1270.895,2513.00
1271.804,2593.00
1272.711,2782.00
1273.619,2781.00
1274.527,2434.00
1275.434,2746.00
1276.341,2423.00
1277.248,2637.00
1278.156,2914.00
1279.063,2476.00
1279.969,2717.00
1280.877,3538.00
1281.783,2799.00
1282.690,2688.00
1283.598,2576.00
1284.503,2471.00
1285.409,2449.00
1286.317,2991.00
1287.223,3013.00
1288.128,2692.00
1289.036,2546.00
1289.941,2558.00
1290.846,2622.00
1291.751,2471.00
1292.658,2520.00
1293.563,3064.00
1294.468,2661.00
1295.375,2813.00
1296.280,2866.00
1297.184,3336.00
1298.091,2716.00
1298.995,2830.00
1299.900,3002.00
1300.806,2541.00
1301.710,2393.00
1302.614,2232.00
1303.518,2896.00
1304.424,2573.00
1305.327,2787.00
1306.231,2639.00
1307.137,2769.00
1308.040,2681.00
1308.943,2691.00
1309.847,2831.00
1310.752,2802.00
1311.655,2278.00
1312.558,2434.00
1313.463,2567.00
1314.366,2534.00
1315.269,2649.00
1316.171,2612.00
1317.076,2536.00
1317.978,2403.00
1318.881,2225.00
1319.785,2471.00
1320.687,2508.00
1321.589,2248.00
1322.491,2470.00
1323.395,2702.00
1324.297,3206.00
1325.198,2741.00
1326.102,2429.00
1327.004,2428.00
1327.905,3049.00
1328.806,2573.00
1329.709,2698.00
1330.611,2563.00
1331.512,2469.00
1332.413,3070.00
1333.316,2666.00
1334.216,2820.00
1335.117,2403.00
1336.020,2678.00
1336.920,2649.00
1337.821,2457.00
1338.721,2901.00
1339.623,2662.00
1340.523,2585.00
1341.423,2491.00
1342.323,2898.00
1343.225,2698.00
1344.125,2476.00
1345.025,2539.00
1345.924,2279.00
1346.826,2977.00
1347.725,3025.00
1348.624,2897.00
1349.524,2522.00
1350.425,2591.00
1351.324,2719.00
1352.223,2819.00
1353.121,2595.00
1354.022,2829.00
1354.921,3058.00
1355.819,2766.00
1356.718,2678.00
1357.618,2406.00
1358.516,2731.00
1359.415,3012.00
1360.313,2732.00
1361.213,2581.00
1362.111,2857.00
1363.008,3270.00
1363.906,2601.00
1364.806,2648.00
1365.703,2719.00
1366.601,2446.00
1367.498,2472.00
1368.397,2791.00
1369.295,2656.00
1370.192,2490.00
1371.089,2685.00
1371.987,2613.00
1372.884,2850.00
1373.781,2449.00
1374.678,2677.00
1375.574,2494.00
1376.473,2739.00
1377.369,2856.00
1378.265,2487.00
1379.161,2574.00
1380.059,2361.00
1380.955,2767.00
1381.851,2393.00
1382.747,2518.00
1383.643,2509.00
1384.540,2431.00
1385.436,2543.00
1386.331,2659.00
1387.227,2744.00
1388.124,2747.00
1389.019,2470.00
1389.914,2647.00
1390.809,2287.00
1391.704,3045.00
1392.601,2530.00
1393.495,2901.00
1394.390,2807.00
1395.285,2855.00
1396.179,2735.00
1397.075,2601.00
1397.969,2698.00
1398.864,2359.00
1399.758,2594.00
1400.652,2674.00
1401.547,2478.00
1402.441,2384.00
1403.335,2994.00
1404.229,2760.00
1405.122,2689.00
1406.017,2616.00
1406.911,2792.00
1407.804,3077.00
1408.697,2620.00
1409.590,2475.00
1410.485,2781.00
1411.378,2705.00
1412.271,2331.00
1413.163,2681.00
1414.056,2783.00
1414.949,2982.00
1415.843,2719.00
1416.735,2575.00
1417.627,2670.00
1418.520,2611.00
1419.412,2841.00
1420.306,2783.00
1421.197,2911.00
1422.089,2844.00
1422.981,3098.00
1423.873,2810.00
1424.764,2759.00
1425.657,2679.00
1426.549,2753.00
1427.440,2853.00
1428.331,2544.00
1429.222,2314.00
1430.113,2671.00
1431.006,2827.00
1431.897,2534.00
1432.787,2673.00
1433.678,2541.00
1434.568,2466.00
1435.459,2871.00
1436.351,2845.00
1437.241,2763.00
1438.131,2775.00
1439.021,2385.00
1439.911,2642.00
1440.801,2663.00
1441.693,2851.00
1442.583,2662.00
1443.472,2639.00
1444.362,2752.00
1445.251,2591.00
1446.140,2582.00
1447.030,2820.00
1447.921,2799.00
1448.810,2436.00
1449.699,3006.00
1450.588,2688.00
1451.476,2549.00
1452.365,2702.00
1453.254,2556.00
1454.144,2540.00
1455.032,2764.00
1455.921,2374.00
1456.809,2921.00
1457.697,2452.00
1458.585,2580.00
1459.473,2593.00
1460.361,2496.00
1461.251,2726.00
1462.138,2728.00
1463.026,2604.00
1463.913,2854.00
1464.801,2585.00
1465.688,2704.00
1466.575,2653.00
1467.463,3073.00
1468.351,2513.00
1469.238,2646.00
1470.125,2249.00
1471.012,2718.00
1471.899,2731.00
1472.785,2454.00
1473.672,2664.00
1474.558,2858.00
1475.446,2797.00
1476.333,2871.00
1477.219,2473.00
1478.105,2616.00
1478.991,2661.00
1479.877,2990.00
1480.762,2655.00
1481.648,2511.00
1482.534,2817.00
1483.419,2710.00
1484.307,2760.00
1485.192,2622.00
1486.077,2507.00
1486.962,2530.00
1487.847,2393.00
1488.732,2501.00
1489.617,2644.00
1490.502,2915.00
1491.387,2780.00
1492.271,2478.00
1493.156,2486.00
1494.042,2468.00
1494.927,2851.00
1495.811,2541.00
1496.695,2825.00
1497.579,2945.00
1498.463,2633.00
1499.347,2711.00
1500.231,2686.00
1501.114,2719.00
1501.998,2894.00
1502.881,2714.00
1503.765,2907.00
1504.648,3088.00
1505.533,2755.00
1506.417,2656.00
1507.300,2633.00
1508.183,2735.00
1509.066,2149.00
1509.948,2903.00
1510.831,2977.00
1511.714,2458.00
1512.596,2803.00
1513.479,2894.00
1514.361,2835.00
1515.243,2674.00
1516.125,2821.00
1517.008,2911.00
1517.890,2636.00
1518.771,2675.00
1519.655,2861.00
1520.537,2582.00
1521.419,2483.00
1522.300,2676.00
1523.182,2790.00
1524.063,2750.00
1524.944,2961.00
1525.825,2854.00
1526.707,2477.00
1527.588,2477.00
1528.468,2785.00
1529.349,2319.00
1530.230,2609.00
1531.111,2847.00
1531.991,2715.00
1532.872,2383.00
1533.752,2658.00
1534.632,2559.00
1535.513,2506.00
1536.393,2814.00
1537.273,2958.00
1538.153,3256.00
1539.032,2430.00
1539.912,2661.00
1540.792,2672.00
1541.672,2692.00
1542.551,2784.00
1543.430,3236.00
1544.310,2703.00
1545.189,2593.00
1546.068,3077.00
1546.947,2773.00
1547.826,3192.00
1548.705,3151.00
1549.584,2971.00
1550.462,2638.00
1551.341,2831.00
1552.219,2741.00
1553.098,2834.00
1553.976,2887.00
1554.854,3061.00
1555.733,2835.00
1556.611,2603.00
1557.489,2464.00
1558.367,2682.00
1559.244,2822.00
1560.122,2663.00
1561.000,2731.00
1561.877,2976.00
1562.755,2532.00
1563.632,2616.00
1564.509,2919.00
1565.386,3015.00
1566.264,2440.00
1567.141,2281.00
1568.017,2797.00
1568.894,2682.00
1569.771,2742.00
1570.648,2801.00
1571.524,2718.00
1572.401,2455.00
1573.277,2429.00
1574.153,2720.00
1575.029,2578.00
1575.906,3381.00
1576.781,2834.00
1577.657,2634.00
1578.533,2909.00
1579.409,2289.00
1580.285,2615.00
1581.160,3084.00
1582.036,2845.00
1582.911,2519.00
1583.786,3003.00
1584.662,2458.00
1585.537,2604.00
1586.412,2739.00
1587.287,2526.00
1588.160,2867.00
1589.035,2341.00
1589.909,2700.00
1590.784,2646.00
1591.658,2464.00
1592.533,2702.00
1593.407,2719.00
1594.281,2576.00
1595.155,3060.00
1596.029,2592.00
1596.903,2633.00
1597.777,2554.00
1598.651,2901.00
1599.525,2380.00
1600.398,2696.00
1601.272,2647.00
1602.144,3196.00
1603.017,2611.00
1603.890,2953.00
1604.763,2736.00
1605.636,2791.00
1606.509,2396.00
1607.382,2519.00
1608.255,2767.00
1609.128,2877.00
1610.000,2623.00
1610.873,2409.00
1611.746,2562.00
1612.616,2614.00
1613.488,2254.00
1614.361,2699.00
1615.233,2626.00
1616.105,2865.00
1616.977,2596.00
1617.849,2517.00
1618.720,2991.00
1619.592,2965.00
1620.464,2739.00
1621.333,3116.00
1622.205,2690.00
1623.076,2691.00
1623.947,2675.00
1624.818,2942.00
1625.689,2769.00
1626.560,2576.00
1627.431,2710.00
1628.302,3086.00
1629.171,2812.00
1630.042,2998.00
1630.912,3308.00
1631.782,3268.00
1632.653,2468.00
1633.523,2825.00
1634.393,2953.00
1635.263,2565.00
1636.131,2645.00
1637.001,2620.00
1637.871,2315.00
1638.741,2314.00
1639.611,2418.00
1640.480,2799.00
1641.350,2568.00
1642.219,2498.00
1643.087,2164.00
1643.956,3061.00
1644.825,2918.00
1645.694,2848.00
1646.563,2860.00
1647.432,2716.00
1648.299,2747.00
1649.167,2785.00
1650.036,2493.00
1650.904,2820.00
1651.773,2888.00
1652.641,2706.00
1653.509,2891.00
1654.376,2555.00
1655.244,2680.00
1656.112,2721.00
1656.980,2661.00
1657.847,2526.00
1658.715,2886.00
1659.581,2585.00
1660.448,2935.00
1661.316,2243.00
1662.183,2701.00
1663.051,2760.00
1663.918,2714.00
1664.783,2674.00
1665.650,2778.00
1666.517,2839.00
1667.384,2733.00
1668.251,2717.00
1669.115,2888.00
1669.982,2629.00
1670.849,2927.00
1671.715,2666.00
1672.581,2814.00
1673.446,2828.00
1674.312,2695.00
1675.178,3098.00
1676.044,2764.00
1676.910,2756.00
1677.774,2720.00
1678.639,2338.00
1679.505,2665.00
1680.370,2833.00
1681.236,3340.00
1682.099,2629.00
1682.965,2729.00
1683.830,2314.00
1684.695,2494.00
1685.560,2640.00
1686.423,2819.00
1687.288,2803.00
1688.153,2728.00
1689.017,2593.00
1689.880,2781.00
1690.745,2827.00
1691.609,2515.00
1692.473,2885.00
1693.338,2910.00
1694.200,2950.00
1695.064,2710.00
1695.928,2606.00
1696.792,2711.00
1697.654,3157.00
1698.517,2705.00
1699.381,2432.00
1700.245,2312.00
1701.106,2931.00
1701.969,2574.00
1702.833,2847.00
1703.696,2629.00
1704.557,2676.00
1705.420,2502.00
1706.283,2692.00
1707.146,2823.00
1708.007,2522.00
1708.870,2492.00
1709.732,2416.00
1710.595,2572.00
1711.455,2458.00
1712.318,2628.00
1713.180,2980.00
1714.040,2748.00
1714.902,2885.00
1715.764,2721.00
1716.626,2493.00
1717.486,2660.00
1718.348,2953.00
1719.209,4863.00
1720.071,2366.00
1720.930,2434.00
1721.792,2560.00
1722.653,2550.00
1723.512,2547.00
1724.374,2640.00
1725.234,2764.00
1726.095,2712.00
1726.954,2697.00
1727.815,2839.00
1728.676,2688.00
1729.535,2908.00
1730.395,2640.00
1731.256,2631.00
1732.114,2759.00
1732.974,2169.00
1733.834,3072.00
1734.693,2876.00
1735.553,2706.00
1736.413,3070.00
1737.272,2602.00
1738.130,2620.00
1738.990,2769.00
1739.849,2604.00
1740.707,3672.00
1741.566,2736.00
1742.426,2757.00
1743.283,3135.00
1744.142,2597.00
1745.001,2357.00
1745.858,2836.00
1746.717,2762.00
1747.576,2782.00
1748.433,2862.00
1749.292,3266.00
1750.150,3325.00
1751.007,2905.00
1751.865,2905.00
1752.723,2701.00
1753.579,2633.00
1754.438,2923.00
1755.296,2902.00
1756.152,2242.00
1757.010,2374.00
1757.865,2923.00
1758.723,2359.00
1759.581,3041.00
1760.436,2673.00
1761.294,3044.00
1762.151,2690.00
1763.006,2638.00
1763.864,2350.00
1764.721,2902.00
1765.576,2748.00
1766.433,2868.00
1767.288,2589.00
1768.144,2773.00
1769.001,2629.00
1769.856,2776.00
1770.712,2888.00
1771.568,2483.00
1772.423,2614.00
1773.279,2594.00
1774.133,2629.00
1774.989,3072.00
1775.845,3098.00
1776.699,2932.00
1777.555,2677.00
1778.409,3219.00
1779.265,2652.00
1780.120,2649.00
1780.974,2681.00
1781.829,2306.00
1782.682,2758.00
1783.538,2536.00
1784.393,2751.00
1785.246,2651.00
1786.101,2801.00
1786.954,2832.00
1787.808,2904.00
1788.661,2435.00
1789.516,2578.00
1790.370,2650.00
1791.223,2896.00
1792.077,2697.00
1792.930,2774.00
1793.784,2573.00
1794.636,2736.00
1795.490,2656.00
1796.344,2714.00
1797.196,2685.00
1798.049,2891.00
1798.901,2628.00
1799.755,2941.00
1800.606,2528.00
1801.460,3206.00
1802.311,3035.00
1803.165,3161.00
1804.018,3035.00
1804.869,2788.00
1805.722,3145.00
1806.573,2759.00
1807.426,2550.00
1808.276,2718.00
1809.129,2624.00
1809.980,2958.00
1810.832,3003.00
1811.683,2629.00
1812.535,3029.00
1813.385,2645.00
1814.237,2996.00
1815.089,2771.00
1815.940,2966.00
1816.791,2663.00
1817.641,2570.00
1818.493,2896.00
1819.343,2767.00
1820.194,2581.00
1821.044,2846.00
1821.895,2912.00
1822.745,2420.00
1823.596,2614.00
1824.445,3166.00
1825.296,2828.00
1826.145,2669.00
1826.996,2924.00
1827.845,2756.00
1828.695,2732.00
1829.544,2725.00
1830.395,2747.00
1831.243,2633.00
1832.094,2449.00
1832.942,3297.00
1833.792,2819.00
1834.640,2779.00
1835.490,2714.00
1836.338,2755.00
1837.186,2562.00
1838.036,2586.00
1838.884,2710.00
1839.733,3009.00
1840.581,2878.00
1841.430,2856.00
1842.278,3068.00
1843.127,2617.00
1843.974,2387.00
1844.823,3137.00
1845.671,2884.00
1846.519,2748.00
1847.366,2779.00
1848.213,2363.00
1849.062,2539.00
1849.909,2472.00
1850.757,3425.00
1851.604,2855.00
1852.452,2630.00
1853.298,2903.00
1854.146,2733.00
1854.993,2758.00
1855.839,3231.00
1856.687,2824.00
1857.532,2830.00
1858.380,2706.00
1859.226,2765.00
1860.073,2855.00
1860.919,2540.00
1861.765,2588.00
1862.612,2960.00
1863.457,2943.00
1864.304,2666.00
1865.150,2868.00
1865.995,2677.00
1866.842,2849.00
1867.686,2975.00
1868.533,2769.00
1869.378,2765.00
1870.223,2751.00
1871.069,2646.00
1871.914,2747.00
1872.760,2751.00
1873.604,2523.00
1874.448,2851.00
1875.294,2909.00
1876.139,2586.00
1876.984,2839.00
1877.828,2366.00
1878.672,2239.00
1879.518,2582.00
1880.361,2940.00
1881.205,2895.00
1882.050,2505.00
1882.894,3235.00
1883.739,2600.00
1884.582,2493.00
1885.425,2542.00
1886.270,2991.00
1887.113,2487.00
1887.956,2824.00
1888.801,2807.00
1889.644,2521.00
1890.486,2330.00
1891.331,2639.00
1892.173,2776.00
1893.017,2818.00
1893.860,3015.00
1894.702,3020.00
1895.546,2742.00
1896.388,3425.00
1897.230,3069.00
1898.074,2606.00
1898.916,2516.00
1899.757,2517.00
1900.601,3399.00
1901.443,2991.00
1902.284,3041.00
1903.125,3185.00
1903.969,2935.00
1904.810,2962.00
1905.651,2819.00
1906.494,3082.00
1907.335,3190.00
1908.176,2839.00
1909.018,2849.00
1909.859,2714.00
1910.700,2617.00
1911.542,3276.00
1912.383,2834.00
1913.223,2346.00
1914.064,2885.00
1914.906,3046.00
1915.746,3069.00
1916.586,3176.00
1917.428,2684.00
1918.268,2783.00
1919.107,2629.00
1919.947,2495.00
1920.789,2649.00
1921.628,2965.00
1922.468,2743.00
1923.309,2611.00
1924.148,3031.00
1924.988,2823.00
1925.827,2734.00
1926.667,2635.00
1927.507,2762.00
1928.345,2579.00
1929.184,2927.00
1930.025,2568.00
1930.864,3022.00
1931.702,3053.00
1932.541,2679.00
1933.381,2839.00
1934.219,2884.00
1935.057,3029.00
1935.896,2474.00
1936.735,2694.00
1937.573,2614.00
1938.411,2541.00
1939.249,2954.00
1940.089,2624.00
1940.927,2969.00
1941.764,3040.00
1942.602,2666.00
1943.439,2649.00
1944.278,2688.00
1945.115,2654.00
1945.953,2481.00
1946.790,2841.00
1947.628,3058.00
1948.465,2888.00
1949.302,2925.00
1950.139,2874.00
1950.976,2635.00
1951.814,2888.00
1952.651,2828.00
1953.487,2583.00
1954.323,2992.00
1955.160,2751.00
1955.998,3089.00
1956.834,2757.00
1957.670,2794.00
1958.506,2968.00
1959.342,2827.00
1960.177,2767.00
1961.015,2891.00
1961.850,2773.00
1962.686,2824.00
1963.521,2818.00
1964.357,3011.00
1965.192,2567.00
1966.029,2895.00
1966.864,2689.00
1967.699,2969.00
1968.534,2802.00
1969.369,3018.00
1970.204,2727.00
1971.040,2807.00
1971.875,2714.00
1972.709,2816.00
1973.544,2588.00
1974.378,2630.00
1975.212,2835.00
1976.047,2636.00
1976.882,2616.00
1977.716,3161.00
1978.550,2461.00
1979.384,2687.00
1980.218,2741.00
1981.052,2653.00
1981.885,2787.00
1982.719,2731.00
1983.554,2918.00
1984.388,3090.00
1985.221,2835.00
1986.054,3006.00
1986.887,2814.00
1987.720,2601.00
1988.553,3040.00
1989.386,2831.00
1990.219,2864.00
1991.053,3028.00
1991.886,2667.00
1992.719,2953.00
1993.551,2307.00
1994.383,2924.00
1995.216,2692.00
1996.048,2495.00
1996.880,2931.00
1997.712,2623.00
1998.544,2765.00
1999.376,2809.00
2000.208,3043.00
2001.040,3191.00
2001.873,2579.00
2002.705,2571.00
2003.536,2811.00
2004.367,2818.00
2005.199,2842.00
2006.030,2627.00
2006.861,2571.00
2007.692,2783.00
2008.523,2613.00
2009.354,2792.00
2010.185,2575.00
2011.016,2918.00
2011.846,2967.00
2012.677,2699.00
2013.507,3080.00
2014.338,2979.00
2015.168,2692.00
2015.999,3271.00
2016.829,2691.00
2017.659,2960.00
2018.489,3311.00
2019.319,2581.00
2020.149,2934.00
2020.980,2851.00
2021.810,2529.00
2022.639,2654.00
2023.469,2655.00
2024.298,2453.00
2025.128,2371.00
2025.957,2394.00
2026.786,2209.00
2027.615,2415.00
2028.444,2626.00
2029.273,2727.00
2030.102,2432.00
2030.931,2622.00
2031.758,2906.00
2032.586,2544.00
2033.415,2610.00
2034.243,2233.00
2035.072,2028.00
2035.900,2513.00
2036.728,2345.00
2037.556,2336.00
2038.385,2382.00
2039.213,2217.00
2040.040,2182.00
2040.868,2175.00
2041.696,2233.00
2042.524,2260.00
2043.351,2438.00
2044.179,2221.00
2045.006,1994.00
