RamanScope Measure Spectrum Data V3.72

<< MEASURE CONDITION >>
Exposure Type,Aver
Exposure Time [sec],15
Exposure Count,4
Measure Time,2023/07/14 22:27:58
Data Name,""
Data Comment,""
Rayleigh Wave[nm],532.0

<< SAMPLE SPECTRUM >>
Wave[dcm-1],No123
146.591,749.00
147.626,908.50
148.664,1121.25
149.699,1329.25
150.737,1525.00
151.772,1717.75
152.809,1975.25
153.846,2152.75
154.881,2331.75
155.918,2487.25
156.953,2695.25
157.989,2811.75
159.026,2908.50
160.060,3021.50
161.096,3046.25
162.130,3168.00
163.167,3203.25
164.200,3223.50
165.236,3298.50
166.272,3382.25
167.305,3410.75
168.341,3515.00
169.374,3516.75
170.409,3551.25
171.445,3658.00
172.477,3708.25
173.512,3784.25
174.545,3857.25
175.580,3951.00
176.614,3984.25
177.647,3989.50
178.681,4008.25
179.713,4037.00
180.747,4020.25
181.781,3999.00
182.813,3993.75
183.847,3960.00
184.878,3988.50
185.912,3948.75
186.945,3896.75
187.976,3872.50
189.010,3909.50
190.043,3981.25
191.073,4007.00
192.106,3967.25
193.137,4006.50
194.170,4090.50
195.202,4049.50
196.232,4144.25
197.265,4158.00
198.297,4181.75
199.327,4218.50
200.359,4332.75
201.388,4392.75
202.420,4391.25
203.452,4535.25
204.481,4628.50
205.512,4652.25
206.544,4754.00
207.573,4832.00
208.604,4934.00
209.635,5061.00
210.663,5188.00
211.694,5271.25
212.725,5384.25
213.753,5488.50
214.783,5537.25
215.813,5651.50
216.841,5745.50
217.871,5691.50
218.899,5708.00
219.929,5688.00
220.959,5682.00
221.986,5633.75
223.016,5584.50
224.045,5518.25
225.072,5411.75
226.101,5342.75
227.130,5239.00
228.157,5172.50
229.185,5100.00
230.214,4988.50
231.241,4997.25
232.269,4966.50
233.297,4850.50
234.323,4806.25
235.351,4812.50
236.379,4831.00
237.407,4768.50
238.433,4745.25
239.460,4802.00
240.488,4852.75
241.513,4830.75
242.540,4878.50
243.568,4846.75
244.592,4897.25
245.619,4938.00
246.646,4936.25
247.671,4934.00
248.697,4936.50
249.724,4884.00
250.748,4829.25
251.774,4855.25
252.801,4893.50
253.827,4883.75
254.850,4849.75
255.876,4872.00
256.902,4950.00
257.925,4895.75
258.951,4948.50
259.976,4960.75
260.999,5028.25
262.024,5004.50
263.049,4994.25
264.074,5055.50
265.097,5102.00
266.122,5188.50
267.146,5128.75
268.168,5248.00
269.193,5307.25
270.217,5321.50
271.241,5294.50
272.263,5373.50
273.287,5398.50
274.311,5455.00
275.332,5445.50
276.356,5440.75
277.379,5508.25
278.402,5504.50
279.424,5434.50
280.447,5418.50
281.470,5347.00
282.492,5371.00
283.513,5255.75
284.536,5214.50
285.558,5199.25
286.581,5108.50
287.601,5046.00
288.623,5037.00
289.645,4993.00
290.665,4867.00
291.687,4816.50
292.709,4784.25
293.730,4762.50
294.750,4652.75
295.771,4633.75
296.792,4636.00
297.813,4549.75
298.832,4540.75
299.853,4430.00
300.874,4437.25
301.895,4393.50
302.913,4380.75
303.934,4328.75
304.954,4290.50
305.975,4379.75
306.993,4162.75
308.013,4160.00
309.033,4151.00
310.052,4137.75
311.072,4078.75
312.090,4089.00
313.109,4035.25
314.129,4024.25
315.148,4002.00
316.165,3995.25
317.184,3954.25
318.203,3957.75
319.222,3953.25
320.238,3888.50
321.257,3922.00
322.275,3855.75
323.294,3978.25
324.312,3913.25
325.328,3791.25
326.346,3891.50
327.364,3830.25
328.382,3872.50
329.397,3906.75
330.415,3806.25
331.432,3803.25
332.450,3774.00
333.467,3796.75
334.482,3805.25
335.499,3787.25
336.516,3807.00
337.533,3792.25
338.547,3816.00
339.564,3755.75
340.580,3795.75
341.597,3708.75
342.613,3777.00
343.627,3757.50
344.643,3717.50
345.659,3729.00
346.675,3686.00
347.690,3696.25
348.704,3712.75
349.719,3718.75
350.735,3722.50
351.750,3785.75
352.765,3723.00
353.778,3751.00
354.793,3705.00
355.808,3761.25
356.822,3688.25
357.837,3636.50
358.851,3663.00
359.864,3696.50
360.878,3704.75
361.892,3681.00
362.906,3721.75
363.920,3757.25
364.932,3728.75
365.945,3667.00
366.959,3715.00
367.972,3770.75
368.986,3734.00
369.999,3748.50
371.010,3793.75
372.023,3832.00
373.036,3744.25
374.049,3785.50
375.061,3740.25
376.072,3768.25
377.084,3812.25
378.097,3784.75
379.109,3814.75
380.121,3898.75
381.133,3839.00
382.143,3828.00
383.155,3783.75
384.166,3833.00
385.178,3756.00
386.189,3863.50
387.201,3794.50
388.212,3766.75
389.221,3781.75
390.232,3787.25
391.243,3800.25
392.254,3723.25
393.264,3711.00
394.275,3736.25
395.283,3724.25
396.294,3749.75
397.304,3637.75
398.314,3671.50
399.324,3638.75
400.334,3727.00
401.344,3626.75
402.351,3657.00
403.361,3597.75
404.370,3642.00
405.380,3646.25
406.389,3617.75
407.398,3613.00
408.407,3550.00
409.414,3575.25
410.423,3502.00
411.431,3591.00
412.440,3561.75
413.448,3486.25
414.457,3456.25
415.465,3509.50
416.471,3502.50
417.479,3423.00
418.487,3452.00
419.495,3418.25
420.503,3407.25
421.510,3451.75
422.518,3372.50
423.525,3436.75
424.530,3422.00
425.537,3386.50
426.544,3321.50
427.551,3379.00
428.558,3392.75
429.565,3419.50
430.571,3343.75
431.578,3358.50
432.582,3330.50
433.588,3315.25
434.595,3339.25
435.601,3348.00
436.607,3392.25
437.612,3313.50
438.618,3328.25
439.624,3314.00
440.627,3336.50
441.633,3311.25
442.638,3349.50
443.643,3320.50
444.648,3289.50
445.653,3260.75
446.658,3262.25
447.663,3314.00
448.667,3308.00
449.672,3288.25
450.674,3289.50
451.678,3311.50
452.682,3391.75
453.687,3337.25
454.690,3299.00
455.694,3299.50
456.698,3266.25
457.702,3287.50
458.705,3316.75
459.709,3276.00
460.710,3269.50
461.713,3327.00
462.716,3307.50
463.719,3344.75
464.722,3310.00
465.725,3253.50
466.727,3348.00
467.730,3354.50
468.732,3319.00
469.735,3375.50
470.737,3285.75
471.737,3289.75
472.739,3335.50
473.741,3320.75
474.742,3346.00
475.744,3313.00
476.746,3325.75
477.747,3341.25
478.748,3350.25
479.750,3405.25
480.751,3317.25
481.752,3280.00
482.753,3340.75
483.751,3301.00
484.752,3292.00
485.753,3344.25
486.753,3294.50
487.753,3349.50
488.754,3296.50
489.754,3307.50
490.754,3291.00
491.754,3287.50
492.754,3309.00
493.753,3322.00
494.753,3321.00
495.752,3297.75
496.752,3322.75
497.749,3263.50
498.748,3266.00
499.747,3312.25
500.746,3277.50
501.745,3281.75
502.744,3270.00
503.742,3307.25
504.741,3242.00
505.739,3234.25
506.737,3232.25
507.735,3242.25
508.734,3204.75
509.732,3222.25
510.729,3210.00
511.727,3189.25
512.725,3125.75
513.720,3138.00
514.718,3250.25
515.715,3162.75
516.712,3127.00
517.709,3149.25
518.706,3119.75
519.703,3167.00
520.700,3196.50
521.696,3114.50
522.693,3138.00
523.689,3125.50
524.686,3186.25
525.682,3157.50
526.678,3183.25
527.674,3137.25
528.670,3129.75
529.666,3135.75
530.661,3190.50
531.657,3206.00
532.652,3163.00
533.648,3171.25
534.641,3134.25
535.636,3141.50
536.631,3209.50
537.626,3175.50
538.621,3150.00
539.616,3136.75
540.610,3144.25
541.605,3132.00
542.599,3152.50
543.593,3158.50
544.587,3141.00
545.581,3136.00
546.575,3117.50
547.569,3094.50
548.563,3105.50
549.557,3107.25
550.550,3128.50
551.543,3083.75
552.537,3129.50
553.530,3102.75
554.523,3067.50
555.516,3111.00
556.509,3104.75
557.502,3082.50
558.494,3101.25
559.487,3103.50
560.479,3029.50
561.472,3116.25
562.464,3165.00
563.456,3064.50
564.448,3104.50
565.440,3102.25
566.432,3152.50
567.423,3112.50
568.415,3055.75
569.404,3082.50
570.396,3061.00
571.387,3138.75
572.378,3152.50
573.369,3144.00
574.360,3108.00
575.351,3094.50
576.341,3125.75
577.332,3166.50
578.323,3113.75
579.313,3115.75
580.303,3157.50
581.293,3160.50
582.283,3102.75
583.273,3133.25
584.263,3067.00
585.253,3086.25
586.243,3144.50
587.232,3173.00
588.222,3155.25
589.211,3114.50
590.200,3078.75
591.189,3093.75
592.178,3166.50
593.167,3140.50
594.156,3129.25
595.145,3141.50
596.133,3154.75
597.122,3104.75
598.110,3196.50
599.098,3112.25
600.086,3147.25
601.074,3082.25
602.062,3149.75
603.050,3107.50
604.038,3139.00
605.025,3105.25
606.013,3123.00
607.000,3070.75
607.987,3096.50
608.975,3076.50
609.962,3032.00
610.949,3009.50
611.936,3045.00
612.922,3020.75
613.909,3065.50
614.895,2992.75
615.882,2958.50
616.868,2904.50
617.854,2937.75
618.841,3003.75
619.826,2934.00
620.812,2878.50
621.798,2868.00
622.784,2923.00
623.769,2861.25
624.755,2905.25
625.740,2814.75
626.725,2763.50
627.711,2806.75
628.698,2807.75
629.683,2787.25
630.667,2781.25
631.652,2752.00
632.637,2701.25
633.621,2740.25
634.606,2721.00
635.590,2709.25
636.574,2732.25
637.558,2658.25
638.542,2707.75
639.526,2673.00
640.510,2675.25
641.493,2644.75
642.477,2601.25
643.460,2606.00
644.444,2600.25
645.427,2600.25
646.410,2553.00
647.393,2540.25
648.376,2568.50
649.359,2541.25
650.341,2541.00
651.324,2507.50
652.307,2530.00
653.289,2484.75
654.271,2554.25
655.253,2516.25
656.235,2547.75
657.217,2512.50
658.199,2509.00
659.181,2514.25
660.163,2540.75
661.144,2501.25
662.126,2515.50
663.107,2474.00
664.088,2426.75
665.069,2471.25
666.050,2475.75
667.033,2469.50
668.014,2389.25
668.995,2445.00
669.975,2465.25
670.956,2433.25
671.936,2432.25
672.916,2408.75
673.896,2392.50
674.876,2342.75
675.856,2394.25
676.836,2324.00
677.816,2317.00
678.795,2350.50
679.775,2309.25
680.754,2309.75
681.734,2324.00
682.713,2268.25
683.692,2225.50
684.671,2235.75
685.650,2238.00
686.629,2205.50
687.607,2219.75
688.586,2206.75
689.564,2188.75
690.543,2203.50
691.523,2234.25
692.501,2184.00
693.479,2168.50
694.457,2138.00
695.435,2145.25
696.413,2141.75
697.390,2170.75
698.368,2109.75
699.345,2086.50
700.322,2098.00
701.300,2128.75
702.277,2158.00
703.254,2086.00
704.231,2073.00
705.207,2132.25
706.184,2091.00
707.161,2089.75
708.137,2099.75
709.113,2030.25
710.090,2016.75
711.068,2057.25
712.044,2029.00
713.020,2043.00
713.996,2051.00
714.971,1998.00
715.947,2073.25
716.922,2014.50
717.898,2013.50
718.873,1971.75
719.848,2023.75
720.823,2029.25
721.798,2001.50
722.773,1962.00
723.748,1938.75
724.723,1968.50
725.697,1954.75
726.672,2007.75
727.646,1977.50
728.622,1982.25
729.596,1966.50
730.570,1960.50
731.544,1953.00
732.518,1997.75
733.492,1937.75
734.466,1935.25
735.439,1917.00
736.413,1910.25
737.386,1928.25
738.359,1937.00
739.332,1974.25
740.305,1968.50
741.278,1902.00
742.251,1868.75
743.224,1866.25
744.196,1929.75
745.171,1885.00
746.143,1869.25
747.115,1904.75
748.087,1832.25
749.059,1880.75
750.031,1896.00
751.003,1846.00
751.975,1886.25
752.947,1842.25
753.918,1882.00
754.890,1817.75
755.861,1836.75
756.832,1779.75
757.803,1813.00
758.774,1767.00
759.747,1833.25
760.718,1808.75
761.689,1800.75
762.659,1797.75
763.630,1775.50
764.600,1812.75
765.570,1778.75
766.540,1762.75
767.510,1763.00
768.480,1772.50
769.450,1774.25
770.420,1796.25
771.390,1717.75
772.359,1794.50
773.329,1774.50
774.300,1705.75
775.269,1721.00
776.238,1781.75
777.207,1737.50
778.176,1728.00
779.145,1735.00
780.114,1739.25
781.083,1671.75
782.051,1714.50
783.019,1696.75
783.988,1670.00
784.956,1708.75
785.924,1727.50
786.894,1643.25
787.862,1633.75
788.830,1660.75
789.797,1687.00
790.765,1697.50
791.732,1653.25
792.700,1666.50
793.667,1616.25
794.634,1695.50
795.601,1661.25
796.568,1605.75
797.535,1604.50
798.502,1617.50
799.468,1614.25
800.437,1621.25
801.403,1649.00
802.370,1621.25
803.336,1628.75
804.302,1609.25
805.268,1573.00
806.234,1573.75
807.200,1552.00
808.166,1618.00
809.131,1542.00
810.097,1569.50
811.062,1550.75
812.027,1625.25
812.994,1589.25
813.960,1564.75
814.925,1608.75
815.889,1563.00
816.854,1567.25
817.819,1572.00
818.783,1511.50
819.748,1552.00
820.712,1544.75
821.677,1546.00
822.641,1552.50
823.605,1579.00
824.571,1536.75
825.534,1530.00
826.498,1559.75
827.462,1547.50
828.425,1484.25
829.389,1593.25
830.352,1516.75
831.315,1580.25
832.279,1579.25
833.242,1547.75
834.204,1583.25
835.167,1523.00
836.132,1531.00
837.095,1533.00
838.057,1526.75
839.020,1557.25
839.982,1525.50
840.944,1559.50
841.906,1560.25
842.868,1559.00
843.830,1565.00
844.792,1500.00
845.753,1540.00
846.715,1544.00
847.679,1531.00
848.640,1568.25
849.601,1552.00
850.562,1528.75
851.523,1530.25
852.484,1537.75
853.445,1527.00
854.406,1538.00
855.367,1529.00
856.327,1530.75
857.288,1496.25
858.248,1540.75
859.210,1538.75
860.170,1546.75
861.130,1505.25
862.090,1559.50
863.050,1494.50
864.010,1520.75
864.969,1522.00
865.929,1530.75
866.888,1562.25
867.848,1523.50
868.807,1536.25
869.766,678.75
870.727,1078.00
871.686,1543.25
872.645,1503.50
873.604,1497.00
874.562,1544.50
875.521,1525.75
876.479,1507.75
877.437,1554.50
878.396,1538.25
879.354,1529.25
880.312,1506.75
881.270,1540.50
882.229,1527.50
883.187,1539.00
884.145,1515.75
885.102,1539.25
886.059,1499.50
887.017,1515.25
887.974,1528.00
888.931,1542.00
889.888,1595.00
890.845,1552.75
891.802,1520.50
892.758,1546.75
893.717,1551.00
894.673,1529.50
895.630,1590.00
896.586,1582.50
897.542,1567.50
898.498,1577.50
899.454,1537.25
900.410,1556.75
901.366,1558.50
902.321,1571.50
903.277,1563.50
904.232,1606.25
905.189,1616.00
906.145,1603.00
907.100,1619.75
908.055,1573.25
909.010,1591.25
909.965,1585.25
910.919,1619.50
911.874,1618.75
912.828,1568.25
913.783,1589.00
914.737,1617.00
915.693,1596.75
916.648,1631.75
917.602,1572.00
918.555,1623.25
919.509,1592.75
920.463,1574.00
921.417,1594.25
922.370,1596.25
923.324,1599.25
924.277,1608.00
925.230,1630.75
926.183,1632.75
927.138,1607.00
928.091,1593.00
929.044,1619.25
929.996,1597.00
930.949,1626.75
931.902,1580.00
932.854,1634.75
933.806,1633.00
934.758,1568.50
935.711,1632.00
936.663,1626.75
937.614,1605.00
938.568,1600.50
939.520,1592.50
940.471,1626.75
941.423,1625.00
942.374,1625.75
943.326,1625.00
944.277,1620.50
945.228,1639.00
946.179,1670.25
947.130,1595.75
948.080,1636.00
949.031,1615.50
949.984,1579.50
950.934,1549.00
951.884,1582.50
952.835,1591.75
953.785,1563.00
954.735,1612.75
955.685,1597.75
956.635,1567.75
957.585,1575.25
958.534,1589.25
959.484,1582.75
960.433,1530.50
961.383,1603.25
962.334,1552.25
963.283,1597.00
964.232,1578.50
965.181,1569.75
966.130,1599.75
967.079,1568.50
968.027,1581.75
968.976,1593.25
969.924,1527.75
970.873,1535.00
971.821,1526.25
972.769,1542.25
973.719,1556.50
974.667,1549.75
975.615,1567.25
976.562,1528.75
977.510,1503.75
978.458,1501.50
979.405,1490.50
980.352,1519.00
981.300,1478.25
982.247,1528.25
983.194,1517.75
984.141,1533.75
985.088,1463.50
986.036,1455.00
986.983,1484.75
987.930,1491.00
988.876,1463.75
989.822,1472.00
990.769,1496.50
991.715,1490.50
992.661,1496.25
993.607,1530.75
994.553,1467.50
995.498,1466.00
996.444,1448.50
997.389,1435.00
998.337,1431.75
999.282,1455.75
1000.227,1415.25
1001.173,1429.00
1002.118,1433.75
1003.062,1437.25
1004.007,1430.00
1004.952,1417.00
1005.897,1388.50
1006.841,1451.75
1007.786,1404.25
1008.730,1414.00
1009.674,1421.75
1010.618,1398.50
1011.564,1436.00
1012.508,1398.00
1013.452,1424.50
1014.396,1402.50
1015.339,1401.50
1016.283,1429.25
1017.226,1401.25
1018.170,1413.50
1019.113,1346.25
1020.056,1383.75
1020.999,1366.00
1021.942,1386.50
1022.885,1372.50
1023.828,1395.75
1024.770,1389.50
1025.715,1437.25
1026.657,1404.50
1027.600,1406.50
1028.542,1322.25
1029.484,1378.00
1030.426,1382.25
1031.368,1381.50
1032.310,1385.00
1033.251,1368.00
1034.193,1385.00
1035.135,1366.00
1036.076,1410.50
1037.017,1371.50
1037.959,1373.50
1038.900,1377.50
1039.843,1416.75
1040.784,1382.75
1041.725,1336.50
1042.665,1370.50
1043.606,1393.50
1044.547,1429.50
1045.487,1318.00
1046.427,1382.50
1047.368,1360.75
1048.308,1373.50
1049.248,1383.75
1050.188,1354.25
1051.128,1357.00
1052.067,1399.50
1053.007,1403.75
1053.947,1381.25
1054.886,1375.00
1055.827,1416.25
1056.766,1360.75
1057.706,1351.00
1058.645,1395.25
1059.584,1365.75
1060.522,1361.50
1061.461,1391.75
1062.400,1381.75
1063.338,1386.75
1064.277,1372.00
1065.215,1361.75
1066.154,1344.25
1067.092,1355.00
1068.030,1383.75
1068.968,1378.25
1069.906,1416.00
1070.843,1351.00
1071.781,1379.75
1072.720,1338.75
1073.658,1375.75
1074.595,1363.75
1075.533,1364.25
1076.470,1368.00
1077.407,1410.00
1078.344,1388.75
1079.281,1354.25
1080.217,1399.75
1081.154,1360.75
1082.091,1315.50
1083.027,1364.50
1083.964,1399.75
1084.900,1340.25
1085.836,1377.75
1086.772,1379.50
1087.708,1404.75
1088.644,1359.00
1089.580,1395.75
1090.515,1381.25
1091.451,1369.75
1092.388,1366.00
1093.324,1348.25
1094.259,1411.25
1095.194,1344.75
1096.129,1355.00
1097.064,1303.50
1097.999,1329.00
1098.934,1366.75
1099.869,1368.50
1100.803,1327.50
1101.738,1341.00
1102.672,1315.75
1103.607,1324.25
1104.541,1361.75
1105.475,1286.75
1106.409,1307.25
1107.343,1318.50
1108.277,1333.00
1109.210,1325.00
1110.144,1270.00
1111.078,1332.75
1112.011,1305.50
1112.944,1303.25
1113.878,1284.50
1114.811,1272.75
1115.744,1297.25
1116.678,1272.25
1117.611,1306.00
1118.544,1260.00
1119.477,1278.25
1120.409,1257.00
1121.342,1289.00
1122.274,1244.50
1123.206,-21.50
1124.138,1224.00
1125.070,1234.50
1126.002,1242.25
1126.934,1298.25
1127.866,1284.75
1128.798,1243.00
1129.729,1271.50
1130.661,1214.75
1131.592,1251.00
1132.523,1228.50
1133.454,1239.25
1134.385,1205.25
1135.317,1216.00
1136.247,1204.50
1137.178,1252.25
1138.109,1193.25
1139.039,1223.75
1139.970,1205.50
1140.900,1213.25
1141.831,1128.25
1142.761,1206.75
1143.691,1635.75
1144.621,1191.25
1145.551,1186.75
1146.480,1224.75
1147.410,1214.75
1148.340,1202.75
1149.269,1213.00
1150.199,1181.00
1151.128,1174.00
1152.057,1158.00
1152.979,1128.00
1153.898,1189.75
1154.819,1218.00
1155.739,1140.50
1156.658,1181.50
1157.579,1182.25
1158.498,1192.00
1159.419,1173.50
1160.338,1182.50
1161.256,1207.75
1162.177,1171.75
1163.095,1192.00
1164.016,1163.50
1164.934,1147.50
1165.852,1119.75
1166.772,1181.25
1167.690,1151.75
1168.610,1168.50
1169.528,1164.00
1170.446,1193.00
1171.365,1136.75
1172.283,1180.00
1173.202,1149.50
1174.120,1150.75
1175.037,1183.00
1175.956,1092.00
1176.873,1080.00
1177.792,1162.00
1178.709,1126.00
1179.626,1165.50
1180.544,1164.25
1181.461,1153.00
1182.379,1166.50
1183.296,1148.25
1184.212,1192.25
1185.130,1099.75
1186.046,1136.25
1186.962,1139.75
1187.880,1151.75
1188.796,1106.00
1189.714,1142.50
1190.629,1144.00
1191.545,1144.00
1192.462,1146.50
1193.378,1104.00
1194.295,1137.25
1195.210,1103.50
1196.125,1131.50
1197.042,1098.50
1197.957,1135.50
1198.872,1141.00
1199.788,1136.50
1200.703,1131.50
1201.619,1121.50
1202.534,1160.00
1203.448,1175.75
1204.364,1115.50
1205.278,1081.50
1206.192,1150.50
1207.108,1109.75
1208.022,1141.75
1208.938,1104.75
1209.851,1102.00
1210.765,1089.50
1211.680,1163.75
1212.594,1146.50
1213.507,1100.00
1214.422,1089.25
1215.335,1143.00
1216.248,1111.00
1217.163,1173.00
1218.076,1137.50
1218.990,1097.00
1219.903,1135.50
1220.816,1175.00
1221.730,1133.00
1222.642,1105.00
1223.554,1123.50
1224.469,1134.50
1225.380,1133.00
1226.292,1145.75
1227.206,1108.00
1228.118,1129.50
1229.032,1140.75
1229.943,1148.75
1230.855,1150.75
1231.768,1161.50
1232.679,1113.75
1233.590,1129.25
1234.503,1143.25
1235.414,1105.25
1236.325,1156.25
1237.238,1129.50
1238.149,1173.75
1239.059,1166.25
1239.972,1170.50
1240.882,1108.25
1241.793,1160.25
1242.705,1185.00
1243.615,1191.75
1244.525,1115.75
1245.437,1138.00
1246.347,1146.25
1247.259,1159.75
1248.168,1154.00
1249.078,1150.00
1249.989,1178.75
1250.899,1121.00
1251.808,1158.75
1252.719,1108.50
1253.628,1163.25
1254.537,1169.75
1255.448,1114.75
1256.357,1153.00
1257.266,1164.50
1258.176,1113.00
1259.085,1151.75
1259.993,1186.00
1260.904,1166.25
1261.812,1118.50
1262.720,1163.50
1263.630,1140.00
1264.538,1165.25
1265.446,1177.50
1266.356,1159.75
1267.263,1186.50
1268.171,1104.50
1269.080,1184.00
1269.988,1125.75
1270.895,1161.50
1271.804,1148.00
1272.711,1117.50
1273.619,1147.50
1274.527,1160.75
1275.434,1174.50
1276.341,1164.75
1277.248,1155.50
1278.156,1178.25
1279.063,1124.25
1279.969,1187.50
1280.877,1126.25
1281.783,1129.50
1282.690,1119.00
1283.598,1110.00
1284.503,1142.50
1285.409,1137.00
1286.317,1172.50
1287.223,1168.25
1288.128,1141.50
1289.036,1101.25
1289.941,1161.25
1290.846,1125.50
1291.751,1168.75
1292.658,1103.50
1293.563,1113.00
1294.468,1085.75
1295.375,1129.00
1296.280,1116.00
1297.184,1135.50
1298.091,1099.50
1298.995,1106.25
1299.900,1124.50
1300.806,1103.25
1301.710,1077.50
1302.614,1112.00
1303.518,1104.00
1304.424,1065.50
1305.327,1094.00
1306.231,1142.00
1307.137,1058.50
1308.040,1123.50
1308.943,1126.50
1309.847,1087.25
1310.752,1054.50
1311.655,1064.75
1312.558,1063.50
1313.463,1075.00
1314.366,1076.50
1315.269,1080.50
1316.171,1087.00
1317.076,1034.75
1317.978,1071.50
1318.881,1058.50
1319.785,1029.75
1320.687,1032.50
1321.589,1061.25
1322.491,1064.25
1323.395,1023.25
1324.297,1041.25
1325.198,1032.25
1326.102,1086.25
1327.004,1032.75
1327.905,1035.75
1328.806,1051.25
1329.709,1038.25
1330.611,1047.75
1331.512,1048.75
1332.413,1051.00
1333.316,1031.75
1334.216,995.00
1335.117,992.00
1336.020,996.75
1336.920,1054.50
1337.821,1048.50
1338.721,1062.75
1339.623,1018.75
1340.523,1002.00
1341.423,992.75
1342.323,986.50
1343.225,1024.00
1344.125,1002.50
1345.025,992.25
1345.924,982.75
1346.826,995.75
1347.725,1008.50
1348.624,1013.50
1349.524,941.00
1350.425,957.25
1351.324,980.75
1352.223,1007.75
1353.121,977.50
1354.022,983.00
1354.921,990.75
1355.819,956.25
1356.718,948.00
1357.618,941.75
1358.516,932.50
1359.415,1007.50
1360.313,944.75
1361.213,971.25
1362.111,1018.75
1363.008,982.25
1363.906,910.50
1364.806,926.75
1365.703,942.75
1366.601,931.00
1367.498,921.50
1368.397,940.50
1369.295,938.25
1370.192,939.00
1371.089,898.50
1371.987,935.25
1372.884,983.25
1373.781,901.75
1374.678,994.50
1375.574,913.25
1376.473,919.75
1377.369,941.75
1378.265,915.00
1379.161,920.25
1380.059,910.50
1380.955,971.00
1381.851,904.25
1382.747,933.75
1383.643,885.75
1384.540,892.50
1385.436,929.50
1386.331,888.25
1387.227,894.25
1388.124,883.75
1389.019,909.25
1389.914,898.75
1390.809,871.25
1391.704,953.00
1392.601,897.25
1393.495,901.75
1394.390,850.75
1395.285,863.00
1396.179,888.50
1397.075,899.25
1397.969,884.75
1398.864,883.75
1399.758,882.50
1400.652,847.25
1401.547,863.50
1402.441,888.00
1403.335,822.25
1404.229,871.75
1405.122,837.25
1406.017,860.50
1406.911,897.25
1407.804,855.25
1408.697,874.25
1409.590,857.50
1410.485,876.00
1411.378,841.00
1412.271,845.75
1413.163,871.75
1414.056,856.00
1414.949,883.50
1415.843,841.50
1416.735,875.75
1417.627,839.00
1418.520,871.50
1419.412,830.50
1420.306,868.75
1421.197,833.25
1422.089,880.50
1422.981,860.50
1423.873,837.75
1424.764,850.00
1425.657,866.75
1426.549,825.50
1427.440,888.75
1428.331,835.75
1429.222,864.25
1430.113,822.50
1431.006,846.50
1431.897,834.25
1432.787,844.50
1433.678,826.00
1434.568,826.50
1435.459,812.75
1436.351,830.00
1437.241,883.00
1438.131,845.75
1439.021,810.25
1439.911,879.00
1440.801,816.25
1441.693,834.25
1442.583,811.75
1443.472,843.50
1444.362,859.25
1445.251,787.75
1446.140,794.75
1447.030,784.75
1447.921,797.50
1448.810,804.75
1449.699,806.00
1450.588,802.25
1451.476,782.50
1452.365,815.50
1453.254,796.25
1454.144,811.75
1455.032,829.00
1455.921,798.75
1456.809,806.25
1457.697,804.75
1458.585,793.25
1459.473,768.25
1460.361,793.00
1461.251,786.50
1462.138,786.75
1463.026,796.25
1463.913,810.25
1464.801,818.50
1465.688,779.25
1466.575,784.00
1467.463,794.25
1468.351,792.00
1469.238,808.25
1470.125,801.75
1471.012,814.25
1471.899,814.75
1472.785,790.50
1473.672,814.75
1474.558,775.75
1475.446,761.25
1476.333,781.00
1477.219,756.75
1478.105,799.00
1478.991,767.25
1479.877,789.00
1480.762,760.25
1481.648,788.00
1482.534,793.50
1483.419,806.25
1484.307,769.25
1485.192,769.25
1486.077,757.50
1486.962,797.25
1487.847,801.00
1488.732,769.00
1489.617,743.00
1490.502,756.50
1491.387,770.75
1492.271,771.25
1493.156,747.75
1494.042,741.00
1494.927,769.25
1495.811,787.00
1496.695,755.75
1497.579,788.50
1498.463,782.50
1499.347,772.00
1500.231,807.50
1501.114,772.25
1501.998,756.00
1502.881,785.25
1503.765,795.75
1504.648,713.50
1505.533,756.00
1506.417,746.00
1507.300,735.25
1508.183,730.00
1509.066,740.75
1509.948,756.25
1510.831,723.00
1511.714,763.75
1512.596,693.75
1513.479,736.25
1514.361,734.00
1515.243,720.50
1516.125,759.25
1517.008,725.25
1517.890,711.50
1518.771,705.50
1519.655,772.25
1520.537,729.00
1521.419,720.50
1522.300,720.75
1523.182,724.25
1524.063,728.50
1524.944,748.50
1525.825,692.50
1526.707,703.00
1527.588,755.00
1528.468,699.50
1529.349,751.75
1530.230,767.50
1531.111,697.25
1531.991,695.00
1532.872,727.50
1533.752,689.00
1534.632,732.25
1535.513,670.75
1536.393,750.00
1537.273,722.25
1538.153,657.50
1539.032,700.25
1539.912,690.25
1540.792,698.50
1541.672,706.50
1542.551,704.25
1543.430,723.00
1544.310,670.75
1545.189,664.00
1546.068,745.50
1546.947,705.25
1547.826,711.50
1548.705,738.50
1549.584,683.25
1550.462,697.00
1551.341,725.75
1552.219,713.25
1553.098,676.75
1553.976,694.25
1554.854,693.75
1555.733,721.25
1556.611,722.00
1557.489,716.50
1558.367,691.25
1559.244,693.25
1560.122,691.00
1561.000,712.50
1561.877,686.50
1562.755,731.00
1563.632,698.00
1564.509,673.75
1565.386,700.50
1566.264,687.25
1567.141,697.75
1568.017,688.50
1568.894,690.50
1569.771,703.25
1570.648,687.00
1571.524,730.25
1572.401,684.75
1573.277,678.75
1574.153,717.00
1575.029,637.50
1575.906,653.00
1576.781,682.75
1577.657,720.25
1578.533,680.00
1579.409,682.75
1580.285,687.50
1581.160,698.75
1582.036,675.25
1582.911,677.50
1583.786,646.75
1584.662,692.25
1585.537,698.00
1586.412,665.00
1587.287,673.75
1588.160,706.25
1589.035,686.75
1589.909,681.75
1590.784,694.25
1591.658,696.00
1592.533,674.75
1593.407,649.00
1594.281,684.25
1595.155,672.50
1596.029,698.50
1596.903,631.75
1597.777,682.50
1598.651,701.75
1599.525,654.50
1600.398,680.50
1601.272,684.00
1602.144,664.50
1603.017,677.75
1603.890,699.75
1604.763,643.50
1605.636,686.00
1606.509,641.50
1607.382,655.50
1608.255,655.00
1609.128,662.25
1610.000,663.75
1610.873,693.75
1611.746,635.50
1612.616,676.00
1613.488,693.75
1614.361,645.75
1615.233,666.00
1616.105,667.50
1616.977,678.75
1617.849,664.00
1618.720,637.75
1619.592,687.75
1620.464,617.75
1621.333,680.75
1622.205,657.25
1623.076,650.25
1623.947,688.75
1624.818,695.00
1625.689,694.00
1626.560,657.25
1627.431,635.00
1628.302,676.00
1629.171,678.75
1630.042,633.00
1630.912,665.25
1631.782,634.00
1632.653,638.25
1633.523,625.25
1634.393,679.00
1635.263,659.00
1636.131,660.50
1637.001,652.00
1637.871,646.00
1638.741,635.25
1639.611,680.50
1640.480,656.25
1641.350,657.50
1642.219,627.75
1643.087,625.00
1643.956,647.25
1644.825,653.50
1645.694,676.25
1646.563,645.75
1647.432,673.50
1648.299,662.00
1649.167,701.25
1650.036,656.00
1650.904,677.75
1651.773,636.75
1652.641,636.75
1653.509,634.75
1654.376,637.50
1655.244,601.00
1656.112,664.25
1656.980,643.00
1657.847,639.00
1658.715,645.75
1659.581,644.50
1660.448,625.75
1661.316,660.75
1662.183,653.25
1663.051,574.25
1663.918,631.00
1664.783,677.25
1665.650,596.00
1666.517,669.50
1667.384,606.00
1668.251,649.25
1669.115,624.00
1669.982,624.00
1670.849,623.50
1671.715,633.50
1672.581,582.75
1673.446,618.75
1674.312,627.75
1675.178,606.00
1676.044,622.75
1676.910,655.25
1677.774,602.25
1678.639,637.75
1679.505,625.25
1680.370,668.00
1681.236,594.25
1682.099,631.00
1682.965,664.75
1683.830,596.00
1684.695,618.25
1685.560,611.75
1686.423,650.25
1687.288,647.25
1688.153,658.25
1689.017,624.75
1689.880,617.00
1690.745,610.25
1691.609,616.75
1692.473,643.00
1693.338,647.25
1694.200,618.50
1695.064,642.25
1695.928,647.50
1696.792,610.50
1697.654,601.00
1698.517,629.75
1699.381,598.25
1700.245,595.75
1701.106,613.50
1701.969,612.75
1702.833,630.50
1703.696,588.00
1704.557,601.00
1705.420,582.50
1706.283,600.25
1707.146,630.75
1708.007,597.75
1708.870,580.50
1709.732,606.50
1710.595,603.00
1711.455,578.50
1712.318,594.75
1713.180,624.75
1714.040,597.50
1714.902,641.50
1715.764,639.25
1716.626,584.75
1717.486,605.00
1718.348,603.75
1719.209,724.75
1720.071,589.25
1720.930,614.00
1721.792,623.50
1722.653,574.75
1723.512,630.75
1724.374,573.00
1725.234,614.75
1726.095,593.25
1726.954,602.00
1727.815,620.50
1728.676,633.50
1729.535,611.25
1730.395,621.00
1731.256,594.50
1732.114,597.25
1732.974,596.50
1733.834,595.75
1734.693,644.00
1735.553,619.50
1736.413,636.25
1737.272,586.75
1738.130,608.25
1738.990,634.25
1739.849,639.50
1740.707,598.50
1741.566,585.00
1742.426,609.00
1743.283,600.00
1744.142,631.25
1745.001,610.25
1745.858,627.00
1746.717,646.00
1747.576,598.00
1748.433,616.00
1749.292,592.50
1750.150,597.50
1751.007,613.75
1751.865,607.50
1752.723,586.50
1753.579,588.00
1754.438,596.00
1755.296,575.75
1756.152,602.00
1757.010,616.50
1757.865,609.50
1758.723,563.75
1759.581,580.75
1760.436,607.25
1761.294,607.75
1762.151,567.25
1763.006,603.75
1763.864,596.75
1764.721,599.75
1765.576,590.50
1766.433,580.00
1767.288,615.75
1768.144,560.50
1769.001,612.00
1769.856,573.75
1770.712,550.00
1771.568,582.50
1772.423,571.50
1773.279,622.50
1774.133,582.00
1774.989,621.50
1775.845,574.50
1776.699,572.75
1777.555,620.50
1778.409,603.50
1779.265,590.75
1780.120,581.25
1780.974,588.25
1781.829,562.00
1782.682,592.00
1783.538,606.00
1784.393,598.25
1785.246,556.25
1786.101,584.25
1786.954,562.75
1787.808,610.75
1788.661,554.00
1789.516,557.75
1790.370,591.25
1791.223,566.75
1792.077,604.75
1792.930,657.25
1793.784,538.75
1794.636,601.25
1795.490,556.75
1796.344,521.25
1797.196,604.75
1798.049,592.00
1798.901,604.75
1799.755,590.25
1800.606,606.25
1801.460,635.00
1802.311,564.00
1803.165,565.75
1804.018,536.00
1804.869,568.00
1805.722,618.50
1806.573,579.75
1807.426,573.75
1808.276,605.25
1809.129,616.00
1809.980,601.25
1810.832,605.00
1811.683,594.25
1812.535,589.00
1813.385,581.25
1814.237,625.50
1815.089,583.75
1815.940,559.00
1816.791,612.75
1817.641,610.00
1818.493,608.25
1819.343,563.75
1820.194,564.75
1821.044,614.00
1821.895,559.50
1822.745,560.75
1823.596,564.00
1824.445,546.25
1825.296,612.25
1826.145,568.50
1826.996,613.25
1827.845,599.00
1828.695,576.75
1829.544,556.00
1830.395,618.00
1831.243,551.00
1832.094,564.50
1832.942,589.75
1833.792,557.00
1834.640,539.25
1835.490,572.75
1836.338,572.75
1837.186,586.25
1838.036,579.50
1838.884,572.25
1839.733,544.00
1840.581,557.25
1841.430,604.00
1842.278,577.00
1843.127,581.75
1843.974,554.75
1844.823,577.00
1845.671,606.00
1846.519,558.50
1847.366,601.00
1848.213,526.75
1849.062,574.50
1849.909,533.75
1850.757,519.75
1851.604,586.50
1852.452,542.75
1853.298,560.75
1854.146,584.75
1854.993,542.75
1855.839,592.00
1856.687,549.00
1857.532,604.50
1858.380,578.75
1859.226,550.50
1860.073,578.25
1860.919,580.75
1861.765,554.25
1862.612,582.75
1863.457,596.75
1864.304,579.00
1865.150,550.00
1865.995,557.75
1866.842,540.00
1867.686,545.50
1868.533,528.75
1869.378,559.25
1870.223,581.00
1871.069,556.50
1871.914,569.50
1872.760,539.50
1873.604,482.25
1874.448,564.75
1875.294,579.75
1876.139,546.50
1876.984,574.25
1877.828,514.75
1878.672,563.00
1879.518,526.00
1880.361,541.75
1881.205,529.25
1882.050,560.25
1882.894,616.50
1883.739,557.50
1884.582,570.00
1885.425,547.00
1886.270,565.50
1887.113,539.25
1887.956,557.50
1888.801,565.00
1889.644,580.50
1890.486,554.75
1891.331,566.00
1892.173,556.50
1893.017,522.75
1893.860,592.50
1894.702,566.25
1895.546,562.00
1896.388,599.75
1897.230,583.25
1898.074,531.25
1898.916,526.50
1899.757,564.25
1900.601,536.75
1901.443,568.75
1902.284,581.00
1903.125,544.00
1903.969,524.25
1904.810,543.00
1905.651,538.00
1906.494,577.75
1907.335,551.50
1908.176,581.25
1909.018,578.25
1909.859,529.50
1910.700,547.25
1911.542,567.00
1912.383,560.00
1913.223,557.25
1914.064,546.25
1914.906,554.00
1915.746,579.00
1916.586,530.25
1917.428,516.25
1918.268,601.25
1919.107,583.00
1919.947,544.25
1920.789,539.00
1921.628,536.75
1922.468,512.00
1923.309,532.00
1924.148,524.25
1924.988,544.75
1925.827,539.00
1926.667,536.25
1927.507,522.50
1928.345,517.50
1929.184,578.00
1930.025,544.75
1930.864,555.00
1931.702,518.75
1932.541,505.25
1933.381,569.50
1934.219,585.50
1935.057,532.50
1935.896,505.00
1936.735,547.50
1937.573,556.25
1938.411,561.25
1939.249,532.75
1940.089,507.25
1940.927,586.50
1941.764,567.75
1942.602,528.50
1943.439,533.00
1944.278,551.75
1945.115,548.75
1945.953,572.25
1946.790,567.25
1947.628,589.50
1948.465,489.25
1949.302,536.75
1950.139,540.50
1950.976,550.00
1951.814,569.25
1952.651,549.25
1953.487,573.75
1954.323,542.75
1955.160,512.75
1955.998,522.75
1956.834,521.25
1957.670,563.25
1958.506,518.50
1959.342,518.00
1960.177,515.00
1961.015,575.75
1961.850,542.00
1962.686,566.25
1963.521,556.25
1964.357,574.00
1965.192,541.00
1966.029,573.00
1966.864,516.25
1967.699,553.25
1968.534,551.50
1969.369,534.50
1970.204,523.50
1971.040,561.00
1971.875,582.00
1972.709,544.25
1973.544,529.25
1974.378,563.75
1975.212,568.50
1976.047,558.50
1976.882,533.00
1977.716,506.25
1978.550,519.75
1979.384,494.50
1980.218,525.25
1981.052,555.75
1981.885,574.25
1982.719,542.25
1983.554,553.50
1984.388,560.00
1985.221,549.25
1986.054,568.00
1986.887,507.00
1987.720,494.50
1988.553,557.25
1989.386,563.00
1990.219,565.50
1991.053,503.25
1991.886,557.50
1992.719,539.00
1993.551,522.00
1994.383,541.25
1995.216,510.75
1996.048,536.50
1996.880,498.25
1997.712,509.75
1998.544,545.25
1999.376,489.00
2000.208,525.25
2001.040,596.50
2001.873,519.25
2002.705,490.00
2003.536,562.25
2004.367,544.25
2005.199,533.00
2006.030,505.50
2006.861,554.25
2007.692,518.00
2008.523,521.00
2009.354,557.50
2010.185,518.50
2011.016,572.00
2011.846,549.75
2012.677,532.50
2013.507,554.00
2014.338,571.75
2015.168,541.75
2015.999,554.25
2016.829,547.75
2017.659,543.50
2018.489,501.00
2019.319,530.00
2020.149,574.00
2020.980,565.75
2021.810,549.50
2022.639,530.25
2023.469,572.75
2024.298,545.25
2025.128,566.50
2025.957,537.75
2026.786,538.25
2027.615,546.25
2028.444,531.25
2029.273,529.75
2030.102,558.25
2030.931,516.75
2031.758,529.25
2032.586,517.00
2033.415,517.25
2034.243,541.75
2035.072,554.25
2035.900,523.00
2036.728,531.00
2037.556,528.50
2038.385,559.00
2039.213,544.00
2040.040,534.50
2040.868,558.00
2041.696,556.75
2042.524,516.00
2043.351,563.75
2044.179,514.00
2045.006,538.75
2045.006,538.75

Max Intensity Wave.,216.841
Max Intensity Data,5745.50
Min Intensity Wave.,1123.206
Min Intensity Data,-21.50
FWHM Wave.,400.312
FWHM Value,0.68
Pressure Wave.,685.224
Pressure Value [GPa],-23.47625
G/D Ratio,0.65366
G/D Gband Wave.,1546.217
G/D Gband Intensity,747.25
G/D Dband Wave.,1306.110
G/D Dband Intensity,1143.18

<< BACKGROUND SPECTRUM >>
Wave[dcm-1],No123
146.591,2380.00
147.626,2211.00
148.664,2173.00
149.699,2675.00
150.737,2385.00
151.772,2548.00
152.809,2495.00
153.846,2407.00
154.881,2535.00
155.918,2075.00
156.953,2408.00
157.989,2787.00
159.026,2599.00
160.060,2787.00
161.096,3075.00
162.130,2636.00
163.167,2723.00
164.200,2619.00
165.236,2818.00
166.272,2822.00
167.305,2380.00
168.341,2674.00
169.374,2947.00
170.409,2980.00
171.445,2901.00
172.477,2704.00
173.512,2524.00
174.545,2843.00
175.580,3024.00
176.614,3218.00
177.647,2984.00
178.681,3236.00
179.713,3566.00
180.747,2988.00
181.781,2876.00
182.813,3177.00
183.847,3288.00
184.878,2872.00
185.912,3137.00
186.945,3356.00
187.976,3267.00
189.010,2877.00
190.043,3016.00
191.073,3058.00
192.106,2908.00
193.137,3391.00
194.170,2671.00
195.202,3124.00
196.232,2840.00
197.265,3177.00
198.297,3259.00
199.327,2963.00
200.359,3149.00
201.388,3548.00
202.420,3110.00
203.452,3282.00
204.481,2823.00
205.512,3527.00
206.544,3273.00
207.573,3240.00
208.604,3605.00
209.635,3730.00
210.663,3135.00
211.694,3175.00
212.725,2993.00
213.753,2943.00
214.783,3593.00
215.813,3442.00
216.841,3146.00
217.871,3378.00
218.899,3082.00
219.929,3382.00
220.959,3097.00
221.986,3365.00
223.016,2960.00
224.045,3329.00
225.072,3321.00
226.101,3394.00
227.130,3454.00
228.157,2996.00
229.185,2499.00
230.214,3438.00
231.241,2996.00
232.269,2577.00
233.297,2877.00
234.323,3458.00
235.351,2988.00
236.379,3281.00
237.407,2946.00
238.433,3154.00
239.460,3309.00
240.488,3316.00
241.513,3411.00
242.540,3244.00
243.568,3429.00
244.592,3410.00
245.619,3397.00
246.646,3095.00
247.671,3120.00
248.697,2942.00
249.724,3197.00
250.748,3214.00
251.774,3179.00
252.801,3492.00
253.827,3293.00
254.850,3275.00
255.876,2825.00
256.902,3294.00
257.925,3181.00
258.951,2895.00
259.976,2943.00
260.999,3266.00
262.024,2977.00
263.049,3918.00
264.074,3303.00
265.097,3227.00
266.122,3261.00
267.146,3215.00
268.168,3412.00
269.193,2991.00
270.217,3406.00
271.241,2874.00
272.263,3071.00
273.287,3397.00
274.311,2943.00
275.332,3505.00
276.356,3044.00
277.379,3299.00
278.402,3314.00
279.424,3110.00
280.447,3031.00
281.470,2904.00
282.492,3267.00
283.513,3093.00
284.536,3388.00
285.558,3323.00
286.581,3348.00
287.601,3038.00
288.623,2990.00
289.645,3220.00
290.665,3314.00
291.687,3308.00
292.709,3300.00
293.730,3581.00
294.750,3088.00
295.771,2901.00
296.792,3216.00
297.813,3088.00
298.832,3215.00
299.853,2908.00
300.874,3134.00
301.895,3128.00
302.913,3148.00
303.934,3463.00
304.954,3193.00
305.975,3392.00
306.993,2928.00
308.013,3313.00
309.033,3202.00
310.052,3111.00
311.072,3049.00
312.090,3197.00
313.109,3482.00
314.129,3624.00
315.148,3178.00
316.165,3263.00
317.184,3443.00
318.203,2953.00
319.222,2885.00
320.238,3356.00
321.257,2967.00
322.275,2890.00
323.294,3139.00
324.312,3343.00
325.328,3509.00
326.346,3466.00
327.364,3432.00
328.382,3346.00
329.397,3278.00
330.415,3458.00
331.432,3449.00
332.450,3497.00
333.467,3716.00
334.482,2736.00
335.499,3573.00
336.516,3042.00
337.533,2702.00
338.547,2968.00
339.564,3001.00
340.580,3251.00
341.597,3168.00
342.613,3669.00
343.627,3173.00
344.643,3222.00
345.659,3330.00
346.675,3177.00
347.690,3083.00
348.704,3278.00
349.719,3045.00
350.735,2925.00
351.750,3331.00
352.765,3186.00
353.778,3128.00
354.793,3350.00
355.808,3003.00
356.822,3398.00
357.837,2804.00
358.851,3484.00
359.864,3165.00
360.878,2922.00
361.892,3149.00
362.906,3372.00
363.920,2717.00
364.932,3291.00
365.945,3324.00
366.959,3218.00
367.972,3069.00
368.986,2858.00
369.999,3619.00
371.010,2988.00
372.023,3532.00
373.036,3147.00
374.049,3605.00
375.061,3306.00
376.072,3193.00
377.084,3017.00
378.097,2871.00
379.109,3386.00
380.121,3128.00
381.133,2827.00
382.143,3323.00
383.155,2875.00
384.166,3036.00
385.178,3305.00
386.189,3374.00
387.201,2894.00
388.212,3110.00
389.221,3108.00
390.232,3178.00
391.243,3097.00
392.254,3273.00
393.264,3016.00
394.275,3416.00
395.283,3393.00
396.294,3859.00
397.304,3739.00
398.314,3305.00
399.324,3221.00
400.334,2754.00
401.344,3383.00
402.351,2823.00
403.361,3418.00
404.370,3102.00
405.380,3064.00
406.389,3538.00
407.398,3302.00
408.407,3280.00
409.414,3321.00
410.423,3540.00
411.431,2905.00
412.440,2824.00
413.448,3529.00
414.457,3054.00
415.465,2961.00
416.471,3039.00
417.479,3220.00
418.487,2962.00
419.495,3520.00
420.503,3302.00
421.510,2750.00
422.518,3376.00
423.525,3348.00
424.530,3600.00
425.537,3065.00
426.544,3480.00
427.551,3056.00
428.558,3804.00
429.565,3609.00
430.571,3063.00
431.578,3069.00
432.582,3092.00
433.588,3152.00
434.595,2763.00
435.601,3511.00
436.607,3406.00
437.612,2932.00
438.618,3517.00
439.624,3131.00
440.627,3090.00
441.633,3293.00
442.638,3816.00
443.643,3295.00
444.648,3214.00
445.653,3413.00
446.658,3098.00
447.663,3185.00
448.667,3070.00
449.672,3085.00
450.674,3147.00
451.678,2861.00
452.682,3054.00
453.687,2996.00
454.690,3839.00
455.694,3462.00
456.698,2758.00
457.702,2844.00
458.705,2961.00
459.709,2974.00
460.710,3052.00
461.713,3208.00
462.716,3233.00
463.719,3186.00
464.722,3396.00
465.725,3128.00
466.727,2996.00
467.730,3215.00
468.732,2960.00
469.735,3465.00
470.737,3097.00
471.737,3089.00
472.739,3047.00
473.741,2976.00
474.742,3247.00
475.744,3299.00
476.746,3206.00
477.747,3114.00
478.748,3340.00
479.750,3086.00
480.751,3159.00
481.752,4005.00
482.753,3289.00
483.751,3769.00
484.752,2804.00
485.753,3122.00
486.753,3054.00
487.753,3142.00
488.754,3655.00
489.754,2889.00
490.754,3517.00
491.754,3320.00
492.754,2853.00
493.753,3178.00
494.753,3090.00
495.752,3523.00
496.752,3208.00
497.749,3182.00
498.748,3024.00
499.747,3580.00
500.746,3278.00
501.745,2913.00
502.744,2897.00
503.742,3525.00
504.741,3108.00
505.739,2637.00
506.737,3099.00
507.735,3346.00
508.734,3559.00
509.732,3344.00
510.729,3523.00
511.727,3046.00
512.725,3125.00
513.720,2939.00
514.718,3416.00
515.715,2815.00
516.712,2792.00
517.709,3170.00
518.706,3086.00
519.703,3205.00
520.700,3354.00
521.696,3577.00
522.693,3088.00
523.689,3021.00
524.686,3318.00
525.682,2969.00
526.678,3655.00
527.674,3080.00
528.670,2735.00
529.666,3716.00
530.661,3650.00
531.657,3827.00
532.652,3349.00
533.648,3138.00
534.641,3424.00
535.636,3261.00
536.631,3239.00
537.626,3314.00
538.621,2869.00
539.616,2740.00
540.610,2658.00
541.605,3202.00
542.599,3237.00
543.593,3179.00
544.587,4124.00
545.581,3020.00
546.575,3237.00
547.569,3243.00
548.563,2854.00
549.557,2796.00
550.550,2921.00
551.543,2946.00
552.537,3339.00
553.530,2937.00
554.523,2981.00
555.516,3298.00
556.509,3121.00
557.502,2791.00
558.494,3371.00
559.487,3078.00
560.479,3397.00
561.472,3427.00
562.464,3283.00
563.456,3503.00
564.448,3096.00
565.440,3174.00
566.432,3550.00
567.423,3066.00
568.415,3102.00
569.404,3305.00
570.396,2993.00
571.387,3296.00
572.378,3189.00
573.369,4192.00
574.360,3891.00
575.351,3123.00
576.341,2989.00
577.332,3003.00
578.323,2829.00
579.313,3055.00
580.303,3422.00
581.293,3299.00
582.283,3187.00
583.273,3326.00
584.263,3226.00
585.253,3305.00
586.243,3370.00
587.232,2802.00
588.222,3157.00
589.211,3405.00
590.200,3271.00
591.189,3152.00
592.178,3096.00
593.167,3654.00
594.156,3478.00
595.145,3058.00
596.133,3641.00
597.122,3316.00
598.110,3353.00
599.098,3285.00
600.086,3156.00
601.074,3383.00
602.062,2973.00
603.050,2922.00
604.038,3295.00
605.025,2956.00
606.013,3378.00
607.000,3599.00
607.987,3189.00
608.975,3247.00
609.962,2973.00
610.949,3360.00
611.936,3418.00
612.922,3347.00
613.909,2850.00
614.895,3586.00
615.882,2992.00
616.868,3221.00
617.854,2923.00
618.841,3153.00
619.826,3296.00
620.812,3161.00
621.798,2942.00
622.784,3334.00
623.769,3287.00
624.755,2857.00
625.740,3258.00
626.725,2893.00
627.711,3024.00
628.698,3246.00
629.683,2946.00
630.667,3329.00
631.652,2894.00
632.637,3144.00
633.621,3337.00
634.606,3104.00
635.590,3287.00
636.574,3068.00
637.558,3268.00
638.542,3186.00
639.526,3001.00
640.510,2735.00
641.493,3196.00
642.477,3165.00
643.460,2837.00
644.444,3443.00
645.427,3435.00
646.410,2844.00
647.393,3174.00
648.376,3243.00
649.359,3082.00
650.341,3267.00
651.324,3281.00
652.307,3201.00
653.289,3142.00
654.271,3008.00
655.253,3079.00
656.235,3283.00
657.217,3427.00
658.199,2769.00
659.181,2880.00
660.163,3119.00
661.144,3042.00
662.126,3019.00
663.107,2962.00
664.088,5024.00
665.069,3419.00
666.050,2973.00
667.033,2854.00
668.014,3229.00
668.995,2693.00
669.975,3130.00
670.956,3166.00
671.936,3304.00
672.916,3114.00
673.896,3283.00
674.876,3100.00
675.856,3000.00
676.836,2909.00
677.816,2433.00
678.795,2959.00
679.775,2837.00
680.754,3181.00
681.734,3295.00
682.713,3331.00
683.692,2946.00
684.671,2803.00
685.650,2910.00
686.629,3026.00
687.607,2890.00
688.586,2933.00
689.564,3002.00
690.543,3432.00
691.523,2480.00
692.501,2996.00
693.479,3102.00
694.457,2945.00
695.435,3013.00
696.413,2801.00
697.390,2620.00
698.368,2837.00
699.345,3298.00
700.322,3083.00
701.300,3223.00
702.277,3188.00
703.254,3479.00
704.231,2681.00
705.207,3074.00
706.184,2943.00
707.161,2785.00
708.137,2983.00
709.113,2967.00
710.090,2968.00
711.068,2710.00
712.044,2750.00
713.020,3062.00
713.996,2723.00
714.971,2969.00
715.947,2961.00
716.922,2992.00
717.898,2896.00
718.873,3079.00
719.848,2846.00
720.823,2830.00
721.798,3128.00
722.773,2924.00
723.748,2691.00
724.723,3160.00
725.697,3008.00
726.672,2848.00
727.646,2624.00
728.622,3150.00
729.596,2733.00
730.570,2884.00
731.544,3228.00
732.518,3401.00
733.492,2964.00
734.466,3027.00
735.439,3164.00
736.413,3277.00
737.386,2562.00
738.359,2528.00
739.332,2615.00
740.305,2980.00
741.278,3479.00
742.251,3096.00
743.224,2900.00
744.196,2658.00
745.171,3329.00
746.143,3207.00
747.115,2881.00
748.087,2885.00
749.059,3260.00
750.031,3046.00
751.003,3898.00
751.975,3407.00
752.947,2859.00
753.918,3256.00
754.890,2716.00
755.861,2896.00
756.832,3230.00
757.803,3003.00
758.774,3028.00
759.747,2729.00
760.718,3385.00
761.689,2877.00
762.659,2714.00
763.630,3337.00
764.600,2682.00
765.570,3234.00
766.540,3310.00
767.510,3089.00
768.480,3191.00
769.450,2832.00
770.420,2953.00
771.390,2837.00
772.359,2878.00
773.329,2782.00
774.300,2664.00
775.269,2911.00
776.238,3118.00
777.207,3320.00
778.176,2632.00
779.145,2925.00
780.114,2815.00
781.083,2713.00
782.051,2877.00
783.019,2820.00
783.988,3267.00
784.956,2971.00
785.924,3118.00
786.894,3086.00
787.862,2861.00
788.830,3311.00
789.797,2747.00
790.765,2708.00
791.732,2901.00
792.700,2771.00
793.667,2743.00
794.634,2863.00
795.601,2869.00
796.568,2954.00
797.535,3006.00
798.502,3610.00
799.468,3066.00
800.437,2515.00
801.403,2773.00
802.370,3469.00
803.336,3101.00
804.302,3013.00
805.268,2591.00
806.234,2699.00
807.200,2906.00
808.166,2923.00
809.131,2727.00
810.097,3147.00
811.062,3854.00
812.027,3141.00
812.994,2707.00
813.960,2746.00
814.925,3058.00
815.889,2637.00
816.854,3194.00
817.819,2786.00
818.783,2897.00
819.748,3240.00
820.712,2859.00
821.677,2756.00
822.641,2837.00
823.605,2838.00
824.571,3316.00
825.534,2891.00
826.498,2800.00
827.462,2954.00
828.425,2805.00
829.389,3200.00
830.352,2994.00
831.315,3024.00
832.279,2604.00
833.242,2902.00
834.204,2764.00
835.167,2813.00
836.132,3216.00
837.095,2644.00
838.057,2836.00
839.020,2941.00
839.982,3006.00
840.944,2769.00
841.906,2748.00
842.868,3084.00
843.830,2638.00
844.792,3240.00
845.753,2803.00
846.715,2560.00
847.679,2733.00
848.640,2728.00
849.601,2852.00
850.562,3426.00
851.523,2837.00
852.484,2590.00
853.445,3149.00
854.406,2828.00
855.367,2853.00
856.327,3194.00
857.288,2641.00
858.248,2806.00
859.210,2804.00
860.170,2622.00
861.130,3181.00
862.090,2515.00
863.050,2744.00
864.010,2824.00
864.969,3049.00
865.929,2731.00
866.888,2619.00
867.848,2972.00
868.807,2780.00
869.766,3859.00
870.727,3307.00
871.686,3146.00
872.645,3160.00
873.604,3488.00
874.562,2891.00
875.521,2958.00
876.479,3553.00
877.437,2697.00
878.396,2705.00
879.354,3335.00
880.312,2772.00
881.270,2819.00
882.229,3290.00
883.187,2759.00
884.145,2838.00
885.102,3076.00
886.059,3015.00
887.017,3049.00
887.974,3103.00
888.931,3213.00
889.888,2589.00
890.845,2547.00
891.802,2466.00
892.758,2774.00
893.717,2559.00
894.673,2710.00
895.630,2739.00
896.586,3040.00
897.542,2825.00
898.498,2647.00
899.454,2989.00
900.410,2815.00
901.366,2821.00
902.321,3963.00
903.277,2819.00
904.232,2858.00
905.189,2579.00
906.145,2786.00
907.100,2282.00
908.055,2854.00
909.010,3077.00
909.965,2438.00
910.919,2896.00
911.874,2689.00
912.828,2952.00
913.783,2930.00
914.737,2437.00
915.693,2901.00
916.648,3039.00
917.602,3129.00
918.555,2900.00
919.509,2983.00
920.463,2914.00
921.417,2926.00
922.370,2679.00
923.324,2840.00
924.277,2810.00
925.230,2889.00
926.183,2496.00
927.138,2826.00
928.091,3104.00
929.044,2948.00
929.996,2799.00
930.949,2793.00
931.902,3013.00
932.854,2977.00
933.806,2712.00
934.758,3138.00
935.711,3123.00
936.663,2915.00
937.614,2931.00
938.568,2901.00
939.520,2513.00
940.471,2827.00
941.423,2919.00
942.374,3022.00
943.326,2879.00
944.277,2726.00
945.228,2951.00
946.179,2783.00
947.130,3225.00
948.080,2778.00
949.031,2669.00
949.984,2798.00
950.934,2887.00
951.884,2606.00
952.835,2857.00
953.785,2911.00
954.735,2740.00
955.685,2467.00
956.635,2761.00
957.585,2751.00
958.534,2742.00
959.484,2865.00
960.433,2771.00
961.383,2554.00
962.334,3135.00
963.283,2893.00
964.232,2998.00
965.181,2843.00
966.130,2896.00
967.079,2742.00
968.027,2854.00
968.976,2856.00
969.924,2750.00
970.873,2972.00
971.821,2881.00
972.769,3084.00
973.719,2985.00
974.667,2597.00
975.615,2825.00
976.562,2855.00
977.510,2557.00
978.458,2750.00
979.405,2983.00
980.352,2891.00
981.300,3138.00
982.247,2930.00
983.194,2633.00
984.141,2722.00
985.088,2875.00
986.036,2921.00
986.983,3148.00
987.930,3258.00
988.876,2517.00
989.822,3107.00
990.769,2671.00
991.715,2724.00
992.661,2524.00
993.607,2870.00
994.553,3427.00
995.498,2742.00
996.444,2405.00
997.389,2929.00
998.337,2680.00
999.282,3011.00
1000.227,2825.00
1001.173,2850.00
1002.118,2578.00
1003.062,3033.00
1004.007,2794.00
1004.952,3123.00
1005.897,3112.00
1006.841,2824.00
1007.786,2590.00
1008.730,2548.00
1009.674,3342.00
1010.618,2805.00
1011.564,2613.00
1012.508,2536.00
1013.452,3073.00
1014.396,2853.00
1015.339,2739.00
1016.283,2798.00
1017.226,2860.00
1018.170,2823.00
1019.113,3111.00
1020.056,2870.00
1020.999,2873.00
1021.942,2744.00
1022.885,3006.00
1023.828,3147.00
1024.770,2621.00
1025.715,2859.00
1026.657,2805.00
1027.600,2892.00
1028.542,3123.00
1029.484,2870.00
1030.426,2979.00
1031.368,2926.00
1032.310,2705.00
1033.251,2662.00
1034.193,2832.00
1035.135,2611.00
1036.076,2729.00
1037.017,2642.00
1037.959,2965.00
1038.900,2929.00
1039.843,2911.00
1040.784,2890.00
1041.725,2953.00
1042.665,2743.00
1043.606,2879.00
1044.547,2863.00
1045.487,2508.00
1046.427,2790.00
1047.368,2927.00
1048.308,2334.00
1049.248,2642.00
1050.188,2817.00
1051.128,2765.00
1052.067,2782.00
1053.007,2492.00
1053.947,2517.00
1054.886,2695.00
1055.827,2590.00
1056.766,3128.00
1057.706,2580.00
1058.645,2766.00
1059.584,2878.00
1060.522,3141.00
1061.461,2556.00
1062.400,2612.00
1063.338,2753.00
1064.277,2649.00
1065.215,2646.00
1066.154,2529.00
1067.092,2713.00
1068.030,2766.00
1068.968,3018.00
1069.906,3132.00
1070.843,3122.00
1071.781,2891.00
1072.720,2969.00
1073.658,2988.00
1074.595,2749.00
1075.533,2700.00
1076.470,2723.00
1077.407,3131.00
1078.344,2892.00
1079.281,2958.00
1080.217,2396.00
1081.154,2815.00
1082.091,2895.00
1083.027,2561.00
1083.964,3045.00
1084.900,2708.00
1085.836,2730.00
1086.772,3023.00
1087.708,2546.00
1088.644,2975.00
1089.580,2797.00
1090.515,2876.00
1091.451,2718.00
1092.388,2828.00
1093.324,2567.00
1094.259,3355.00
1095.194,2896.00
1096.129,2745.00
1097.064,2732.00
1097.999,2974.00
1098.934,2654.00
1099.869,2636.00
1100.803,2850.00
1101.738,2837.00
1102.672,2501.00
1103.607,2941.00
1104.541,2653.00
1105.475,2689.00
1106.409,2539.00
1107.343,2735.00
1108.277,2542.00
1109.210,2818.00
1110.144,2839.00
1111.078,2775.00
1112.011,2578.00
1112.944,2889.00
1113.878,2872.00
1114.811,2291.00
1115.744,2694.00
1116.678,2416.00
1117.611,2683.00
1118.544,2717.00
1119.477,2902.00
1120.409,2692.00
1121.342,3280.00
1122.274,2903.00
1123.206,4487.00
1124.138,2825.00
1125.070,3161.00
1126.002,2989.00
1126.934,2375.00
1127.866,2667.00
1128.798,2427.00
1129.729,2459.00
1130.661,2795.00
1131.592,2666.00
1132.523,2866.00
1133.454,2891.00
1134.385,2394.00
1135.317,2787.00
1136.247,2713.00
1137.178,2993.00
1138.109,2491.00
1139.039,3136.00
1139.970,2966.00
1140.900,2699.00
1141.831,2498.00
1142.761,2339.00
1143.691,2880.00
1144.621,2793.00
1145.551,2839.00
1146.480,2812.00
1147.410,2983.00
1148.340,2405.00
1149.269,2490.00
1150.199,2711.00
1151.128,3221.00
1152.057,2562.00
1152.979,2743.00
1153.898,2749.00
1154.819,2839.00
1155.739,2790.00
1156.658,2673.00
1157.579,2802.00
1158.498,2730.00
1159.419,2263.00
1160.338,2784.00
1161.256,2786.00
1162.177,2596.00
1163.095,2733.00
1164.016,2850.00
1164.934,3025.00
1165.852,3005.00
1166.772,2717.00
1167.690,2771.00
1168.610,2789.00
1169.528,2770.00
1170.446,2267.00
1171.365,2683.00
1172.283,2599.00
1173.202,2759.00
1174.120,2785.00
1175.037,2566.00
1175.956,2623.00
1176.873,2663.00
1177.792,2622.00
1178.709,3266.00
1179.626,2629.00
1180.544,2971.00
1181.461,2619.00
1182.379,2845.00
1183.296,2752.00
1184.212,2350.00
1185.130,2606.00
1186.046,3130.00
1186.962,2763.00
1187.880,3032.00
1188.796,2820.00
1189.714,2553.00
1190.629,2884.00
1191.545,2838.00
1192.462,2664.00
1193.378,2748.00
1194.295,2454.00
1195.210,2792.00
1196.125,2920.00
1197.042,2852.00
1197.957,2757.00
1198.872,2612.00
1199.788,2644.00
1200.703,3112.00
1201.619,2793.00
1202.534,2598.00
1203.448,2820.00
1204.364,2705.00
1205.278,2436.00
1206.192,2767.00
1207.108,3300.00
1208.022,3109.00
1208.938,2602.00
1209.851,2916.00
1210.765,2998.00
1211.680,2641.00
1212.594,2526.00
1213.507,2725.00
1214.422,3212.00
1215.335,2881.00
1216.248,2698.00
1217.163,2733.00
1218.076,3374.00
1218.990,2909.00
1219.903,2526.00
1220.816,2548.00
1221.730,2718.00
1222.642,2641.00
1223.554,2679.00
1224.469,2832.00
1225.380,2688.00
1226.292,2388.00
1227.206,2918.00
1228.118,3095.00
1229.032,2352.00
1229.943,2625.00
1230.855,2693.00
1231.768,2477.00
1232.679,2858.00
1233.590,2728.00
1234.503,2983.00
1235.414,2627.00
1236.325,2614.00
1237.238,2832.00
1238.149,2841.00
1239.059,2539.00
1239.972,2930.00
1240.882,2564.00
1241.793,2869.00
1242.705,3099.00
1243.615,2679.00
1244.525,2872.00
1245.437,2317.00
1246.347,2803.00
1247.259,2935.00
1248.168,3190.00
1249.078,2996.00
1249.989,3018.00
1250.899,2562.00
1251.808,2575.00
1252.719,2728.00
1253.628,2600.00
1254.537,3141.00
1255.448,2601.00
1256.357,2575.00
1257.266,2737.00
1258.176,2497.00
1259.085,2438.00
1259.993,2542.00
1260.904,2575.00
1261.812,2574.00
1262.720,3359.00
1263.630,2940.00
1264.538,2560.00
1265.446,2839.00
1266.356,2728.00
1267.263,2999.00
1268.171,2573.00
1269.080,2796.00
1269.988,2967.00
1270.895,2664.00
1271.804,2707.00
1272.711,2942.00
1273.619,2909.00
1274.527,2543.00
1275.434,2865.00
1276.341,2542.00
1277.248,2793.00
1278.156,3019.00
1279.063,2594.00
1279.969,2811.00
1280.877,3701.00
1281.783,2967.00
1282.690,2834.00
1283.598,2749.00
1284.503,2594.00
1285.409,2558.00
1286.317,3098.00
1287.223,3145.00
1288.128,2798.00
1289.036,2649.00
1289.941,2665.00
1290.846,2772.00
1291.751,2558.00
1292.658,2673.00
1293.563,3227.00
1294.468,2782.00
1295.375,2904.00
1296.280,2993.00
1297.184,3486.00
1298.091,2846.00
1298.995,2916.00
1299.900,3140.00
1300.806,2654.00
1301.710,2509.00
1302.614,2320.00
1303.518,3032.00
1304.424,2709.00
1305.327,2961.00
1306.231,2722.00
1307.137,2944.00
1308.040,2776.00
1308.943,2763.00
1309.847,2974.00
1310.752,2993.00
1311.655,2401.00
1312.558,2524.00
1313.463,2682.00
1314.366,2640.00
1315.269,2786.00
1316.171,2714.00
1317.076,2625.00
1317.978,2557.00
1318.881,2360.00
1319.785,2620.00
1320.687,2640.00
1321.589,2331.00
1322.491,2587.00
1323.395,2865.00
1324.297,3365.00
1325.198,2892.00
1326.102,2486.00
1327.004,2567.00
1327.905,3158.00
1328.806,2715.00
1329.709,2804.00
1330.611,2661.00
1331.512,2555.00
1332.413,3189.00
1333.316,2811.00
1334.216,2985.00
1335.117,2518.00
1336.020,2806.00
1336.920,2746.00
1337.821,2563.00
1338.721,3007.00
1339.623,2816.00
1340.523,2721.00
1341.423,2636.00
1342.323,3047.00
1343.225,2842.00
1344.125,2580.00
1345.025,2623.00
1345.924,2408.00
1346.826,3102.00
1347.725,3180.00
1348.624,2981.00
1349.524,2650.00
1350.425,2745.00
1351.324,2857.00
1352.223,2925.00
1353.121,2743.00
1354.022,2957.00
1354.921,3155.00
1355.819,2883.00
1356.718,2807.00
1357.618,2494.00
1358.516,2898.00
1359.415,3138.00
1360.313,2886.00
1361.213,2706.00
1362.111,3009.00
1363.008,3424.00
1363.906,2757.00
1364.806,2769.00
1365.703,2849.00
1366.601,2582.00
1367.498,2605.00
1368.397,2962.00
1369.295,2803.00
1370.192,2578.00
1371.089,2872.00
1371.987,2726.00
1372.884,3004.00
1373.781,2570.00
1374.678,2712.00
1375.574,2596.00
1376.473,2904.00
1377.369,2972.00
1378.265,2592.00
1379.161,2712.00
1380.059,2441.00
1380.955,2837.00
1381.851,2517.00
1382.747,2620.00
1383.643,2700.00
1384.540,2559.00
1385.436,2627.00
1386.331,2834.00
1387.227,2933.00
1388.124,2921.00
1389.019,2547.00
1389.914,2755.00
1390.809,2428.00
1391.704,3155.00
1392.601,2646.00
1393.495,3051.00
1394.390,2942.00
1395.285,3061.00
1396.179,2850.00
1397.075,2709.00
1397.969,2822.00
1398.864,2429.00
1399.758,2690.00
1400.652,2813.00
1401.547,2602.00
1402.441,2520.00
1403.335,3167.00
1404.229,2924.00
1405.122,2883.00
1406.017,2760.00
1406.911,2928.00
1407.804,3195.00
1408.697,2741.00
1409.590,2586.00
1410.485,2925.00
1411.378,2837.00
1412.271,2474.00
1413.163,2822.00
1414.056,2933.00
1414.949,3147.00
1415.843,2802.00
1416.735,2728.00
1417.627,2773.00
1418.520,2735.00
1419.412,3018.00
1420.306,2920.00
1421.197,3085.00
1422.089,2975.00
1422.981,3286.00
1423.873,2956.00
1424.764,2884.00
1425.657,2786.00
1426.549,2915.00
1427.440,2940.00
1428.331,2677.00
1429.222,2432.00
1430.113,2856.00
1431.006,2943.00
1431.897,2685.00
1432.787,2786.00
1433.678,2729.00
1434.568,2576.00
1435.459,3027.00
1436.351,2955.00
1437.241,2900.00
1438.131,2922.00
1439.021,2536.00
1439.911,2698.00
1440.801,2826.00
1441.693,3017.00
1442.583,2805.00
1443.472,2748.00
1444.362,2861.00
1445.251,2744.00
1446.140,2719.00
1447.030,3006.00
1447.921,2985.00
1448.810,2599.00
1449.699,3153.00
1450.588,2819.00
1451.476,2724.00
1452.365,2894.00
1453.254,2691.00
1454.144,2662.00
1455.032,2895.00
1455.921,2521.00
1456.809,3077.00
1457.697,2575.00
1458.585,2725.00
1459.473,2730.00
1460.361,2586.00
1461.251,2858.00
1462.138,2855.00
1463.026,2759.00
1463.913,3008.00
1464.801,2657.00
1465.688,2896.00
1466.575,2838.00
1467.463,3270.00
1468.351,2632.00
1469.238,2751.00
1470.125,2352.00
1471.012,2820.00
1471.899,2849.00
1472.785,2596.00
1473.672,2779.00
1474.558,3012.00
1475.446,2932.00
1476.333,2962.00
1477.219,2604.00
1478.105,2742.00
1478.991,2728.00
1479.877,3080.00
1480.762,2772.00
1481.648,2629.00
1482.534,2905.00
1483.419,2821.00
1484.307,2913.00
1485.192,2753.00
1486.077,2630.00
1486.962,2611.00
1487.847,2494.00
1488.732,2639.00
1489.617,2806.00
1490.502,3069.00
1491.387,2935.00
1492.271,2589.00
1493.156,2618.00
1494.042,2589.00
1494.927,2982.00
1495.811,2630.00
1496.695,2974.00
1497.579,3069.00
1498.463,2755.00
1499.347,2829.00
1500.231,2760.00
1501.114,2828.00
1501.998,3062.00
1502.881,2787.00
1503.765,3066.00
1504.648,3248.00
1505.533,2893.00
1506.417,2788.00
1507.300,2762.00
1508.183,2872.00
1509.066,2236.00
1509.948,3027.00
1510.831,3176.00
1511.714,2537.00
1512.596,2973.00
1513.479,3048.00
1514.361,3003.00
1515.243,2808.00
1516.125,2938.00
1517.008,3078.00
1517.890,2781.00
1518.771,2835.00
1519.655,2976.00
1520.537,2729.00
1521.419,2625.00
1522.300,2835.00
1523.182,2934.00
1524.063,2944.00
1524.944,3083.00
1525.825,3007.00
1526.707,2607.00
1527.588,2553.00
1528.468,2916.00
1529.349,2418.00
1530.230,2678.00
1531.111,2991.00
1531.991,2878.00
1532.872,2481.00
1533.752,2789.00
1534.632,2640.00
1535.513,2678.00
1536.393,2925.00
1537.273,3123.00
1538.153,3519.00
1539.032,2528.00
1539.912,2797.00
1540.792,2811.00
1541.672,2827.00
1542.551,2927.00
1543.430,3421.00
1544.310,2835.00
1545.189,2738.00
1546.068,3226.00
1546.947,2899.00
1547.826,3134.00
1548.705,2754.00
1549.584,3041.00
1550.462,2769.00
1551.341,2967.00
1552.219,2864.00
1553.098,2957.00
1553.976,3022.00
1554.854,3218.00
1555.733,2987.00
1556.611,2721.00
1557.489,2575.00
1558.367,2821.00
1559.244,3001.00
1560.122,2791.00
1561.000,2854.00
1561.877,3119.00
1562.755,2651.00
1563.632,2766.00
1564.509,3111.00
1565.386,3185.00
1566.264,2546.00
1567.141,2382.00
1568.017,2968.00
1568.894,2782.00
1569.771,2859.00
1570.648,2913.00
1571.524,2792.00
1572.401,2541.00
1573.277,2549.00
1574.153,2831.00
1575.029,2707.00
1575.906,3560.00
1576.781,2990.00
1577.657,2723.00
1578.533,3070.00
1579.409,2414.00
1580.285,2769.00
1581.160,3236.00
1582.036,3010.00
1582.911,2608.00
1583.786,3196.00
1584.662,2570.00
1585.537,2757.00
1586.412,2884.00
1587.287,2664.00
1588.160,2976.00
1589.035,2429.00
1589.909,2827.00
1590.784,2761.00
1591.658,2557.00
1592.533,2861.00
1593.407,2838.00
1594.281,2687.00
1595.155,3247.00
1596.029,2726.00
1596.903,2763.00
1597.777,2700.00
1598.651,3039.00
1599.525,2487.00
1600.398,2837.00
1601.272,2754.00
1602.144,3377.00
1603.017,2766.00
1603.890,3047.00
1604.763,2926.00
1605.636,2933.00
1606.509,2506.00
1607.382,2648.00
1608.255,2890.00
1609.128,3041.00
1610.000,2767.00
1610.873,2464.00
1611.746,2709.00
1612.616,2733.00
1613.488,2358.00
1614.361,2827.00
1615.233,2748.00
1616.105,3046.00
1616.977,2703.00
1617.849,2629.00
1618.720,3162.00
1619.592,3112.00
1620.464,2917.00
1621.333,3306.00
1622.205,2830.00
1623.076,2792.00
1623.947,2768.00
1624.818,3035.00
1625.689,2916.00
1626.560,2729.00
1627.431,2893.00
1628.302,3237.00
1629.171,2930.00
1630.042,3160.00
1630.912,3483.00
1631.782,3446.00
1632.653,2623.00
1633.523,3009.00
1634.393,3068.00
1635.263,2670.00
1636.131,2813.00
1637.001,2723.00
1637.871,2427.00
1638.741,2445.00
1639.611,2529.00
1640.480,2922.00
1641.350,2646.00
1642.219,2623.00
1643.087,2295.00
1643.956,3287.00
1644.825,3068.00
1645.694,3008.00
1646.563,2999.00
1647.432,2859.00
1648.299,2826.00
1649.167,2929.00
1650.036,2593.00
1650.904,2895.00
1651.773,3050.00
1652.641,2825.00
1653.509,3018.00
1654.376,2674.00
1655.244,2911.00
1656.112,2829.00
1656.980,2839.00
1657.847,2661.00
1658.715,2989.00
1659.581,2715.00
1660.448,3087.00
1661.316,2279.00
1662.183,2834.00
1663.051,2898.00
1663.918,2875.00
1664.783,2786.00
1665.650,2946.00
1666.517,2992.00
1667.384,2869.00
1668.251,2854.00
1669.115,3064.00
1669.982,2792.00
1670.849,3120.00
1671.715,2786.00
1672.581,3028.00
1673.446,2949.00
1674.312,2848.00
1675.178,3285.00
1676.044,2912.00
1676.910,2892.00
1677.774,2883.00
1678.639,2456.00
1679.505,2818.00
1680.370,2953.00
1681.236,3540.00
1682.099,2766.00
1682.965,2817.00
1683.830,2413.00
1684.695,2631.00
1685.560,2769.00
1686.423,2948.00
1687.288,2958.00
1688.153,2850.00
1689.017,2766.00
1689.880,2911.00
1690.745,2985.00
1691.609,2645.00
1692.473,2964.00
1693.338,3052.00
1694.200,3118.00
1695.064,2818.00
1695.928,2711.00
1696.792,2856.00
1697.654,3397.00
1698.517,2860.00
1699.381,2580.00
1700.245,2486.00
1701.106,3137.00
1701.969,2734.00
1702.833,2981.00
1703.696,2760.00
1704.557,2804.00
1705.420,2715.00
1706.283,2872.00
1707.146,2986.00
1708.007,2628.00
1708.870,2641.00
1709.732,2499.00
1710.595,2729.00
1711.455,2597.00
1712.318,2757.00
1713.180,3111.00
1714.040,2902.00
1714.902,2986.00
1715.764,2834.00
1716.626,2619.00
1717.486,2822.00
1718.348,3105.00
1719.209,4277.00
1720.071,2485.00
1720.930,2574.00
1721.792,2664.00
1722.653,2687.00
1723.512,2715.00
1724.374,2786.00
1725.234,2872.00
1726.095,2872.00
1726.954,2842.00
1727.815,2975.00
1728.676,2813.00
1729.535,3073.00
1730.395,2773.00
1731.256,2757.00
1732.114,2891.00
1732.974,2275.00
1733.834,3235.00
1734.693,2971.00
1735.553,2862.00
1736.413,3270.00
1737.272,2730.00
1738.130,2766.00
1738.990,2887.00
1739.849,2704.00
1740.707,3896.00
1741.566,2901.00
1742.426,2873.00
1743.283,3271.00
1744.142,2713.00
1745.001,2485.00
1745.858,2994.00
1746.717,2890.00
1747.576,2930.00
1748.433,2979.00
1749.292,3458.00
1750.150,3512.00
1751.007,3037.00
1751.865,3064.00
1752.723,2874.00
1753.579,2753.00
1754.438,3096.00
1755.296,3098.00
1756.152,2385.00
1757.010,2493.00
1757.865,3055.00
1758.723,2512.00
1759.581,3196.00
1760.436,2827.00
1761.294,3207.00
1762.151,2847.00
1763.006,2757.00
1763.864,2457.00
1764.721,3063.00
1765.576,2855.00
1766.433,3027.00
1767.288,2722.00
1768.144,2926.00
1769.001,2774.00
1769.856,2970.00
1770.712,3119.00
1771.568,2621.00
1772.423,2772.00
1773.279,2712.00
1774.133,2736.00
1774.989,3246.00
1775.845,3271.00
1776.699,3113.00
1777.555,2800.00
1778.409,3381.00
1779.265,2773.00
1780.120,2807.00
1780.974,2838.00
1781.829,2445.00
1782.682,2907.00
1783.538,2642.00
1784.393,2903.00
1785.246,2741.00
1786.101,2978.00
1786.954,3011.00
1787.808,3049.00
1788.661,2571.00
1789.516,2766.00
1790.370,2768.00
1791.223,3062.00
1792.077,2850.00
1792.930,2894.00
1793.784,2729.00
1794.636,2845.00
1795.490,2845.00
1796.344,2936.00
1797.196,2821.00
1798.049,3019.00
1798.901,2731.00
1799.755,3099.00
1800.606,2605.00
1801.460,3363.00
1802.311,3182.00
1803.165,3291.00
1804.018,3271.00
1804.869,2947.00
1805.722,3295.00
1806.573,2881.00
1807.426,2650.00
1808.276,2823.00
1809.129,2691.00
1809.980,3050.00
1810.832,3138.00
1811.683,2756.00
1812.535,3199.00
1813.385,2763.00
1814.237,3121.00
1815.089,2897.00
1815.940,3137.00
1816.791,2763.00
1817.641,2678.00
1818.493,2979.00
1819.343,2927.00
1820.194,2710.00
1821.044,2943.00
1821.895,3081.00
1822.745,2562.00
1823.596,2746.00
1824.445,3309.00
1825.296,2934.00
1826.145,2790.00
1826.996,3053.00
1827.845,2880.00
1828.695,2911.00
1829.544,2873.00
1830.395,2864.00
1831.243,2794.00
1832.094,2584.00
1832.942,3507.00
1833.792,2998.00
1834.640,2932.00
1835.490,2865.00
1836.338,2924.00
1837.186,2722.00
1838.036,2685.00
1838.884,2845.00
1839.733,3226.00
1840.581,3057.00
1841.430,2980.00
1842.278,3202.00
1843.127,2727.00
1843.974,2529.00
1844.823,3291.00
1845.671,3005.00
1846.519,2876.00
1847.366,2914.00
1848.213,2515.00
1849.062,2659.00
1849.909,2602.00
1850.757,3589.00
1851.604,2984.00
1852.452,2779.00
1853.298,3042.00
1854.146,2924.00
1854.993,2910.00
1855.839,3405.00
1856.687,2990.00
1857.532,2965.00
1858.380,2856.00
1859.226,2960.00
1860.073,2991.00
1860.919,2669.00
1861.765,2762.00
1862.612,3100.00
1863.457,3068.00
1864.304,2790.00
1865.150,3006.00
1865.995,2832.00
1866.842,2980.00
1867.686,3117.00
1868.533,2965.00
1869.378,2920.00
1870.223,2881.00
1871.069,2760.00
1871.914,2886.00
1872.760,2850.00
1873.604,2696.00
1874.448,3015.00
1875.294,3045.00
1876.139,2717.00
1876.984,3001.00
1877.828,2528.00
1878.672,2355.00
1879.518,2774.00
1880.361,3059.00
1881.205,3063.00
1882.050,2648.00
1882.894,3358.00
1883.739,2712.00
1884.582,2615.00
1885.425,2707.00
1886.270,3141.00
1887.113,2600.00
1887.956,2980.00
1888.801,2919.00
1889.644,2646.00
1890.486,2455.00
1891.331,2805.00
1892.173,2901.00
1893.017,2974.00
1893.860,3156.00
1894.702,3186.00
1895.546,2890.00
1896.388,3582.00
1897.230,3240.00
1898.074,2784.00
1898.916,2661.00
1899.757,2676.00
1900.601,3605.00
1901.443,3177.00
1902.284,3184.00
1903.125,3370.00
1903.969,3120.00
1904.810,3139.00
1905.651,2994.00
1906.494,3216.00
1907.335,3365.00
1908.176,2981.00
1909.018,2959.00
1909.859,2865.00
1910.700,2732.00
1911.542,3419.00
1912.383,2947.00
1913.223,2474.00
1914.064,3006.00
1914.906,3144.00
1915.746,3211.00
1916.586,3379.00
1917.428,2901.00
1918.268,2880.00
1919.107,2744.00
1919.947,2635.00
1920.789,2819.00
1921.628,3162.00
1922.468,2909.00
1923.309,2736.00
1924.148,3223.00
1924.988,2962.00
1925.827,2876.00
1926.667,2754.00
1927.507,2949.00
1928.345,2730.00
1929.184,3036.00
1930.025,2685.00
1930.864,3148.00
1931.702,3227.00
1932.541,2821.00
1933.381,3004.00
1934.219,3034.00
1935.057,3220.00
1935.896,2611.00
1936.735,2874.00
1937.573,2784.00
1938.411,2653.00
1939.249,3077.00
1940.089,2803.00
1940.927,3129.00
1941.764,3173.00
1942.602,2838.00
1943.439,2775.00
1944.278,2838.00
1945.115,2810.00
1945.953,2578.00
1946.790,2937.00
1947.628,3223.00
1948.465,3056.00
1949.302,3032.00
1950.139,3028.00
1950.976,2746.00
1951.814,3079.00
1952.651,2948.00
1953.487,2648.00
1954.323,3156.00
1955.160,2881.00
1955.998,3299.00
1956.834,2876.00
1957.670,2944.00
1958.506,3156.00
1959.342,3010.00
1960.177,2990.00
1961.015,3020.00
1961.850,2948.00
1962.686,2936.00
1963.521,2941.00
1964.357,3176.00
1965.192,2661.00
1966.029,3028.00
1966.864,2833.00
1967.699,3087.00
1968.534,2928.00
1969.369,3206.00
1970.204,2868.00
1971.040,2911.00
1971.875,2775.00
1972.709,2932.00
1973.544,2716.00
1974.378,2768.00
1975.212,2995.00
1976.047,2758.00
1976.882,2772.00
1977.716,3344.00
1978.550,2585.00
1979.384,2855.00
1980.218,2877.00
1981.052,2820.00
1981.885,2892.00
1982.719,2914.00
1983.554,3035.00
1984.388,3214.00
1985.221,2989.00
1986.054,3161.00
1986.887,2981.00
1987.720,2751.00
1988.553,3213.00
1989.386,2958.00
1990.219,3018.00
1991.053,3254.00
1991.886,2742.00
1992.719,3114.00
1993.551,2409.00
1994.383,3041.00
1995.216,2833.00
1996.048,2601.00
1996.880,3104.00
1997.712,2786.00
1998.544,2874.00
1999.376,3026.00
2000.208,3210.00
2001.040,3356.00
2001.873,2737.00
2002.705,2745.00
2003.536,2929.00
2004.367,2945.00
2005.199,2964.00
2006.030,2815.00
2006.861,2679.00
2007.692,2938.00
2008.523,2763.00
2009.354,2933.00
2010.185,2707.00
2011.016,3034.00
2011.846,3116.00
2012.677,2842.00
2013.507,3251.00
2014.338,3122.00
2015.168,2816.00
2015.999,3457.00
2016.829,2832.00
2017.659,3131.00
2018.489,3516.00
2019.319,2717.00
2020.149,3066.00
2020.980,2909.00
2021.810,2678.00
2022.639,2808.00
2023.469,2767.00
2024.298,2572.00
2025.128,2478.00
2025.957,2504.00
2026.786,2328.00
2027.615,2502.00
2028.444,2781.00
2029.273,2956.00
2030.102,2460.00
2030.931,2777.00
2031.758,3061.00
2032.586,2707.00
2033.415,2788.00
2034.243,2357.00
2035.072,2114.00
2035.900,2659.00
2036.728,2459.00
2037.556,2493.00
2038.385,2503.00
2039.213,2308.00
2040.040,2299.00
2040.868,2270.00
2041.696,2298.00
2042.524,2358.00
2043.351,2533.00
2044.179,2346.00
2045.006,2105.00
