RamanScope Measure Spectrum Data V3.72

<< MEASURE CONDITION >>
Exposure Type,Aver
Exposure Time [sec],15
Exposure Count,30
Measure Time,2023/07/04 12:08:38
Data Name,""
Data Comment,""
Rayleigh Wave[nm],532.0

<< SAMPLE SPECTRUM >>
Wave[dcm-1],No230
146.591,589.30
147.626,685.17
148.664,833.93
149.699,976.73
150.737,1110.00
151.772,1256.67
152.809,1430.77
153.846,1584.70
154.881,1710.23
155.918,1856.20
156.953,1924.03
157.989,2062.40
159.026,2160.33
160.060,2241.90
161.096,2255.33
162.130,2328.20
163.167,2361.10
164.200,2407.30
165.236,2456.43
166.272,2497.43
167.305,2536.93
168.341,2579.97
169.374,2650.97
170.409,2667.67
171.445,2723.17
172.477,2743.93
173.512,2782.50
174.545,2844.77
175.580,2841.20
176.614,2902.57
177.647,2893.23
178.681,2877.83
179.713,2940.53
180.747,2936.00
181.781,2996.57
182.813,2929.03
183.847,2941.27
184.878,2937.10
185.912,2934.13
186.945,2953.73
187.976,2974.57
189.010,3002.17
190.043,3003.17
191.073,3018.87
192.106,3079.00
193.137,3073.37
194.170,3130.37
195.202,3188.10
196.232,3230.43
197.265,3271.73
198.297,3278.50
199.327,3339.87
200.359,3423.03
201.388,3459.10
202.420,3491.50
203.452,3567.47
204.481,3661.53
205.512,3757.83
206.544,3891.00
207.573,3950.77
208.604,4049.47
209.635,4250.60
210.663,4436.47
211.694,4604.40
212.725,4751.73
213.753,4949.50
214.783,5128.30
215.813,5392.77
216.841,5480.03
217.871,5636.10
218.899,5748.87
219.929,5894.67
220.959,5908.33
221.986,5848.03
223.016,5741.67
224.045,5641.50
225.072,5481.70
226.101,5342.70
227.130,5098.00
228.157,4954.47
229.185,4758.30
230.214,4635.07
231.241,4455.43
232.269,4411.63
233.297,4278.10
234.323,4181.77
235.351,4143.23
236.379,4108.10
237.407,4027.90
238.433,3971.10
239.460,3981.47
240.488,3979.80
241.513,3975.60
242.540,3942.23
243.568,3986.23
244.592,4036.07
245.619,4058.30
246.646,4119.57
247.671,4097.23
248.697,4146.30
249.724,4050.67
250.748,4058.80
251.774,4068.33
252.801,4040.73
253.827,3971.53
254.850,4002.37
255.876,4016.80
256.902,4030.23
257.925,4067.33
258.951,4071.70
259.976,4106.13
260.999,4143.63
262.024,4204.27
263.049,4218.90
264.074,4253.47
265.097,4263.13
266.122,4373.03
267.146,4429.80
268.168,4463.90
269.193,4482.80
270.217,4615.40
271.241,4638.07
272.263,4763.70
273.287,4805.50
274.311,4868.90
275.332,4927.83
276.356,5027.03
277.379,5022.83
278.402,5066.57
279.424,5094.57
280.447,5012.40
281.470,5016.17
282.492,5032.33
283.513,4968.67
284.536,4941.73
285.558,4838.73
286.581,4834.03
287.601,4723.53
288.623,4659.17
289.645,4524.77
290.665,4477.47
291.687,4388.47
292.709,4332.63
293.730,4249.57
294.750,4170.53
295.771,4053.83
296.792,4036.77
297.813,3942.23
298.832,3936.13
299.853,3820.13
300.874,3772.67
301.895,3706.23
302.913,3673.50
303.934,3602.30
304.954,3554.53
305.975,3472.10
306.993,3451.80
308.013,3424.53
309.033,3324.83
310.052,3324.53
311.072,3289.47
312.090,3242.67
313.109,3256.93
314.129,3179.97
315.148,3167.57
316.165,3128.33
317.184,3100.83
318.203,3106.20
319.222,3108.83
320.238,3060.23
321.257,3060.57
322.275,3020.00
323.294,3018.00
324.312,3025.03
325.328,2976.93
326.346,2945.40
327.364,2949.53
328.382,2993.63
329.397,2987.50
330.415,2913.73
331.432,2865.67
332.450,2897.23
333.467,2864.27
334.482,2889.97
335.499,2856.97
336.516,2842.53
337.533,2855.83
338.547,2874.97
339.564,2851.30
340.580,2830.27
341.597,2846.03
342.613,2865.13
343.627,2836.67
344.643,2834.80
345.659,2849.77
346.675,2834.17
347.690,2806.93
348.704,2804.83
349.719,2844.40
350.735,2811.20
351.750,2827.17
352.765,2803.07
353.778,2809.03
354.793,2791.33
355.808,2826.67
356.822,2812.63
357.837,2781.10
358.851,2810.27
359.864,2788.93
360.878,2849.13
361.892,2851.67
362.906,2826.30
363.920,2837.17
364.932,2862.03
365.945,2826.30
366.959,2815.67
367.972,2872.37
368.986,2869.37
369.999,2872.53
371.010,2908.20
372.023,2939.73
373.036,2911.27
374.049,2951.23
375.061,2958.40
376.072,2995.53
377.084,2998.93
378.097,3017.40
379.109,3003.83
380.121,3046.80
381.133,3024.20
382.143,3052.80
383.155,3031.23
384.166,3041.13
385.178,3073.87
386.189,3052.63
387.201,3096.07
388.212,3077.70
389.221,3066.87
390.232,3097.50
391.243,3075.00
392.254,3076.33
393.264,3042.80
394.275,3055.77
395.283,3014.13
396.294,3039.13
397.304,2990.70
398.314,2988.27
399.324,2988.90
400.334,2975.30
401.344,2962.47
402.351,2953.50
403.361,2868.83
404.370,2880.90
405.380,2863.10
406.389,2856.63
407.398,2907.10
408.407,2850.20
409.414,2225.23
410.423,2804.97
411.431,2807.70
412.440,2756.63
413.448,2727.40
414.457,2729.50
415.465,2726.93
416.471,2718.73
417.479,2718.90
418.487,2679.47
419.495,2632.97
420.503,2669.17
421.510,2663.47
422.518,2638.53
423.525,2632.17
424.530,2633.90
425.537,2661.50
426.544,2637.03
427.551,2639.87
428.558,2602.53
429.565,2614.33
430.571,2611.57
431.578,2598.77
432.582,2618.37
433.588,2570.97
434.595,2590.93
435.601,2576.27
436.607,2586.80
437.612,2600.90
438.618,2540.27
439.624,2561.63
440.627,2566.83
441.633,2556.93
442.638,2574.47
443.643,2566.70
444.648,2583.10
445.653,2556.30
446.658,2547.97
447.663,2599.10
448.667,2562.33
449.672,2558.00
450.674,2588.87
451.678,2566.57
452.682,2600.73
453.687,2569.60
454.690,2573.77
455.694,2640.83
456.698,2599.37
457.702,2651.53
458.705,2602.60
459.709,2601.90
460.710,2602.20
461.713,2576.87
462.716,2678.40
463.719,2637.00
464.722,2595.63
465.725,2631.90
466.727,2637.53
467.730,2656.70
468.732,2634.67
469.735,2599.50
470.737,2641.00
471.737,2621.30
472.739,2679.07
473.741,2675.67
474.742,2667.70
475.744,2676.80
476.746,2629.17
477.747,2674.03
478.748,2676.80
479.750,2698.47
480.751,2670.07
481.752,2651.57
482.753,2643.73
483.751,2703.73
484.752,2680.40
485.753,2669.67
486.753,2684.80
487.753,2649.27
488.754,2670.93
489.754,2658.97
490.754,2655.50
491.754,2648.00
492.754,2663.60
493.753,2667.43
494.753,2656.97
495.752,2649.60
496.752,2640.67
497.749,2634.23
498.748,2631.27
499.747,2662.30
500.746,2624.17
501.745,2579.23
502.744,2582.73
503.742,2582.63
504.741,2617.03
505.739,2598.13
506.737,2566.53
507.735,2577.37
508.734,2635.47
509.732,2576.87
510.729,2559.03
511.727,2534.33
512.725,2521.87
513.720,2511.90
514.718,2540.57
515.715,2525.77
516.712,2480.97
517.709,2521.23
518.706,2473.73
519.703,2499.60
520.700,2509.23
521.696,2531.67
522.693,2465.97
523.689,2487.17
524.686,2472.77
525.682,2494.00
526.678,2527.27
527.674,2463.50
528.670,2474.63
529.666,2517.90
530.661,2514.90
531.657,2779.50
532.652,2527.53
533.648,2510.17
534.641,2578.50
535.636,2529.30
536.631,2556.90
537.626,2561.30
538.621,2513.40
539.616,2556.80
540.610,2564.27
541.605,2588.30
542.599,2534.70
543.593,2548.00
544.587,2557.90
545.581,2564.47
546.575,2589.20
547.569,2579.67
548.563,2549.83
549.557,2548.63
550.550,2609.40
551.543,2593.70
552.537,2580.87
553.530,2595.77
554.523,2550.87
555.516,2588.70
556.509,2621.07
557.502,2595.87
558.494,2584.60
559.487,2587.10
560.479,2602.03
561.472,2569.03
562.464,2614.13
563.456,2586.97
564.448,2631.50
565.440,2619.53
566.432,2615.67
567.423,2593.93
568.415,2581.47
569.404,2636.77
570.396,2613.67
571.387,2631.00
572.378,2670.50
573.369,2685.57
574.360,2626.77
575.351,2649.97
576.341,2670.27
577.332,2672.30
578.323,2687.87
579.313,2696.73
580.303,2646.93
581.293,2657.73
582.283,2697.27
583.273,2676.40
584.263,2663.70
585.253,2697.50
586.243,2746.30
587.232,2700.57
588.222,2727.33
589.211,2732.40
590.200,2723.03
591.189,2768.87
592.178,2716.80
593.167,2723.03
594.156,2709.43
595.145,2731.20
596.133,2704.50
597.122,2787.73
598.110,2766.10
599.098,2736.93
600.086,2717.90
601.074,2721.70
602.062,2705.43
603.050,2724.50
604.038,2692.10
605.025,2729.17
606.013,2692.97
607.000,2672.57
607.987,2717.37
608.975,2670.67
609.962,2694.53
610.949,2661.13
611.936,2648.57
612.922,2661.93
613.909,2678.47
614.895,2663.80
615.882,2655.20
616.868,2582.47
617.854,2616.70
618.841,2611.90
619.826,2570.53
620.812,2542.87
621.798,2516.70
622.784,2528.97
623.769,2508.20
624.755,2489.87
625.740,2495.53
626.725,2401.77
627.711,2418.50
628.698,2388.77
629.683,2409.33
630.667,2396.67
631.652,2371.60
632.637,2326.30
633.621,2358.73
634.606,2324.73
635.590,2334.97
636.574,2305.90
637.558,2259.27
638.542,2258.37
639.526,2257.37
640.510,2242.20
641.493,2182.23
642.477,2238.20
643.460,2210.70
644.444,2213.23
645.427,2226.60
646.410,2141.40
647.393,2137.93
648.376,2157.80
649.359,2146.40
650.341,2130.87
651.324,2122.37
652.307,2109.77
653.289,2106.37
654.271,2091.70
655.253,2078.63
656.235,2133.83
657.217,2091.87
658.199,2049.43
659.181,2098.37
660.163,2086.90
661.144,2042.00
662.126,2031.77
663.107,2050.47
664.088,2052.17
665.069,2025.03
666.050,2051.90
667.033,2011.83
668.014,2012.20
668.995,1987.33
669.975,1947.70
670.956,2023.40
671.936,1948.27
672.916,1942.43
673.896,1929.40
674.876,1945.00
675.856,1954.53
676.836,1899.03
677.816,1883.17
678.795,1883.70
679.775,1883.93
680.754,1885.60
681.734,1867.30
682.713,1835.10
683.692,1829.30
684.671,1840.33
685.650,1813.77
686.629,1810.00
687.607,1756.80
688.586,1757.80
689.564,1774.77
690.543,1823.50
691.523,1759.83
692.501,1743.37
693.479,1749.97
694.457,1743.33
695.435,1743.77
696.413,1710.90
697.390,1726.43
698.368,1681.50
699.345,1736.43
700.322,1649.10
701.300,1657.27
702.277,1651.33
703.254,1610.00
704.231,1642.07
705.207,1639.80
706.184,1647.10
707.161,1598.97
708.137,1611.83
709.113,1640.30
710.090,1637.33
711.068,1609.30
712.044,1609.97
713.020,1602.93
713.996,1614.53
714.971,1536.07
715.947,1567.83
716.922,1567.97
717.898,1581.57
718.873,1520.50
719.848,1553.93
720.823,1588.00
721.798,1531.67
722.773,1522.97
723.748,1579.97
724.723,1541.23
725.697,1523.83
726.672,1536.50
727.646,1531.10
728.622,1493.37
729.596,1498.97
730.570,1493.00
731.544,1530.07
732.518,1510.00
733.492,1474.57
734.466,1466.67
735.439,1517.90
736.413,1495.80
737.386,1494.73
738.359,1503.30
739.332,1471.67
740.305,1482.43
741.278,1441.87
742.251,1472.10
743.224,1461.60
744.196,1461.40
745.171,1469.43
746.143,1453.00
747.115,1450.77
748.087,1439.67
749.059,1453.03
750.031,1454.47
751.003,1424.83
751.975,1456.00
752.947,1437.63
753.918,1444.73
754.890,1441.40
755.861,1398.97
756.832,1379.80
757.803,1383.03
758.774,1390.10
759.747,1392.70
760.718,1410.97
761.689,1407.57
762.659,1381.40
763.630,1392.83
764.600,1424.13
765.570,1369.00
766.540,1359.00
767.510,1406.00
768.480,1373.27
769.450,1335.90
770.420,1313.20
771.390,1388.30
772.359,1372.63
773.329,1356.17
774.300,1347.37
775.269,1309.60
776.238,1371.77
777.207,1351.40
778.176,1357.53
779.145,1309.37
780.114,1329.50
781.083,1332.87
782.051,1347.40
783.019,1303.07
783.988,1335.10
784.956,1311.03
785.924,1299.43
786.894,1348.57
787.862,1308.33
788.830,1308.23
789.797,1292.90
790.765,1338.33
791.732,1317.70
792.700,1304.17
793.667,1275.50
794.634,1298.70
795.601,1265.47
796.568,1300.47
797.535,1308.07
798.502,1293.23
799.468,1308.00
800.437,1303.37
801.403,1291.30
802.370,1275.53
803.336,1252.40
804.302,1213.13
805.268,1284.93
806.234,1243.13
807.200,1241.67
808.166,1264.90
809.131,1238.17
810.097,1181.17
811.062,1197.53
812.027,1224.03
812.994,1230.87
813.960,1186.37
814.925,1224.83
815.889,1205.37
816.854,1270.47
817.819,1210.33
818.783,1154.20
819.748,1202.33
820.712,1215.87
821.677,1226.00
822.641,1200.37
823.605,1230.87
824.571,1208.57
825.534,1170.47
826.498,1222.67
827.462,1199.43
828.425,1197.80
829.389,1169.27
830.352,1203.23
831.315,1205.80
832.279,1200.70
833.242,1192.87
834.204,1213.63
835.167,1192.10
836.132,1207.50
837.095,1168.03
838.057,1178.67
839.020,1169.87
839.982,1153.27
840.944,1199.27
841.906,1159.67
842.868,1163.87
843.830,1183.80
844.792,1171.67
845.753,1182.47
846.715,1201.43
847.679,1182.33
848.640,1148.30
849.601,1154.97
850.562,1188.87
851.523,1136.47
852.484,1160.17
853.445,1190.13
854.406,1130.37
855.367,1152.57
856.327,1135.83
857.288,1138.77
858.248,1173.93
859.210,1114.67
860.170,1150.07
861.130,1160.37
862.090,1161.47
863.050,1185.00
864.010,1102.57
864.969,1115.47
865.929,1131.87
866.888,1130.97
867.848,1150.13
868.807,1146.33
869.766,1138.97
870.727,1121.97
871.686,1135.40
872.645,1137.27
873.604,1153.33
874.562,1090.80
875.521,1147.87
876.479,1111.30
877.437,1124.73
878.396,1115.23
879.354,1138.27
880.312,1131.10
881.270,1168.87
882.229,1163.33
883.187,1134.83
884.145,1104.47
885.102,1152.37
886.059,1091.90
887.017,1134.27
887.974,1154.73
888.931,1107.90
889.888,1121.53
890.845,1158.23
891.802,1131.90
892.758,1134.73
893.717,1121.40
894.673,1160.67
895.630,1129.27
896.586,1153.80
897.542,1143.27
898.498,1130.67
899.454,1143.00
900.410,1181.03
901.366,1141.00
902.321,1156.37
903.277,1105.97
904.232,1158.37
905.189,1127.43
906.145,1117.83
907.100,1141.07
908.055,1162.17
909.010,1152.67
909.965,1145.23
910.919,1159.83
911.874,1151.80
912.828,1185.33
913.783,1179.10
914.737,1166.50
915.693,1193.17
916.648,1153.50
917.602,1194.23
918.555,1187.37
919.509,1142.50
920.463,1162.57
921.417,1163.10
922.370,1168.90
923.324,1211.23
924.277,1187.93
925.230,1167.37
926.183,1158.87
927.138,1186.30
928.091,1153.53
929.044,1166.43
929.996,1186.27
930.949,1167.87
931.902,1227.33
932.854,1180.33
933.806,1184.70
934.758,1161.63
935.711,1199.13
936.663,1204.70
937.614,1191.67
938.568,1212.77
939.520,1203.33
940.471,1225.23
941.423,1203.67
942.374,1215.23
943.326,1197.53
944.277,1253.23
945.228,1194.80
946.179,1172.57
947.130,1214.53
948.080,1219.87
949.031,1235.47
949.984,1182.00
950.934,1187.17
951.884,1199.67
952.835,1197.90
953.785,1164.63
954.735,1174.87
955.685,1182.83
956.635,1197.77
957.585,1201.97
958.534,1224.20
959.484,1196.63
960.433,1210.07
961.383,1165.47
962.334,1181.40
963.283,1176.47
964.232,1178.37
965.181,1182.07
966.130,1201.37
967.079,1199.77
968.027,1177.17
968.976,1183.57
969.924,1177.67
970.873,1192.23
971.821,1158.97
972.769,1178.67
973.719,1170.10
974.667,1189.93
975.615,1126.00
976.562,1176.20
977.510,1171.50
978.458,1161.73
979.405,1197.83
980.352,1181.80
981.300,1172.77
982.247,1166.70
983.194,1176.63
984.141,1210.17
985.088,1190.30
986.036,1177.43
986.983,1173.77
987.930,1178.93
988.876,1187.03
989.822,1205.53
990.769,1175.77
991.715,1203.40
992.661,1176.10
993.607,1155.57
994.553,1159.43
995.498,1206.53
996.444,1202.30
997.389,1159.60
998.337,1159.33
999.282,1168.57
1000.227,1161.13
1001.173,1161.17
1002.118,1154.23
1003.062,1156.63
1004.007,1170.97
1004.952,1150.07
1005.897,1184.73
1006.841,1132.27
1007.786,1175.57
1008.730,1155.23
1009.674,1158.30
1010.618,1168.07
1011.564,1151.43
1012.508,1151.53
1013.452,1189.80
1014.396,1192.60
1015.339,1153.87
1016.283,1157.43
1017.226,1190.77
1018.170,1193.43
1019.113,1173.43
1020.056,1177.93
1020.999,1160.83
1021.942,1187.10
1022.885,1194.23
1023.828,1171.37
1024.770,1210.27
1025.715,1205.67
1026.657,1210.00
1027.600,1160.83
1028.542,1208.47
1029.484,1197.20
1030.426,1166.10
1031.368,1214.37
1032.310,1195.63
1033.251,1222.13
1034.193,1193.37
1035.135,1187.40
1036.076,1198.20
1037.017,1180.43
1037.959,1204.27
1038.900,1214.07
1039.843,1193.73
1040.784,1246.37
1041.725,1241.97
1042.665,1212.30
1043.606,1220.23
1044.547,1219.93
1045.487,1213.33
1046.427,1256.13
1047.368,1206.83
1048.308,1226.73
1049.248,1254.20
1050.188,1232.23
1051.128,1248.23
1052.067,1244.87
1053.007,1209.43
1053.947,1252.20
1054.886,1282.37
1055.827,1261.13
1056.766,1285.67
1057.706,1253.33
1058.645,1258.00
1059.584,1258.93
1060.522,1262.50
1061.461,1266.40
1062.400,1268.00
1063.338,1297.70
1064.277,1295.03
1065.215,1321.63
1066.154,1274.60
1067.092,1327.67
1068.030,1334.70
1068.968,1351.13
1069.906,1296.07
1070.843,1297.67
1071.781,1316.33
1072.720,1308.47
1073.658,1307.70
1074.595,1318.83
1075.533,1354.13
1076.470,1333.27
1077.407,1334.83
1078.344,1371.77
1079.281,1368.47
1080.217,1366.63
1081.154,1368.63
1082.091,1342.93
1083.027,1355.30
1083.964,1352.33
1084.900,1350.80
1085.836,1352.37
1086.772,1378.70
1087.708,1366.37
1088.644,1389.93
1089.580,1369.50
1090.515,1377.37
1091.451,1392.90
1092.388,1340.97
1093.324,1353.70
1094.259,1399.17
1095.194,1345.63
1096.129,1341.10
1097.064,1377.27
1097.999,1338.60
1098.934,1361.50
1099.869,1384.80
1100.803,1315.77
1101.738,1326.60
1102.672,1319.20
1103.607,1319.87
1104.541,1315.50
1105.475,1308.80
1106.409,1306.10
1107.343,1351.17
1108.277,1305.47
1109.210,1307.07
1110.144,1325.13
1111.078,1268.77
1112.011,1272.73
1112.944,1284.23
1113.878,1315.53
1114.811,1258.23
1115.744,1233.33
1116.678,1268.50
1117.611,1222.40
1118.544,1241.37
1119.477,1274.07
1120.409,1240.27
1121.342,1238.57
1122.274,1211.57
1123.206,1246.53
1124.138,1219.33
1125.070,1206.23
1126.002,1244.27
1126.934,1175.20
1127.866,1164.80
1128.798,1209.47
1129.729,1227.97
1130.661,1165.57
1131.592,1172.33
1132.523,1149.30
1133.454,1138.10
1134.385,1165.70
1135.317,1186.37
1136.247,1185.33
1137.178,1154.97
1138.109,1158.53
1139.039,1144.47
1139.970,1124.80
1140.900,1105.20
1141.831,1132.43
1142.761,1132.80
1143.691,724.40
1144.621,1126.20
1145.551,1074.43
1146.480,1140.67
1147.410,1074.87
1148.340,1110.20
1149.269,1140.87
1150.199,1109.93
1151.128,1108.87
1152.057,1102.93
1152.979,1104.77
1153.898,1108.77
1154.819,1100.13
1155.739,1077.80
1156.658,1064.53
1157.579,1095.03
1158.498,1089.30
1159.419,1074.20
1160.338,1094.73
1161.256,1073.63
1162.177,1067.33
1163.095,1067.40
1164.016,1095.83
1164.934,1048.57
1165.852,1066.20
1166.772,1054.43
1167.690,1023.43
1168.610,1061.17
1169.528,1044.90
1170.446,1100.77
1171.365,1024.63
1172.283,1055.37
1173.202,1054.37
1174.120,1052.30
1175.037,1042.57
1175.956,1022.73
1176.873,1065.73
1177.792,1051.37
1178.709,1026.33
1179.626,1070.13
1180.544,1041.40
1181.461,1042.17
1182.379,1050.73
1183.296,1047.00
1184.212,1008.80
1185.130,1047.67
1186.046,1012.60
1186.962,1007.63
1187.880,1013.70
1188.796,1027.33
1189.714,1043.80
1190.629,1087.20
1191.545,1039.70
1192.462,999.77
1193.378,1032.63
1194.295,1016.40
1195.210,1003.47
1196.125,1053.27
1197.042,1009.23
1197.957,1024.10
1198.872,1039.73
1199.788,1013.43
1200.703,1013.67
1201.619,1028.67
1202.534,1024.17
1203.448,1030.13
1204.364,1005.17
1205.278,1038.90
1206.192,1027.67
1207.108,1065.37
1208.022,1005.03
1208.938,1076.87
1209.851,1018.27
1210.765,1005.60
1211.680,1031.47
1212.594,1034.20
1213.507,1014.73
1214.422,1015.57
1215.335,1001.23
1216.248,1053.97
1217.163,1049.30
1218.076,1022.23
1218.990,1029.90
1219.903,1033.60
1220.816,1063.13
1221.730,1056.17
1222.642,1066.63
1223.554,1039.47
1224.469,1064.83
1225.380,1065.73
1226.292,1078.60
1227.206,1047.07
1228.118,1038.57
1229.032,1020.73
1229.943,1091.70
1230.855,1069.40
1231.768,1051.80
1232.679,1068.90
1233.590,1047.07
1234.503,1090.27
1235.414,1093.30
1236.325,1049.13
1237.238,1057.50
1238.149,1064.13
1239.059,1081.57
1239.972,1031.00
1240.882,1062.43
1241.793,1069.47
1242.705,1053.47
1243.615,1073.03
1244.525,1070.90
1245.437,1062.83
1246.347,1086.37
1247.259,1090.80
1248.168,1063.17
1249.078,1076.97
1249.989,1074.67
1250.899,1137.73
1251.808,1069.43
1252.719,1060.37
1253.628,1119.00
1254.537,1116.30
1255.448,1084.53
1256.357,1087.20
1257.266,1092.50
1258.176,1091.17
1259.085,1077.80
1259.993,1088.80
1260.904,1071.23
1261.812,1087.10
1262.720,1065.60
1263.630,1115.80
1264.538,1088.57
1265.446,1102.40
1266.356,1095.77
1267.263,1107.93
1268.171,1062.30
1269.080,1098.80
1269.988,1115.40
1270.895,1124.00
1271.804,1122.30
1272.711,1094.93
1273.619,1104.27
1274.527,1114.07
1275.434,1072.43
1276.341,1110.67
1277.248,1130.50
1278.156,1118.03
1279.063,1110.40
1279.969,1091.80
1280.877,1102.93
1281.783,1090.60
1282.690,1058.60
1283.598,1052.30
1284.503,1062.57
1285.409,1085.07
1286.317,1073.50
1287.223,1095.27
1288.128,1106.93
1289.036,1093.20
1289.941,1093.67
1290.846,1058.97
1291.751,1073.53
1292.658,1063.93
1293.563,1061.83
1294.468,1051.97
1295.375,1070.60
1296.280,1088.23
1297.184,1086.70
1298.091,1078.90
1298.995,1048.17
1299.900,1043.87
1300.806,1071.20
1301.710,1070.83
1302.614,1006.53
1303.518,1024.27
1304.424,1069.30
1305.327,1074.93
1306.231,1071.77
1307.137,1023.40
1308.040,1055.60
1308.943,1003.87
1309.847,1024.60
1310.752,1013.40
1311.655,1008.13
1312.558,1035.87
1313.463,1016.70
1314.366,1012.40
1315.269,991.00
1316.171,989.67
1317.076,994.30
1317.978,966.60
1318.881,969.30
1319.785,922.87
1320.687,939.23
1321.589,971.80
1322.491,991.20
1323.395,926.37
1324.297,962.83
1325.198,954.00
1326.102,983.23
1327.004,976.67
1327.905,926.20
1328.806,944.67
1329.709,957.60
1330.611,919.67
1331.512,911.60
1332.413,932.33
1333.316,960.27
1334.216,896.67
1335.117,955.13
1336.020,931.77
1336.920,905.93
1337.821,900.07
1338.721,949.03
1339.623,933.97
1340.523,912.33
1341.423,900.07
1342.323,874.90
1343.225,891.57
1344.125,908.53
1345.025,897.37
1345.924,869.67
1346.826,875.30
1347.725,864.97
1348.624,880.03
1349.524,866.43
1350.425,866.43
1351.324,866.70
1352.223,874.57
1353.121,883.37
1354.022,884.97
1354.921,863.17
1355.819,845.30
1356.718,858.30
1357.618,845.63
1358.516,852.07
1359.415,843.37
1360.313,875.97
1361.213,817.97
1362.111,846.80
1363.008,860.63
1363.906,827.43
1364.806,841.70
1365.703,838.07
1366.601,818.50
1367.498,809.93
1368.397,820.80
1369.295,778.73
1370.192,799.57
1371.089,824.50
1371.987,794.17
1372.884,787.07
1373.781,769.80
1374.678,783.87
1375.574,790.30
1376.473,772.63
1377.369,800.57
1378.265,787.93
1379.161,811.60
1380.059,779.87
1380.955,790.73
1381.851,771.03
1382.747,749.03
1383.643,739.90
1384.540,775.57
1385.436,745.73
1386.331,795.00
1387.227,767.13
1388.124,758.47
1389.019,758.90
1389.914,790.93
1390.809,768.53
1391.704,756.77
1392.601,776.63
1393.495,702.77
1394.390,754.73
1395.285,718.70
1396.179,741.30
1397.075,730.40
1397.969,736.13
1398.864,729.40
1399.758,686.37
1400.652,743.87
1401.547,733.33
1402.441,732.97
1403.335,772.87
1404.229,741.50
1405.122,733.67
1406.017,707.50
1406.911,708.07
1407.804,729.80
1408.697,709.43
1409.590,727.40
1410.485,702.60
1411.378,698.27
1412.271,703.33
1413.163,731.60
1414.056,690.97
1414.949,694.90
1415.843,719.57
1416.735,723.10
1417.627,663.13
1418.520,676.60
1419.412,748.70
1420.306,718.47
1421.197,699.87
1422.089,710.53
1422.981,748.47
1423.873,728.87
1424.764,715.03
1425.657,755.00
1426.549,698.37
1427.440,685.83
1428.331,700.10
1429.222,722.03
1430.113,659.77
1431.006,683.67
1431.897,712.37
1432.787,673.10
1433.678,673.27
1434.568,704.57
1435.459,685.37
1436.351,677.03
1437.241,658.73
1438.131,686.20
1439.021,684.67
1439.911,666.47
1440.801,694.53
1441.693,692.43
1442.583,634.20
1443.472,683.60
1444.362,679.43
1445.251,724.27
1446.140,665.80
1447.030,680.20
1447.921,671.93
1448.810,642.30
1449.699,635.37
1450.588,659.63
1451.476,641.07
1452.365,668.80
1453.254,634.03
1454.144,673.70
1455.032,652.90
1455.921,659.17
1456.809,633.73
1457.697,653.60
1458.585,651.73
1459.473,627.93
1460.361,638.93
1461.251,679.13
1462.138,670.53
1463.026,657.60
1463.913,617.43
1464.801,661.67
1465.688,668.00
1466.575,622.13
1467.463,657.33
1468.351,657.07
1469.238,639.60
1470.125,632.27
1471.012,654.43
1471.899,629.57
1472.785,641.37
1473.672,632.10
1474.558,662.23
1475.446,637.80
1476.333,633.33
1477.219,646.80
1478.105,645.57
1478.991,628.67
1479.877,646.13
1480.762,590.90
1481.648,601.87
1482.534,626.07
1483.419,622.97
1484.307,584.00
1485.192,609.07
1486.077,614.73
1486.962,626.27
1487.847,565.53
1488.732,615.07
1489.617,624.00
1490.502,602.93
1491.387,617.93
1492.271,617.13
1493.156,610.23
1494.042,602.77
1494.927,587.83
1495.811,592.07
1496.695,619.93
1497.579,608.90
1498.463,611.60
1499.347,608.93
1500.231,606.47
1501.114,581.20
1501.998,534.27
1502.881,599.63
1503.765,639.80
1504.648,585.53
1505.533,594.20
1506.417,591.60
1507.300,586.87
1508.183,559.00
1509.066,585.60
1509.948,545.60
1510.831,624.07
1511.714,601.33
1512.596,598.53
1513.479,605.73
1514.361,627.80
1515.243,619.90
1516.125,597.70
1517.008,578.90
1517.890,562.70
1518.771,594.57
1519.655,589.53
1520.537,622.77
1521.419,560.97
1522.300,518.80
1523.182,567.63
1524.063,543.03
1524.944,621.43
1525.825,580.37
1526.707,550.97
1527.588,561.70
1528.468,586.17
1529.349,586.43
1530.230,554.50
1531.111,599.03
1531.991,548.03
1532.872,550.90
1533.752,595.37
1534.632,568.03
1535.513,577.97
1536.393,544.63
1537.273,556.80
1538.153,569.20
1539.032,558.40
1539.912,525.17
1540.792,507.17
1541.672,539.60
1542.551,557.53
1543.430,580.47
1544.310,556.00
1545.189,564.57
1546.068,522.63
1546.947,581.43
1547.826,559.53
1548.705,503.33
1549.584,520.27
1550.462,580.90
1551.341,558.83
1552.219,549.23
1553.098,520.60
1553.976,565.00
1554.854,553.33
1555.733,559.03
1556.611,534.37
1557.489,540.57
1558.367,549.40
1559.244,561.03
1560.122,540.10
1561.000,549.93
1561.877,517.60
1562.755,532.53
1563.632,552.87
1564.509,515.47
1565.386,581.47
1566.264,518.93
1567.141,547.97
1568.017,506.17
1568.894,524.83
1569.771,537.03
1570.648,523.83
1571.524,566.97
1572.401,530.40
1573.277,532.73
1574.153,515.40
1575.029,533.67
1575.906,558.53
1576.781,492.93
1577.657,541.10
1578.533,528.70
1579.409,511.23
1580.285,562.90
1581.160,540.80
1582.036,541.27
1582.911,527.90
1583.786,553.00
1584.662,529.80
1585.537,541.10
1586.412,509.40
1587.287,509.93
1588.160,489.77
1589.035,536.57
1589.909,522.57
1590.784,553.13
1591.658,531.40
1592.533,502.33
1593.407,490.63
1594.281,514.47
1595.155,543.60
1596.029,501.30
1596.903,519.40
1597.777,529.80
1598.651,524.43
1599.525,519.70
1600.398,545.83
1601.272,530.67
1602.144,506.33
1603.017,509.57
1603.890,506.07
1604.763,526.50
1605.636,513.90
1606.509,531.60
1607.382,527.07
1608.255,530.30
1609.128,506.67
1610.000,498.03
1610.873,509.73
1611.746,530.23
1612.616,494.63
1613.488,514.67
1614.361,504.50
1615.233,499.33
1616.105,504.27
1616.977,471.70
1617.849,479.23
1618.720,507.53
1619.592,525.17
1620.464,493.47
1621.333,507.77
1622.205,507.53
1623.076,511.13
1623.947,506.23
1624.818,519.43
1625.689,512.80
1626.560,499.47
1627.431,468.13
1628.302,518.27
1629.171,485.87
1630.042,501.70
1630.912,475.13
1631.782,499.50
1632.653,475.10
1633.523,497.90
1634.393,543.20
1635.263,506.03
1636.131,483.00
1637.001,509.53
1637.871,505.90
1638.741,528.97
1639.611,492.50
1640.480,470.30
1641.350,477.20
1642.219,502.17
1643.087,478.47
1643.956,496.40
1644.825,498.90
1645.694,486.63
1646.563,516.83
1647.432,506.63
1648.299,480.10
1649.167,520.17
1650.036,467.57
1650.904,481.97
1651.773,476.13
1652.641,491.50
1653.509,471.27
1654.376,491.77
1655.244,490.80
1656.112,468.73
1656.980,479.27
1657.847,492.60
1658.715,517.93
1659.581,487.77
1660.448,508.43
1661.316,475.97
1662.183,483.53
1663.051,487.70
1663.918,459.33
1664.783,485.60
1665.650,487.43
1666.517,471.17
1667.384,473.77
1668.251,477.80
1669.115,441.93
1669.982,475.07
1670.849,460.10
1671.715,435.03
1672.581,484.37
1673.446,448.70
1674.312,457.93
1675.178,443.70
1676.044,485.33
1676.910,487.40
1677.774,469.70
1678.639,489.60
1679.505,492.73
1680.370,481.50
1681.236,478.43
1682.099,486.50
1682.965,461.40
1683.830,520.83
1684.695,477.47
1685.560,474.07
1686.423,495.50
1687.288,494.50
1688.153,482.50
1689.017,472.87
1689.880,508.10
1690.745,464.03
1691.609,463.80
1692.473,484.13
1693.338,463.13
1694.200,495.43
1695.064,475.17
1695.928,486.60
1696.792,450.07
1697.654,457.30
1698.517,466.00
1699.381,488.10
1700.245,469.77
1701.106,499.87
1701.969,457.53
1702.833,460.53
1703.696,477.03
1704.557,480.13
1705.420,458.97
1706.283,430.77
1707.146,458.47
1708.007,460.53
1708.870,501.40
1709.732,441.83
1710.595,490.40
1711.455,465.43
1712.318,469.07
1713.180,493.27
1714.040,467.70
1714.902,485.47
1715.764,449.37
1716.626,469.07
1717.486,459.33
1718.348,448.90
1719.209,491.17
1720.071,450.67
1720.930,474.47
1721.792,449.27
1722.653,471.07
1723.512,487.33
1724.374,491.47
1725.234,476.23
1726.095,429.27
1726.954,443.37
1727.815,451.60
1728.676,470.20
1729.535,472.63
1730.395,476.80
1731.256,460.90
1732.114,442.30
1732.974,469.03
1733.834,417.03
1734.693,483.83
1735.553,436.33
1736.413,440.83
1737.272,460.53
1738.130,445.73
1738.990,481.83
1739.849,497.43
1740.707,399.50
1741.566,463.70
1742.426,422.10
1743.283,449.50
1744.142,447.03
1745.001,464.43
1745.858,431.03
1746.717,424.87
1747.576,448.43
1748.433,430.20
1749.292,426.33
1750.150,471.57
1751.007,461.30
1751.865,480.27
1752.723,459.93
1753.579,432.00
1754.438,457.57
1755.296,475.37
1756.152,457.43
1757.010,462.03
1757.865,439.60
1758.723,463.37
1759.581,472.23
1760.436,423.37
1761.294,453.33
1762.151,459.07
1763.006,449.87
1763.864,444.70
1764.721,442.17
1765.576,412.77
1766.433,419.87
1767.288,500.20
1768.144,431.10
1769.001,458.43
1769.856,423.33
1770.712,446.43
1771.568,451.13
1772.423,430.37
1773.279,461.37
1774.133,434.87
1774.989,435.57
1775.845,495.33
1776.699,443.37
1777.555,444.80
1778.409,415.83
1779.265,399.17
1780.120,439.97
1780.974,428.20
1781.829,453.47
1782.682,427.97
1783.538,464.33
1784.393,445.87
1785.246,449.40
1786.101,442.63
1786.954,433.63
1787.808,437.07
1788.661,438.90
1789.516,428.20
1790.370,429.57
1791.223,451.17
1792.077,448.17
1792.930,455.97
1793.784,444.40
1794.636,410.27
1795.490,423.63
1796.344,432.50
1797.196,402.80
1798.049,431.07
1798.901,429.37
1799.755,456.30
1800.606,416.43
1801.460,450.80
1802.311,431.77
1803.165,450.70
1804.018,456.03
1804.869,446.17
1805.722,440.70
1806.573,449.63
1807.426,455.27
1808.276,452.80
1809.129,426.10
1809.980,455.23
1810.832,408.33
1811.683,420.07
1812.535,455.07
1813.385,407.30
1814.237,396.37
1815.089,411.93
1815.940,441.30
1816.791,426.87
1817.641,437.17
1818.493,404.97
1819.343,456.00
1820.194,407.53
1821.044,458.40
1821.895,418.23
1822.745,426.27
1823.596,417.97
1824.445,461.80
1825.296,444.57
1826.145,446.47
1826.996,365.57
1827.845,416.47
1828.695,434.13
1829.544,425.43
1830.395,429.10
1831.243,430.23
1832.094,444.63
1832.942,452.30
1833.792,414.57
1834.640,431.60
1835.490,425.73
1836.338,394.63
1837.186,424.43
1838.036,455.93
1838.884,398.93
1839.733,448.87
1840.581,448.73
1841.430,460.07
1842.278,447.00
1843.127,418.23
1843.974,398.93
1844.823,395.97
1845.671,433.77
1846.519,447.77
1847.366,441.63
1848.213,434.87
1849.062,416.97
1849.909,450.83
1850.757,412.77
1851.604,403.07
1852.452,431.87
1853.298,411.00
1854.146,434.77
1854.993,432.70
1855.839,436.80
1856.687,405.97
1857.532,430.40
1858.380,419.90
1859.226,439.77
1860.073,430.73
1860.919,415.97
1861.765,418.57
1862.612,458.07
1863.457,416.37
1864.304,417.07
1865.150,433.67
1865.995,422.33
1866.842,413.10
1867.686,419.83
1868.533,395.83
1869.378,421.10
1870.223,398.47
1871.069,398.20
1871.914,403.40
1872.760,425.93
1873.604,414.53
1874.448,440.87
1875.294,450.97
1876.139,381.23
1876.984,414.80
1877.828,358.87
1878.672,427.17
1879.518,417.50
1880.361,406.90
1881.205,420.30
1882.050,417.73
1882.894,388.33
1883.739,397.90
1884.582,429.43
1885.425,411.20
1886.270,377.43
1887.113,402.17
1887.956,451.10
1888.801,436.40
1889.644,419.80
1890.486,397.13
1891.331,386.80
1892.173,414.07
1893.017,407.60
1893.860,456.13
1894.702,413.60
1895.546,414.13
1896.388,410.97
1897.230,394.23
1898.074,414.40
1898.916,403.90
1899.757,421.33
1900.601,420.97
1901.443,378.80
1902.284,419.03
1903.125,385.83
1903.969,430.00
1904.810,392.13
1905.651,397.80
1906.494,406.80
1907.335,409.50
1908.176,388.70
1909.018,437.97
1909.859,421.17
1910.700,401.03
1911.542,402.97
1912.383,418.43
1913.223,394.23
1914.064,454.30
1914.906,391.37
1915.746,416.17
1916.586,431.77
1917.428,402.13
1918.268,380.87
1919.107,418.90
1919.947,423.90
1920.789,430.80
1921.628,390.33
1922.468,413.77
1923.309,397.30
1924.148,434.30
1924.988,412.03
1925.827,393.83
1926.667,409.83
1927.507,415.23
1928.345,406.00
1929.184,410.40
1930.025,399.73
1930.864,429.37
1931.702,437.90
1932.541,431.30
1933.381,374.00
1934.219,417.67
1935.057,410.27
1935.896,407.57
1936.735,397.77
1937.573,420.90
1938.411,405.03
1939.249,380.70
1940.089,358.80
1940.927,395.27
1941.764,389.90
1942.602,401.47
1943.439,433.70
1944.278,433.00
1945.115,323.57
1945.953,401.13
1946.790,367.63
1947.628,406.07
1948.465,383.90
1949.302,430.03
1950.139,418.47
1950.976,434.37
1951.814,385.20
1952.651,436.63
1953.487,397.47
1954.323,391.33
1955.160,402.77
1955.998,416.27
1956.834,394.17
1957.670,386.00
1958.506,426.03
1959.342,409.93
1960.177,425.57
1961.015,410.23
1961.850,409.27
1962.686,380.60
1963.521,396.57
1964.357,389.17
1965.192,407.80
1966.029,411.00
1966.864,368.63
1967.699,414.03
1968.534,388.20
1969.369,384.27
1970.204,403.47
1971.040,338.73
1971.875,409.50
1972.709,410.73
1973.544,417.43
1974.378,377.57
1975.212,406.13
1976.047,418.67
1976.882,383.70
1977.716,415.30
1978.550,412.87
1979.384,401.27
1980.218,368.23
1981.052,407.30
1981.885,413.03
1982.719,397.57
1983.554,404.03
1984.388,410.87
1985.221,408.53
1986.054,409.30
1986.887,357.07
1987.720,391.83
1988.553,401.27
1989.386,404.80
1990.219,417.23
1991.053,380.40
1991.886,399.33
1992.719,366.07
1993.551,378.53
1994.383,422.83
1995.216,409.37
1996.048,407.60
1996.880,415.03
1997.712,407.13
1998.544,376.70
1999.376,358.70
2000.208,423.07
2001.040,417.00
2001.873,417.07
2002.705,379.83
2003.536,354.43
2004.367,441.63
2005.199,412.23
2006.030,390.97
2006.861,382.73
2007.692,385.30
2008.523,380.33
2009.354,380.67
2010.185,346.43
2011.016,383.43
2011.846,407.60
2012.677,384.10
2013.507,398.63
2014.338,383.47
2015.168,385.53
2015.999,387.27
2016.829,418.93
2017.659,381.57
2018.489,408.07
2019.319,398.43
2020.149,425.27
2020.980,400.27
2021.810,404.03
2022.639,398.27
2023.469,388.63
2024.298,434.53
2025.128,394.30
2025.957,403.93
2026.786,375.17
2027.615,394.10
2028.444,403.03
2029.273,397.57
2030.102,417.30
2030.931,416.07
2031.758,388.40
2032.586,396.97
2033.415,411.70
2034.243,377.03
2035.072,390.30
2035.900,416.90
2036.728,392.97
2037.556,405.37
2038.385,411.40
2039.213,423.37
2040.040,386.07
2040.868,393.07
2041.696,411.63
2042.524,368.23
2043.351,423.73
2044.179,400.27
2045.006,383.10
2045.006,383.10

Max Intensity Wave.,220.959
Max Intensity Data,5908.33
Min Intensity Wave.,1945.115
Min Intensity Data,323.57
FWHM Wave.,388.232
FWHM Value,26.07
Pressure Wave.,684.671
Pressure Value [GPa],-24.91530
G/D Ratio,0.54090
G/D Gband Wave.,1565.398
G/D Gband Intensity,581.48
G/D Dband Wave.,1305.454
G/D Dband Intensity,1075.02

<< BACKGROUND SPECTRUM >>
Wave[dcm-1],No230
146.591,2215.00
147.626,2075.00
148.664,2017.00
149.699,2491.00
150.737,2231.00
151.772,2391.00
152.809,2363.00
153.846,2263.00
154.881,2379.00
155.918,1943.00
156.953,2295.00
157.989,2554.00
159.026,2419.00
160.060,2579.00
161.096,2854.00
162.130,2474.00
163.167,2564.00
164.200,2450.00
165.236,2639.00
166.272,2668.00
167.305,2260.00
168.341,2529.00
169.374,2729.00
170.409,2778.00
171.445,2693.00
172.477,2505.00
173.512,2358.00
174.545,2639.00
175.580,2853.00
176.614,2982.00
177.647,2775.00
178.681,3045.00
179.713,3294.00
180.747,2787.00
181.781,2641.00
182.813,2954.00
183.847,3050.00
184.878,2709.00
185.912,2962.00
186.945,3103.00
187.976,3020.00
189.010,2681.00
190.043,2818.00
191.073,2924.00
192.106,2706.00
193.137,3165.00
194.170,2530.00
195.202,2880.00
196.232,2672.00
197.265,2932.00
198.297,3046.00
199.327,2757.00
200.359,2916.00
201.388,3296.00
202.420,2912.00
203.452,3096.00
204.481,2682.00
205.512,3297.00
206.544,3024.00
207.573,3032.00
208.604,3388.00
209.635,3477.00
210.663,2898.00
211.694,2929.00
212.725,2809.00
213.753,2765.00
214.783,3375.00
215.813,3188.00
216.841,3026.00
217.871,3150.00
218.899,2918.00
219.929,3079.00
220.959,2869.00
221.986,3145.00
223.016,2760.00
224.045,3104.00
225.072,3099.00
226.101,3147.00
227.130,3251.00
228.157,2796.00
229.185,2348.00
230.214,3162.00
231.241,2834.00
232.269,2423.00
233.297,2669.00
234.323,3201.00
235.351,2761.00
236.379,3044.00
237.407,2755.00
238.433,2915.00
239.460,3062.00
240.488,3063.00
241.513,3172.00
242.540,3119.00
243.568,3170.00
244.592,3173.00
245.619,3191.00
246.646,2876.00
247.671,2947.00
248.697,2740.00
249.724,3019.00
250.748,3003.00
251.774,2964.00
252.801,3255.00
253.827,3132.00
254.850,3071.00
255.876,2662.00
256.902,3125.00
257.925,2951.00
258.951,2720.00
259.976,2755.00
260.999,3061.00
262.024,2755.00
263.049,3615.00
264.074,3093.00
265.097,3038.00
266.122,3023.00
267.146,3026.00
268.168,3210.00
269.193,2874.00
270.217,3176.00
271.241,2742.00
272.263,2857.00
273.287,3164.00
274.311,2757.00
275.332,3269.00
276.356,2796.00
277.379,3074.00
278.402,3113.00
279.424,2891.00
280.447,2902.00
281.470,2712.00
282.492,3041.00
283.513,2882.00
284.536,3099.00
285.558,3113.00
286.581,3048.00
287.601,2823.00
288.623,2773.00
289.645,3074.00
290.665,3090.00
291.687,3121.00
292.709,3099.00
293.730,3379.00
294.750,2876.00
295.771,2772.00
296.792,3030.00
297.813,2926.00
298.832,2987.00
299.853,2724.00
300.874,2928.00
301.895,2928.00
302.913,2949.00
303.934,3234.00
304.954,3000.00
305.975,3184.00
306.993,2713.00
308.013,3078.00
309.033,3037.00
310.052,2881.00
311.072,2872.00
312.090,3030.00
313.109,3221.00
314.129,3410.00
315.148,2999.00
316.165,3032.00
317.184,3240.00
318.203,2739.00
319.222,2720.00
320.238,3107.00
321.257,2776.00
322.275,2689.00
323.294,2950.00
324.312,3104.00
325.328,3238.00
326.346,3289.00
327.364,3219.00
328.382,3108.00
329.397,3056.00
330.415,3220.00
331.432,3227.00
332.450,3226.00
333.467,3457.00
334.482,2573.00
335.499,3344.00
336.516,2886.00
337.533,2572.00
338.547,2814.00
339.564,2847.00
340.580,3096.00
341.597,2933.00
342.613,3356.00
343.627,2960.00
344.643,3006.00
345.659,3076.00
346.675,2947.00
347.690,2872.00
348.704,3081.00
349.719,2856.00
350.735,2757.00
351.750,3151.00
352.765,3000.00
353.778,2982.00
354.793,3164.00
355.808,2811.00
356.822,3170.00
357.837,2645.00
358.851,3253.00
359.864,2992.00
360.878,2718.00
361.892,2924.00
362.906,3159.00
363.920,2587.00
364.932,3072.00
365.945,3104.00
366.959,3029.00
367.972,2911.00
368.986,2731.00
369.999,3368.00
371.010,2828.00
372.023,3311.00
373.036,2935.00
374.049,3354.00
375.061,3076.00
376.072,2973.00
377.084,2838.00
378.097,2687.00
379.109,3180.00
380.121,2961.00
381.133,2683.00
382.143,3113.00
383.155,2711.00
384.166,2885.00
385.178,3078.00
386.189,3210.00
387.201,2678.00
388.212,2882.00
389.221,2914.00
390.232,2989.00
391.243,2909.00
392.254,3004.00
393.264,2825.00
394.275,3197.00
395.283,3195.00
396.294,3570.00
397.304,3481.00
398.314,3075.00
399.324,2999.00
400.334,2654.00
401.344,3121.00
402.351,2630.00
403.361,3230.00
404.370,2958.00
405.380,2916.00
406.389,3330.00
407.398,3052.00
408.407,3052.00
409.414,3708.00
410.423,3293.00
411.431,2725.00
412.440,2681.00
413.448,3336.00
414.457,2848.00
415.465,2787.00
416.471,2862.00
417.479,2971.00
418.487,2809.00
419.495,3320.00
420.503,3083.00
421.510,2608.00
422.518,3154.00
423.525,3167.00
424.530,3364.00
425.537,2831.00
426.544,3193.00
427.551,2825.00
428.558,3558.00
429.565,3376.00
430.571,2862.00
431.578,2883.00
432.582,2839.00
433.588,2945.00
434.595,2588.00
435.601,3265.00
436.607,3211.00
437.612,2718.00
438.618,3350.00
439.624,2920.00
440.627,2914.00
441.633,3127.00
442.638,3572.00
443.643,3088.00
444.648,2984.00
445.653,3168.00
446.658,2903.00
447.663,2981.00
448.667,2880.00
449.672,2912.00
450.674,2945.00
451.678,2718.00
452.682,2858.00
453.687,2836.00
454.690,3569.00
455.694,3203.00
456.698,2544.00
457.702,2609.00
458.705,2789.00
459.709,2799.00
460.710,2855.00
461.713,3049.00
462.716,3010.00
463.719,2982.00
464.722,3190.00
465.725,2943.00
466.727,2814.00
467.730,3009.00
468.732,2768.00
469.735,3297.00
470.737,2886.00
471.737,2888.00
472.739,2871.00
473.741,2789.00
474.742,3055.00
475.744,3053.00
476.746,3044.00
477.747,2934.00
478.748,3150.00
479.750,2902.00
480.751,2982.00
481.752,3701.00
482.753,3080.00
483.751,3500.00
484.752,2597.00
485.753,2936.00
486.753,2830.00
487.753,2980.00
488.754,3401.00
489.754,2699.00
490.754,3296.00
491.754,3092.00
492.754,2653.00
493.753,3007.00
494.753,2898.00
495.752,3316.00
496.752,3024.00
497.749,2962.00
498.748,2850.00
499.747,3332.00
500.746,3072.00
501.745,2781.00
502.744,2753.00
503.742,3325.00
504.741,2924.00
505.739,2476.00
506.737,2911.00
507.735,3099.00
508.734,3299.00
509.732,3125.00
510.729,3312.00
511.727,2870.00
512.725,2898.00
513.720,2794.00
514.718,3230.00
515.715,2673.00
516.712,2645.00
517.709,2956.00
518.706,2917.00
519.703,3036.00
520.700,3175.00
521.696,3282.00
522.693,2917.00
523.689,2818.00
524.686,3177.00
525.682,2802.00
526.678,3416.00
527.674,2935.00
528.670,2604.00
529.666,3467.00
530.661,3472.00
531.657,3100.00
532.652,3135.00
533.648,2992.00
534.641,3150.00
535.636,3040.00
536.631,3077.00
537.626,3123.00
538.621,2761.00
539.616,2576.00
540.610,2493.00
541.605,2963.00
542.599,3051.00
543.593,2979.00
544.587,3872.00
545.581,2847.00
546.575,3010.00
547.569,3002.00
548.563,2690.00
549.557,2656.00
550.550,2727.00
551.543,2713.00
552.537,3132.00
553.530,2728.00
554.523,2789.00
555.516,3095.00
556.509,2919.00
557.502,2617.00
558.494,3172.00
559.487,2882.00
560.479,3158.00
561.472,3254.00
562.464,3110.00
563.456,3280.00
564.448,2901.00
565.440,2964.00
566.432,3360.00
567.423,2889.00
568.415,2912.00
569.404,3063.00
570.396,2821.00
571.387,3113.00
572.378,2978.00
573.369,3892.00
574.360,3662.00
575.351,2946.00
576.341,2830.00
577.332,2865.00
578.323,2669.00
579.313,2852.00
580.303,3245.00
581.293,3149.00
582.283,2982.00
583.273,3138.00
584.263,3024.00
585.253,3087.00
586.243,3099.00
587.232,2689.00
588.222,2948.00
589.211,3157.00
590.200,3042.00
591.189,2887.00
592.178,2963.00
593.167,3409.00
594.156,3279.00
595.145,2881.00
596.133,3455.00
597.122,3078.00
598.110,3154.00
599.098,3046.00
600.086,2991.00
601.074,3155.00
602.062,2844.00
603.050,2737.00
604.038,3116.00
605.025,2754.00
606.013,3203.00
607.000,3393.00
607.987,3007.00
608.975,3068.00
609.962,2745.00
610.949,3123.00
611.936,3238.00
612.922,3162.00
613.909,2677.00
614.895,3335.00
615.882,2798.00
616.868,3017.00
617.854,2709.00
618.841,2986.00
619.826,3083.00
620.812,2977.00
621.798,2799.00
622.784,3146.00
623.769,3080.00
624.755,2695.00
625.740,3006.00
626.725,2743.00
627.711,2853.00
628.698,3105.00
629.683,2802.00
630.667,3145.00
631.652,2735.00
632.637,2958.00
633.621,3142.00
634.606,2913.00
635.590,3082.00
636.574,2919.00
637.558,3080.00
638.542,3044.00
639.526,2839.00
640.510,2653.00
641.493,3078.00
642.477,2957.00
643.460,2688.00
644.444,3218.00
645.427,3211.00
646.410,2696.00
647.393,2971.00
648.376,3048.00
649.359,2896.00
650.341,3082.00
651.324,3076.00
652.307,3030.00
653.289,2928.00
654.271,2889.00
655.253,2916.00
656.235,3056.00
657.217,3220.00
658.199,2641.00
659.181,2710.00
660.163,2973.00
661.144,2869.00
662.126,2881.00
663.107,2750.00
664.088,6145.00
665.069,3215.00
666.050,2775.00
667.033,2711.00
668.014,3020.00
668.995,2578.00
669.975,3015.00
670.956,2943.00
671.936,3146.00
672.916,2956.00
673.896,3080.00
674.876,2903.00
675.856,2835.00
676.836,2753.00
677.816,2324.00
678.795,2805.00
679.775,2674.00
680.754,3011.00
681.734,3142.00
682.713,3152.00
683.692,2774.00
684.671,2616.00
685.650,2738.00
686.629,2848.00
687.607,2777.00
688.586,2772.00
689.564,2832.00
690.543,3177.00
691.523,2372.00
692.501,2823.00
693.479,2908.00
694.457,2748.00
695.435,2819.00
696.413,2665.00
697.390,2487.00
698.368,2680.00
699.345,3017.00
700.322,2939.00
701.300,3066.00
702.277,3062.00
703.254,3277.00
704.231,2567.00
705.207,2950.00
706.184,2756.00
707.161,2688.00
708.137,2839.00
709.113,2775.00
710.090,2765.00
711.068,2572.00
712.044,2597.00
713.020,2882.00
713.996,2587.00
714.971,2839.00
715.947,2845.00
716.922,2811.00
717.898,2732.00
718.873,2910.00
719.848,2707.00
720.823,2646.00
721.798,2978.00
722.773,2784.00
723.748,2500.00
724.723,3006.00
725.697,2825.00
726.672,2725.00
727.646,2496.00
728.622,3009.00
729.596,2604.00
730.570,2735.00
731.544,3030.00
732.518,3244.00
733.492,2839.00
734.466,2908.00
735.439,2959.00
736.413,3089.00
737.386,2437.00
738.359,2399.00
739.332,2549.00
740.305,2823.00
741.278,3311.00
742.251,2906.00
743.224,2730.00
744.196,2555.00
745.171,3103.00
746.143,3003.00
747.115,2768.00
748.087,2724.00
749.059,3078.00
750.031,2878.00
751.003,3670.00
751.975,3209.00
752.947,2684.00
753.918,3065.00
754.890,2549.00
755.861,2777.00
756.832,3042.00
757.803,2853.00
758.774,2838.00
759.747,2618.00
760.718,3183.00
761.689,2724.00
762.659,2598.00
763.630,3133.00
764.600,2512.00
765.570,3058.00
766.540,3124.00
767.510,2901.00
768.480,3030.00
769.450,2744.00
770.420,2877.00
771.390,2621.00
772.359,2731.00
773.329,2648.00
774.300,2512.00
775.269,2774.00
776.238,2954.00
777.207,3143.00
778.176,2476.00
779.145,2816.00
780.114,2681.00
781.083,2577.00
782.051,2726.00
783.019,2700.00
783.988,3064.00
784.956,2854.00
785.924,2991.00
786.894,2833.00
787.862,2696.00
788.830,3132.00
789.797,2636.00
790.765,2567.00
791.732,2742.00
792.700,2645.00
793.667,2604.00
794.634,2736.00
795.601,2771.00
796.568,2772.00
797.535,2803.00
798.502,3400.00
799.468,2861.00
800.437,2350.00
801.403,2628.00
802.370,3242.00
803.336,2985.00
804.302,2898.00
805.268,2412.00
806.234,2556.00
807.200,2737.00
808.166,2759.00
809.131,2561.00
810.097,3017.00
811.062,3681.00
812.027,3026.00
812.994,2602.00
813.960,2634.00
814.925,2926.00
815.889,2527.00
816.854,2952.00
817.819,2649.00
818.783,2772.00
819.748,3092.00
820.712,2714.00
821.677,2644.00
822.641,2707.00
823.605,2680.00
824.571,3121.00
825.534,2744.00
826.498,2649.00
827.462,2795.00
828.425,2609.00
829.389,3070.00
830.352,2800.00
831.315,2871.00
832.279,2486.00
833.242,2742.00
834.204,2617.00
835.167,2640.00
836.132,3007.00
837.095,2520.00
838.057,2693.00
839.020,2818.00
839.982,2864.00
840.944,2646.00
841.906,2628.00
842.868,2959.00
843.830,2517.00
844.792,3037.00
845.753,2656.00
846.715,2397.00
847.679,2566.00
848.640,2622.00
849.601,2746.00
850.562,3196.00
851.523,2710.00
852.484,2476.00
853.445,2945.00
854.406,2721.00
855.367,2704.00
856.327,3040.00
857.288,2512.00
858.248,2654.00
859.210,2719.00
860.170,2516.00
861.130,2981.00
862.090,2401.00
863.050,2577.00
864.010,2718.00
864.969,2920.00
865.929,2598.00
866.888,2538.00
867.848,2802.00
868.807,2648.00
869.766,2849.00
870.727,2736.00
871.686,2981.00
872.645,2992.00
873.604,3261.00
874.562,2798.00
875.521,2785.00
876.479,3358.00
877.437,2584.00
878.396,2611.00
879.354,3173.00
880.312,2595.00
881.270,2632.00
882.229,3072.00
883.187,2611.00
884.145,2691.00
885.102,2918.00
886.059,2869.00
887.017,2893.00
887.974,2919.00
888.931,3094.00
889.888,2528.00
890.845,2410.00
891.802,2355.00
892.758,2639.00
893.717,2444.00
894.673,2548.00
895.630,2637.00
896.586,2895.00
897.542,2670.00
898.498,2528.00
899.454,2853.00
900.410,2635.00
901.366,2675.00
902.321,2609.00
903.277,2721.00
904.232,2731.00
905.189,2494.00
906.145,2694.00
907.100,2243.00
908.055,2698.00
909.010,2923.00
909.965,2341.00
910.919,2792.00
911.874,2575.00
912.828,2740.00
913.783,2759.00
914.737,2342.00
915.693,2716.00
916.648,2927.00
917.602,2921.00
918.555,2755.00
919.509,2869.00
920.463,2741.00
921.417,2766.00
922.370,2574.00
923.324,2643.00
924.277,2650.00
925.230,2758.00
926.183,2425.00
927.138,2676.00
928.091,2970.00
929.044,2828.00
929.996,2645.00
930.949,2670.00
931.902,2789.00
932.854,2849.00
933.806,2588.00
934.758,2994.00
935.711,2977.00
936.663,2763.00
937.614,2798.00
938.568,2724.00
939.520,2388.00
940.471,2678.00
941.423,2766.00
942.374,2868.00
943.326,2756.00
944.277,2544.00
945.228,2845.00
946.179,2729.00
947.130,3012.00
948.080,2644.00
949.031,2524.00
949.984,2686.00
950.934,2703.00
951.884,2461.00
952.835,2701.00
953.785,2781.00
954.735,2632.00
955.685,2347.00
956.635,2607.00
957.585,2627.00
958.534,2598.00
959.484,2729.00
960.433,2595.00
961.383,2483.00
962.334,2954.00
963.283,2772.00
964.232,2850.00
965.181,2715.00
966.130,2767.00
967.079,2593.00
968.027,2716.00
968.976,2729.00
969.924,2615.00
970.873,2795.00
971.821,2754.00
972.769,2920.00
973.719,2842.00
974.667,2474.00
975.615,2762.00
976.562,2716.00
977.510,2400.00
978.458,2625.00
979.405,2796.00
980.352,2760.00
981.300,2965.00
982.247,2801.00
983.194,2530.00
984.141,2601.00
985.088,2705.00
986.036,2771.00
986.983,3002.00
987.930,3112.00
988.876,2351.00
989.822,2914.00
990.769,2546.00
991.715,2572.00
992.661,2428.00
993.607,2790.00
994.553,3280.00
995.498,2569.00
996.444,2265.00
997.389,2797.00
998.337,2536.00
999.282,2868.00
1000.227,2662.00
1001.173,2731.00
1002.118,2466.00
1003.062,2913.00
1004.007,2688.00
1004.952,3012.00
1005.897,2919.00
1006.841,2725.00
1007.786,2462.00
1008.730,2453.00
1009.674,3177.00
1010.618,2655.00
1011.564,2542.00
1012.508,2413.00
1013.452,2922.00
1014.396,2719.00
1015.339,2638.00
1016.283,2709.00
1017.226,2734.00
1018.170,2693.00
1019.113,2899.00
1020.056,2724.00
1020.999,2731.00
1021.942,2616.00
1022.885,2855.00
1023.828,3010.00
1024.770,2480.00
1025.715,2730.00
1026.657,2656.00
1027.600,2787.00
1028.542,2897.00
1029.484,2736.00
1030.426,2889.00
1031.368,2756.00
1032.310,2574.00
1033.251,2515.00
1034.193,2704.00
1035.135,2519.00
1036.076,2645.00
1037.017,2569.00
1037.959,2843.00
1038.900,2784.00
1039.843,2827.00
1040.784,2730.00
1041.725,2778.00
1042.665,2631.00
1043.606,2781.00
1044.547,2766.00
1045.487,2384.00
1046.427,2657.00
1047.368,2799.00
1048.308,2267.00
1049.248,2500.00
1050.188,2716.00
1051.128,2603.00
1052.067,2654.00
1053.007,2451.00
1053.947,2405.00
1054.886,2553.00
1055.827,2490.00
1056.766,2869.00
1057.706,2470.00
1058.645,2682.00
1059.584,2775.00
1060.522,2984.00
1061.461,2458.00
1062.400,2492.00
1063.338,2640.00
1064.277,2503.00
1065.215,2493.00
1066.154,2424.00
1067.092,2569.00
1068.030,2608.00
1068.968,2823.00
1069.906,3019.00
1070.843,2980.00
1071.781,2751.00
1072.720,2824.00
1073.658,2835.00
1074.595,2611.00
1075.533,2549.00
1076.470,2591.00
1077.407,2973.00
1078.344,2735.00
1079.281,2778.00
1080.217,2303.00
1081.154,2650.00
1082.091,2743.00
1083.027,2451.00
1083.964,2917.00
1084.900,2558.00
1085.836,2612.00
1086.772,2850.00
1087.708,2458.00
1088.644,2790.00
1089.580,2673.00
1090.515,2736.00
1091.451,2585.00
1092.388,2737.00
1093.324,2444.00
1094.259,3194.00
1095.194,2777.00
1096.129,2623.00
1097.064,2558.00
1097.999,2821.00
1098.934,2529.00
1099.869,2514.00
1100.803,2739.00
1101.738,2725.00
1102.672,2411.00
1103.607,2803.00
1104.541,2552.00
1105.475,2551.00
1106.409,2435.00
1107.343,2570.00
1108.277,2438.00
1109.210,2704.00
1110.144,2631.00
1111.078,2691.00
1112.011,2473.00
1112.944,2765.00
1113.878,2688.00
1114.811,2199.00
1115.744,2611.00
1116.678,2307.00
1117.611,2598.00
1118.544,2605.00
1119.477,2715.00
1120.409,2543.00
1121.342,3103.00
1122.274,2753.00
1123.206,3050.00
1124.138,2683.00
1125.070,2975.00
1126.002,2806.00
1126.934,2319.00
1127.866,2596.00
1128.798,2318.00
1129.729,2351.00
1130.661,2673.00
1131.592,2579.00
1132.523,2768.00
1133.454,2785.00
1134.385,2303.00
1135.317,2622.00
1136.247,2539.00
1137.178,2852.00
1138.109,2366.00
1139.039,3015.00
1139.970,2852.00
1140.900,2603.00
1141.831,2345.00
1142.761,2228.00
1143.691,3295.00
1144.621,2641.00
1145.551,2738.00
1146.480,2662.00
1147.410,2885.00
1148.340,2310.00
1149.269,2343.00
1150.199,2581.00
1151.128,3033.00
1152.057,2438.00
1152.979,2569.00
1153.898,2619.00
1154.819,2714.00
1155.739,2650.00
1156.658,2585.00
1157.579,2666.00
1158.498,2619.00
1159.419,2189.00
1160.338,2669.00
1161.256,2702.00
1162.177,2497.00
1163.095,2626.00
1164.016,2682.00
1164.934,2915.00
1165.852,2821.00
1166.772,2626.00
1167.690,2681.00
1168.610,2700.00
1169.528,2655.00
1170.446,2155.00
1171.365,2589.00
1172.283,2511.00
1173.202,2621.00
1174.120,2663.00
1175.037,2506.00
1175.956,2487.00
1176.873,2483.00
1177.792,2515.00
1178.709,3122.00
1179.626,2505.00
1180.544,2854.00
1181.461,2510.00
1182.379,2699.00
1183.296,2612.00
1184.212,2299.00
1185.130,2477.00
1186.046,2977.00
1186.962,2658.00
1187.880,2925.00
1188.796,2687.00
1189.714,2419.00
1190.629,2715.00
1191.545,2680.00
1192.462,2587.00
1193.378,2607.00
1194.295,2354.00
1195.210,2667.00
1196.125,2761.00
1197.042,2734.00
1197.957,2638.00
1198.872,2497.00
1199.788,2558.00
1200.703,2962.00
1201.619,2656.00
1202.534,2496.00
1203.448,2703.00
1204.364,2581.00
1205.278,2280.00
1206.192,2684.00
1207.108,3105.00
1208.022,3014.00
1208.938,2438.00
1209.851,2784.00
1210.765,2880.00
1211.680,2526.00
1212.594,2412.00
1213.507,2588.00
1214.422,3037.00
1215.335,2780.00
1216.248,2540.00
1217.163,2640.00
1218.076,3240.00
1218.990,2754.00
1219.903,2405.00
1220.816,2437.00
1221.730,2592.00
1222.642,2484.00
1223.554,2552.00
1224.469,2687.00
1225.380,2547.00
1226.292,2264.00
1227.206,2765.00
1228.118,2960.00
1229.032,2283.00
1229.943,2479.00
1230.855,2565.00
1231.768,2374.00
1232.679,2708.00
1233.590,2610.00
1234.503,2827.00
1235.414,2467.00
1236.325,2525.00
1237.238,2701.00
1238.149,2732.00
1239.059,2434.00
1239.972,2854.00
1240.882,2451.00
1241.793,2759.00
1242.705,3012.00
1243.615,2589.00
1244.525,2732.00
1245.437,2235.00
1246.347,2690.00
1247.259,2764.00
1248.168,3075.00
1249.078,2897.00
1249.989,2914.00
1250.899,2384.00
1251.808,2517.00
1252.719,2590.00
1253.628,2466.00
1254.537,2984.00
1255.448,2469.00
1256.357,2483.00
1257.266,2636.00
1258.176,2381.00
1259.085,2369.00
1259.993,2458.00
1260.904,2498.00
1261.812,2472.00
1262.720,3271.00
1263.630,2790.00
1264.538,2480.00
1265.446,2740.00
1266.356,2616.00
1267.263,2891.00
1268.171,2460.00
1269.080,2689.00
1269.988,2788.00
1270.895,2524.00
1271.804,2575.00
1272.711,2813.00
1273.619,2783.00
1274.527,2433.00
1275.434,2776.00
1276.341,2426.00
1277.248,2630.00
1278.156,2898.00
1279.063,2486.00
1279.969,2729.00
1280.877,3516.00
1281.783,2844.00
1282.690,2716.00
1283.598,2633.00
1284.503,2515.00
1285.409,2464.00
1286.317,3008.00
1287.223,3008.00
1288.128,2659.00
1289.036,2507.00
1289.941,2564.00
1290.846,2660.00
1291.751,2465.00
1292.658,2555.00
1293.563,3067.00
1294.468,2673.00
1295.375,2777.00
1296.280,2851.00
1297.184,3323.00
1298.091,2702.00
1298.995,2794.00
1299.900,3018.00
1300.806,2527.00
1301.710,2371.00
1302.614,2240.00
1303.518,2896.00
1304.424,2548.00
1305.327,2787.00
1306.231,2578.00
1307.137,2784.00
1308.040,2660.00
1308.943,2681.00
1309.847,2839.00
1310.752,2824.00
1311.655,2301.00
1312.558,2400.00
1313.463,2563.00
1314.366,2511.00
1315.269,2684.00
1316.171,2623.00
1317.076,2517.00
1317.978,2446.00
1318.881,2251.00
1319.785,2541.00
1320.687,2531.00
1321.589,2250.00
1322.491,2440.00
1323.395,2743.00
1324.297,3190.00
1325.198,2771.00
1326.102,2416.00
1327.004,2437.00
1327.905,3039.00
1328.806,2601.00
1329.709,2690.00
1330.611,2580.00
1331.512,2467.00
1332.413,3094.00
1333.316,2651.00
1334.216,2837.00
1335.117,2337.00
1336.020,2651.00
1336.920,2645.00
1337.821,2518.00
1338.721,2855.00
1339.623,2663.00
1340.523,2583.00
1341.423,2499.00
1342.323,2909.00
1343.225,2711.00
1344.125,2430.00
1345.025,2502.00
1345.924,2315.00
1346.826,2967.00
1347.725,3050.00
1348.624,2856.00
1349.524,2497.00
1350.425,2582.00
1351.324,2718.00
1352.223,2776.00
1353.121,2585.00
1354.022,2798.00
1354.921,3005.00
1355.819,2753.00
1356.718,2664.00
1357.618,2379.00
1358.516,2733.00
1359.415,2998.00
1360.313,2678.00
1361.213,2593.00
1362.111,2890.00
1363.008,3218.00
1363.906,2605.00
1364.806,2620.00
1365.703,2694.00
1366.601,2456.00
1367.498,2453.00
1368.397,2806.00
1369.295,2712.00
1370.192,2464.00
1371.089,2689.00
1371.987,2622.00
1372.884,2889.00
1373.781,2448.00
1374.678,2637.00
1375.574,2459.00
1376.473,2757.00
1377.369,2823.00
1378.265,2469.00
1379.161,2554.00
1380.059,2347.00
1380.955,2735.00
1381.851,2399.00
1382.747,2546.00
1383.643,2581.00
1384.540,2426.00
1385.436,2531.00
1386.331,2655.00
1387.227,2765.00
1388.124,2746.00
1389.019,2436.00
1389.914,2567.00
1390.809,2267.00
1391.704,3031.00
1392.601,2500.00
1393.495,2957.00
1394.390,2782.00
1395.285,2902.00
1396.179,2706.00
1397.075,2588.00
1397.969,2694.00
1398.864,2320.00
1399.758,2628.00
1400.652,2640.00
1401.547,2457.00
1402.441,2404.00
1403.335,2920.00
1404.229,2653.00
1405.122,2701.00
1406.017,2626.00
1406.911,2788.00
1407.804,3017.00
1408.697,2622.00
1409.590,2450.00
1410.485,2824.00
1411.378,2705.00
1412.271,2358.00
1413.163,2672.00
1414.056,2793.00
1414.949,3017.00
1415.843,2658.00
1416.735,2572.00
1417.627,2692.00
1418.520,2627.00
1419.412,2799.00
1420.306,2781.00
1421.197,2904.00
1422.089,2832.00
1422.981,3034.00
1423.873,2778.00
1424.764,2715.00
1425.657,2601.00
1426.549,2772.00
1427.440,2833.00
1428.331,2532.00
1429.222,2303.00
1430.113,2699.00
1431.006,2813.00
1431.897,2506.00
1432.787,2660.00
1433.678,2567.00
1434.568,2435.00
1435.459,2859.00
1436.351,2813.00
1437.241,2793.00
1438.131,2778.00
1439.021,2390.00
1439.911,2618.00
1440.801,2658.00
1441.693,2838.00
1442.583,2684.00
1443.472,2613.00
1444.362,2745.00
1445.251,2529.00
1446.140,2552.00
1447.030,2801.00
1447.921,2835.00
1448.810,2495.00
1449.699,3027.00
1450.588,2664.00
1451.476,2559.00
1452.365,2747.00
1453.254,2558.00
1454.144,2506.00
1455.032,2780.00
1455.921,2366.00
1456.809,2946.00
1457.697,2440.00
1458.585,2576.00
1459.473,2604.00
1460.361,2477.00
1461.251,2673.00
1462.138,2697.00
1463.026,2584.00
1463.913,2900.00
1464.801,2534.00
1465.688,2702.00
1466.575,2670.00
1467.463,3076.00
1468.351,2485.00
1469.238,2604.00
1470.125,2256.00
1471.012,2669.00
1471.899,2732.00
1472.785,2447.00
1473.672,2637.00
1474.558,2828.00
1475.446,2778.00
1476.333,2796.00
1477.219,2435.00
1478.105,2595.00
1478.991,2597.00
1479.877,2908.00
1480.762,2664.00
1481.648,2530.00
1482.534,2778.00
1483.419,2686.00
1484.307,2796.00
1485.192,2625.00
1486.077,2493.00
1486.962,2501.00
1487.847,2436.00
1488.732,2488.00
1489.617,2642.00
1490.502,2910.00
1491.387,2763.00
1492.271,2477.00
1493.156,2480.00
1494.042,2456.00
1494.927,2849.00
1495.811,2550.00
1496.695,2763.00
1497.579,2908.00
1498.463,2629.00
1499.347,2683.00
1500.231,2668.00
1501.114,2715.00
1501.998,2964.00
1502.881,2675.00
1503.765,2882.00
1504.648,3041.00
1505.533,2750.00
1506.417,2657.00
1507.300,2607.00
1508.183,2740.00
1509.066,2151.00
1509.948,2924.00
1510.831,2955.00
1511.714,2426.00
1512.596,2761.00
1513.479,2867.00
1514.361,2812.00
1515.243,2630.00
1516.125,2792.00
1517.008,2906.00
1517.890,2615.00
1518.771,2660.00
1519.655,2861.00
1520.537,2565.00
1521.419,2500.00
1522.300,2746.00
1523.182,2785.00
1524.063,2807.00
1524.944,2882.00
1525.825,2836.00
1526.707,2485.00
1527.588,2451.00
1528.468,2702.00
1529.349,2305.00
1530.230,2584.00
1531.111,2798.00
1531.991,2714.00
1532.872,2376.00
1533.752,2587.00
1534.632,2512.00
1535.513,2516.00
1536.393,2816.00
1537.273,2941.00
1538.153,3279.00
1539.032,2397.00
1539.912,2661.00
1540.792,2712.00
1541.672,2663.00
1542.551,2759.00
1543.430,3215.00
1544.310,2678.00
1545.189,2537.00
1546.068,3099.00
1546.947,2731.00
1547.826,2962.00
1548.705,2697.00
1549.584,2903.00
1550.462,2595.00
1551.341,2795.00
1552.219,2708.00
1553.098,2822.00
1553.976,2846.00
1554.854,3039.00
1555.733,2842.00
1556.611,2589.00
1557.489,2468.00
1558.367,2653.00
1559.244,2795.00
1560.122,2640.00
1561.000,2715.00
1561.877,2973.00
1562.755,2543.00
1563.632,2611.00
1564.509,2941.00
1565.386,2979.00
1566.264,2426.00
1567.141,2287.00
1568.017,2827.00
1568.894,2666.00
1569.771,2706.00
1570.648,2777.00
1571.524,2642.00
1572.401,2422.00
1573.277,2441.00
1574.153,2717.00
1575.029,2523.00
1575.906,3332.00
1576.781,2857.00
1577.657,2590.00
1578.533,2890.00
1579.409,2318.00
1580.285,2596.00
1581.160,3058.00
1582.036,2813.00
1582.911,2480.00
1583.786,2972.00
1584.662,2469.00
1585.537,2608.00
1586.412,2710.00
1587.287,2513.00
1588.160,2865.00
1589.035,2306.00
1589.909,2681.00
1590.784,2596.00
1591.658,2459.00
1592.533,2723.00
1593.407,2701.00
1594.281,2554.00
1595.155,3033.00
1596.029,2595.00
1596.903,2606.00
1597.777,2562.00
1598.651,2897.00
1599.525,2371.00
1600.398,2655.00
1601.272,2608.00
1602.144,3184.00
1603.017,2606.00
1603.890,2898.00
1604.763,2735.00
1605.636,2809.00
1606.509,2356.00
1607.382,2484.00
1608.255,2716.00
1609.128,2882.00
1610.000,2638.00
1610.873,2369.00
1611.746,2548.00
1612.616,2613.00
1613.488,2237.00
1614.361,2664.00
1615.233,2619.00
1616.105,2880.00
1616.977,2602.00
1617.849,2527.00
1618.720,2973.00
1619.592,2939.00
1620.464,2761.00
1621.333,3101.00
1622.205,2647.00
1623.076,2634.00
1623.947,2630.00
1624.818,2874.00
1625.689,2763.00
1626.560,2582.00
1627.431,2744.00
1628.302,3020.00
1629.171,2797.00
1630.042,2967.00
1630.912,3653.00
1631.782,3232.00
1632.653,2497.00
1633.523,2814.00
1634.393,2846.00
1635.263,2531.00
1636.131,2653.00
1637.001,2562.00
1637.871,2280.00
1638.741,2276.00
1639.611,2406.00
1640.480,2802.00
1641.350,2548.00
1642.219,2496.00
1643.087,2188.00
1643.956,3072.00
1644.825,2893.00
1645.694,2869.00
1646.563,2797.00
1647.432,2685.00
1648.299,2684.00
1649.167,2762.00
1650.036,2486.00
1650.904,2794.00
1651.773,2890.00
1652.641,2684.00
1653.509,2877.00
1654.376,2524.00
1655.244,2697.00
1656.112,2728.00
1656.980,2688.00
1657.847,2519.00
1658.715,2797.00
1659.581,2563.00
1660.448,2860.00
1661.316,2192.00
1662.183,2702.00
1663.051,2711.00
1663.918,2711.00
1664.783,2677.00
1665.650,2744.00
1666.517,2837.00
1667.384,2683.00
1668.251,2698.00
1669.115,2907.00
1669.982,2628.00
1670.849,2955.00
1671.715,2682.00
1672.581,2801.00
1673.446,2794.00
1674.312,2697.00
1675.178,3083.00
1676.044,2741.00
1676.910,2731.00
1677.774,2712.00
1678.639,2318.00
1679.505,2643.00
1680.370,2786.00
1681.236,3310.00
1682.099,2596.00
1682.965,2701.00
1683.830,2231.00
1684.695,2480.00
1685.560,2597.00
1686.423,2781.00
1687.288,2767.00
1688.153,2703.00
1689.017,2597.00
1689.880,2706.00
1690.745,2819.00
1691.609,2526.00
1692.473,2802.00
1693.338,2882.00
1694.200,2904.00
1695.064,2655.00
1695.928,2552.00
1696.792,2696.00
1697.654,3185.00
1698.517,2700.00
1699.381,2403.00
1700.245,2332.00
1701.106,2920.00
1701.969,2574.00
1702.833,2813.00
1703.696,2567.00
1704.557,2612.00
1705.420,2541.00
1706.283,2720.00
1707.146,2814.00
1708.007,2475.00
1708.870,2440.00
1709.732,2382.00
1710.595,2529.00
1711.455,2433.00
1712.318,2582.00
1713.180,2900.00
1714.040,2700.00
1714.902,2815.00
1715.764,2691.00
1716.626,2456.00
1717.486,2620.00
1718.348,2940.00
1719.209,4850.00
1720.071,2347.00
1720.930,2404.00
1721.792,2525.00
1722.653,2508.00
1723.512,2533.00
1724.374,2587.00
1725.234,2696.00
1726.095,2718.00
1726.954,2681.00
1727.815,2795.00
1728.676,2639.00
1729.535,2873.00
1730.395,2620.00
1731.256,2578.00
1732.114,2723.00
1732.974,2138.00
1733.834,3063.00
1734.693,2804.00
1735.553,2701.00
1736.413,3083.00
1737.272,2556.00
1738.130,2614.00
1738.990,2728.00
1739.849,2523.00
1740.707,3699.00
1741.566,2696.00
1742.426,2740.00
1743.283,3069.00
1744.142,2567.00
1745.001,2338.00
1745.858,2857.00
1746.717,2756.00
1747.576,2771.00
1748.433,2839.00
1749.292,3256.00
1750.150,3255.00
1751.007,2857.00
1751.865,2847.00
1752.723,2682.00
1753.579,2609.00
1754.438,2878.00
1755.296,2862.00
1756.152,2238.00
1757.010,2348.00
1757.865,2870.00
1758.723,2325.00
1759.581,2953.00
1760.436,2657.00
1761.294,3025.00
1762.151,2645.00
1763.006,2590.00
1763.864,2326.00
1764.721,2863.00
1765.576,2730.00
1766.433,2839.00
1767.288,2525.00
1768.144,2733.00
1769.001,2619.00
1769.856,2773.00
1770.712,2882.00
1771.568,2463.00
1772.423,2583.00
1773.279,2574.00
1774.133,2594.00
1774.989,3073.00
1775.845,2999.00
1776.699,2915.00
1777.555,2652.00
1778.409,3228.00
1779.265,2666.00
1780.120,2634.00
1780.974,2670.00
1781.829,2272.00
1782.682,2736.00
1783.538,2476.00
1784.393,2717.00
1785.246,2561.00
1786.101,2768.00
1786.954,2804.00
1787.808,2885.00
1788.661,2414.00
1789.516,2606.00
1790.370,2629.00
1791.223,2844.00
1792.077,2667.00
1792.930,2741.00
1793.784,2544.00
1794.636,2718.00
1795.490,2656.00
1796.344,2702.00
1797.196,2694.00
1798.049,2848.00
1798.901,2577.00
1799.755,2873.00
1800.606,2493.00
1801.460,3188.00
1802.311,2972.00
1803.165,3058.00
1804.018,3003.00
1804.869,2747.00
1805.722,3132.00
1806.573,2697.00
1807.426,2484.00
1808.276,2647.00
1809.129,2599.00
1809.980,2849.00
1810.832,2994.00
1811.683,2613.00
1812.535,2982.00
1813.385,2642.00
1814.237,2987.00
1815.089,2733.00
1815.940,2935.00
1816.791,2624.00
1817.641,2544.00
1818.493,2846.00
1819.343,2735.00
1820.194,2582.00
1821.044,2756.00
1821.895,2905.00
1822.745,2417.00
1823.596,2583.00
1824.445,3044.00
1825.296,2765.00
1826.145,2635.00
1826.996,2935.00
1827.845,2739.00
1828.695,2736.00
1829.544,2675.00
1830.395,2723.00
1831.243,2594.00
1832.094,2406.00
1832.942,3257.00
1833.792,2807.00
1834.640,2743.00
1835.490,2693.00
1836.338,2773.00
1837.186,2575.00
1838.036,2514.00
1838.884,2698.00
1839.733,2982.00
1840.581,2830.00
1841.430,2775.00
1842.278,3001.00
1843.127,2584.00
1843.974,2401.00
1844.823,3141.00
1845.671,2823.00
1846.519,2671.00
1847.366,2737.00
1848.213,2323.00
1849.062,2519.00
1849.909,2398.00
1850.757,3327.00
1851.604,2811.00
1852.452,2607.00
1853.298,2874.00
1854.146,2721.00
1854.993,2715.00
1855.839,3162.00
1856.687,2819.00
1857.532,2801.00
1858.380,2694.00
1859.226,2726.00
1860.073,2792.00
1860.919,2527.00
1861.765,2583.00
1862.612,2884.00
1863.457,2901.00
1864.304,2648.00
1865.150,2782.00
1865.995,2671.00
1866.842,2804.00
1867.686,2918.00
1868.533,2789.00
1869.378,2740.00
1870.223,2734.00
1871.069,2596.00
1871.914,2716.00
1872.760,2670.00
1873.604,2488.00
1874.448,2821.00
1875.294,2832.00
1876.139,2600.00
1876.984,2812.00
1877.828,2420.00
1878.672,2210.00
1879.518,2565.00
1880.361,2885.00
1881.205,2837.00
1882.050,2501.00
1882.894,3205.00
1883.739,2590.00
1884.582,2451.00
1885.425,2526.00
1886.270,2979.00
1887.113,2475.00
1887.956,2749.00
1888.801,2722.00
1889.644,2509.00
1890.486,2314.00
1891.331,2651.00
1892.173,2738.00
1893.017,2761.00
1893.860,2926.00
1894.702,2985.00
1895.546,2699.00
1896.388,3389.00
1897.230,3058.00
1898.074,2600.00
1898.916,2502.00
1899.757,2519.00
1900.601,3334.00
1901.443,3004.00
1902.284,2973.00
1903.125,3180.00
1903.969,2862.00
1904.810,2956.00
1905.651,2796.00
1906.494,3011.00
1907.335,3132.00
1908.176,2836.00
1909.018,2749.00
1909.859,2649.00
1910.700,2570.00
1911.542,3232.00
1912.383,2765.00
1913.223,2351.00
1914.064,2786.00
1914.906,2976.00
1915.746,3025.00
1916.586,3138.00
1917.428,2694.00
1918.268,2752.00
1919.107,2581.00
1919.947,2463.00
1920.789,2608.00
1921.628,2948.00
1922.468,2684.00
1923.309,2570.00
1924.148,2979.00
1924.988,2773.00
1925.827,2701.00
1926.667,2588.00
1927.507,2737.00
1928.345,2530.00
1929.184,2851.00
1930.025,2535.00
1930.864,2936.00
1931.702,2978.00
1932.541,2580.00
1933.381,2862.00
1934.219,2842.00
1935.057,2993.00
1935.896,2417.00
1936.735,2676.00
1937.573,2596.00
1938.411,2508.00
1939.249,2883.00
1940.089,2642.00
1940.927,2960.00
1941.764,2992.00
1942.602,2629.00
1943.439,2567.00
1944.278,2641.00
1945.115,2705.00
1945.953,2465.00
1946.790,2811.00
1947.628,3046.00
1948.465,2823.00
1949.302,2814.00
1950.139,2822.00
1950.976,2555.00
1951.814,2877.00
1952.651,2739.00
1953.487,2520.00
1954.323,2976.00
1955.160,2698.00
1955.998,3050.00
1956.834,2690.00
1957.670,2781.00
1958.506,2905.00
1959.342,2797.00
1960.177,2725.00
1961.015,2832.00
1961.850,2742.00
1962.686,2778.00
1963.521,2754.00
1964.357,2998.00
1965.192,2488.00
1966.029,2824.00
1966.864,2668.00
1967.699,2920.00
1968.534,2749.00
1969.369,2992.00
1970.204,2681.00
1971.040,2800.00
1971.875,2648.00
1972.709,2743.00
1973.544,2548.00
1974.378,2631.00
1975.212,2804.00
1976.047,2581.00
1976.882,2590.00
1977.716,3081.00
1978.550,2411.00
1979.384,2672.00
1980.218,2703.00
1981.052,2645.00
1981.885,2723.00
1982.719,2710.00
1983.554,2852.00
1984.388,2994.00
1985.221,2775.00
1986.054,2947.00
1986.887,2797.00
1987.720,2572.00
1988.553,3008.00
1989.386,2787.00
1990.219,2827.00
1991.053,3042.00
1991.886,2588.00
1992.719,2932.00
1993.551,2270.00
1994.383,2835.00
1995.216,2632.00
1996.048,2441.00
1996.880,2865.00
1997.712,2585.00
1998.544,2743.00
1999.376,2821.00
2000.208,2970.00
2001.040,3119.00
2001.873,2527.00
2002.705,2562.00
2003.536,2806.00
2004.367,2720.00
2005.199,2743.00
2006.030,2594.00
2006.861,2536.00
2007.692,2741.00
2008.523,2597.00
2009.354,2767.00
2010.185,2573.00
2011.016,2865.00
2011.846,2910.00
2012.677,2674.00
2013.507,3054.00
2014.338,2951.00
2015.168,2650.00
2015.999,3245.00
2016.829,2637.00
2017.659,2948.00
2018.489,3215.00
2019.319,2541.00
2020.149,2870.00
2020.980,2750.00
2021.810,2529.00
2022.639,2598.00
2023.469,2615.00
2024.298,2380.00
2025.128,2361.00
2025.957,2351.00
2026.786,2205.00
2027.615,2390.00
2028.444,2573.00
2029.273,2747.00
2030.102,2310.00
2030.931,2563.00
2031.758,2853.00
2032.586,2519.00
2033.415,2566.00
2034.243,2232.00
2035.072,2023.00
2035.900,2467.00
2036.728,2310.00
2037.556,2341.00
2038.385,2348.00
2039.213,2154.00
2040.040,2175.00
2040.868,2141.00
2041.696,2171.00
2042.524,2237.00
2043.351,2392.00
2044.179,2187.00
2045.006,1998.00
