RamanScope Measure Spectrum Data V3.72

<< MEASURE CONDITION >>
Exposure Type,Aver
Exposure Time [sec],15
Exposure Count,30
Measure Time,2023/07/04 16:13:03
Data Name,""
Data Comment,""
Rayleigh Wave[nm],532.0

<< SAMPLE SPECTRUM >>
Wave[dcm-1],No280
146.591,437.17
147.626,529.93
148.664,671.17
149.699,764.13
150.737,904.83
151.772,1012.60
152.809,1159.60
153.846,1274.03
154.881,1387.33
155.918,1482.10
156.953,1546.27
157.989,1687.73
159.026,1756.67
160.060,1800.33
161.096,1841.00
162.130,1897.83
163.167,1947.23
164.200,1979.37
165.236,2004.77
166.272,2056.50
167.305,2064.07
168.341,2125.80
169.374,2104.33
170.409,2187.57
171.445,2183.07
172.477,2212.83
173.512,2251.90
174.545,2323.63
175.580,2299.30
176.614,2314.80
177.647,2326.50
178.681,2333.50
179.713,2368.70
180.747,2373.17
181.781,2381.27
182.813,2356.63
183.847,2377.37
184.878,2394.93
185.912,2375.97
186.945,2457.97
187.976,2391.77
189.010,2408.80
190.043,2478.00
191.073,2450.67
192.106,2470.43
193.137,2475.47
194.170,2515.13
195.202,2544.63
196.232,2517.30
197.265,2607.07
198.297,2632.13
199.327,2597.40
200.359,2651.97
201.388,2691.63
202.420,2670.13
203.452,2706.60
204.481,2808.73
205.512,2766.03
206.544,2822.43
207.573,2868.80
208.604,2922.80
209.635,3016.13
210.663,3059.60
211.694,3172.50
212.725,3292.77
213.753,3350.83
214.783,3529.43
215.813,3633.90
216.841,3805.37
217.871,3978.73
218.899,4223.23
219.929,4557.37
220.959,4842.37
221.986,5168.07
223.016,5457.10
224.045,5736.03
225.072,5875.93
226.101,5985.53
227.130,5933.73
228.157,5720.80
229.185,5435.27
230.214,5155.67
231.241,4855.97
232.269,4500.03
233.297,4244.00
234.323,3993.97
235.351,3804.83
236.379,3703.80
237.407,3559.13
238.433,3469.67
239.460,3410.57
240.488,3349.23
241.513,3332.90
242.540,3364.93
243.568,3291.83
244.592,3285.00
245.619,3315.83
246.646,3321.20
247.671,3285.80
248.697,3359.40
249.724,3326.03
250.748,3351.93
251.774,3333.67
252.801,3337.97
253.827,3267.20
254.850,3236.33
255.876,3219.43
256.902,3222.10
257.925,3218.63
258.951,3240.23
259.976,3233.27
260.999,3260.93
262.024,3274.63
263.049,3291.07
264.074,3311.20
265.097,3346.60
266.122,3365.03
267.146,3461.77
268.168,3447.80
269.193,3561.33
270.217,3612.83
271.241,3682.83
272.263,3745.33
273.287,3814.77
274.311,3976.37
275.332,4032.97
276.356,4173.77
277.379,4316.57
278.402,4415.13
279.424,4574.63
280.447,4652.37
281.470,4850.03
282.492,4945.73
283.513,5087.00
284.536,5189.80
285.558,5253.20
286.581,5348.40
287.601,5331.57
288.623,5349.40
289.645,5284.67
290.665,5215.77
291.687,5104.10
292.709,5017.10
293.730,4871.23
294.750,4826.03
295.771,4649.13
296.792,4522.87
297.813,4433.97
298.832,4279.03
299.853,4197.10
300.874,4000.40
301.895,3889.07
302.913,3726.33
303.934,3672.07
304.954,3581.10
305.975,3400.37
306.993,3340.23
308.013,3249.17
309.033,3152.50
310.052,3112.03
311.072,3016.03
312.090,2994.37
313.109,2952.07
314.129,2886.83
315.148,2815.03
316.165,2760.63
317.184,2714.73
318.203,2687.20
319.222,2628.73
320.238,2611.57
321.257,2620.93
322.275,2536.13
323.294,2560.07
324.312,2515.03
325.328,2502.43
326.346,2528.40
327.364,2441.17
328.382,2452.30
329.397,2472.53
330.415,2410.87
331.432,2425.07
332.450,2409.70
333.467,2396.10
334.482,2414.97
335.499,2335.60
336.516,2399.20
337.533,2355.53
338.547,2351.07
339.564,2379.03
340.580,2338.70
341.597,2370.43
342.613,2375.50
343.627,2363.17
344.643,2349.90
345.659,2356.33
346.675,2314.77
347.690,2352.90
348.704,2347.67
349.719,2323.27
350.735,2325.13
351.750,2319.33
352.765,2305.43
353.778,2318.77
354.793,2341.27
355.808,2313.83
356.822,2309.63
357.837,2301.37
358.851,2352.60
359.864,2331.47
360.878,2327.10
361.892,2337.93
362.906,2382.33
363.920,2396.83
364.932,2394.83
365.945,2392.43
366.959,2411.00
367.972,2395.00
368.986,2404.40
369.999,2436.43
371.010,2451.00
372.023,2496.90
373.036,2507.27
374.049,2548.40
375.061,2597.77
376.072,2573.07
377.084,2627.40
378.097,2584.40
379.109,2686.37
380.121,2754.13
381.133,2750.83
382.143,2725.67
383.155,2793.70
384.166,2856.03
385.178,2931.33
386.189,2946.60
387.201,2959.57
388.212,2993.40
389.221,3045.90
390.232,3086.47
391.243,3130.10
392.254,3115.50
393.264,3196.73
394.275,3206.50
395.283,3247.13
396.294,3254.47
397.304,3262.67
398.314,3228.20
399.324,3229.80
400.334,3247.97
401.344,3232.67
402.351,3206.67
403.361,3173.10
404.370,3169.10
405.380,3084.87
406.389,3081.40
407.398,3033.77
408.407,2965.70
409.414,2916.37
410.423,2898.57
411.431,2839.90
412.440,2789.93
413.448,2731.43
414.457,2698.80
415.465,2631.87
416.471,2660.60
417.479,2579.83
418.487,2560.80
419.495,2529.70
420.503,2450.37
421.510,2479.13
422.518,2412.50
423.525,2390.50
424.530,2362.93
425.537,2323.47
426.544,2342.50
427.551,2300.87
428.558,2338.10
429.565,2253.40
430.571,2247.47
431.578,2280.50
432.582,2274.03
433.588,2203.43
434.595,2234.33
435.601,2225.53
436.607,2248.53
437.612,2186.27
438.618,2248.83
439.624,2169.67
440.627,2182.33
441.633,2189.57
442.638,2198.50
443.643,2148.60
444.648,2189.93
445.653,2098.60
446.658,2173.67
447.663,2193.10
448.667,2184.17
449.672,2185.67
450.674,2197.90
451.678,2141.13
452.682,2164.40
453.687,2144.67
454.690,2190.47
455.694,2171.93
456.698,2118.37
457.702,2187.10
458.705,2207.90
459.709,2156.43
460.710,2169.17
461.713,2200.03
462.716,2215.83
463.719,2266.20
464.722,2223.77
465.725,2180.43
466.727,2239.77
467.730,2275.27
468.732,2230.63
469.735,2233.17
470.737,2244.87
471.737,2214.63
472.739,2289.20
473.741,2297.77
474.742,2294.50
475.744,2275.30
476.746,2280.57
477.747,2300.63
478.748,2300.83
479.750,2320.90
480.751,2303.70
481.752,2295.73
482.753,2344.40
483.751,2327.87
484.752,2355.10
485.753,2344.43
486.753,2308.03
487.753,2349.60
488.754,2338.97
489.754,2322.60
490.754,2346.77
491.754,2308.73
492.754,2324.60
493.753,2368.13
494.753,2321.17
495.752,2347.60
496.752,2324.77
497.749,2298.50
498.748,2320.03
499.747,2256.60
500.746,2315.93
501.745,2250.20
502.744,2274.97
503.742,2279.90
504.741,2251.43
505.739,2249.33
506.737,2224.30
507.735,2242.23
508.734,2232.87
509.732,2252.47
510.729,2228.53
511.727,2193.03
512.725,2189.27
513.720,2171.83
514.718,2153.70
515.715,2174.70
516.712,2133.83
517.709,2155.77
518.706,2157.10
519.703,2162.33
520.700,2139.30
521.696,2147.33
522.693,2163.70
523.689,2171.73
524.686,2121.93
525.682,2163.10
526.678,2129.27
527.674,2137.10
528.670,2144.60
529.666,2161.77
530.661,2222.10
531.657,2092.57
532.652,2171.20
533.648,2208.23
534.641,2184.10
535.636,2204.00
536.631,2200.00
537.626,2226.17
538.621,2175.50
539.616,2203.50
540.610,2217.20
541.605,2196.40
542.599,2215.13
543.593,2241.57
544.587,2195.67
545.581,2263.70
546.575,2286.37
547.569,2269.43
548.563,2253.30
549.557,2217.90
550.550,2300.40
551.543,2246.43
552.537,2255.93
553.530,2334.27
554.523,2303.53
555.516,2312.30
556.509,2308.03
557.502,2315.87
558.494,2336.27
559.487,2302.13
560.479,2284.07
561.472,2346.27
562.464,2336.57
563.456,2329.77
564.448,2337.30
565.440,2314.57
566.432,2336.50
567.423,2370.63
568.415,2360.53
569.404,2372.57
570.396,2356.33
571.387,2405.17
572.378,2457.00
573.369,2425.37
574.360,2413.07
575.351,2461.60
576.341,2466.07
577.332,2464.20
578.323,2507.33
579.313,2503.00
580.303,2505.50
581.293,2562.30
582.283,2533.20
583.273,2556.70
584.263,2554.23
585.253,2601.53
586.243,2628.37
587.232,2636.07
588.222,2655.37
589.211,2700.67
590.200,2645.50
591.189,2664.33
592.178,2709.77
593.167,2642.97
594.156,2697.57
595.145,2645.63
596.133,2670.13
597.122,2677.03
598.110,2681.33
599.098,2644.47
600.086,2645.50
601.074,2633.13
602.062,2687.67
603.050,2625.77
604.038,2623.87
605.025,2629.43
606.013,2591.80
607.000,2569.60
607.987,2561.53
608.975,2564.37
609.962,2510.47
610.949,2560.83
611.936,2463.77
612.922,2482.63
613.909,2494.10
614.895,2419.33
615.882,2468.17
616.868,2418.33
617.854,2418.03
618.841,2420.40
619.826,2474.90
620.812,2369.57
621.798,2394.10
622.784,2367.97
623.769,2359.83
624.755,2329.67
625.740,2315.63
626.725,2303.97
627.711,2294.63
628.698,2306.63
629.683,2244.27
630.667,2242.77
631.652,2236.30
632.637,2200.00
633.621,2235.93
634.606,2193.10
635.590,2153.30
636.574,2108.57
637.558,2135.40
638.542,2100.87
639.526,2099.10
640.510,2104.30
641.493,2044.13
642.477,2117.20
643.460,2091.70
644.444,2009.50
645.427,2047.90
646.410,2056.07
647.393,2022.00
648.376,2024.07
649.359,2021.47
650.341,1972.70
651.324,1987.17
652.307,1921.63
653.289,1922.33
654.271,1932.50
655.253,1966.20
656.235,1937.50
657.217,1946.97
658.199,1914.67
659.181,1907.07
660.163,1910.47
661.144,1920.90
662.126,1908.00
663.107,1879.20
664.088,1870.33
665.069,1824.77
666.050,1890.67
667.033,1812.33
668.014,1838.00
668.995,1793.17
669.975,1833.77
670.956,1844.87
671.936,1841.83
672.916,1853.97
673.896,1772.07
674.876,1774.73
675.856,1803.00
676.836,1790.17
677.816,1771.93
678.795,1739.43
679.775,1731.30
680.754,1722.23
681.734,1783.60
682.713,1723.83
683.692,1735.17
684.671,1738.87
685.650,1703.93
686.629,1720.23
687.607,1678.73
688.586,1661.60
689.564,1643.07
690.543,1630.40
691.523,1641.27
692.501,1627.53
693.479,1647.43
694.457,1639.63
695.435,1587.00
696.413,1632.07
697.390,1621.33
698.368,1595.20
699.345,1563.07
700.322,1567.27
701.300,1522.63
702.277,1574.93
703.254,1557.10
704.231,1564.60
705.207,1547.57
706.184,1518.03
707.161,1543.57
708.137,1520.73
709.113,1532.57
710.090,1491.17
711.068,1525.03
712.044,1492.43
713.020,1498.43
713.996,1470.63
714.971,1448.23
715.947,1426.70
716.922,1490.97
717.898,1480.80
718.873,1471.47
719.848,1468.23
720.823,1469.40
721.798,1510.67
722.773,1453.30
723.748,1482.27
724.723,1405.73
725.697,1441.00
726.672,1457.40
727.646,1444.90
728.622,1446.40
729.596,1416.63
730.570,1429.87
731.544,1407.83
732.518,1418.97
733.492,1399.77
734.466,1376.93
735.439,1407.80
736.413,1369.47
737.386,1412.17
738.359,1361.90
739.332,1416.63
740.305,1404.27
741.278,1371.00
742.251,1436.57
743.224,1383.67
744.196,1380.50
745.171,1382.23
746.143,1366.80
747.115,1336.07
748.087,1381.77
749.059,1415.13
750.031,1424.53
751.003,1374.70
751.975,1373.97
752.947,1385.80
753.918,1388.13
754.890,1381.57
755.861,1402.70
756.832,1368.23
757.803,1379.93
758.774,1336.83
759.747,1346.63
760.718,1319.40
761.689,1313.53
762.659,1320.00
763.630,1375.37
764.600,1352.93
765.570,1292.00
766.540,1330.27
767.510,1310.40
768.480,1328.90
769.450,1334.57
770.420,1297.53
771.390,1357.03
772.359,1346.33
773.329,1367.00
774.300,1308.57
775.269,1334.37
776.238,1346.43
777.207,1332.83
778.176,1308.97
779.145,1305.80
780.114,1269.07
781.083,1324.80
782.051,1294.20
783.019,1324.97
783.988,1311.63
784.956,1318.20
785.924,1280.50
786.894,1314.10
787.862,1291.10
788.830,1289.43
789.797,1317.37
790.765,1324.37
791.732,1301.70
792.700,1272.00
793.667,1265.20
794.634,1309.77
795.601,1284.37
796.568,1292.20
797.535,1241.70
798.502,1310.87
799.468,1235.57
800.437,1231.47
801.403,1259.23
802.370,1276.80
803.336,1257.27
804.302,1257.57
805.268,1257.87
806.234,1257.00
807.200,1223.87
808.166,1205.50
809.131,1259.33
810.097,1214.77
811.062,1271.87
812.027,1238.03
812.994,1247.60
813.960,1237.90
814.925,1225.80
815.889,1241.50
816.854,1218.43
817.819,1242.27
818.783,1200.93
819.748,1247.87
820.712,1190.53
821.677,1197.43
822.641,1198.47
823.605,1214.03
824.571,1170.17
825.534,1210.90
826.498,1179.43
827.462,1189.83
828.425,1200.93
829.389,1204.23
830.352,1199.77
831.315,1182.27
832.279,1146.53
833.242,1180.03
834.204,1156.97
835.167,1166.93
836.132,1179.87
837.095,1162.37
838.057,1145.63
839.020,1157.80
839.982,1160.47
840.944,1144.00
841.906,1169.20
842.868,1157.93
843.830,1122.93
844.792,1119.73
845.753,1163.10
846.715,1149.00
847.679,1120.10
848.640,1135.67
849.601,1158.23
850.562,1128.27
851.523,1151.37
852.484,1166.90
853.445,1203.90
854.406,1114.80
855.367,1147.57
856.327,1103.57
857.288,1134.03
858.248,1144.53
859.210,1152.43
860.170,1162.03
861.130,1128.17
862.090,1151.00
863.050,1123.30
864.010,1117.50
864.969,1170.27
865.929,1105.57
866.888,1101.83
867.848,1140.93
868.807,1154.97
869.766,1138.00
870.727,1125.07
871.686,1131.87
872.645,1125.20
873.604,1125.43
874.562,1125.40
875.521,1124.03
876.479,1092.93
877.437,1092.17
878.396,1128.97
879.354,1116.03
880.312,1060.80
881.270,1092.33
882.229,1113.50
883.187,1094.63
884.145,1131.23
885.102,1128.73
886.059,1135.43
887.017,1123.67
887.974,1095.37
888.931,1123.50
889.888,1101.57
890.845,1119.27
891.802,1120.90
892.758,1130.53
893.717,1107.73
894.673,1101.63
895.630,1125.40
896.586,1118.07
897.542,1126.27
898.498,1136.73
899.454,1117.43
900.410,1140.87
901.366,1141.23
902.321,1142.53
903.277,1106.17
904.232,1101.10
905.189,1124.33
906.145,1140.20
907.100,1116.20
908.055,1091.50
909.010,1112.40
909.965,1103.97
910.919,1175.37
911.874,1116.10
912.828,1130.07
913.783,1134.40
914.737,1100.37
915.693,1143.30
916.648,1093.00
917.602,1060.23
918.555,1135.47
919.509,1127.20
920.463,1105.10
921.417,1132.67
922.370,1151.40
923.324,1158.40
924.277,1119.40
925.230,1158.17
926.183,1138.07
927.138,1159.03
928.091,1084.93
929.044,1134.27
929.996,1134.23
930.949,1133.67
931.902,1135.17
932.854,1159.90
933.806,1081.50
934.758,1152.20
935.711,1140.47
936.663,1189.37
937.614,1176.07
938.568,1162.17
939.520,1143.67
940.471,1124.00
941.423,1148.27
942.374,1176.80
943.326,1142.73
944.277,1161.10
945.228,1135.07
946.179,1152.87
947.130,1172.97
948.080,1187.67
949.031,1157.17
949.984,1200.70
950.934,1167.50
951.884,1134.63
952.835,1142.43
953.785,1166.60
954.735,1172.17
955.685,1169.00
956.635,1170.57
957.585,1187.60
958.534,1140.53
959.484,1161.83
960.433,1101.83
961.383,1154.00
962.334,1147.00
963.283,1160.30
964.232,1143.07
965.181,1173.20
966.130,1132.17
967.079,1155.33
968.027,1162.43
968.976,1175.83
969.924,1161.00
970.873,1139.87
971.821,1208.17
972.769,1144.70
973.719,1121.63
974.667,1172.93
975.615,1173.27
976.562,1186.00
977.510,1178.47
978.458,1169.63
979.405,1174.87
980.352,1155.37
981.300,1211.17
982.247,1185.27
983.194,1178.87
984.141,1169.53
985.088,1193.33
986.036,1161.33
986.983,1179.77
987.930,1171.80
988.876,1181.73
989.822,1186.13
990.769,1200.47
991.715,1216.90
992.661,1218.17
993.607,1211.07
994.553,1169.23
995.498,1204.07
996.444,1205.83
997.389,1179.67
998.337,1194.20
999.282,1186.17
1000.227,1203.60
1001.173,1171.67
1002.118,1203.20
1003.062,1200.07
1004.007,1187.70
1004.952,1219.30
1005.897,1237.60
1006.841,1183.97
1007.786,1215.50
1008.730,1251.73
1009.674,1205.17
1010.618,1216.73
1011.564,1228.13
1012.508,1205.77
1013.452,1202.20
1014.396,1243.73
1015.339,1238.40
1016.283,1219.03
1017.226,1224.73
1018.170,1238.90
1019.113,1258.63
1020.056,1229.90
1020.999,1187.70
1021.942,1233.50
1022.885,1275.87
1023.828,1249.17
1024.770,1277.57
1025.715,1249.93
1026.657,1253.50
1027.600,1262.20
1028.542,1292.30
1029.484,1233.70
1030.426,1267.03
1031.368,1289.67
1032.310,1260.37
1033.251,1265.93
1034.193,1284.33
1035.135,1302.63
1036.076,1264.43
1037.017,1236.53
1037.959,1311.17
1038.900,1328.43
1039.843,1334.37
1040.784,1294.43
1041.725,1306.27
1042.665,1312.40
1043.606,1324.73
1044.547,1322.50
1045.487,1328.30
1046.427,1311.00
1047.368,1327.07
1048.308,1330.53
1049.248,1350.53
1050.188,1334.63
1051.128,1315.73
1052.067,1343.83
1053.007,1382.13
1053.947,1360.43
1054.886,1338.90
1055.827,1314.50
1056.766,1333.57
1057.706,1319.23
1058.645,1365.47
1059.584,1363.53
1060.522,1409.83
1061.461,1368.63
1062.400,1361.17
1063.338,1368.07
1064.277,1397.93
1065.215,1428.50
1066.154,1380.20
1067.092,1392.00
1068.030,1391.40
1068.968,1451.03
1069.906,1406.80
1070.843,1365.13
1071.781,1443.03
1072.720,1405.40
1073.658,1420.10
1074.595,1436.57
1075.533,1425.10
1076.470,1400.37
1077.407,1377.73
1078.344,1390.87
1079.281,1439.87
1080.217,1436.43
1081.154,1415.70
1082.091,1441.87
1083.027,1414.57
1083.964,1453.67
1084.900,1470.43
1085.836,1458.00
1086.772,1433.07
1087.708,1441.63
1088.644,1427.77
1089.580,1455.80
1090.515,1444.90
1091.451,1446.83
1092.388,1441.83
1093.324,1483.37
1094.259,1427.03
1095.194,1505.67
1096.129,1489.77
1097.064,1464.80
1097.999,1458.03
1098.934,1437.53
1099.869,1454.23
1100.803,1480.70
1101.738,1480.60
1102.672,1462.17
1103.607,1451.93
1104.541,1444.63
1105.475,1427.03
1106.409,1442.57
1107.343,1455.50
1108.277,1427.93
1109.210,1410.97
1110.144,1420.03
1111.078,1388.50
1112.011,1418.67
1112.944,1400.23
1113.878,1420.53
1114.811,1374.90
1115.744,1398.73
1116.678,1370.57
1117.611,1415.20
1118.544,1411.53
1119.477,1357.93
1120.409,1397.87
1121.342,1342.77
1122.274,1360.67
1123.206,1347.57
1124.138,1346.73
1125.070,1310.93
1126.002,1338.13
1126.934,1315.20
1127.866,1348.57
1128.798,1342.37
1129.729,1310.70
1130.661,1302.67
1131.592,1306.23
1132.523,1341.20
1133.454,1271.90
1134.385,1291.00
1135.317,1289.93
1136.247,1297.07
1137.178,1300.07
1138.109,1275.43
1139.039,1313.40
1139.970,1306.37
1140.900,1274.10
1141.831,1268.80
1142.761,1258.23
1143.691,1272.57
1144.621,1250.90
1145.551,1268.57
1146.480,1264.20
1147.410,1271.23
1148.340,1271.77
1149.269,1277.27
1150.199,1237.30
1151.128,1257.67
1152.057,1258.10
1152.979,1204.87
1153.898,1284.27
1154.819,1268.67
1155.739,1246.87
1156.658,1222.17
1157.579,1254.27
1158.498,1267.00
1159.419,1232.30
1160.338,1241.07
1161.256,1215.23
1162.177,1215.17
1163.095,1235.43
1164.016,1240.80
1164.934,1230.17
1165.852,1225.27
1166.772,1231.37
1167.690,1206.40
1168.610,1209.03
1169.528,1213.17
1170.446,1225.57
1171.365,1220.53
1172.283,1205.23
1173.202,1182.93
1174.120,1215.33
1175.037,1194.20
1175.956,1245.00
1176.873,1189.87
1177.792,1217.20
1178.709,1237.60
1179.626,1179.50
1180.544,1218.47
1181.461,1221.27
1182.379,1212.33
1183.296,1220.40
1184.212,1207.70
1185.130,1204.63
1186.046,1202.57
1186.962,1229.17
1187.880,1196.93
1188.796,1207.37
1189.714,1228.93
1190.629,1269.80
1191.545,1195.60
1192.462,1245.97
1193.378,1194.30
1194.295,1207.40
1195.210,1211.33
1196.125,1266.90
1197.042,1258.27
1197.957,1250.47
1198.872,1241.63
1199.788,1242.40
1200.703,1268.60
1201.619,1268.83
1202.534,1207.90
1203.448,1249.47
1204.364,1212.77
1205.278,1249.77
1206.192,1261.67
1207.108,1275.87
1208.022,1275.33
1208.938,1264.37
1209.851,1276.17
1210.765,1269.60
1211.680,1263.93
1212.594,1286.83
1213.507,1308.93
1214.422,1253.13
1215.335,1304.93
1216.248,1263.70
1217.163,1310.07
1218.076,1293.80
1218.990,1329.67
1219.903,1305.87
1220.816,1279.47
1221.730,1298.83
1222.642,1287.13
1223.554,1351.33
1224.469,1324.40
1225.380,1288.77
1226.292,1318.20
1227.206,1362.50
1228.118,1368.53
1229.032,1357.53
1229.943,1358.17
1230.855,1365.67
1231.768,1361.57
1232.679,1351.87
1233.590,1362.67
1234.503,1368.77
1235.414,1380.50
1236.325,1419.33
1237.238,1433.83
1238.149,1396.63
1239.059,1458.90
1239.972,1426.23
1240.882,1437.57
1241.793,1424.10
1242.705,1455.10
1243.615,1454.70
1244.525,1477.60
1245.437,1467.83
1246.347,1481.70
1247.259,1452.07
1248.168,1459.47
1249.078,1460.03
1249.989,1503.90
1250.899,1526.87
1251.808,1517.57
1252.719,1504.53
1253.628,1519.00
1254.537,1537.07
1255.448,1521.67
1256.357,1519.67
1257.266,1529.77
1258.176,1521.83
1259.085,1558.93
1259.993,1554.93
1260.904,1538.60
1261.812,1537.50
1262.720,1598.03
1263.630,1611.90
1264.538,1592.47
1265.446,1595.27
1266.356,1582.93
1267.263,1594.53
1268.171,1600.10
1269.080,1670.17
1269.988,1615.93
1270.895,1637.50
1271.804,1630.53
1272.711,1673.37
1273.619,1639.70
1274.527,1625.37
1275.434,1663.03
1276.341,1672.90
1277.248,1661.90
1278.156,1637.77
1279.063,1666.70
1279.969,1637.00
1280.877,1655.20
1281.783,1640.97
1282.690,1687.53
1283.598,1654.73
1284.503,1675.27
1285.409,1643.43
1286.317,1626.37
1287.223,1628.27
1288.128,1672.10
1289.036,1641.90
1289.941,1649.67
1290.846,1648.07
1291.751,1647.67
1292.658,1681.80
1293.563,1626.83
1294.468,1682.87
1295.375,1689.77
1296.280,1624.87
1297.184,1672.77
1298.091,1623.00
1298.995,1637.90
1299.900,1616.60
1300.806,1599.83
1301.710,1652.53
1302.614,1592.93
1303.518,1613.90
1304.424,1597.23
1305.327,1572.87
1306.231,1564.37
1307.137,1568.17
1308.040,1574.03
1308.943,1580.87
1309.847,1537.30
1310.752,1529.33
1311.655,1571.43
1312.558,1543.37
1313.463,1545.67
1314.366,1493.30
1315.269,1485.17
1316.171,1482.10
1317.076,1470.83
1317.978,1459.87
1318.881,1492.83
1319.785,1436.80
1320.687,1446.20
1321.589,1463.47
1322.491,1429.67
1323.395,1421.70
1324.297,1407.00
1325.198,1391.27
1326.102,1417.27
1327.004,1415.90
1327.905,1375.00
1328.806,1359.17
1329.709,1395.27
1330.611,1372.03
1331.512,1322.63
1332.413,1342.37
1333.316,1311.90
1334.216,1315.53
1335.117,1322.47
1336.020,1285.70
1336.920,1281.10
1337.821,1289.90
1338.721,1295.13
1339.623,1224.87
1340.523,1242.03
1341.423,1233.37
1342.323,1213.80
1343.225,1209.50
1344.125,1226.10
1345.025,1196.07
1345.924,1186.60
1346.826,1207.30
1347.725,1154.00
1348.624,1190.93
1349.524,1187.27
1350.425,1178.60
1351.324,1158.83
1352.223,1143.47
1353.121,1125.50
1354.022,1128.33
1354.921,1126.57
1355.819,1087.33
1356.718,1117.67
1357.618,1124.90
1358.516,1066.90
1359.415,1129.50
1360.313,1097.40
1361.213,1050.30
1362.111,1080.57
1363.008,1069.17
1363.906,1071.33
1364.806,1056.43
1365.703,1038.27
1366.601,1040.83
1367.498,1008.50
1368.397,1022.67
1369.295,1014.07
1370.192,982.57
1371.089,1005.07
1371.987,992.40
1372.884,990.57
1373.781,971.03
1374.678,1001.40
1375.574,981.47
1376.473,954.23
1377.369,963.23
1378.265,970.13
1379.161,962.70
1380.059,974.67
1380.955,965.90
1381.851,955.27
1382.747,917.47
1383.643,931.67
1384.540,939.70
1385.436,946.30
1386.331,930.60
1387.227,960.87
1388.124,909.57
1389.019,892.50
1389.914,895.10
1390.809,884.50
1391.704,925.97
1392.601,912.73
1393.495,873.77
1394.390,878.10
1395.285,867.30
1396.179,899.93
1397.075,881.30
1397.969,866.90
1398.864,857.97
1399.758,901.60
1400.652,884.70
1401.547,873.20
1402.441,876.67
1403.335,840.53
1404.229,878.33
1405.122,860.60
1406.017,844.07
1406.911,807.50
1407.804,825.10
1408.697,848.33
1409.590,819.90
1410.485,828.33
1411.378,829.30
1412.271,866.20
1413.163,806.63
1414.056,847.53
1414.949,866.13
1415.843,819.27
1416.735,815.23
1417.627,826.83
1418.520,842.67
1419.412,777.33
1420.306,800.33
1421.197,831.30
1422.089,825.20
1422.981,779.10
1423.873,780.90
1424.764,773.33
1425.657,823.30
1426.549,814.43
1427.440,845.00
1428.331,755.83
1429.222,761.07
1430.113,789.37
1431.006,772.97
1431.897,775.70
1432.787,762.30
1433.678,807.00
1434.568,758.63
1435.459,830.33
1436.351,768.60
1437.241,770.57
1438.131,739.67
1439.021,750.17
1439.911,745.80
1440.801,748.27
1441.693,728.37
1442.583,747.87
1443.472,753.37
1444.362,747.03
1445.251,761.30
1446.140,763.27
1447.030,781.83
1447.921,761.80
1448.810,749.63
1449.699,773.43
1450.588,724.30
1451.476,762.50
1452.365,749.07
1453.254,759.00
1454.144,738.07
1455.032,727.97
1455.921,711.87
1456.809,714.70
1457.697,732.17
1458.585,715.13
1459.473,727.93
1460.361,716.63
1461.251,740.43
1462.138,726.73
1463.026,721.03
1463.913,730.80
1464.801,697.40
1465.688,696.87
1466.575,681.43
1467.463,721.63
1468.351,721.60
1469.238,699.07
1470.125,683.57
1471.012,668.03
1471.899,743.30
1472.785,693.20
1473.672,718.47
1474.558,709.23
1475.446,688.80
1476.333,688.53
1477.219,684.00
1478.105,665.93
1478.991,685.30
1479.877,709.90
1480.762,681.20
1481.648,636.83
1482.534,687.67
1483.419,691.43
1484.307,675.03
1485.192,680.03
1486.077,684.50
1486.962,690.70
1487.847,661.90
1488.732,684.33
1489.617,650.93
1490.502,683.30
1491.387,691.27
1492.271,663.90
1493.156,639.00
1494.042,662.30
1494.927,652.23
1495.811,649.20
1496.695,665.93
1497.579,650.63
1498.463,659.73
1499.347,684.00
1500.231,644.90
1501.114,626.37
1501.998,637.90
1502.881,642.03
1503.765,616.07
1504.648,669.43
1505.533,641.67
1506.417,668.57
1507.300,631.73
1508.183,598.77
1509.066,661.47
1509.948,658.03
1510.831,691.03
1511.714,627.67
1512.596,671.47
1513.479,634.63
1514.361,685.30
1515.243,645.27
1516.125,628.53
1517.008,657.27
1517.890,628.07
1518.771,643.13
1519.655,653.63
1520.537,641.40
1521.419,601.80
1522.300,626.80
1523.182,670.97
1524.063,637.30
1524.944,619.83
1525.825,680.37
1526.707,610.27
1527.588,599.30
1528.468,639.40
1529.349,624.13
1530.230,594.07
1531.111,622.27
1531.991,626.50
1532.872,620.37
1533.752,582.60
1534.632,615.83
1535.513,569.40
1536.393,623.10
1537.273,605.03
1538.153,629.67
1539.032,578.37
1539.912,571.70
1540.792,594.27
1541.672,615.20
1542.551,596.57
1543.430,635.40
1544.310,636.33
1545.189,588.07
1546.068,594.30
1546.947,575.63
1547.826,616.57
1548.705,606.97
1549.584,624.00
1550.462,612.63
1551.341,615.03
1552.219,601.60
1553.098,600.90
1553.976,577.87
1554.854,586.90
1555.733,576.37
1556.611,588.50
1557.489,559.83
1558.367,572.80
1559.244,640.67
1560.122,615.30
1561.000,579.50
1561.877,607.63
1562.755,606.90
1563.632,559.97
1564.509,605.13
1565.386,561.23
1566.264,600.03
1567.141,592.33
1568.017,560.53
1568.894,620.60
1569.771,619.10
1570.648,555.23
1571.524,591.93
1572.401,576.40
1573.277,607.40
1574.153,593.40
1575.029,600.57
1575.906,581.87
1576.781,561.90
1577.657,579.93
1578.533,578.10
1579.409,565.67
1580.285,610.27
1581.160,511.77
1582.036,570.97
1582.911,581.77
1583.786,575.53
1584.662,548.07
1585.537,546.93
1586.412,536.13
1587.287,579.70
1588.160,563.50
1589.035,532.00
1589.909,588.90
1590.784,522.83
1591.658,554.63
1592.533,558.93
1593.407,579.50
1594.281,545.77
1595.155,533.80
1596.029,550.03
1596.903,549.47
1597.777,540.33
1598.651,584.80
1599.525,529.13
1600.398,545.17
1601.272,515.27
1602.144,578.00
1603.017,549.73
1603.890,542.70
1604.763,601.10
1605.636,545.07
1606.509,561.17
1607.382,550.17
1608.255,575.40
1609.128,583.33
1610.000,561.87
1610.873,550.00
1611.746,559.37
1612.616,581.63
1613.488,534.30
1614.361,543.70
1615.233,555.93
1616.105,577.53
1616.977,533.37
1617.849,556.77
1618.720,534.93
1619.592,550.97
1620.464,531.70
1621.333,565.73
1622.205,516.73
1623.076,536.70
1623.947,525.27
1624.818,561.67
1625.689,547.53
1626.560,533.03
1627.431,521.33
1628.302,542.57
1629.171,564.80
1630.042,567.40
1630.912,537.37
1631.782,536.00
1632.653,544.80
1633.523,533.80
1634.393,542.83
1635.263,537.23
1636.131,535.30
1637.001,511.17
1637.871,542.23
1638.741,504.00
1639.611,513.47
1640.480,489.03
1641.350,523.37
1642.219,526.10
1643.087,495.97
1643.956,500.17
1644.825,567.87
1645.694,509.97
1646.563,559.77
1647.432,517.73
1648.299,514.73
1649.167,503.17
1650.036,525.83
1650.904,547.07
1651.773,510.30
1652.641,536.60
1653.509,520.60
1654.376,486.10
1655.244,505.67
1656.112,556.70
1656.980,528.60
1657.847,508.57
1658.715,522.93
1659.581,544.57
1660.448,537.70
1661.316,539.27
1662.183,516.80
1663.051,506.07
1663.918,508.83
1664.783,529.97
1665.650,495.30
1666.517,511.90
1667.384,513.53
1668.251,557.60
1669.115,552.97
1669.982,519.53
1670.849,493.30
1671.715,512.87
1672.581,541.07
1673.446,504.07
1674.312,487.87
1675.178,498.27
1676.044,532.37
1676.910,505.87
1677.774,513.50
1678.639,508.90
1679.505,522.77
1680.370,473.30
1681.236,502.27
1682.099,490.80
1682.965,461.63
1683.830,504.87
1684.695,486.33
1685.560,516.80
1686.423,475.83
1687.288,483.50
1688.153,483.83
1689.017,461.03
1689.880,479.17
1690.745,511.27
1691.609,519.97
1692.473,399.73
1693.338,488.93
1694.200,538.57
1695.064,499.47
1695.928,480.47
1696.792,524.43
1697.654,468.77
1698.517,497.20
1699.381,477.07
1700.245,523.07
1701.106,512.90
1701.969,457.70
1702.833,506.47
1703.696,515.50
1704.557,497.87
1705.420,510.27
1706.283,480.97
1707.146,512.07
1708.007,463.37
1708.870,490.60
1709.732,484.90
1710.595,494.67
1711.455,461.97
1712.318,474.50
1713.180,513.77
1714.040,470.63
1714.902,498.57
1715.764,468.53
1716.626,483.70
1717.486,499.03
1718.348,504.03
1719.209,1233.13
1720.071,469.70
1720.930,480.77
1721.792,470.87
1722.653,470.00
1723.512,471.33
1724.374,494.33
1725.234,447.70
1726.095,454.87
1726.954,496.73
1727.815,460.00
1728.676,462.47
1729.535,482.37
1730.395,498.07
1731.256,479.50
1732.114,476.17
1732.974,512.83
1733.834,488.40
1734.693,491.93
1735.553,455.07
1736.413,495.70
1737.272,481.40
1738.130,449.90
1738.990,514.67
1739.849,464.30
1740.707,468.50
1741.566,499.63
1742.426,454.73
1743.283,474.63
1744.142,485.90
1745.001,466.87
1745.858,489.77
1746.717,476.73
1747.576,431.33
1748.433,480.90
1749.292,471.27
1750.150,460.60
1751.007,481.20
1751.865,458.80
1752.723,465.57
1753.579,479.50
1754.438,460.50
1755.296,455.70
1756.152,438.83
1757.010,498.50
1757.865,482.20
1758.723,480.23
1759.581,450.07
1760.436,457.07
1761.294,506.07
1762.151,474.17
1763.006,490.77
1763.864,462.07
1764.721,456.67
1765.576,453.67
1766.433,462.13
1767.288,480.97
1768.144,464.33
1769.001,473.00
1769.856,452.87
1770.712,469.60
1771.568,485.73
1772.423,472.80
1773.279,470.53
1774.133,471.63
1774.989,509.57
1775.845,456.90
1776.699,476.33
1777.555,479.00
1778.409,497.80
1779.265,502.47
1780.120,466.30
1780.974,446.40
1781.829,472.87
1782.682,458.57
1783.538,468.63
1784.393,436.30
1785.246,471.17
1786.101,456.23
1786.954,464.37
1787.808,471.43
1788.661,502.60
1789.516,459.17
1790.370,463.90
1791.223,472.53
1792.077,490.43
1792.930,446.23
1793.784,451.00
1794.636,502.77
1795.490,435.40
1796.344,455.70
1797.196,473.27
1798.049,463.80
1798.901,446.10
1799.755,432.93
1800.606,459.40
1801.460,462.80
1802.311,455.20
1803.165,451.27
1804.018,474.17
1804.869,459.50
1805.722,472.17
1806.573,435.93
1807.426,469.60
1808.276,438.60
1809.129,455.57
1809.980,445.73
1810.832,467.90
1811.683,452.27
1812.535,445.93
1813.385,431.87
1814.237,454.37
1815.089,463.53
1815.940,466.90
1816.791,435.63
1817.641,468.03
1818.493,464.70
1819.343,464.63
1820.194,443.80
1821.044,454.90
1821.895,459.77
1822.745,456.60
1823.596,437.63
1824.445,451.30
1825.296,494.77
1826.145,451.67
1826.996,458.13
1827.845,477.90
1828.695,455.33
1829.544,439.87
1830.395,453.40
1831.243,471.87
1832.094,451.83
1832.942,448.87
1833.792,415.60
1834.640,442.23
1835.490,456.97
1836.338,443.07
1837.186,457.47
1838.036,411.60
1838.884,438.57
1839.733,464.63
1840.581,454.30
1841.430,449.63
1842.278,454.93
1843.127,424.20
1843.974,436.43
1844.823,397.23
1845.671,407.10
1846.519,464.07
1847.366,431.30
1848.213,442.83
1849.062,471.10
1849.909,454.70
1850.757,487.97
1851.604,435.43
1852.452,490.10
1853.298,455.47
1854.146,454.90
1854.993,463.03
1855.839,456.77
1856.687,462.07
1857.532,457.63
1858.380,442.63
1859.226,454.60
1860.073,418.27
1860.919,431.67
1861.765,456.90
1862.612,464.83
1863.457,421.73
1864.304,386.23
1865.150,459.07
1865.995,422.90
1866.842,432.00
1867.686,394.80
1868.533,423.53
1869.378,462.77
1870.223,382.10
1871.069,429.30
1871.914,397.87
1872.760,393.20
1873.604,429.07
1874.448,415.40
1875.294,450.17
1876.139,421.70
1876.984,421.23
1877.828,429.23
1878.672,420.40
1879.518,411.00
1880.361,408.50
1881.205,437.87
1882.050,426.07
1882.894,461.47
1883.739,462.37
1884.582,440.80
1885.425,446.50
1886.270,415.90
1887.113,467.77
1887.956,428.97
1888.801,423.03
1889.644,415.17
1890.486,449.13
1891.331,430.87
1892.173,434.73
1893.017,490.73
1893.860,420.87
1894.702,459.67
1895.546,443.20
1896.388,401.23
1897.230,439.10
1898.074,429.57
1898.916,420.00
1899.757,432.77
1900.601,437.83
1901.443,429.37
1902.284,406.97
1903.125,429.63
1903.969,402.97
1904.810,485.93
1905.651,428.17
1906.494,402.47
1907.335,462.30
1908.176,469.07
1909.018,431.63
1909.859,467.07
1910.700,447.17
1911.542,393.97
1912.383,426.40
1913.223,400.30
1914.064,452.63
1914.906,399.13
1915.746,418.43
1916.586,435.03
1917.428,411.43
1918.268,452.27
1919.107,425.53
1919.947,429.90
1920.789,403.83
1921.628,415.83
1922.468,433.53
1923.309,397.13
1924.148,440.33
1924.988,430.30
1925.827,388.73
1926.667,447.37
1927.507,417.43
1928.345,433.43
1929.184,440.23
1930.025,421.87
1930.864,440.57
1931.702,441.07
1932.541,403.23
1933.381,431.97
1934.219,418.43
1935.057,393.87
1935.896,408.97
1936.735,405.00
1937.573,434.63
1938.411,416.60
1939.249,427.67
1940.089,421.77
1940.927,449.50
1941.764,428.70
1942.602,418.87
1943.439,416.10
1944.278,446.77
1945.115,443.40
1945.953,411.80
1946.790,432.63
1947.628,397.30
1948.465,421.03
1949.302,413.80
1950.139,439.80
1950.976,432.23
1951.814,409.17
1952.651,421.67
1953.487,450.13
1954.323,429.00
1955.160,431.83
1955.998,442.60
1956.834,427.30
1957.670,447.43
1958.506,432.70
1959.342,411.97
1960.177,420.90
1961.015,416.47
1961.850,438.13
1962.686,410.27
1963.521,372.53
1964.357,462.10
1965.192,431.90
1966.029,425.87
1966.864,393.50
1967.699,382.27
1968.534,381.17
1969.369,426.47
1970.204,381.53
1971.040,428.57
1971.875,411.23
1972.709,385.17
1973.544,422.37
1974.378,417.43
1975.212,396.50
1976.047,409.87
1976.882,420.50
1977.716,414.13
1978.550,405.23
1979.384,449.60
1980.218,411.77
1981.052,443.07
1981.885,418.80
1982.719,416.37
1983.554,383.07
1984.388,439.87
1985.221,409.73
1986.054,422.10
1986.887,416.33
1987.720,418.17
1988.553,389.17
1989.386,426.10
1990.219,394.90
1991.053,412.23
1991.886,415.20
1992.719,395.13
1993.551,404.13
1994.383,410.23
1995.216,407.63
1996.048,419.43
1996.880,395.90
1997.712,409.93
1998.544,408.43
1999.376,433.53
2000.208,411.20
2000.208,411.20

Max Intensity Wave.,226.101
Max Intensity Data,5985.53
Min Intensity Wave.,1963.521
Min Intensity Data,372.53
FWHM Wave.,398.244
FWHM Value,7.42
Pressure Wave.,684.671
Pressure Value [GPa],-24.91530
G/D Ratio,0.38914
G/D Gband Wave.,1559.444
G/D Gband Intensity,643.09
G/D Dband Wave.,1301.682
G/D Dband Intensity,1652.59

<< BACKGROUND SPECTRUM >>
Wave[dcm-1],No280
146.591,2255.00
147.626,2098.00
148.664,2019.00
149.699,2500.00
150.737,2217.00
151.772,2390.00
152.809,2348.00
153.846,2270.00
154.881,2364.00
155.918,1955.00
156.953,2300.00
157.989,2548.00
159.026,2409.00
160.060,2609.00
161.096,2831.00
162.130,2484.00
163.167,2532.00
164.200,2426.00
165.236,2631.00
166.272,2643.00
167.305,2264.00
168.341,2501.00
169.374,2781.00
170.409,2739.00
171.445,2702.00
172.477,2501.00
173.512,2358.00
174.545,2606.00
175.580,2834.00
176.614,3012.00
177.647,2775.00
178.681,3033.00
179.713,3301.00
180.747,2780.00
181.781,2689.00
182.813,2978.00
183.847,3059.00
184.878,2683.00
185.912,2968.00
186.945,3059.00
187.976,3036.00
189.010,2695.00
190.043,2770.00
191.073,2892.00
192.106,2715.00
193.137,3145.00
194.170,2514.00
195.202,2869.00
196.232,2705.00
197.265,2915.00
198.297,2999.00
199.327,2760.00
200.359,2918.00
201.388,3266.00
202.420,2895.00
203.452,3078.00
204.481,2612.00
205.512,3305.00
206.544,3053.00
207.573,3030.00
208.604,3348.00
209.635,3465.00
210.663,2922.00
211.694,2927.00
212.725,2745.00
213.753,2757.00
214.783,3303.00
215.813,3220.00
216.841,2978.00
217.871,3151.00
218.899,2902.00
219.929,3091.00
220.959,2869.00
221.986,3124.00
223.016,2731.00
224.045,3089.00
225.072,3099.00
226.101,3158.00
227.130,3192.00
228.157,2795.00
229.185,2355.00
230.214,3151.00
231.241,2789.00
232.269,2457.00
233.297,2654.00
234.323,3210.00
235.351,2791.00
236.379,3051.00
237.407,2758.00
238.433,2917.00
239.460,3073.00
240.488,3102.00
241.513,3178.00
242.540,3032.00
243.568,3158.00
244.592,3195.00
245.619,3152.00
246.646,2884.00
247.671,2956.00
248.697,2760.00
249.724,2998.00
250.748,2968.00
251.774,2981.00
252.801,3241.00
253.827,3096.00
254.850,3041.00
255.876,2657.00
256.902,3106.00
257.925,2947.00
258.951,2696.00
259.976,2747.00
260.999,3039.00
262.024,2760.00
263.049,3602.00
264.074,3081.00
265.097,2982.00
266.122,3043.00
267.146,2988.00
268.168,3217.00
269.193,2782.00
270.217,3160.00
271.241,2662.00
272.263,2857.00
273.287,3171.00
274.311,2713.00
275.332,3260.00
276.356,2808.00
277.379,3047.00
278.402,3110.00
279.424,2907.00
280.447,2893.00
281.470,2692.00
282.492,3090.00
283.513,2885.00
284.536,3123.00
285.558,3114.00
286.581,3045.00
287.601,2816.00
288.623,2763.00
289.645,3035.00
290.665,3089.00
291.687,3115.00
292.709,3104.00
293.730,3399.00
294.750,2838.00
295.771,2739.00
296.792,3038.00
297.813,2872.00
298.832,3019.00
299.853,2676.00
300.874,2971.00
301.895,2924.00
302.913,2988.00
303.934,3226.00
304.954,2984.00
305.975,3210.00
306.993,2729.00
308.013,3113.00
309.033,3028.00
310.052,2897.00
311.072,2884.00
312.090,3002.00
313.109,3206.00
314.129,3360.00
315.148,2998.00
316.165,3036.00
317.184,3240.00
318.203,2745.00
319.222,2776.00
320.238,3121.00
321.257,2757.00
322.275,2713.00
323.294,2946.00
324.312,3141.00
325.328,3246.00
326.346,3218.00
327.364,3230.00
328.382,3153.00
329.397,3091.00
330.415,3221.00
331.432,3180.00
332.450,3217.00
333.467,3431.00
334.482,2551.00
335.499,3367.00
336.516,2832.00
337.533,2578.00
338.547,2834.00
339.564,2827.00
340.580,3087.00
341.597,2905.00
342.613,3348.00
343.627,2933.00
344.643,2986.00
345.659,3062.00
346.675,2967.00
347.690,2820.00
348.704,3035.00
349.719,2885.00
350.735,2725.00
351.750,3170.00
352.765,3008.00
353.778,2971.00
354.793,3126.00
355.808,2822.00
356.822,3184.00
357.837,2656.00
358.851,3222.00
359.864,2940.00
360.878,2740.00
361.892,2949.00
362.906,3125.00
363.920,2545.00
364.932,3061.00
365.945,3069.00
366.959,2979.00
367.972,2910.00
368.986,2731.00
369.999,3338.00
371.010,2815.00
372.023,3303.00
373.036,2909.00
374.049,3311.00
375.061,3009.00
376.072,2999.00
377.084,2822.00
378.097,2734.00
379.109,3143.00
380.121,2931.00
381.133,2647.00
382.143,3152.00
383.155,2700.00
384.166,2850.00
385.178,3031.00
386.189,3167.00
387.201,2712.00
388.212,2905.00
389.221,2893.00
390.232,3002.00
391.243,2887.00
392.254,3029.00
393.264,2787.00
394.275,3191.00
395.283,3136.00
396.294,3575.00
397.304,3427.00
398.314,3090.00
399.324,3031.00
400.334,2653.00
401.344,3126.00
402.351,2638.00
403.361,3188.00
404.370,2918.00
405.380,2926.00
406.389,3300.00
407.398,3113.00
408.407,3085.00
409.414,3129.00
410.423,3273.00
411.431,2737.00
412.440,2654.00
413.448,3307.00
414.457,2839.00
415.465,2811.00
416.471,2819.00
417.479,2997.00
418.487,2775.00
419.495,3267.00
420.503,3106.00
421.510,2579.00
422.518,3151.00
423.525,3167.00
424.530,3375.00
425.537,2897.00
426.544,3206.00
427.551,2874.00
428.558,3522.00
429.565,3427.00
430.571,2887.00
431.578,2857.00
432.582,2849.00
433.588,2969.00
434.595,2599.00
435.601,3259.00
436.607,3199.00
437.612,2766.00
438.618,3271.00
439.624,2939.00
440.627,2926.00
441.633,3087.00
442.638,3553.00
443.643,3114.00
444.648,2967.00
445.653,3216.00
446.658,2862.00
447.663,2979.00
448.667,2836.00
449.672,2866.00
450.674,2917.00
451.678,2717.00
452.682,2855.00
453.687,2840.00
454.690,3553.00
455.694,3239.00
456.698,2606.00
457.702,2647.00
458.705,2753.00
459.709,2822.00
460.710,2875.00
461.713,3009.00
462.716,3047.00
463.719,2931.00
464.722,3157.00
465.725,2974.00
466.727,2791.00
467.730,2979.00
468.732,2763.00
469.735,3267.00
470.737,2880.00
471.737,2898.00
472.739,2863.00
473.741,2755.00
474.742,3035.00
475.744,3077.00
476.746,3017.00
477.747,2939.00
478.748,3162.00
479.750,2903.00
480.751,2975.00
481.752,3703.00
482.753,3043.00
483.751,3521.00
484.752,2598.00
485.753,2935.00
486.753,2859.00
487.753,2954.00
488.754,3399.00
489.754,2709.00
490.754,3275.00
491.754,3111.00
492.754,2677.00
493.753,2971.00
494.753,2899.00
495.752,3298.00
496.752,3002.00
497.749,2955.00
498.748,2838.00
499.747,3418.00
500.746,3041.00
501.745,2776.00
502.744,2734.00
503.742,3284.00
504.741,2944.00
505.739,2474.00
506.737,2900.00
507.735,3088.00
508.734,3344.00
509.732,3109.00
510.729,3296.00
511.727,2872.00
512.725,2904.00
513.720,2784.00
514.718,3278.00
515.715,2680.00
516.712,2648.00
517.709,2984.00
518.706,2884.00
519.703,3020.00
520.700,3213.00
521.696,3329.00
522.693,2880.00
523.689,2804.00
524.686,3172.00
525.682,2786.00
526.678,3495.00
527.674,2913.00
528.670,2593.00
529.666,3488.00
530.661,3404.00
531.657,3718.00
532.652,3131.00
533.648,2951.00
534.641,3184.00
535.636,3008.00
536.631,3088.00
537.626,3107.00
538.621,2759.00
539.616,2593.00
540.610,2512.00
541.605,3020.00
542.599,3062.00
543.593,2967.00
544.587,3915.00
545.581,2824.00
546.575,3013.00
547.569,3012.00
548.563,2675.00
549.557,2682.00
550.550,2745.00
551.543,2751.00
552.537,3160.00
553.530,2695.00
554.523,2748.00
555.516,3079.00
556.509,2934.00
557.502,2620.00
558.494,3139.00
559.487,2893.00
560.479,3187.00
561.472,3200.00
562.464,3113.00
563.456,3263.00
564.448,2910.00
565.440,3002.00
566.432,3384.00
567.423,2851.00
568.415,2878.00
569.404,3096.00
570.396,2824.00
571.387,3096.00
572.378,2959.00
573.369,3912.00
574.360,3657.00
575.351,2921.00
576.341,2840.00
577.332,2870.00
578.323,2661.00
579.313,2867.00
580.303,3230.00
581.293,3100.00
582.283,2996.00
583.273,3114.00
584.263,3018.00
585.253,3060.00
586.243,3125.00
587.232,2648.00
588.222,2928.00
589.211,3116.00
590.200,3057.00
591.189,2923.00
592.178,2908.00
593.167,3432.00
594.156,3240.00
595.145,2919.00
596.133,3443.00
597.122,3120.00
598.110,3180.00
599.098,3081.00
600.086,2994.00
601.074,3171.00
602.062,2776.00
603.050,2736.00
604.038,3087.00
605.025,2761.00
606.013,3171.00
607.000,3368.00
607.987,3020.00
608.975,3034.00
609.962,2775.00
610.949,3054.00
611.936,3245.00
612.922,3160.00
613.909,2681.00
614.895,3359.00
615.882,2800.00
616.868,3006.00
617.854,2732.00
618.841,3015.00
619.826,3022.00
620.812,2992.00
621.798,2776.00
622.784,3161.00
623.769,3074.00
624.755,2717.00
625.740,3053.00
626.725,2713.00
627.711,2838.00
628.698,3049.00
629.683,2819.00
630.667,3162.00
631.652,2738.00
632.637,2956.00
633.621,3115.00
634.606,2910.00
635.590,3117.00
636.574,2961.00
637.558,3049.00
638.542,3047.00
639.526,2845.00
640.510,2642.00
641.493,3074.00
642.477,2930.00
643.460,2654.00
644.444,3259.00
645.427,3225.00
646.410,2637.00
647.393,2933.00
648.376,3028.00
649.359,2871.00
650.341,3087.00
651.324,3058.00
652.307,3058.00
653.289,2965.00
654.271,2882.00
655.253,2871.00
656.235,3108.00
657.217,3205.00
658.199,2627.00
659.181,2737.00
660.163,2987.00
661.144,2829.00
662.126,2843.00
663.107,2763.00
664.088,6175.00
665.069,3246.00
666.050,2766.00
667.033,2738.00
668.014,3027.00
668.995,2598.00
669.975,2960.00
670.956,2949.00
671.936,3092.00
672.916,2891.00
673.896,3081.00
674.876,2912.00
675.856,2842.00
676.836,2720.00
677.816,2294.00
678.795,2807.00
679.775,2684.00
680.754,3033.00
681.734,3101.00
682.713,3136.00
683.692,2755.00
684.671,2601.00
685.650,2738.00
686.629,2831.00
687.607,2737.00
688.586,2754.00
689.564,2854.00
690.543,3252.00
691.523,2387.00
692.501,2822.00
693.479,2913.00
694.457,2748.00
695.435,2864.00
696.413,2630.00
697.390,2484.00
698.368,2662.00
699.345,3089.00
700.322,2925.00
701.300,3089.00
702.277,3016.00
703.254,3229.00
704.231,2542.00
705.207,2930.00
706.184,2783.00
707.161,2633.00
708.137,2826.00
709.113,2773.00
710.090,2800.00
711.068,2550.00
712.044,2611.00
713.020,2881.00
713.996,2619.00
714.971,2824.00
715.947,2881.00
716.922,2786.00
717.898,2738.00
718.873,2874.00
719.848,2701.00
720.823,2667.00
721.798,2913.00
722.773,2760.00
723.748,2501.00
724.723,3051.00
725.697,2810.00
726.672,2726.00
727.646,2493.00
728.622,2951.00
729.596,2603.00
730.570,2717.00
731.544,3069.00
732.518,3234.00
733.492,2823.00
734.466,2902.00
735.439,2987.00
736.413,3123.00
737.386,2444.00
738.359,2455.00
739.332,2512.00
740.305,2818.00
741.278,3298.00
742.251,2853.00
743.224,2727.00
744.196,2548.00
745.171,3101.00
746.143,3013.00
747.115,2791.00
748.087,2699.00
749.059,3037.00
750.031,2850.00
751.003,3646.00
751.975,3223.00
752.947,2670.00
753.918,3062.00
754.890,2557.00
755.861,2716.00
756.832,3003.00
757.803,2805.00
758.774,2845.00
759.747,2611.00
760.718,3221.00
761.689,2758.00
762.659,2607.00
763.630,3094.00
764.600,2535.00
765.570,3082.00
766.540,3124.00
767.510,2947.00
768.480,3029.00
769.450,2706.00
770.420,2857.00
771.390,2617.00
772.359,2718.00
773.329,2603.00
774.300,2520.00
775.269,2723.00
776.238,2947.00
777.207,3125.00
778.176,2490.00
779.145,2781.00
780.114,2710.00
781.083,2558.00
782.051,2755.00
783.019,2640.00
783.988,3046.00
784.956,2829.00
785.924,2985.00
786.894,2838.00
787.862,2688.00
788.830,3121.00
789.797,2591.00
790.765,2559.00
791.732,2733.00
792.700,2645.00
793.667,2582.00
794.634,2707.00
795.601,2723.00
796.568,2767.00
797.535,2855.00
798.502,3372.00
799.468,2915.00
800.437,2419.00
801.403,2650.00
802.370,3242.00
803.336,2969.00
804.302,2835.00
805.268,2419.00
806.234,2541.00
807.200,2744.00
808.166,2806.00
809.131,2535.00
810.097,2982.00
811.062,3599.00
812.027,3004.00
812.994,2588.00
813.960,2591.00
814.925,2912.00
815.889,2486.00
816.854,2997.00
817.819,2613.00
818.783,2718.00
819.748,3029.00
820.712,2733.00
821.677,2666.00
822.641,2694.00
823.605,2693.00
824.571,3138.00
825.534,2687.00
826.498,2696.00
827.462,2800.00
828.425,2587.00
829.389,3028.00
830.352,2798.00
831.315,2880.00
832.279,2525.00
833.242,2742.00
834.204,2657.00
835.167,2649.00
836.132,3029.00
837.095,2514.00
838.057,2717.00
839.020,2818.00
839.982,2839.00
840.944,2687.00
841.906,2620.00
842.868,2954.00
843.830,2577.00
844.792,3074.00
845.753,2655.00
846.715,2428.00
847.679,2612.00
848.640,2630.00
849.601,2736.00
850.562,3239.00
851.523,2697.00
852.484,2444.00
853.445,2920.00
854.406,2736.00
855.367,2711.00
856.327,3070.00
857.288,2505.00
858.248,2661.00
859.210,2672.00
860.170,2499.00
861.130,3012.00
862.090,2410.00
863.050,2634.00
864.010,2700.00
864.969,2858.00
865.929,2605.00
866.888,2549.00
867.848,2812.00
868.807,2628.00
869.766,2829.00
870.727,2731.00
871.686,2967.00
872.645,2992.00
873.604,3272.00
874.562,2763.00
875.521,2794.00
876.479,3371.00
877.437,2616.00
878.396,2577.00
879.354,3183.00
880.312,2661.00
881.270,2691.00
882.229,3105.00
883.187,2634.00
884.145,2655.00
885.102,2926.00
886.059,2815.00
887.017,2886.00
887.974,2949.00
888.931,3062.00
889.888,2532.00
890.845,2447.00
891.802,2353.00
892.758,2631.00
893.717,2445.00
894.673,2577.00
895.630,2615.00
896.586,2906.00
897.542,2674.00
898.498,2507.00
899.454,2859.00
900.410,2650.00
901.366,2648.00
902.321,2597.00
903.277,2702.00
904.232,2758.00
905.189,2481.00
906.145,2636.00
907.100,2239.00
908.055,2737.00
909.010,2929.00
909.965,2355.00
910.919,2740.00
911.874,2579.00
912.828,2762.00
913.783,2759.00
914.737,2375.00
915.693,2752.00
916.648,2955.00
917.602,3009.00
918.555,2770.00
919.509,2835.00
920.463,2772.00
921.417,2755.00
922.370,2555.00
923.324,2644.00
924.277,2670.00
925.230,2732.00
926.183,2418.00
927.138,2675.00
928.091,2989.00
929.044,2816.00
929.996,2656.00
930.949,2645.00
931.902,2834.00
932.854,2822.00
933.806,2649.00
934.758,2961.00
935.711,2982.00
936.663,2744.00
937.614,2769.00
938.568,2734.00
939.520,2403.00
940.471,2729.00
941.423,2776.00
942.374,2866.00
943.326,2765.00
944.277,2587.00
945.228,2862.00
946.179,2701.00
947.130,3008.00
948.080,2643.00
949.031,2562.00
949.984,2641.00
950.934,2691.00
951.884,2488.00
952.835,2710.00
953.785,2744.00
954.735,2598.00
955.685,2339.00
956.635,2613.00
957.585,2592.00
958.534,2641.00
959.484,2744.00
960.433,2671.00
961.383,2467.00
962.334,2965.00
963.283,2771.00
964.232,2873.00
965.181,2706.00
966.130,2810.00
967.079,2619.00
968.027,2714.00
968.976,2723.00
969.924,2613.00
970.873,2829.00
971.821,2699.00
972.769,2948.00
973.719,2891.00
974.667,2479.00
975.615,2723.00
976.562,2698.00
977.510,2400.00
978.458,2602.00
979.405,2826.00
980.352,2786.00
981.300,2925.00
982.247,2784.00
983.194,2537.00
984.141,2629.00
985.088,2712.00
986.036,2799.00
986.983,3001.00
987.930,3126.00
988.876,2370.00
989.822,2948.00
990.769,2538.00
991.715,2579.00
992.661,2416.00
993.607,2760.00
994.553,3289.00
995.498,2596.00
996.444,2275.00
997.389,2801.00
998.337,2524.00
999.282,2875.00
1000.227,2648.00
1001.173,2751.00
1002.118,2454.00
1003.062,2901.00
1004.007,2706.00
1004.952,2968.00
1005.897,2906.00
1006.841,2720.00
1007.786,2466.00
1008.730,2401.00
1009.674,3176.00
1010.618,2648.00
1011.564,2512.00
1012.508,2417.00
1013.452,2959.00
1014.396,2721.00
1015.339,2609.00
1016.283,2700.00
1017.226,2758.00
1018.170,2703.00
1019.113,2875.00
1020.056,2742.00
1020.999,2773.00
1021.942,2616.00
1022.885,2834.00
1023.828,2990.00
1024.770,2484.00
1025.715,2759.00
1026.657,2692.00
1027.600,2761.00
1028.542,2904.00
1029.484,2769.00
1030.426,2862.00
1031.368,2749.00
1032.310,2583.00
1033.251,2541.00
1034.193,2698.00
1035.135,2476.00
1036.076,2647.00
1037.017,2586.00
1037.959,2814.00
1038.900,2745.00
1039.843,2765.00
1040.784,2747.00
1041.725,2793.00
1042.665,2613.00
1043.606,2754.00
1044.547,2735.00
1045.487,2366.00
1046.427,2675.00
1047.368,2750.00
1048.308,2237.00
1049.248,2491.00
1050.188,2693.00
1051.128,2615.00
1052.067,2636.00
1053.007,2367.00
1053.947,2374.00
1054.886,2574.00
1055.827,2523.00
1056.766,2892.00
1057.706,2479.00
1058.645,2664.00
1059.584,2752.00
1060.522,2934.00
1061.461,2453.00
1062.400,2486.00
1063.338,2652.00
1064.277,2485.00
1065.215,2476.00
1066.154,2410.00
1067.092,2584.00
1068.030,2624.00
1068.968,2803.00
1069.906,2992.00
1070.843,2997.00
1071.781,2709.00
1072.720,2796.00
1073.658,2815.00
1074.595,2577.00
1075.533,2559.00
1076.470,2603.00
1077.407,3020.00
1078.344,2794.00
1079.281,2791.00
1080.217,2311.00
1081.154,2690.00
1082.091,2728.00
1083.027,2468.00
1083.964,2907.00
1084.900,2534.00
1085.836,2589.00
1086.772,2896.00
1087.708,2468.00
1088.644,2842.00
1089.580,2689.00
1090.515,2763.00
1091.451,2613.00
1092.388,2733.00
1093.324,2432.00
1094.259,3259.00
1095.194,2715.00
1096.129,2583.00
1097.064,2563.00
1097.999,2813.00
1098.934,2543.00
1099.869,2547.00
1100.803,2678.00
1101.738,2674.00
1102.672,2379.00
1103.607,2782.00
1104.541,2531.00
1105.475,2540.00
1106.409,2417.00
1107.343,2579.00
1108.277,2429.00
1109.210,2711.00
1110.144,2660.00
1111.078,2686.00
1112.011,2438.00
1112.944,2774.00
1113.878,2706.00
1114.811,2204.00
1115.744,2556.00
1116.678,2321.00
1117.611,2528.00
1118.544,2564.00
1119.477,2745.00
1120.409,2528.00
1121.342,3126.00
1122.274,2725.00
1123.206,4220.00
1124.138,2671.00
1125.070,3004.00
1126.002,2828.00
1126.934,2310.00
1127.866,2560.00
1128.798,2315.00
1129.729,2388.00
1130.661,2668.00
1131.592,2561.00
1132.523,2704.00
1133.454,2791.00
1134.385,2308.00
1135.317,2649.00
1136.247,2566.00
1137.178,2849.00
1138.109,2382.00
1139.039,2977.00
1139.970,2803.00
1140.900,2565.00
1141.831,2342.00
1142.761,2241.00
1143.691,2754.00
1144.621,2655.00
1145.551,2687.00
1146.480,2689.00
1147.410,2827.00
1148.340,2280.00
1149.269,2350.00
1150.199,2594.00
1151.128,3035.00
1152.057,2426.00
1152.979,2605.00
1153.898,2584.00
1154.819,2704.00
1155.739,2626.00
1156.658,2576.00
1157.579,2643.00
1158.498,2600.00
1159.419,2197.00
1160.338,2677.00
1161.256,2705.00
1162.177,2503.00
1163.095,2609.00
1164.016,2695.00
1164.934,2886.00
1165.852,2819.00
1166.772,2610.00
1167.690,2654.00
1168.610,2711.00
1169.528,2660.00
1170.446,2202.00
1171.365,2568.00
1172.283,2529.00
1173.202,2667.00
1174.120,2676.00
1175.037,2524.00
1175.956,2441.00
1176.873,2531.00
1177.792,2531.00
1178.709,3088.00
1179.626,2568.00
1180.544,2855.00
1181.461,2511.00
1182.379,2722.00
1183.296,2621.00
1184.212,2285.00
1185.130,2494.00
1186.046,2975.00
1186.962,2617.00
1187.880,2923.00
1188.796,2687.00
1189.714,2424.00
1190.629,2722.00
1191.545,2723.00
1192.462,2543.00
1193.378,2639.00
1194.295,2372.00
1195.210,2657.00
1196.125,2739.00
1197.042,2699.00
1197.957,2610.00
1198.872,2501.00
1199.788,2539.00
1200.703,2922.00
1201.619,2626.00
1202.534,2536.00
1203.448,2710.00
1204.364,2590.00
1205.278,2301.00
1206.192,2664.00
1207.108,3116.00
1208.022,2980.00
1208.938,2476.00
1209.851,2758.00
1210.765,2864.00
1211.680,2540.00
1212.594,2397.00
1213.507,2541.00
1214.422,3052.00
1215.335,2733.00
1216.248,2581.00
1217.163,2627.00
1218.076,3219.00
1218.990,2713.00
1219.903,2395.00
1220.816,2478.00
1221.730,2615.00
1222.642,2531.00
1223.554,2519.00
1224.469,2702.00
1225.380,2612.00
1226.292,2310.00
1227.206,2739.00
1228.118,2922.00
1229.032,2253.00
1229.943,2512.00
1230.855,2569.00
1231.768,2374.00
1232.679,2733.00
1233.590,2618.00
1234.503,2861.00
1235.414,2503.00
1236.325,2488.00
1237.238,2658.00
1238.149,2733.00
1239.059,2406.00
1239.972,2802.00
1240.882,2433.00
1241.793,2764.00
1242.705,2970.00
1243.615,2568.00
1244.525,2692.00
1245.437,2198.00
1246.347,2672.00
1247.259,2797.00
1248.168,3081.00
1249.078,2897.00
1249.989,2885.00
1250.899,2404.00
1251.808,2471.00
1252.719,2570.00
1253.628,2482.00
1254.537,2982.00
1255.448,2456.00
1256.357,2479.00
1257.266,2640.00
1258.176,2392.00
1259.085,2340.00
1259.993,2457.00
1260.904,2486.00
1261.812,2473.00
1262.720,3192.00
1263.630,2764.00
1264.538,2462.00
1265.446,2725.00
1266.356,2631.00
1267.263,2897.00
1268.171,2436.00
1269.080,2640.00
1269.988,2807.00
1270.895,2526.00
1271.804,2586.00
1272.711,2761.00
1273.619,2765.00
1274.527,2454.00
1275.434,2724.00
1276.341,2404.00
1277.248,2643.00
1278.156,2919.00
1279.063,2480.00
1279.969,2740.00
1280.877,3520.00
1281.783,2847.00
1282.690,2670.00
1283.598,2597.00
1284.503,2469.00
1285.409,2485.00
1286.317,3026.00
1287.223,3048.00
1288.128,2675.00
1289.036,2534.00
1289.941,2566.00
1290.846,2636.00
1291.751,2477.00
1292.658,2506.00
1293.563,3085.00
1294.468,2608.00
1295.375,2740.00
1296.280,2891.00
1297.184,3305.00
1298.091,2735.00
1298.995,2776.00
1299.900,2997.00
1300.806,2551.00
1301.710,2359.00
1302.614,2218.00
1303.518,2856.00
1304.424,2575.00
1305.327,2827.00
1306.231,2618.00
1307.137,2785.00
1308.040,2677.00
1308.943,2639.00
1309.847,2862.00
1310.752,2837.00
1311.655,2258.00
1312.558,2407.00
1313.463,2530.00
1314.366,2532.00
1315.269,2694.00
1316.171,2612.00
1317.076,2535.00
1317.978,2429.00
1318.881,2220.00
1319.785,2501.00
1320.687,2485.00
1321.589,2211.00
1322.491,2459.00
1323.395,2697.00
1324.297,3187.00
1325.198,2762.00
1326.102,2422.00
1327.004,2427.00
1327.905,3018.00
1328.806,2607.00
1329.709,2657.00
1330.611,2540.00
1331.512,2459.00
1332.413,3076.00
1333.316,2686.00
1334.216,2790.00
1335.117,2352.00
1336.020,2667.00
1336.920,2625.00
1337.821,2489.00
1338.721,2864.00
1339.623,2725.00
1340.523,2587.00
1341.423,2503.00
1342.323,2907.00
1343.225,2717.00
1344.125,2447.00
1345.025,2511.00
1345.924,2311.00
1346.826,2947.00
1347.725,3058.00
1348.624,2842.00
1349.524,2475.00
1350.425,2563.00
1351.324,2714.00
1352.223,2797.00
1353.121,2616.00
1354.022,2822.00
1354.921,3014.00
1355.819,2769.00
1356.718,2659.00
1357.618,2361.00
1358.516,2765.00
1359.415,2969.00
1360.313,2707.00
1361.213,2598.00
1362.111,2887.00
1363.008,3239.00
1363.906,2582.00
1364.806,2631.00
1365.703,2713.00
1366.601,2458.00
1367.498,2467.00
1368.397,2817.00
1369.295,2686.00
1370.192,2490.00
1371.089,2716.00
1371.987,2626.00
1372.884,2870.00
1373.781,2441.00
1374.678,2612.00
1375.574,2457.00
1376.473,2756.00
1377.369,2853.00
1378.265,2467.00
1379.161,2580.00
1380.059,2327.00
1380.955,2733.00
1381.851,2398.00
1382.747,2547.00
1383.643,2564.00
1384.540,2426.00
1385.436,2503.00
1386.331,2677.00
1387.227,2734.00
1388.124,2749.00
1389.019,2460.00
1389.914,2618.00
1390.809,2299.00
1391.704,3013.00
1392.601,2515.00
1393.495,2924.00
1394.390,2792.00
1395.285,2898.00
1396.179,2686.00
1397.075,2587.00
1397.969,2700.00
1398.864,2333.00
1399.758,2545.00
1400.652,2632.00
1401.547,2446.00
1402.441,2401.00
1403.335,2974.00
1404.229,2643.00
1405.122,2689.00
1406.017,2617.00
1406.911,2814.00
1407.804,3045.00
1408.697,2591.00
1409.590,2471.00
1410.485,2807.00
1411.378,2692.00
1412.271,2298.00
1413.163,2715.00
1414.056,2754.00
1414.949,2962.00
1415.843,2668.00
1416.735,2589.00
1417.627,2627.00
1418.520,2581.00
1419.412,2885.00
1420.306,2796.00
1421.197,2879.00
1422.089,2815.00
1422.981,3095.00
1423.873,2818.00
1424.764,2753.00
1425.657,2630.00
1426.549,2750.00
1427.440,2767.00
1428.331,2572.00
1429.222,2355.00
1430.113,2669.00
1431.006,2812.00
1431.897,2535.00
1432.787,2665.00
1433.678,2535.00
1434.568,2458.00
1435.459,2793.00
1436.351,2802.00
1437.241,2763.00
1438.131,2810.00
1439.021,2400.00
1439.911,2623.00
1440.801,2692.00
1441.693,2886.00
1442.583,2652.00
1443.472,2628.00
1444.362,2754.00
1445.251,2572.00
1446.140,2541.00
1447.030,2784.00
1447.921,2809.00
1448.810,2460.00
1449.699,2956.00
1450.588,2674.00
1451.476,2508.00
1452.365,2726.00
1453.254,2513.00
1454.144,2516.00
1455.032,2780.00
1455.921,2377.00
1456.809,2933.00
1457.697,2426.00
1458.585,2584.00
1459.473,2573.00
1460.361,2483.00
1461.251,2683.00
1462.138,2705.00
1463.026,2596.00
1463.913,2842.00
1464.801,2562.00
1465.688,2727.00
1466.575,2687.00
1467.463,3069.00
1468.351,2485.00
1469.238,2608.00
1470.125,2271.00
1471.012,2714.00
1471.899,2683.00
1472.785,2458.00
1473.672,2609.00
1474.558,2838.00
1475.446,2788.00
1476.333,2806.00
1477.219,2453.00
1478.105,2638.00
1478.991,2600.00
1479.877,2916.00
1480.762,2637.00
1481.648,2550.00
1482.534,2764.00
1483.419,2681.00
1484.307,2756.00
1485.192,2607.00
1486.077,2476.00
1486.962,2497.00
1487.847,2403.00
1488.732,2464.00
1489.617,2667.00
1490.502,2893.00
1491.387,2751.00
1492.271,2491.00
1493.156,2508.00
1494.042,2451.00
1494.927,2842.00
1495.811,2550.00
1496.695,2778.00
1497.579,2925.00
1498.463,2639.00
1499.347,2660.00
1500.231,2684.00
1501.114,2724.00
1501.998,2915.00
1502.881,2682.00
1503.765,2965.00
1504.648,3012.00
1505.533,2760.00
1506.417,2630.00
1507.300,2612.00
1508.183,2759.00
1509.066,2124.00
1509.948,2872.00
1510.831,2928.00
1511.714,2444.00
1512.596,2746.00
1513.479,2880.00
1514.361,2812.00
1515.243,2665.00
1516.125,2804.00
1517.008,2881.00
1517.890,2608.00
1518.771,2661.00
1519.655,2843.00
1520.537,2580.00
1521.419,2502.00
1522.300,2684.00
1523.182,2739.00
1524.063,2754.00
1524.944,2937.00
1525.825,2781.00
1526.707,2485.00
1527.588,2454.00
1528.468,2700.00
1529.349,2318.00
1530.230,2594.00
1531.111,2831.00
1531.991,2689.00
1532.872,2357.00
1533.752,2644.00
1534.632,2512.00
1535.513,2570.00
1536.393,2787.00
1537.273,2942.00
1538.153,3277.00
1539.032,2421.00
1539.912,2665.00
1540.792,2675.00
1541.672,2637.00
1542.551,2766.00
1543.430,3202.00
1544.310,2634.00
1545.189,2554.00
1546.068,3063.00
1546.947,2796.00
1547.826,2948.00
1548.705,2645.00
1549.584,2845.00
1550.462,2591.00
1551.341,2792.00
1552.219,2704.00
1553.098,2791.00
1553.976,2874.00
1554.854,3054.00
1555.733,2872.00
1556.611,2573.00
1557.489,2483.00
1558.367,2668.00
1559.244,2768.00
1560.122,2613.00
1561.000,2726.00
1561.877,2930.00
1562.755,2509.00
1563.632,2640.00
1564.509,2899.00
1565.386,3036.00
1566.264,2389.00
1567.141,2290.00
1568.017,2824.00
1568.894,2610.00
1569.771,2665.00
1570.648,2790.00
1571.524,2656.00
1572.401,2409.00
1573.277,2413.00
1574.153,2679.00
1575.029,2493.00
1575.906,3348.00
1576.781,2826.00
1577.657,2590.00
1578.533,2886.00
1579.409,2290.00
1580.285,2581.00
1581.160,3125.00
1582.036,2816.00
1582.911,2464.00
1583.786,2980.00
1584.662,2474.00
1585.537,2643.00
1586.412,2716.00
1587.287,2477.00
1588.160,2825.00
1589.035,2353.00
1589.909,2650.00
1590.784,2660.00
1591.658,2463.00
1592.533,2711.00
1593.407,2639.00
1594.281,2561.00
1595.155,3073.00
1596.029,2583.00
1596.903,2607.00
1597.777,2590.00
1598.651,2878.00
1599.525,2394.00
1600.398,2687.00
1601.272,2663.00
1602.144,3156.00
1603.017,2613.00
1603.890,2908.00
1604.763,2703.00
1605.636,2810.00
1606.509,2361.00
1607.382,2487.00
1608.255,2701.00
1609.128,2835.00
1610.000,2609.00
1610.873,2363.00
1611.746,2542.00
1612.616,2554.00
1613.488,2259.00
1614.361,2654.00
1615.233,2590.00
1616.105,2845.00
1616.977,2576.00
1617.849,2478.00
1618.720,2977.00
1619.592,2953.00
1620.464,2747.00
1621.333,3076.00
1622.205,2669.00
1623.076,2643.00
1623.947,2659.00
1624.818,2879.00
1625.689,2764.00
1626.560,2583.00
1627.431,2726.00
1628.302,3026.00
1629.171,2759.00
1630.042,2944.00
1630.912,3286.00
1631.782,3225.00
1632.653,2460.00
1633.523,2811.00
1634.393,2876.00
1635.263,2528.00
1636.131,2626.00
1637.001,2597.00
1637.871,2282.00
1638.741,2329.00
1639.611,2424.00
1640.480,2816.00
1641.350,2527.00
1642.219,2496.00
1643.087,2207.00
1643.956,3105.00
1644.825,2856.00
1645.694,2879.00
1646.563,2793.00
1647.432,2707.00
1648.299,2687.00
1649.167,2804.00
1650.036,2466.00
1650.904,2759.00
1651.773,2891.00
1652.641,2671.00
1653.509,2857.00
1654.376,2560.00
1655.244,2715.00
1656.112,2662.00
1656.980,2663.00
1657.847,2526.00
1658.715,2824.00
1659.581,2538.00
1660.448,2868.00
1661.316,2163.00
1662.183,2689.00
1663.051,2716.00
1663.918,2696.00
1664.783,2661.00
1665.650,2762.00
1666.517,2819.00
1667.384,2681.00
1668.251,2660.00
1669.115,2831.00
1669.982,2617.00
1670.849,2963.00
1671.715,2626.00
1672.581,2781.00
1673.446,2771.00
1674.312,2694.00
1675.178,3063.00
1676.044,2716.00
1676.910,2746.00
1677.774,2698.00
1678.639,2332.00
1679.505,2635.00
1680.370,2813.00
1681.236,3305.00
1682.099,2628.00
1682.965,2725.00
1683.830,2275.00
1684.695,2499.00
1685.560,2578.00
1686.423,2829.00
1687.288,2802.00
1688.153,2722.00
1689.017,2635.00
1689.880,2753.00
1690.745,2802.00
1691.609,2493.00
1692.473,2901.00
1693.338,2891.00
1694.200,2883.00
1695.064,2669.00
1695.928,2586.00
1696.792,2651.00
1697.654,3190.00
1698.517,2691.00
1699.381,2434.00
1700.245,2301.00
1701.106,2943.00
1701.969,2600.00
1702.833,2795.00
1703.696,2552.00
1704.557,2626.00
1705.420,2515.00
1706.283,2696.00
1707.146,2779.00
1708.007,2497.00
1708.870,2473.00
1709.732,2358.00
1710.595,2553.00
1711.455,2455.00
1712.318,2599.00
1713.180,2903.00
1714.040,2725.00
1714.902,2827.00
1715.764,2695.00
1716.626,2459.00
1717.486,2610.00
1718.348,2903.00
1719.209,4130.00
1720.071,2350.00
1720.930,2426.00
1721.792,2528.00
1722.653,2542.00
1723.512,2577.00
1724.374,2608.00
1725.234,2741.00
1726.095,2712.00
1726.954,2652.00
1727.815,2806.00
1728.676,2676.00
1729.535,2886.00
1730.395,2620.00
1731.256,2585.00
1732.114,2724.00
1732.974,2116.00
1733.834,3021.00
1734.693,2820.00
1735.553,2706.00
1736.413,3065.00
1737.272,2556.00
1738.130,2630.00
1738.990,2712.00
1739.849,2580.00
1740.707,3651.00
1741.566,2677.00
1742.426,2737.00
1743.283,3056.00
1744.142,2540.00
1745.001,2359.00
1745.858,2823.00
1746.717,2734.00
1747.576,2800.00
1748.433,2812.00
1749.292,3235.00
1750.150,3287.00
1751.007,2865.00
1751.865,2900.00
1752.723,2701.00
1753.579,2586.00
1754.438,2899.00
1755.296,2895.00
1756.152,2273.00
1757.010,2334.00
1757.865,2857.00
1758.723,2330.00
1759.581,2995.00
1760.436,2650.00
1761.294,2985.00
1762.151,2651.00
1763.006,2568.00
1763.864,2327.00
1764.721,2872.00
1765.576,2715.00
1766.433,2819.00
1767.288,2572.00
1768.144,2718.00
1769.001,2624.00
1769.856,2771.00
1770.712,2886.00
1771.568,2448.00
1772.423,2565.00
1773.279,2589.00
1774.133,2570.00
1774.989,3020.00
1775.845,3057.00
1776.699,2902.00
1777.555,2646.00
1778.409,3164.00
1779.265,2592.00
1780.120,2627.00
1780.974,2668.00
1781.829,2273.00
1782.682,2729.00
1783.538,2500.00
1784.393,2734.00
1785.246,2557.00
1786.101,2767.00
1786.954,2802.00
1787.808,2869.00
1788.661,2372.00
1789.516,2603.00
1790.370,2610.00
1791.223,2840.00
1792.077,2638.00
1792.930,2761.00
1793.784,2562.00
1794.636,2652.00
1795.490,2664.00
1796.344,2693.00
1797.196,2654.00
1798.049,2825.00
1798.901,2576.00
1799.755,2921.00
1800.606,2470.00
1801.460,3184.00
1802.311,2974.00
1803.165,3076.00
1804.018,3006.00
1804.869,2753.00
1805.722,3113.00
1806.573,2724.00
1807.426,2489.00
1808.276,2688.00
1809.129,2586.00
1809.980,2882.00
1810.832,2944.00
1811.683,2591.00
1812.535,3009.00
1813.385,2633.00
1814.237,2953.00
1815.089,2704.00
1815.940,2934.00
1816.791,2638.00
1817.641,2522.00
1818.493,2807.00
1819.343,2740.00
1820.194,2561.00
1821.044,2777.00
1821.895,2881.00
1822.745,2406.00
1823.596,2584.00
1824.445,3074.00
1825.296,2739.00
1826.145,2642.00
1826.996,2864.00
1827.845,2696.00
1828.695,2736.00
1829.544,2667.00
1830.395,2717.00
1831.243,2573.00
1832.094,2412.00
1832.942,3273.00
1833.792,2823.00
1834.640,2750.00
1835.490,2671.00
1836.338,2744.00
1837.186,2563.00
1838.036,2582.00
1838.884,2677.00
1839.733,2979.00
1840.581,2849.00
1841.430,2799.00
1842.278,2997.00
1843.127,2591.00
1843.974,2374.00
1844.823,3158.00
1845.671,2866.00
1846.519,2678.00
1847.366,2767.00
1848.213,2329.00
1849.062,2485.00
1849.909,2404.00
1850.757,3269.00
1851.604,2799.00
1852.452,2566.00
1853.298,2846.00
1854.146,2721.00
1854.993,2710.00
1855.839,3155.00
1856.687,2785.00
1857.532,2789.00
1858.380,2691.00
1859.226,2744.00
1860.073,2823.00
1860.919,2535.00
1861.765,2562.00
1862.612,2907.00
1863.457,2917.00
1864.304,2690.00
1865.150,2778.00
1865.995,2676.00
1866.842,2799.00
1867.686,2955.00
1868.533,2776.00
1869.378,2717.00
1870.223,2765.00
1871.069,2587.00
1871.914,2739.00
1872.760,2721.00
1873.604,2490.00
1874.448,2858.00
1875.294,2851.00
1876.139,2583.00
1876.984,2814.00
1877.828,2365.00
1878.672,2237.00
1879.518,2598.00
1880.361,2890.00
1881.205,2845.00
1882.050,2510.00
1882.894,3155.00
1883.739,2537.00
1884.582,2464.00
1885.425,2502.00
1886.270,2948.00
1887.113,2423.00
1887.956,2786.00
1888.801,2760.00
1889.644,2520.00
1890.486,2284.00
1891.331,2622.00
1892.173,2732.00
1893.017,2692.00
1893.860,2980.00
1894.702,2957.00
1895.546,2701.00
1896.388,3408.00
1897.230,3029.00
1898.074,2608.00
1898.916,2510.00
1899.757,2531.00
1900.601,3345.00
1901.443,2971.00
1902.284,3005.00
1903.125,3156.00
1903.969,2911.00
1904.810,2875.00
1905.651,2787.00
1906.494,3034.00
1907.335,3104.00
1908.176,2775.00
1909.018,2779.00
1909.859,2623.00
1910.700,2552.00
1911.542,3248.00
1912.383,2770.00
1913.223,2367.00
1914.064,2799.00
1914.906,2973.00
1915.746,3037.00
1916.586,3149.00
1917.428,2702.00
1918.268,2707.00
1919.107,2602.00
1919.947,2483.00
1920.789,2643.00
1921.628,2940.00
1922.468,2683.00
1923.309,2577.00
1924.148,2983.00
1924.988,2767.00
1925.827,2721.00
1926.667,2567.00
1927.507,2754.00
1928.345,2526.00
1929.184,2835.00
1930.025,2530.00
1930.864,2930.00
1931.702,2992.00
1932.541,2629.00
1933.381,2823.00
1934.219,2856.00
1935.057,3013.00
1935.896,2433.00
1936.735,2674.00
1937.573,2607.00
1938.411,2504.00
1939.249,2858.00
1940.089,2590.00
1940.927,2924.00
1941.764,2974.00
1942.602,2629.00
1943.439,2600.00
1944.278,2644.00
1945.115,2605.00
1945.953,2464.00
1946.790,2758.00
1947.628,3069.00
1948.465,2805.00
1949.302,2851.00
1950.139,2821.00
1950.976,2568.00
1951.814,2878.00
1952.651,2766.00
1953.487,2494.00
1954.323,2950.00
1955.160,2673.00
1955.998,3044.00
1956.834,2688.00
1957.670,2736.00
1958.506,2912.00
1959.342,2807.00
1960.177,2749.00
1961.015,2841.00
1961.850,2728.00
1962.686,2764.00
1963.521,2799.00
1964.357,2935.00
1965.192,2483.00
1966.029,2833.00
1966.864,2652.00
1967.699,2962.00
1968.534,2775.00
1969.369,2966.00
1970.204,2710.00
1971.040,2729.00
1971.875,2657.00
1972.709,2771.00
1973.544,2556.00
1974.378,2604.00
1975.212,2826.00
1976.047,2606.00
1976.882,2575.00
1977.716,3105.00
1978.550,2433.00
1979.384,2640.00
1980.218,2677.00
1981.052,2615.00
1981.885,2738.00
1982.719,2710.00
1983.554,2884.00
1984.388,2978.00
1985.221,2786.00
1986.054,2952.00
1986.887,2756.00
1987.720,2553.00
1988.553,3037.00
1989.386,2784.00
1990.219,2864.00
1991.053,3020.00
1991.886,2594.00
1992.719,2918.00
1993.551,2252.00
1994.383,2861.00
1995.216,2641.00
1996.048,2441.00
1996.880,2892.00
1997.712,2601.00
1998.544,2723.00
1999.376,2762.00
2000.208,2994.00
