RamanScope Measure Spectrum Data V3.72

<< MEASURE CONDITION >>
Exposure Type,Aver
Exposure Time [sec],15
Exposure Count,30
Measure Time,2023/07/12 18:27:05
Data Name,""
Data Comment,""
Rayleigh Wave[nm],532.0

<< SAMPLE SPECTRUM >>
Wave[dcm-1],No28
146.591,1054.80
147.626,1235.23
148.664,1394.00
149.699,1601.97
150.737,1826.33
151.772,1999.63
152.809,2187.37
153.846,2328.50
154.881,2473.67
155.918,2602.87
156.953,2708.27
157.989,2762.23
159.026,2842.30
160.060,2906.90
161.096,2999.70
162.130,3042.10
163.167,3069.23
164.200,3119.07
165.236,3143.00
166.272,3216.37
167.305,3302.57
168.341,3316.10
169.374,3348.93
170.409,3459.93
171.445,3466.33
172.477,3519.33
173.512,3543.03
174.545,3594.80
175.580,3584.63
176.614,3620.50
177.647,3610.57
178.681,3619.47
179.713,3629.13
180.747,3590.70
181.781,3610.00
182.813,3599.40
183.847,3609.80
184.878,3553.03
185.912,3532.23
186.945,3646.83
187.976,3632.20
189.010,3671.40
190.043,3624.50
191.073,3678.53
192.106,3712.10
193.137,3717.00
194.170,3754.77
195.202,3806.17
196.232,3840.60
197.265,3901.77
198.297,3916.63
199.327,3979.10
200.359,4030.70
201.388,4096.60
202.420,4135.33
203.452,4176.40
204.481,4260.07
205.512,4271.07
206.544,4378.97
207.573,4483.60
208.604,4524.33
209.635,4642.30
210.663,4815.10
211.694,4879.43
212.725,4981.27
213.753,5128.23
214.783,5166.83
215.813,5281.23
216.841,5348.97
217.871,5364.60
218.899,5374.77
219.929,5401.73
220.959,5357.10
221.986,5284.70
223.016,5203.83
224.045,5119.60
225.072,5009.07
226.101,4906.87
227.130,4767.80
228.157,4733.00
229.185,4638.13
230.214,4573.87
231.241,4479.87
232.269,4429.77
233.297,4404.53
234.323,4391.53
235.351,4344.40
236.379,4338.10
237.407,4377.17
238.433,4350.00
239.460,4376.40
240.488,4437.93
241.513,4405.77
242.540,4541.83
243.568,4580.73
244.592,4617.07
245.619,4624.43
246.646,4641.90
247.671,4629.90
248.697,4594.33
249.724,4526.97
250.748,4486.43
251.774,4494.93
252.801,4468.03
253.827,4459.10
254.850,4494.53
255.876,4436.17
256.902,4484.17
257.925,4464.23
258.951,4477.10
259.976,4525.83
260.999,4553.17
262.024,4565.67
263.049,4583.87
264.074,4575.10
265.097,4653.47
266.122,4670.47
267.146,4668.07
268.168,4727.77
269.193,4793.67
270.217,4819.80
271.241,4855.60
272.263,4914.97
273.287,4916.17
274.311,5001.60
275.332,5037.07
276.356,5009.93
277.379,5006.33
278.402,5014.83
279.424,5078.30
280.447,5022.67
281.470,4942.07
282.492,4905.00
283.513,4886.10
284.536,4822.90
285.558,4731.30
286.581,4704.13
287.601,4622.57
288.623,4572.30
289.645,4516.10
290.665,4500.83
291.687,4374.63
292.709,4355.23
293.730,4320.67
294.750,4248.63
295.771,4180.30
296.792,4168.47
297.813,4092.40
298.832,4058.93
299.853,4029.93
300.874,4006.80
301.895,3935.27
302.913,3874.27
303.934,3831.10
304.954,3816.43
305.975,4495.87
306.993,3742.37
308.013,3721.30
309.033,3702.17
310.052,3691.27
311.072,3658.80
312.090,3658.23
313.109,3646.90
314.129,3579.57
315.148,3543.80
316.165,3539.60
317.184,3537.87
318.203,3511.97
319.222,3516.60
320.238,3459.77
321.257,3495.73
322.275,3453.60
323.294,3429.43
324.312,3392.73
325.328,3387.33
326.346,3414.77
327.364,3382.93
328.382,3382.27
329.397,3377.00
330.415,3374.50
331.432,3361.60
332.450,3314.63
333.467,3321.40
334.482,3315.03
335.499,3258.70
336.516,3318.27
337.533,3274.27
338.547,3282.33
339.564,3270.63
340.580,3271.33
341.597,3272.13
342.613,3259.03
343.627,3241.10
344.643,3246.53
345.659,3267.93
346.675,3226.97
347.690,3227.40
348.704,3220.83
349.719,3175.43
350.735,3200.00
351.750,3185.93
352.765,3176.90
353.778,3157.87
354.793,3173.80
355.808,3183.47
356.822,3174.67
357.837,3217.77
358.851,3241.60
359.864,3206.10
360.878,3173.33
361.892,3229.53
362.906,3212.23
363.920,3228.80
364.932,3229.97
365.945,3209.30
366.959,3214.27
367.972,3258.53
368.986,3261.93
369.999,3217.20
371.010,3278.67
372.023,3295.63
373.036,3286.93
374.049,3297.63
375.061,3286.67
376.072,3319.27
377.084,3369.03
378.097,3370.63
379.109,3370.47
380.121,3372.70
381.133,3343.03
382.143,3381.07
383.155,3368.40
384.166,3372.97
385.178,3415.63
386.189,3401.53
387.201,3430.97
388.212,3440.20
389.221,3377.73
390.232,3374.60
391.243,3392.30
392.254,3363.27
393.264,3336.40
394.275,3351.43
395.283,3351.67
396.294,3325.20
397.304,3328.67
398.314,3327.67
399.324,3295.50
400.334,3293.33
401.344,3266.80
402.351,3251.13
403.361,3260.10
404.370,3261.60
405.380,3267.63
406.389,3188.40
407.398,3188.07
408.407,3217.83
409.414,2911.17
410.423,3212.57
411.431,3176.90
412.440,3134.27
413.448,3124.37
414.457,3158.50
415.465,3094.40
416.471,3098.27
417.479,3075.57
418.487,3095.93
419.495,3070.03
420.503,3048.10
421.510,3068.53
422.518,3039.23
423.525,3052.30
424.530,3084.90
425.537,3048.90
426.544,3039.57
427.551,3049.17
428.558,3057.93
429.565,3039.63
430.571,3006.80
431.578,3019.20
432.582,3037.90
433.588,3016.77
434.595,3018.50
435.601,3040.60
436.607,3063.67
437.612,3015.57
438.618,3036.90
439.624,3005.90
440.627,3043.77
441.633,3036.97
442.638,3027.53
443.643,3013.97
444.648,3066.40
445.653,3051.43
446.658,3053.90
447.663,3055.57
448.667,3047.87
449.672,3050.73
450.674,3051.47
451.678,3065.17
452.682,3043.43
453.687,3090.20
454.690,3050.33
455.694,3095.77
456.698,3093.53
457.702,3084.83
458.705,3094.13
459.709,3129.03
460.710,3135.23
461.713,3173.13
462.716,3139.20
463.719,3073.20
464.722,3138.83
465.725,3144.83
466.727,3174.30
467.730,3128.43
468.732,3133.40
469.735,3117.10
470.737,3158.93
471.737,3161.23
472.739,3130.47
473.741,3134.73
474.742,3202.23
475.744,3164.73
476.746,3194.30
477.747,3131.33
478.748,3160.27
479.750,3173.03
480.751,3194.70
481.752,3150.87
482.753,3210.80
483.751,3164.10
484.752,3180.50
485.753,3184.57
486.753,3192.50
487.753,3208.17
488.754,3213.77
489.754,3167.07
490.754,3179.67
491.754,3196.40
492.754,3186.30
493.753,3186.20
494.753,3155.63
495.752,3197.97
496.752,3189.17
497.749,3202.50
498.748,3141.03
499.747,3149.40
500.746,3138.77
501.745,3176.87
502.744,3152.33
503.742,3115.30
504.741,3120.63
505.739,3122.03
506.737,3105.43
507.735,3134.50
508.734,3114.27
509.732,3070.20
510.729,3083.00
511.727,3120.97
512.725,3058.57
513.720,3068.30
514.718,3077.90
515.715,3067.50
516.712,3007.70
517.709,3062.80
518.706,3017.50
519.703,3039.93
520.700,3038.43
521.696,3050.33
522.693,3042.63
523.689,3059.67
524.686,3057.33
525.682,3038.93
526.678,3005.13
527.674,3081.73
528.670,3089.97
529.666,3111.10
530.661,3019.97
531.657,2782.27
532.652,3077.33
533.648,3074.03
534.641,3071.27
535.636,3094.73
536.631,3075.13
537.626,3111.43
538.621,3125.83
539.616,3122.83
540.610,3093.20
541.605,3106.07
542.599,3142.97
543.593,3145.17
544.587,3109.73
545.581,3078.33
546.575,3087.23
547.569,3121.97
548.563,3134.20
549.557,3095.17
550.550,3115.23
551.543,3058.27
552.537,3117.03
553.530,3095.73
554.523,3136.43
555.516,3093.40
556.509,3127.93
557.502,3143.77
558.494,3084.97
559.487,3151.87
560.479,3096.03
561.472,3122.83
562.464,3138.23
563.456,3124.07
564.448,3102.27
565.440,3169.03
566.432,3176.87
567.423,3145.43
568.415,3134.00
569.404,3142.80
570.396,3162.83
571.387,3131.90
572.378,3197.90
573.369,3140.30
574.360,3176.33
575.351,3188.00
576.341,3220.77
577.332,3186.50
578.323,3183.60
579.313,3237.00
580.303,3174.03
581.293,3214.87
582.283,3213.97
583.273,3194.33
584.263,3250.47
585.253,3244.73
586.243,3291.30
587.232,3289.03
588.222,3244.80
589.211,3262.90
590.200,3292.93
591.189,3329.07
592.178,3317.53
593.167,3309.13
594.156,3272.40
595.145,3313.57
596.133,3299.30
597.122,3357.90
598.110,3319.53
599.098,3288.03
600.086,3364.23
601.074,3357.57
602.062,3366.47
603.050,3345.50
604.038,3264.83
605.025,3344.70
606.013,3341.23
607.000,3373.87
607.987,3384.10
608.975,3336.70
609.962,3346.53
610.949,3299.73
611.936,3288.73
612.922,3351.33
613.909,3282.90
614.895,3251.13
615.882,3308.27
616.868,3264.37
617.854,3240.07
618.841,3195.80
619.826,3180.47
620.812,3196.10
621.798,3158.23
622.784,3124.07
623.769,3173.87
624.755,3086.00
625.740,3064.23
626.725,3046.07
627.711,3042.63
628.698,3039.13
629.683,2936.37
630.667,2952.93
631.652,2933.00
632.637,2914.67
633.621,2930.10
634.606,2907.93
635.590,2861.93
636.574,2866.50
637.558,2841.13
638.542,2828.77
639.526,2802.23
640.510,2808.00
641.493,2787.67
642.477,2772.57
643.460,2749.20
644.444,2719.13
645.427,2686.67
646.410,2705.43
647.393,2721.53
648.376,2706.80
649.359,2672.43
650.341,2625.37
651.324,2648.13
652.307,2667.20
653.289,2658.57
654.271,2639.17
655.253,2575.13
656.235,2560.63
657.217,2620.30
658.199,2627.43
659.181,2561.50
660.163,2598.97
661.144,2568.53
662.126,2541.10
663.107,2570.67
664.088,2545.70
665.069,2534.30
666.050,2533.33
667.033,2516.13
668.014,2522.63
668.995,2470.13
669.975,2464.33
670.956,2475.27
671.936,2465.00
672.916,2446.13
673.896,2479.03
674.876,2435.50
675.856,2414.47
676.836,2409.83
677.816,2380.60
678.795,2374.17
679.775,2367.57
680.754,2345.83
681.734,2337.93
682.713,2310.87
683.692,2311.87
684.671,2280.30
685.650,2272.93
686.629,2298.57
687.607,2239.70
688.586,2227.70
689.564,2222.87
690.543,2161.57
691.523,2189.70
692.501,2163.57
693.479,2197.37
694.457,2158.37
695.435,2174.10
696.413,2115.43
697.390,2108.90
698.368,2103.80
699.345,2106.87
700.322,2092.50
701.300,2042.10
702.277,2084.93
703.254,2039.27
704.231,2070.67
705.207,2074.90
706.184,2034.33
707.161,2027.27
708.137,2056.23
709.113,2037.90
710.090,1997.07
711.068,2038.40
712.044,1971.33
713.020,1951.23
713.996,1964.73
714.971,1992.57
715.947,1980.60
716.922,1921.03
717.898,1937.53
718.873,1951.37
719.848,1942.87
720.823,1973.50
721.798,1911.73
722.773,1945.53
723.748,1939.50
724.723,1913.10
725.697,1931.70
726.672,1885.83
727.646,1879.83
728.622,1916.90
729.596,1848.13
730.570,1875.30
731.544,1860.30
732.518,1915.57
733.492,1881.13
734.466,1871.63
735.439,1857.37
736.413,1851.60
737.386,1840.73
738.359,1839.03
739.332,1827.83
740.305,1794.07
741.278,1852.93
742.251,1856.97
743.224,1819.23
744.196,1840.33
745.171,1829.13
746.143,1812.63
747.115,1820.67
748.087,1820.23
749.059,1822.53
750.031,1762.03
751.003,1764.27
751.975,1747.17
752.947,1782.80
753.918,1749.93
754.890,1733.73
755.861,1762.97
756.832,1739.43
757.803,1729.67
758.774,1722.67
759.747,1658.27
760.718,1708.47
761.689,1740.07
762.659,1721.50
763.630,1710.23
764.600,1657.93
765.570,1681.17
766.540,1720.80
767.510,1687.23
768.480,1671.23
769.450,1698.80
770.420,1685.13
771.390,1686.57
772.359,1661.50
773.329,1671.20
774.300,1674.27
775.269,1657.83
776.238,1657.10
777.207,1641.87
778.176,1604.63
779.145,1628.43
780.114,1615.17
781.083,1578.93
782.051,1583.63
783.019,1624.57
783.988,1638.27
784.956,1599.37
785.924,1612.83
786.894,1616.03
787.862,1627.40
788.830,1588.50
789.797,1586.47
790.765,1585.87
791.732,1580.13
792.700,1551.10
793.667,1564.93
794.634,1585.67
795.601,1548.47
796.568,1561.63
797.535,1557.53
798.502,1563.93
799.468,1588.40
800.437,1523.10
801.403,1510.93
802.370,1502.37
803.336,1530.07
804.302,1544.03
805.268,1533.03
806.234,1539.77
807.200,1518.13
808.166,1516.37
809.131,1505.27
810.097,1473.50
811.062,1496.80
812.027,1493.87
812.994,1507.73
813.960,1485.33
814.925,1489.40
815.889,1480.60
816.854,1474.23
817.819,1481.53
818.783,1423.73
819.748,1465.63
820.712,1461.03
821.677,1471.53
822.641,1478.83
823.605,1473.43
824.571,1507.70
825.534,1449.77
826.498,1453.33
827.462,1454.63
828.425,1490.47
829.389,1456.17
830.352,1452.20
831.315,1478.80
832.279,1437.00
833.242,1481.80
834.204,1463.17
835.167,1465.27
836.132,1469.13
837.095,1460.50
838.057,1454.20
839.020,1448.53
839.982,1434.23
840.944,1474.50
841.906,1473.73
842.868,1475.83
843.830,1450.80
844.792,1457.37
845.753,1455.83
846.715,1469.77
847.679,1457.00
848.640,1397.73
849.601,1441.33
850.562,1454.40
851.523,1493.17
852.484,1469.20
853.445,1492.17
854.406,1471.63
855.367,1442.47
856.327,1456.77
857.288,1439.90
858.248,1449.83
859.210,1464.97
860.170,1465.43
861.130,1489.33
862.090,1432.10
863.050,1419.17
864.010,1446.50
864.969,1445.20
865.929,1419.57
866.888,1430.00
867.848,1456.13
868.807,1451.73
869.766,1425.23
870.727,1437.23
871.686,1429.33
872.645,1411.90
873.604,1411.50
874.562,1433.60
875.521,1423.07
876.479,1442.10
877.437,1447.57
878.396,1440.17
879.354,1460.30
880.312,1457.13
881.270,1457.27
882.229,1481.53
883.187,1416.03
884.145,1439.77
885.102,1449.47
886.059,1448.40
887.017,1463.27
887.974,1419.03
888.931,1404.07
889.888,1436.50
890.845,1437.03
891.802,1441.67
892.758,1442.10
893.717,1449.93
894.673,1454.50
895.630,1461.83
896.586,1425.17
897.542,1468.27
898.498,1410.50
899.454,1473.43
900.410,1378.30
901.366,1405.20
902.321,1401.33
903.277,1468.07
904.232,1390.80
905.189,1456.07
906.145,1440.60
907.100,1462.37
908.055,1439.23
909.010,1422.67
909.965,1439.83
910.919,1417.90
911.874,1437.90
912.828,1411.83
913.783,1426.60
914.737,1473.67
915.693,1417.23
916.648,1458.37
917.602,1415.33
918.555,1429.53
919.509,1420.80
920.463,1457.30
921.417,1373.53
922.370,1438.23
923.324,1451.40
924.277,1406.97
925.230,1420.97
926.183,1445.33
927.138,1423.57
928.091,1405.63
929.044,1436.73
929.996,1459.77
930.949,1425.53
931.902,1453.10
932.854,1450.83
933.806,1396.03
934.758,1437.93
935.711,1479.27
936.663,1469.40
937.614,1441.80
938.568,1435.87
939.520,1405.57
940.471,1470.03
941.423,1486.87
942.374,1478.70
943.326,1437.10
944.277,1427.03
945.228,1390.43
946.179,1447.67
947.130,1443.17
948.080,1415.40
949.031,1414.57
949.984,1419.90
950.934,1414.37
951.884,1433.20
952.835,1436.03
953.785,1422.73
954.735,1429.73
955.685,1411.07
956.635,1434.57
957.585,1396.83
958.534,1400.87
959.484,1410.30
960.433,1401.90
961.383,1400.13
962.334,1432.23
963.283,1427.20
964.232,1395.70
965.181,1411.30
966.130,1375.57
967.079,1406.07
968.027,1418.47
968.976,1409.53
969.924,1374.33
970.873,1414.77
971.821,1393.53
972.769,1412.57
973.719,1414.00
974.667,1390.63
975.615,1397.90
976.562,1416.03
977.510,1416.57
978.458,1413.03
979.405,1373.37
980.352,1369.33
981.300,1371.13
982.247,1415.57
983.194,1410.83
984.141,1390.70
985.088,1398.30
986.036,1385.80
986.983,1398.57
987.930,1423.33
988.876,1404.57
989.822,1405.80
990.769,1403.67
991.715,1396.17
992.661,1382.00
993.607,1396.73
994.553,1373.93
995.498,1389.93
996.444,1381.63
997.389,1405.73
998.337,1408.43
999.282,1413.47
1000.227,1440.43
1001.173,1405.80
1002.118,1402.90
1003.062,1405.33
1004.007,1423.20
1004.952,1390.63
1005.897,1407.17
1006.841,1365.57
1007.786,1411.13
1008.730,1366.60
1009.674,1392.83
1010.618,1400.77
1011.564,1420.27
1012.508,1417.53
1013.452,1381.97
1014.396,1432.73
1015.339,1442.57
1016.283,1402.57
1017.226,1409.27
1018.170,1424.37
1019.113,1464.83
1020.056,1418.10
1020.999,1444.37
1021.942,1410.00
1022.885,1407.50
1023.828,1424.07
1024.770,1444.27
1025.715,1433.73
1026.657,1415.53
1027.600,1434.53
1028.542,1400.37
1029.484,1454.23
1030.426,1408.43
1031.368,1444.03
1032.310,1419.43
1033.251,1448.47
1034.193,1410.47
1035.135,1460.57
1036.076,1438.07
1037.017,1462.37
1037.959,1440.70
1038.900,1417.23
1039.843,1464.47
1040.784,1462.77
1041.725,1464.00
1042.665,1436.37
1043.606,1464.07
1044.547,1514.57
1045.487,1479.70
1046.427,1459.77
1047.368,1517.43
1048.308,1482.30
1049.248,1478.43
1050.188,1472.30
1051.128,1498.70
1052.067,1459.33
1053.007,1517.20
1053.947,1506.93
1054.886,1493.63
1055.827,1504.10
1056.766,1488.13
1057.706,1502.63
1058.645,1506.80
1059.584,1487.73
1060.522,1500.60
1061.461,1542.90
1062.400,1593.23
1063.338,1537.93
1064.277,1534.20
1065.215,1522.30
1066.154,1511.03
1067.092,1548.20
1068.030,1543.47
1068.968,1542.13
1069.906,1587.30
1070.843,1583.70
1071.781,1544.57
1072.720,1563.27
1073.658,1544.87
1074.595,1564.73
1075.533,1528.13
1076.470,1554.33
1077.407,1536.33
1078.344,1576.37
1079.281,1571.50
1080.217,1571.53
1081.154,1541.80
1082.091,1576.50
1083.027,1601.60
1083.964,1556.47
1084.900,1558.07
1085.836,1581.77
1086.772,1576.73
1087.708,1582.13
1088.644,1595.53
1089.580,1626.97
1090.515,1589.20
1091.451,1577.40
1092.388,1558.63
1093.324,1617.83
1094.259,1549.50
1095.194,1601.47
1096.129,1559.43
1097.064,1525.97
1097.999,1535.27
1098.934,1535.17
1099.869,1531.77
1100.803,1536.00
1101.738,1530.40
1102.672,1539.07
1103.607,1530.80
1104.541,1518.27
1105.475,1529.70
1106.409,1506.40
1107.343,1482.53
1108.277,1500.43
1109.210,1465.77
1110.144,1485.20
1111.078,1456.63
1112.011,1480.43
1112.944,1472.77
1113.878,1457.70
1114.811,1463.37
1115.744,1444.73
1116.678,1462.87
1117.611,1416.53
1118.544,1392.73
1119.477,1429.90
1120.409,1411.50
1121.342,1424.40
1122.274,1382.40
1123.206,1380.13
1124.138,1390.87
1125.070,1354.27
1126.002,1381.53
1126.934,1383.60
1127.866,1371.13
1128.798,1343.63
1129.729,1371.60
1130.661,1386.73
1131.592,1345.07
1132.523,1354.43
1133.454,1347.53
1134.385,1327.90
1135.317,1332.13
1136.247,1302.03
1137.178,1322.73
1138.109,1312.03
1139.039,1331.63
1139.970,1297.73
1140.900,1284.43
1141.831,1273.70
1142.761,1284.50
1143.691,1280.93
1144.621,1246.37
1145.551,1260.70
1146.480,1261.07
1147.410,1277.17
1148.340,1258.63
1149.269,1273.47
1150.199,1255.30
1151.128,1246.83
1152.057,1253.30
1152.979,1251.17
1153.898,1234.10
1154.819,1240.97
1155.739,1237.73
1156.658,1255.37
1157.579,1212.20
1158.498,1231.13
1159.419,1219.27
1160.338,1230.07
1161.256,1219.43
1162.177,1240.90
1163.095,1206.20
1164.016,1238.33
1164.934,1181.20
1165.852,1204.57
1166.772,1205.40
1167.690,1218.70
1168.610,1194.00
1169.528,1227.80
1170.446,1225.13
1171.365,1179.77
1172.283,1197.93
1173.202,1164.23
1174.120,1204.07
1175.037,1197.30
1175.956,1193.27
1176.873,1205.10
1177.792,1188.73
1178.709,1189.47
1179.626,1205.33
1180.544,1170.80
1181.461,1162.07
1182.379,1166.20
1183.296,1170.87
1184.212,1148.83
1185.130,1226.57
1186.046,1138.07
1186.962,1192.97
1187.880,1184.83
1188.796,1171.10
1189.714,1171.97
1190.629,1189.13
1191.545,1164.63
1192.462,1167.37
1193.378,1179.93
1194.295,1158.80
1195.210,1187.97
1196.125,1145.57
1197.042,1180.67
1197.957,1168.13
1198.872,1182.63
1199.788,1134.37
1200.703,1179.20
1201.619,1137.23
1202.534,1179.23
1203.448,1185.07
1204.364,1135.90
1205.278,1137.83
1206.192,1198.67
1207.108,1166.93
1208.022,1180.27
1208.938,1163.87
1209.851,1199.23
1210.765,1182.63
1211.680,1168.57
1212.594,1139.13
1213.507,1173.37
1214.422,1188.53
1215.335,1200.43
1216.248,1171.17
1217.163,1131.87
1218.076,1142.60
1218.990,1174.40
1219.903,1196.73
1220.816,1191.33
1221.730,1177.23
1222.642,1162.77
1223.554,1171.27
1224.469,1212.47
1225.380,1188.20
1226.292,1200.60
1227.206,1170.50
1228.118,1168.83
1229.032,1193.13
1229.943,1224.90
1230.855,1209.23
1231.768,1218.73
1232.679,1216.20
1233.590,1206.60
1234.503,1208.37
1235.414,1182.60
1236.325,1226.03
1237.238,1209.50
1238.149,1212.70
1239.059,1201.40
1239.972,1172.63
1240.882,1177.30
1241.793,1201.07
1242.705,1272.10
1243.615,1223.90
1244.525,1217.23
1245.437,1236.80
1246.347,1200.17
1247.259,1191.23
1248.168,1209.33
1249.078,1257.30
1249.989,1203.93
1250.899,1235.70
1251.808,1231.10
1252.719,1261.70
1253.628,1238.67
1254.537,1231.90
1255.448,1229.43
1256.357,1253.07
1257.266,1245.60
1258.176,1242.23
1259.085,1202.23
1259.993,1274.77
1260.904,1221.27
1261.812,1213.10
1262.720,1187.93
1263.630,1239.03
1264.538,1263.77
1265.446,1271.17
1266.356,1268.07
1267.263,1220.53
1268.171,1242.50
1269.080,1224.57
1269.988,1249.03
1270.895,1237.57
1271.804,1231.53
1272.711,1270.83
1273.619,1223.80
1274.527,1241.10
1275.434,1228.93
1276.341,1218.40
1277.248,1219.73
1278.156,1260.10
1279.063,1261.47
1279.969,1234.33
1280.877,1234.53
1281.783,1230.10
1282.690,1212.83
1283.598,1259.33
1284.503,1232.53
1285.409,1212.97
1286.317,1208.63
1287.223,1246.63
1288.128,1220.93
1289.036,1234.23
1289.941,1194.97
1290.846,1205.17
1291.751,1226.60
1292.658,1202.13
1293.563,1195.00
1294.468,1233.80
1295.375,1249.17
1296.280,1233.07
1297.184,1179.77
1298.091,1215.43
1298.995,1197.00
1299.900,1185.90
1300.806,1207.47
1301.710,1198.00
1302.614,1212.37
1303.518,1183.47
1304.424,1154.50
1305.327,1201.67
1306.231,1164.53
1307.137,1182.70
1308.040,1174.57
1308.943,1173.17
1309.847,1164.47
1310.752,1156.70
1311.655,1158.53
1312.558,1122.43
1313.463,1149.00
1314.366,1166.40
1315.269,1144.17
1316.171,1153.07
1317.076,1165.73
1317.978,1120.73
1318.881,1134.13
1319.785,1131.97
1320.687,1116.37
1321.589,1138.67
1322.491,1097.00
1323.395,1117.30
1324.297,1105.27
1325.198,1093.83
1326.102,1111.03
1327.004,1116.63
1327.905,1108.43
1328.806,1098.37
1329.709,1113.93
1330.611,1095.20
1331.512,1118.20
1332.413,1080.47
1333.316,1100.10
1334.216,1072.60
1335.117,1085.63
1336.020,1091.10
1336.920,1031.60
1337.821,1074.27
1338.721,1057.77
1339.623,1081.67
1340.523,1043.67
1341.423,1095.83
1342.323,1038.17
1343.225,1037.17
1344.125,1038.57
1345.025,1049.83
1345.924,1061.33
1346.826,1088.50
1347.725,1039.07
1348.624,1016.77
1349.524,1027.00
1350.425,1014.30
1351.324,1003.07
1352.223,1011.67
1353.121,1018.97
1354.022,1021.40
1354.921,996.00
1355.819,1014.20
1356.718,1007.67
1357.618,1001.70
1358.516,1001.37
1359.415,1011.53
1360.313,1010.10
1361.213,1022.80
1362.111,973.33
1363.008,938.03
1363.906,956.03
1364.806,989.30
1365.703,948.67
1366.601,940.87
1367.498,988.53
1368.397,981.80
1369.295,956.83
1370.192,945.87
1371.089,958.30
1371.987,977.70
1372.884,959.63
1373.781,920.70
1374.678,943.90
1375.574,978.33
1376.473,944.70
1377.369,947.03
1378.265,943.67
1379.161,884.70
1380.059,909.07
1380.955,864.50
1381.851,952.83
1382.747,934.50
1383.643,903.37
1384.540,940.90
1385.436,911.40
1386.331,940.13
1387.227,941.13
1388.124,907.33
1389.019,907.40
1389.914,904.07
1390.809,911.60
1391.704,880.43
1392.601,937.13
1393.495,895.50
1394.390,876.00
1395.285,890.57
1396.179,887.07
1397.075,902.97
1397.969,844.90
1398.864,872.97
1399.758,916.60
1400.652,881.23
1401.547,875.73
1402.441,891.27
1403.335,930.33
1404.229,883.17
1405.122,892.03
1406.017,882.50
1406.911,881.80
1407.804,862.63
1408.697,882.70
1409.590,835.80
1410.485,865.43
1411.378,855.70
1412.271,871.13
1413.163,845.83
1414.056,864.00
1414.949,899.27
1415.843,865.27
1416.735,849.13
1417.627,893.70
1418.520,825.40
1419.412,840.30
1420.306,870.53
1421.197,887.43
1422.089,855.03
1422.981,836.50
1423.873,845.17
1424.764,865.03
1425.657,822.03
1426.549,897.60
1427.440,874.87
1428.331,877.73
1429.222,865.07
1430.113,860.97
1431.006,839.43
1431.897,844.33
1432.787,826.33
1433.678,835.40
1434.568,836.80
1435.459,850.57
1436.351,857.60
1437.241,855.67
1438.131,814.90
1439.021,804.60
1439.911,842.70
1440.801,810.10
1441.693,831.90
1442.583,830.10
1443.472,806.33
1444.362,846.07
1445.251,803.40
1446.140,835.17
1447.030,807.10
1447.921,830.70
1448.810,788.63
1449.699,778.57
1450.588,787.10
1451.476,809.83
1452.365,808.87
1453.254,789.07
1454.144,817.63
1455.032,812.20
1455.921,791.47
1456.809,838.83
1457.697,806.63
1458.585,792.00
1459.473,811.23
1460.361,770.20
1461.251,825.20
1462.138,800.20
1463.026,829.10
1463.913,812.50
1464.801,801.23
1465.688,778.23
1466.575,811.97
1467.463,745.43
1468.351,776.13
1469.238,761.07
1470.125,799.87
1471.012,773.10
1471.899,779.57
1472.785,809.70
1473.672,786.40
1474.558,781.63
1475.446,795.57
1476.333,770.23
1477.219,777.57
1478.105,777.97
1478.991,769.60
1479.877,776.47
1480.762,779.37
1481.648,730.30
1482.534,760.07
1483.419,745.30
1484.307,761.23
1485.192,753.37
1486.077,762.53
1486.962,762.00
1487.847,767.93
1488.732,745.03
1489.617,775.03
1490.502,761.13
1491.387,774.43
1492.271,759.90
1493.156,753.30
1494.042,738.47
1494.927,737.07
1495.811,759.90
1496.695,767.97
1497.579,747.83
1498.463,769.07
1499.347,753.40
1500.231,765.00
1501.114,782.47
1501.998,726.13
1502.881,773.83
1503.765,760.43
1504.648,742.20
1505.533,751.47
1506.417,747.33
1507.300,726.97
1508.183,765.20
1509.066,729.13
1509.948,756.17
1510.831,751.57
1511.714,721.77
1512.596,763.57
1513.479,719.53
1514.361,724.00
1515.243,745.80
1516.125,736.47
1517.008,696.73
1517.890,730.37
1518.771,725.57
1519.655,732.83
1520.537,742.17
1521.419,682.70
1522.300,745.50
1523.182,720.23
1524.063,737.97
1524.944,706.47
1525.825,713.67
1526.707,687.90
1527.588,701.73
1528.468,724.73
1529.349,740.53
1530.230,724.00
1531.111,754.20
1531.991,681.23
1532.872,715.97
1533.752,717.63
1534.632,667.73
1535.513,733.37
1536.393,707.97
1537.273,681.13
1538.153,693.83
1539.032,706.83
1539.912,706.43
1540.792,690.20
1541.672,682.40
1542.551,691.47
1543.430,736.10
1544.310,712.37
1545.189,734.03
1546.068,734.60
1546.947,691.10
1547.826,649.63
1548.705,726.90
1549.584,692.70
1550.462,717.23
1551.341,695.83
1552.219,735.23
1553.098,668.97
1553.976,662.67
1554.854,670.60
1555.733,705.87
1556.611,699.27
1557.489,683.70
1558.367,690.63
1559.244,697.20
1560.122,703.33
1561.000,686.67
1561.877,686.23
1562.755,692.13
1563.632,686.67
1564.509,680.97
1565.386,652.83
1566.264,681.03
1567.141,676.27
1568.017,678.10
1568.894,706.53
1569.771,673.70
1570.648,673.67
1571.524,690.97
1572.401,668.80
1573.277,646.90
1574.153,666.00
1575.029,681.43
1575.906,668.23
1576.781,644.07
1577.657,679.37
1578.533,652.63
1579.409,698.17
1580.285,675.13
1581.160,670.50
1582.036,680.97
1582.911,672.13
1583.786,672.67
1584.662,676.70
1585.537,675.00
1586.412,691.43
1587.287,657.67
1588.160,663.23
1589.035,664.83
1589.909,670.30
1590.784,677.37
1591.658,718.73
1592.533,680.30
1593.407,649.00
1594.281,685.27
1595.155,649.87
1596.029,651.13
1596.903,655.77
1597.777,653.63
1598.651,686.20
1599.525,656.53
1600.398,655.40
1601.272,664.43
1602.144,679.33
1603.017,640.23
1603.890,664.20
1604.763,649.33
1605.636,669.37
1606.509,663.63
1607.382,648.87
1608.255,695.33
1609.128,673.17
1610.000,643.70
1610.873,655.97
1611.746,639.67
1612.616,650.20
1613.488,651.50
1614.361,664.90
1615.233,666.87
1616.105,669.10
1616.977,649.77
1617.849,648.80
1618.720,649.87
1619.592,684.13
1620.464,637.67
1621.333,656.87
1622.205,678.87
1623.076,627.10
1623.947,643.73
1624.818,655.90
1625.689,647.43
1626.560,613.60
1627.431,624.67
1628.302,653.87
1629.171,636.40
1630.042,671.87
1630.912,629.83
1631.782,638.77
1632.653,645.30
1633.523,632.23
1634.393,622.30
1635.263,639.47
1636.131,610.07
1637.001,660.77
1637.871,657.83
1638.741,625.43
1639.611,614.90
1640.480,645.43
1641.350,649.43
1642.219,639.90
1643.087,658.23
1643.956,598.17
1644.825,657.80
1645.694,643.77
1646.563,610.60
1647.432,635.03
1648.299,674.10
1649.167,615.73
1650.036,615.03
1650.904,669.77
1651.773,632.80
1652.641,631.67
1653.509,610.40
1654.376,617.37
1655.244,641.17
1656.112,634.17
1656.980,613.23
1657.847,627.57
1658.715,630.93
1659.581,647.00
1660.448,638.33
1661.316,654.43
1662.183,592.90
1663.051,626.57
1663.918,591.60
1664.783,593.47
1665.650,607.87
1666.517,632.00
1667.384,597.97
1668.251,626.87
1669.115,640.23
1669.982,595.80
1670.849,627.67
1671.715,630.07
1672.581,588.03
1673.446,610.93
1674.312,623.80
1675.178,632.30
1676.044,601.30
1676.910,623.63
1677.774,591.80
1678.639,612.33
1679.505,599.00
1680.370,664.67
1681.236,617.80
1682.099,572.60
1682.965,625.83
1683.830,598.03
1684.695,597.10
1685.560,616.03
1686.423,618.57
1687.288,635.77
1688.153,621.97
1689.017,594.33
1689.880,642.10
1690.745,615.00
1691.609,641.67
1692.473,621.90
1693.338,591.40
1694.200,628.17
1695.064,638.30
1695.928,598.47
1696.792,594.73
1697.654,569.67
1698.517,598.97
1699.381,622.40
1700.245,613.33
1701.106,610.50
1701.969,595.67
1702.833,618.93
1703.696,636.70
1704.557,615.77
1705.420,639.77
1706.283,630.93
1707.146,617.33
1708.007,571.13
1708.870,593.23
1709.732,588.90
1710.595,608.33
1711.455,618.60
1712.318,581.10
1713.180,597.47
1714.040,604.70
1714.902,604.57
1715.764,616.90
1716.626,577.53
1717.486,611.10
1718.348,594.17
1719.209,732.00
1720.071,617.00
1720.930,558.83
1721.792,572.00
1722.653,550.30
1723.512,577.03
1724.374,571.47
1725.234,580.47
1726.095,578.27
1726.954,585.17
1727.815,592.47
1728.676,601.47
1729.535,606.70
1730.395,583.43
1731.256,581.43
1732.114,580.10
1732.974,579.23
1733.834,608.87
1734.693,587.50
1735.553,573.87
1736.413,633.57
1737.272,604.67
1738.130,579.53
1738.990,602.47
1739.849,556.70
1740.707,585.60
1741.566,591.13
1742.426,577.40
1743.283,567.67
1744.142,584.30
1745.001,580.03
1745.858,583.13
1746.717,578.23
1747.576,570.70
1748.433,617.43
1749.292,587.30
1750.150,595.43
1751.007,579.33
1751.865,559.00
1752.723,554.33
1753.579,579.97
1754.438,574.23
1755.296,605.27
1756.152,585.07
1757.010,561.83
1757.865,602.83
1758.723,587.07
1759.581,586.70
1760.436,565.57
1761.294,559.10
1762.151,598.37
1763.006,577.23
1763.864,593.90
1764.721,577.17
1765.576,561.47
1766.433,573.87
1767.288,548.77
1768.144,575.23
1769.001,573.23
1769.856,578.60
1770.712,563.47
1771.568,559.13
1772.423,574.67
1773.279,526.07
1774.133,572.40
1774.989,597.50
1775.845,550.03
1776.699,606.87
1777.555,594.63
1778.409,579.60
1779.265,583.43
1780.120,541.77
1780.974,570.50
1781.829,559.27
1782.682,570.80
1783.538,590.13
1784.393,593.17
1785.246,563.57
1786.101,569.97
1786.954,572.97
1787.808,605.90
1788.661,552.13
1789.516,548.00
1790.370,579.53
1791.223,584.60
1792.077,537.40
1792.930,533.53
1793.784,564.47
1794.636,572.20
1795.490,538.00
1796.344,573.57
1797.196,588.97
1798.049,520.80
1798.901,551.73
1799.755,569.23
1800.606,525.43
1801.460,577.63
1802.311,561.13
1803.165,589.97
1804.018,570.43
1804.869,569.80
1805.722,540.07
1806.573,552.40
1807.426,551.23
1808.276,560.30
1809.129,547.90
1809.980,570.50
1810.832,561.63
1811.683,545.83
1812.535,578.03
1813.385,564.97
1814.237,587.50
1815.089,550.77
1815.940,546.97
1816.791,540.37
1817.641,569.60
1818.493,548.40
1819.343,548.97
1820.194,562.47
1821.044,554.43
1821.895,551.93
1822.745,549.10
1823.596,578.70
1824.445,573.57
1825.296,571.53
1826.145,536.03
1826.996,551.97
1827.845,576.33
1828.695,578.20
1829.544,576.53
1830.395,528.90
1831.243,540.37
1832.094,549.97
1832.942,553.40
1833.792,546.40
1834.640,561.60
1835.490,547.77
1836.338,565.90
1837.186,581.43
1838.036,522.60
1838.884,555.50
1839.733,520.70
1840.581,551.97
1841.430,543.83
1842.278,557.80
1843.127,559.70
1843.974,568.13
1844.823,539.50
1845.671,587.47
1846.519,525.40
1847.366,539.60
1848.213,547.03
1849.062,555.47
1849.909,546.73
1850.757,536.97
1851.604,523.30
1852.452,528.63
1853.298,571.40
1854.146,557.30
1854.993,540.90
1855.839,516.67
1856.687,520.00
1857.532,523.13
1858.380,506.03
1859.226,592.53
1860.073,502.90
1860.919,564.53
1861.765,532.43
1862.612,544.33
1863.457,587.47
1864.304,569.60
1865.150,536.40
1865.995,510.03
1866.842,560.87
1867.686,558.73
1868.533,536.23
1869.378,547.90
1870.223,565.80
1871.069,518.97
1871.914,535.87
1872.760,535.30
1873.604,541.20
1874.448,574.20
1875.294,555.07
1876.139,540.17
1876.984,498.80
1877.828,533.47
1878.672,540.57
1879.518,544.63
1880.361,571.00
1881.205,534.20
1882.050,562.17
1882.894,537.70
1883.739,537.73
1884.582,545.17
1885.425,503.10
1886.270,539.53
1887.113,541.47
1887.956,548.17
1888.801,537.80
1889.644,534.23
1890.486,499.73
1891.331,530.20
1892.173,512.73
1893.017,542.40
1893.860,545.03
1894.702,504.80
1895.546,555.80
1896.388,517.70
1897.230,534.83
1898.074,541.73
1898.916,553.77
1899.757,514.53
1900.601,553.57
1901.443,557.30
1902.284,510.80
1903.125,538.40
1903.969,577.00
1904.810,526.73
1905.651,533.03
1906.494,536.10
1907.335,523.93
1908.176,538.23
1909.018,520.47
1909.859,518.80
1910.700,529.87
1911.542,548.73
1912.383,530.73
1913.223,539.67
1914.064,514.67
1914.906,561.30
1915.746,561.87
1916.586,521.33
1917.428,536.33
1918.268,557.83
1919.107,547.53
1919.947,516.83
1920.789,535.10
1921.628,535.17
1922.468,533.47
1923.309,521.17
1924.148,500.30
1924.988,503.53
1925.827,518.37
1926.667,520.60
1927.507,524.97
1928.345,514.37
1929.184,548.43
1930.025,517.90
1930.864,526.63
1931.702,589.77
1932.541,494.77
1933.381,529.30
1934.219,513.97
1935.057,544.77
1935.896,501.73
1936.735,506.50
1937.573,529.97
1938.411,523.93
1939.249,572.47
1940.089,559.37
1940.927,549.97
1941.764,550.17
1942.602,514.40
1943.439,541.77
1944.278,536.13
1945.115,523.77
1945.953,525.63
1946.790,536.43
1947.628,525.77
1948.465,546.00
1949.302,536.07
1950.139,525.73
1950.976,523.37
1951.814,538.70
1952.651,532.57
1953.487,520.60
1954.323,510.67
1955.160,548.27
1955.998,528.57
1956.834,530.27
1957.670,521.83
1958.506,516.53
1959.342,504.13
1960.177,484.97
1961.015,504.77
1961.850,516.17
1962.686,522.80
1963.521,529.10
1964.357,522.00
1965.192,545.00
1966.029,504.93
1966.864,527.63
1967.699,507.70
1968.534,531.03
1969.369,512.37
1970.204,515.10
1971.040,503.23
1971.875,492.67
1972.709,524.27
1973.544,484.13
1974.378,526.80
1975.212,495.27
1976.047,542.00
1976.882,517.17
1977.716,463.53
1978.550,523.17
1979.384,518.50
1980.218,512.87
1981.052,528.40
1981.885,502.33
1982.719,517.57
1983.554,491.80
1984.388,521.63
1985.221,497.30
1986.054,466.80
1986.887,527.50
1987.720,501.20
1988.553,530.77
1989.386,507.20
1990.219,537.97
1991.053,518.87
1991.886,531.37
1992.719,511.83
1993.551,507.87
1994.383,549.17
1995.216,493.10
1996.048,550.33
1996.880,509.23
1997.712,492.47
1998.544,465.47
1999.376,535.67
2000.208,528.23
2000.208,528.23

Max Intensity Wave.,219.929
Max Intensity Data,5401.73
Min Intensity Wave.,1977.716
Min Intensity Data,463.53
FWHM Wave.,601.042
FWHM Value,35.06
Pressure Wave.,686.436
Pressure Value [GPa],-20.30410
G/D Ratio,0.60751
G/D Gband Wave.,1543.565
G/D Gband Intensity,736.90
G/D Dband Wave.,1302.462
G/D Dband Intensity,1212.98

<< BACKGROUND SPECTRUM >>
Wave[dcm-1],No28
146.591,2254.00
147.626,2102.00
148.664,2092.00
149.699,2555.00
150.737,2260.00
151.772,2413.00
152.809,2381.00
153.846,2305.00
154.881,2402.00
155.918,1960.00
156.953,2270.00
157.989,2646.00
159.026,2490.00
160.060,2648.00
161.096,2849.00
162.130,2504.00
163.167,2580.00
164.200,2472.00
165.236,2672.00
166.272,2679.00
167.305,2264.00
168.341,2560.00
169.374,2812.00
170.409,2772.00
171.445,2747.00
172.477,2549.00
173.512,2425.00
174.545,2676.00
175.580,2885.00
176.614,3038.00
177.647,2838.00
178.681,3043.00
179.713,3308.00
180.747,2819.00
181.781,2712.00
182.813,2981.00
183.847,3074.00
184.878,2741.00
185.912,3022.00
186.945,3108.00
187.976,3070.00
189.010,2685.00
190.043,2879.00
191.073,2925.00
192.106,2733.00
193.137,3216.00
194.170,2594.00
195.202,2914.00
196.232,2679.00
197.265,2974.00
198.297,3096.00
199.327,2769.00
200.359,2937.00
201.388,3294.00
202.420,2896.00
203.452,3120.00
204.481,2670.00
205.512,3359.00
206.544,3080.00
207.573,3041.00
208.604,3429.00
209.635,3549.00
210.663,2915.00
211.694,2980.00
212.725,2858.00
213.753,2794.00
214.783,3418.00
215.813,3226.00
216.841,2980.00
217.871,3176.00
218.899,2929.00
219.929,3133.00
220.959,2865.00
221.986,3129.00
223.016,2744.00
224.045,3150.00
225.072,3119.00
226.101,3194.00
227.130,3283.00
228.157,2812.00
229.185,2357.00
230.214,3190.00
231.241,2840.00
232.269,2478.00
233.297,2704.00
234.323,3246.00
235.351,2836.00
236.379,3120.00
237.407,2729.00
238.433,2929.00
239.460,3109.00
240.488,3084.00
241.513,3244.00
242.540,3074.00
243.568,3183.00
244.592,3242.00
245.619,3240.00
246.646,2929.00
247.671,2944.00
248.697,2811.00
249.724,3044.00
250.748,3028.00
251.774,2986.00
252.801,3276.00
253.827,3115.00
254.850,3052.00
255.876,2697.00
256.902,3108.00
257.925,2981.00
258.951,2746.00
259.976,2741.00
260.999,3066.00
262.024,2765.00
263.049,3611.00
264.074,3108.00
265.097,3007.00
266.122,3088.00
267.146,3047.00
268.168,3198.00
269.193,2840.00
270.217,3214.00
271.241,2709.00
272.263,2850.00
273.287,3173.00
274.311,2761.00
275.332,3285.00
276.356,2874.00
277.379,3120.00
278.402,3158.00
279.424,2910.00
280.447,2883.00
281.470,2748.00
282.492,3109.00
283.513,2905.00
284.536,3185.00
285.558,3211.00
286.581,3132.00
287.601,2859.00
288.623,2795.00
289.645,3075.00
290.665,3107.00
291.687,3172.00
292.709,3087.00
293.730,3378.00
294.750,2895.00
295.771,2790.00
296.792,3064.00
297.813,2930.00
298.832,3044.00
299.853,2730.00
300.874,2952.00
301.895,2953.00
302.913,2981.00
303.934,3285.00
304.954,3040.00
305.975,3189.00
306.993,2754.00
308.013,3118.00
309.033,3007.00
310.052,2912.00
311.072,2898.00
312.090,3024.00
313.109,3228.00
314.129,3398.00
315.148,3028.00
316.165,3084.00
317.184,3225.00
318.203,2744.00
319.222,2729.00
320.238,3145.00
321.257,2793.00
322.275,2702.00
323.294,2992.00
324.312,3154.00
325.328,3275.00
326.346,3291.00
327.364,3228.00
328.382,3157.00
329.397,3101.00
330.415,3215.00
331.432,3211.00
332.450,3284.00
333.467,3462.00
334.482,2579.00
335.499,3395.00
336.516,2859.00
337.533,2596.00
338.547,2844.00
339.564,2838.00
340.580,3107.00
341.597,2963.00
342.613,3456.00
343.627,2992.00
344.643,2997.00
345.659,3086.00
346.675,3006.00
347.690,2916.00
348.704,3093.00
349.719,2907.00
350.735,2756.00
351.750,3217.00
352.765,3028.00
353.778,3018.00
354.793,3151.00
355.808,2860.00
356.822,3226.00
357.837,2640.00
358.851,3225.00
359.864,2950.00
360.878,2772.00
361.892,2949.00
362.906,3169.00
363.920,2579.00
364.932,3084.00
365.945,3105.00
366.959,3027.00
367.972,2935.00
368.986,2690.00
369.999,3389.00
371.010,2822.00
372.023,3335.00
373.036,2950.00
374.049,3384.00
375.061,3099.00
376.072,2981.00
377.084,2838.00
378.097,2684.00
379.109,3188.00
380.121,2986.00
381.133,2707.00
382.143,3129.00
383.155,2737.00
384.166,2917.00
385.178,3076.00
386.189,3182.00
387.201,2679.00
388.212,2890.00
389.221,2938.00
390.232,3028.00
391.243,2920.00
392.254,3042.00
393.264,2888.00
394.275,3245.00
395.283,3184.00
396.294,3629.00
397.304,3481.00
398.314,3113.00
399.324,3066.00
400.334,2677.00
401.344,3163.00
402.351,2663.00
403.361,3214.00
404.370,2956.00
405.380,2886.00
406.389,3362.00
407.398,3134.00
408.407,3068.00
409.414,3732.00
410.423,3273.00
411.431,2745.00
412.440,2684.00
413.448,3352.00
414.457,2848.00
415.465,2835.00
416.471,2879.00
417.479,3045.00
418.487,2808.00
419.495,3325.00
420.503,3142.00
421.510,2622.00
422.518,3167.00
423.525,3204.00
424.530,3387.00
425.537,2913.00
426.544,3244.00
427.551,2855.00
428.558,3576.00
429.565,3455.00
430.571,2910.00
431.578,2921.00
432.582,2866.00
433.588,2969.00
434.595,2650.00
435.601,3316.00
436.607,3203.00
437.612,2765.00
438.618,3327.00
439.624,2972.00
440.627,2941.00
441.633,3103.00
442.638,3598.00
443.643,3106.00
444.648,3013.00
445.653,3191.00
446.658,2899.00
447.663,3013.00
448.667,2888.00
449.672,2931.00
450.674,2987.00
451.678,2731.00
452.682,2903.00
453.687,2832.00
454.690,3643.00
455.694,3266.00
456.698,2566.00
457.702,2666.00
458.705,2780.00
459.709,2787.00
460.710,2861.00
461.713,2984.00
462.716,3029.00
463.719,3029.00
464.722,3159.00
465.725,2931.00
466.727,2809.00
467.730,3054.00
468.732,2786.00
469.735,3315.00
470.737,2918.00
471.737,2894.00
472.739,2929.00
473.741,2817.00
474.742,3018.00
475.744,3105.00
476.746,3025.00
477.747,2986.00
478.748,3154.00
479.750,2913.00
480.751,2967.00
481.752,3767.00
482.753,3056.00
483.751,3552.00
484.752,2623.00
485.753,2978.00
486.753,2855.00
487.753,2973.00
488.754,3380.00
489.754,2703.00
490.754,3305.00
491.754,3126.00
492.754,2710.00
493.753,3012.00
494.753,2930.00
495.752,3303.00
496.752,3029.00
497.749,2964.00
498.748,2885.00
499.747,3388.00
500.746,3102.00
501.745,2755.00
502.744,2765.00
503.742,3343.00
504.741,2933.00
505.739,2473.00
506.737,2911.00
507.735,3122.00
508.734,3354.00
509.732,3159.00
510.729,3327.00
511.727,2850.00
512.725,2937.00
513.720,2776.00
514.718,3230.00
515.715,2643.00
516.712,2661.00
517.709,2975.00
518.706,2924.00
519.703,3040.00
520.700,3179.00
521.696,3346.00
522.693,2931.00
523.689,2845.00
524.686,3149.00
525.682,2802.00
526.678,3497.00
527.674,2895.00
528.670,2578.00
529.666,3475.00
530.661,3513.00
531.657,3658.00
532.652,3190.00
533.648,3048.00
534.641,3258.00
535.636,3046.00
536.631,3121.00
537.626,3168.00
538.621,2757.00
539.616,2584.00
540.610,2520.00
541.605,3011.00
542.599,3036.00
543.593,2979.00
544.587,3908.00
545.581,2876.00
546.575,3050.00
547.569,3036.00
548.563,2698.00
549.557,2696.00
550.550,2761.00
551.543,2796.00
552.537,3132.00
553.530,2792.00
554.523,2756.00
555.516,3130.00
556.509,2933.00
557.502,2609.00
558.494,3217.00
559.487,2888.00
560.479,3192.00
561.472,3215.00
562.464,3115.00
563.456,3270.00
564.448,2952.00
565.440,2972.00
566.432,3326.00
567.423,2871.00
568.415,2880.00
569.404,3113.00
570.396,2804.00
571.387,3129.00
572.378,2966.00
573.369,3957.00
574.360,3682.00
575.351,2972.00
576.341,2814.00
577.332,2877.00
578.323,2707.00
579.313,2849.00
580.303,3280.00
581.293,3129.00
582.283,2991.00
583.273,3158.00
584.263,3006.00
585.253,3124.00
586.243,3138.00
587.232,2638.00
588.222,2961.00
589.211,3197.00
590.200,3057.00
591.189,2924.00
592.178,2945.00
593.167,3406.00
594.156,3290.00
595.145,2898.00
596.133,3468.00
597.122,3075.00
598.110,3188.00
599.098,3093.00
600.086,2976.00
601.074,3165.00
602.062,2815.00
603.050,2724.00
604.038,3171.00
605.025,2784.00
606.013,3194.00
607.000,3347.00
607.987,2977.00
608.975,3055.00
609.962,2756.00
610.949,3172.00
611.936,3290.00
612.922,3122.00
613.909,2694.00
614.895,3372.00
615.882,2817.00
616.868,3008.00
617.854,2765.00
618.841,3032.00
619.826,3117.00
620.812,2974.00
621.798,2788.00
622.784,3198.00
623.769,3036.00
624.755,2707.00
625.740,3076.00
626.725,2740.00
627.711,2856.00
628.698,3032.00
629.683,2839.00
630.667,3177.00
631.652,2772.00
632.637,2973.00
633.621,3149.00
634.606,2903.00
635.590,3130.00
636.574,2952.00
637.558,3082.00
638.542,3055.00
639.526,2851.00
640.510,2616.00
641.493,3048.00
642.477,2989.00
643.460,2719.00
644.444,3250.00
645.427,3292.00
646.410,2676.00
647.393,2963.00
648.376,3079.00
649.359,2920.00
650.341,3116.00
651.324,3100.00
652.307,3031.00
653.289,2935.00
654.271,2880.00
655.253,2937.00
656.235,3164.00
657.217,3246.00
658.199,2619.00
659.181,2784.00
660.163,2975.00
661.144,2864.00
662.126,2897.00
663.107,2775.00
664.088,4684.00
665.069,3242.00
666.050,2804.00
667.033,2726.00
668.014,3030.00
668.995,2625.00
669.975,3025.00
670.956,3009.00
671.936,3137.00
672.916,2977.00
673.896,3078.00
674.876,2906.00
675.856,2850.00
676.836,2730.00
677.816,2330.00
678.795,2829.00
679.775,2684.00
680.754,3045.00
681.734,3152.00
682.713,3152.00
683.692,2774.00
684.671,2664.00
685.650,2755.00
686.629,2812.00
687.607,2748.00
688.586,2780.00
689.564,2837.00
690.543,3291.00
691.523,2377.00
692.501,2836.00
693.479,2905.00
694.457,2803.00
695.435,2834.00
696.413,2675.00
697.390,2521.00
698.368,2695.00
699.345,3106.00
700.322,2952.00
701.300,3114.00
702.277,3047.00
703.254,3278.00
704.231,2553.00
705.207,2937.00
706.184,2793.00
707.161,2662.00
708.137,2800.00
709.113,2786.00
710.090,2818.00
711.068,2571.00
712.044,2625.00
713.020,2917.00
713.996,2633.00
714.971,2793.00
715.947,2827.00
716.922,2850.00
717.898,2747.00
718.873,2883.00
719.848,2731.00
720.823,2671.00
721.798,2993.00
722.773,2719.00
723.748,2494.00
724.723,3014.00
725.697,2822.00
726.672,2766.00
727.646,2519.00
728.622,2940.00
729.596,2652.00
730.570,2737.00
731.544,3077.00
732.518,3227.00
733.492,2792.00
734.466,2844.00
735.439,2991.00
736.413,3102.00
737.386,2458.00
738.359,2421.00
739.332,2516.00
740.305,2874.00
741.278,3268.00
742.251,2904.00
743.224,2710.00
744.196,2528.00
745.171,3116.00
746.143,3016.00
747.115,2744.00
748.087,2681.00
749.059,3069.00
750.031,2909.00
751.003,3688.00
751.975,3281.00
752.947,2686.00
753.918,3091.00
754.890,2587.00
755.861,2752.00
756.832,3039.00
757.803,2848.00
758.774,2855.00
759.747,2659.00
760.718,3213.00
761.689,2710.00
762.659,2589.00
763.630,3142.00
764.600,2595.00
765.570,3058.00
766.540,3089.00
767.510,2922.00
768.480,3049.00
769.450,2690.00
770.420,2805.00
771.390,2618.00
772.359,2780.00
773.329,2647.00
774.300,2484.00
775.269,2751.00
776.238,2985.00
777.207,3141.00
778.176,2543.00
779.145,2801.00
780.114,2690.00
781.083,2599.00
782.051,2770.00
783.019,2674.00
783.988,3067.00
784.956,2844.00
785.924,2951.00
786.894,2865.00
787.862,2657.00
788.830,3139.00
789.797,2620.00
790.765,2563.00
791.732,2750.00
792.700,2674.00
793.667,2594.00
794.634,2724.00
795.601,2759.00
796.568,2769.00
797.535,2832.00
798.502,3412.00
799.468,2861.00
800.437,2426.00
801.403,2682.00
802.370,3317.00
803.336,2984.00
804.302,2847.00
805.268,2437.00
806.234,2529.00
807.200,2726.00
808.166,2773.00
809.131,2586.00
810.097,3018.00
811.062,3663.00
812.027,3008.00
812.994,2582.00
813.960,2624.00
814.925,2952.00
815.889,2527.00
816.854,3029.00
817.819,2645.00
818.783,2780.00
819.748,3109.00
820.712,2751.00
821.677,2635.00
822.641,2690.00
823.605,2713.00
824.571,3122.00
825.534,2791.00
826.498,2703.00
827.462,2821.00
828.425,2603.00
829.389,3077.00
830.352,2843.00
831.315,2914.00
832.279,2535.00
833.242,2758.00
834.204,2663.00
835.167,2659.00
836.132,3065.00
837.095,2534.00
838.057,2704.00
839.020,2826.00
839.982,2882.00
840.944,2678.00
841.906,2624.00
842.868,2957.00
843.830,2564.00
844.792,3052.00
845.753,2693.00
846.715,2441.00
847.679,2602.00
848.640,2672.00
849.601,2773.00
850.562,3250.00
851.523,2694.00
852.484,2477.00
853.445,2952.00
854.406,2690.00
855.367,2728.00
856.327,3044.00
857.288,2515.00
858.248,2684.00
859.210,2688.00
860.170,2505.00
861.130,2973.00
862.090,2435.00
863.050,2644.00
864.010,2676.00
864.969,2902.00
865.929,2623.00
866.888,2542.00
867.848,2821.00
868.807,2644.00
869.766,2860.00
870.727,2735.00
871.686,3001.00
872.645,3035.00
873.604,3329.00
874.562,2776.00
875.521,2810.00
876.479,3359.00
877.437,2587.00
878.396,2595.00
879.354,3148.00
880.312,2592.00
881.270,2643.00
882.229,3059.00
883.187,2639.00
884.145,2665.00
885.102,2913.00
886.059,2807.00
887.017,2866.00
887.974,2982.00
888.931,3094.00
889.888,2522.00
890.845,2423.00
891.802,2336.00
892.758,2641.00
893.717,2428.00
894.673,2556.00
895.630,2599.00
896.586,2900.00
897.542,2658.00
898.498,2548.00
899.454,2817.00
900.410,2734.00
901.366,2680.00
902.321,2645.00
903.277,2653.00
904.232,2783.00
905.189,2481.00
906.145,2637.00
907.100,2195.00
908.055,2707.00
909.010,2935.00
909.965,2339.00
910.919,2810.00
911.874,2566.00
912.828,2778.00
913.783,2783.00
914.737,2318.00
915.693,2777.00
916.648,2857.00
917.602,2969.00
918.555,2802.00
919.509,2857.00
920.463,2742.00
921.417,2831.00
922.370,2558.00
923.324,2660.00
924.277,2686.00
925.230,2773.00
926.183,2406.00
927.138,2704.00
928.091,2969.00
929.044,2820.00
929.996,2634.00
930.949,2673.00
931.902,2808.00
932.854,2818.00
933.806,2633.00
934.758,2961.00
935.711,2959.00
936.663,2736.00
937.614,2801.00
938.568,2742.00
939.520,2418.00
940.471,2687.00
941.423,2744.00
942.374,2855.00
943.326,2745.00
944.277,2597.00
945.228,2875.00
946.179,2676.00
947.130,3022.00
948.080,2678.00
949.031,2578.00
949.984,2687.00
950.934,2737.00
951.884,2472.00
952.835,2696.00
953.785,2732.00
954.735,2590.00
955.685,2363.00
956.635,2605.00
957.585,2656.00
958.534,2645.00
959.484,2737.00
960.433,2607.00
961.383,2471.00
962.334,2928.00
963.283,2746.00
964.232,2863.00
965.181,2707.00
966.130,2814.00
967.079,2629.00
968.027,2709.00
968.976,2706.00
969.924,2626.00
970.873,2796.00
971.821,2747.00
972.769,2915.00
973.719,2832.00
974.667,2489.00
975.615,2724.00
976.562,2711.00
977.510,2410.00
978.458,2593.00
979.405,2851.00
980.352,2792.00
981.300,2994.00
982.247,2781.00
983.194,2538.00
984.141,2642.00
985.088,2729.00
986.036,2789.00
986.983,3011.00
987.930,3101.00
988.876,2349.00
989.822,2946.00
990.769,2551.00
991.715,2607.00
992.661,2451.00
993.607,2802.00
994.553,3292.00
995.498,2603.00
996.444,2302.00
997.389,2763.00
998.337,2529.00
999.282,2865.00
1000.227,2615.00
1001.173,2692.00
1002.118,2439.00
1003.062,2899.00
1004.007,2667.00
1004.952,2998.00
1005.897,2925.00
1006.841,2718.00
1007.786,2455.00
1008.730,2467.00
1009.674,3180.00
1010.618,2651.00
1011.564,2489.00
1012.508,2382.00
1013.452,2954.00
1014.396,2717.00
1015.339,2586.00
1016.283,2710.00
1017.226,2752.00
1018.170,2697.00
1019.113,2842.00
1020.056,2733.00
1020.999,2693.00
1021.942,2600.00
1022.885,2871.00
1023.828,2985.00
1024.770,2499.00
1025.715,2759.00
1026.657,2705.00
1027.600,2747.00
1028.542,2958.00
1029.484,2735.00
1030.426,2878.00
1031.368,2770.00
1032.310,2591.00
1033.251,2525.00
1034.193,2722.00
1035.135,2477.00
1036.076,2632.00
1037.017,2527.00
1037.959,2839.00
1038.900,2801.00
1039.843,2782.00
1040.784,2744.00
1041.725,2787.00
1042.665,2643.00
1043.606,2762.00
1044.547,2697.00
1045.487,2364.00
1046.427,2690.00
1047.368,2735.00
1048.308,2236.00
1049.248,2518.00
1050.188,2713.00
1051.128,2604.00
1052.067,2695.00
1053.007,2373.00
1053.947,2389.00
1054.886,2574.00
1055.827,2489.00
1056.766,2971.00
1057.706,2463.00
1058.645,2663.00
1059.584,2768.00
1060.522,2987.00
1061.461,2423.00
1062.400,2410.00
1063.338,2630.00
1064.277,2508.00
1065.215,2522.00
1066.154,2426.00
1067.092,2569.00
1068.030,2640.00
1068.968,2865.00
1069.906,2980.00
1070.843,2924.00
1071.781,2750.00
1072.720,2805.00
1073.658,2834.00
1074.595,2609.00
1075.533,2589.00
1076.470,2596.00
1077.407,3019.00
1078.344,2764.00
1079.281,2790.00
1080.217,2307.00
1081.154,2696.00
1082.091,2722.00
1083.027,2428.00
1083.964,2940.00
1084.900,2578.00
1085.836,2601.00
1086.772,2877.00
1087.708,2449.00
1088.644,2816.00
1089.580,2640.00
1090.515,2719.00
1091.451,2591.00
1092.388,2730.00
1093.324,2404.00
1094.259,3248.00
1095.194,2699.00
1096.129,2614.00
1097.064,2593.00
1097.999,2821.00
1098.934,2544.00
1099.869,2550.00
1100.803,2705.00
1101.738,2699.00
1102.672,2391.00
1103.607,2809.00
1104.541,2540.00
1105.475,2526.00
1106.409,2426.00
1107.343,2607.00
1108.277,2427.00
1109.210,2716.00
1110.144,2665.00
1111.078,2673.00
1112.011,2427.00
1112.944,2742.00
1113.878,2709.00
1114.811,2171.00
1115.744,2571.00
1116.678,2290.00
1117.611,2588.00
1118.544,2615.00
1119.477,2735.00
1120.409,2550.00
1121.342,3101.00
1122.274,2748.00
1123.206,3039.00
1124.138,2679.00
1125.070,3004.00
1126.002,2835.00
1126.934,2281.00
1127.866,2567.00
1128.798,2330.00
1129.729,2356.00
1130.661,2623.00
1131.592,2566.00
1132.523,2727.00
1133.454,2745.00
1134.385,2288.00
1135.317,2635.00
1136.247,2608.00
1137.178,2846.00
1138.109,2375.00
1139.039,2972.00
1139.970,2835.00
1140.900,2584.00
1141.831,2376.00
1142.761,2243.00
1143.691,2757.00
1144.621,2682.00
1145.551,2704.00
1146.480,2713.00
1147.410,2838.00
1148.340,2311.00
1149.269,2361.00
1150.199,2596.00
1151.128,3051.00
1152.057,2444.00
1152.979,2583.00
1153.898,2627.00
1154.819,2725.00
1155.739,2631.00
1156.658,2533.00
1157.579,2702.00
1158.498,2639.00
1159.419,2190.00
1160.338,2679.00
1161.256,2703.00
1162.177,2477.00
1163.095,2635.00
1164.016,2684.00
1164.934,2914.00
1165.852,2819.00
1166.772,2618.00
1167.690,2639.00
1168.610,2696.00
1169.528,2620.00
1170.446,2178.00
1171.365,2564.00
1172.283,2518.00
1173.202,2661.00
1174.120,2656.00
1175.037,2493.00
1175.956,2457.00
1176.873,2488.00
1177.792,2527.00
1178.709,3101.00
1179.626,2506.00
1180.544,2858.00
1181.461,2525.00
1182.379,2743.00
1183.296,2638.00
1184.212,2301.00
1185.130,2429.00
1186.046,2994.00
1186.962,2606.00
1187.880,2908.00
1188.796,2682.00
1189.714,2431.00
1190.629,2744.00
1191.545,2701.00
1192.462,2576.00
1193.378,2597.00
1194.295,2358.00
1195.210,2625.00
1196.125,2791.00
1197.042,2701.00
1197.957,2635.00
1198.872,2501.00
1199.788,2570.00
1200.703,2943.00
1201.619,2679.00
1202.534,2491.00
1203.448,2698.00
1204.364,2625.00
1205.278,2327.00
1206.192,2639.00
1207.108,3127.00
1208.022,2977.00
1208.938,2486.00
1209.851,2762.00
1210.765,2850.00
1211.680,2543.00
1212.594,2442.00
1213.507,2565.00
1214.422,3017.00
1215.335,2725.00
1216.248,2571.00
1217.163,2684.00
1218.076,3243.00
1218.990,2747.00
1219.903,2410.00
1220.816,2455.00
1221.730,2601.00
1222.642,2527.00
1223.554,2551.00
1224.469,2681.00
1225.380,2579.00
1226.292,2278.00
1227.206,2779.00
1228.118,2975.00
1229.032,2270.00
1229.943,2479.00
1230.855,2569.00
1231.768,2355.00
1232.679,2694.00
1233.590,2588.00
1234.503,2835.00
1235.414,2511.00
1236.325,2486.00
1237.238,2701.00
1238.149,2721.00
1239.059,2462.00
1239.972,2842.00
1240.882,2465.00
1241.793,2766.00
1242.705,2919.00
1243.615,2577.00
1244.525,2696.00
1245.437,2191.00
1246.347,2689.00
1247.259,2818.00
1248.168,3063.00
1249.078,2836.00
1249.989,2906.00
1250.899,2439.00
1251.808,2493.00
1252.719,2530.00
1253.628,2485.00
1254.537,2997.00
1255.448,2463.00
1256.357,2446.00
1257.266,2613.00
1258.176,2351.00
1259.085,2383.00
1259.993,2403.00
1260.904,2485.00
1261.812,2478.00
1262.720,3202.00
1263.630,2803.00
1264.538,2431.00
1265.446,2706.00
1266.356,2577.00
1267.263,2916.00
1268.171,2430.00
1269.080,2711.00
1269.988,2793.00
1270.895,2542.00
1271.804,2600.00
1272.711,2776.00
1273.619,2798.00
1274.527,2438.00
1275.434,2749.00
1276.341,2456.00
1277.248,2680.00
1278.156,2897.00
1279.063,2473.00
1279.969,2730.00
1280.877,3513.00
1281.783,2817.00
1282.690,2714.00
1283.598,2579.00
1284.503,2488.00
1285.409,2475.00
1286.317,3007.00
1287.223,3000.00
1288.128,2686.00
1289.036,2517.00
1289.941,2591.00
1290.846,2651.00
1291.751,2437.00
1292.658,2569.00
1293.563,3082.00
1294.468,2622.00
1295.375,2742.00
1296.280,2839.00
1297.184,3355.00
1298.091,2716.00
1298.995,2792.00
1299.900,3016.00
1300.806,2518.00
1301.710,2370.00
1302.614,2197.00
1303.518,2880.00
1304.424,2608.00
1305.327,2800.00
1306.231,2620.00
1307.137,2775.00
1308.040,2692.00
1308.943,2656.00
1309.847,2844.00
1310.752,2813.00
1311.655,2294.00
1312.558,2452.00
1313.463,2569.00
1314.366,2504.00
1315.269,2674.00
1316.171,2600.00
1317.076,2497.00
1317.978,2447.00
1318.881,2240.00
1319.785,2481.00
1320.687,2512.00
1321.589,2227.00
1322.491,2482.00
1323.395,2701.00
1324.297,3186.00
1325.198,2768.00
1326.102,2430.00
1327.004,2437.00
1327.905,3015.00
1328.806,2593.00
1329.709,2685.00
1330.611,2556.00
1331.512,2434.00
1332.413,3070.00
1333.316,2658.00
1334.216,2799.00
1335.117,2369.00
1336.020,2652.00
1336.920,2672.00
1337.821,2480.00
1338.721,2887.00
1339.623,2658.00
1340.523,2600.00
1341.423,2456.00
1342.323,2916.00
1343.225,2711.00
1344.125,2464.00
1345.025,2501.00
1345.924,2269.00
1346.826,2913.00
1347.725,3022.00
1348.624,2864.00
1349.524,2495.00
1350.425,2594.00
1351.324,2722.00
1352.223,2809.00
1353.121,2589.00
1354.022,2803.00
1354.921,3036.00
1355.819,2728.00
1356.718,2671.00
1357.618,2382.00
1358.516,2739.00
1359.415,2992.00
1360.313,2697.00
1361.213,2559.00
1362.111,2921.00
1363.008,3306.00
1363.906,2628.00
1364.806,2618.00
1365.703,2734.00
1366.601,2479.00
1367.498,2452.00
1368.397,2800.00
1369.295,2685.00
1370.192,2473.00
1371.089,2719.00
1371.987,2593.00
1372.884,2872.00
1373.781,2462.00
1374.678,2639.00
1375.574,2438.00
1376.473,2750.00
1377.369,2844.00
1378.265,2469.00
1379.161,2650.00
1380.059,2353.00
1380.955,2805.00
1381.851,2381.00
1382.747,2519.00
1383.643,2585.00
1384.540,2407.00
1385.436,2534.00
1386.331,2678.00
1387.227,2754.00
1388.124,2747.00
1389.019,2438.00
1389.914,2613.00
1390.809,2280.00
1391.704,3068.00
1392.601,2519.00
1393.495,2912.00
1394.390,2822.00
1395.285,2880.00
1396.179,2717.00
1397.075,2602.00
1397.969,2733.00
1398.864,2352.00
1399.758,2565.00
1400.652,2667.00
1401.547,2461.00
1402.441,2403.00
1403.335,2933.00
1404.229,2667.00
1405.122,2695.00
1406.017,2611.00
1406.911,2767.00
1407.804,3050.00
1408.697,2610.00
1409.590,2486.00
1410.485,2802.00
1411.378,2715.00
1412.271,2332.00
1413.163,2713.00
1414.056,2780.00
1414.949,2984.00
1415.843,2666.00
1416.735,2605.00
1417.627,2623.00
1418.520,2636.00
1419.412,2872.00
1420.306,2773.00
1421.197,2883.00
1422.089,2854.00
1422.981,3109.00
1423.873,2809.00
1424.764,2726.00
1425.657,2695.00
1426.549,2725.00
1427.440,2814.00
1428.331,2515.00
1429.222,2305.00
1430.113,2659.00
1431.006,2814.00
1431.897,2536.00
1432.787,2662.00
1433.678,2574.00
1434.568,2459.00
1435.459,2844.00
1436.351,2793.00
1437.241,2756.00
1438.131,2801.00
1439.021,2415.00
1439.911,2592.00
1440.801,2718.00
1441.693,2868.00
1442.583,2674.00
1443.472,2658.00
1444.362,2733.00
1445.251,2608.00
1446.140,2548.00
1447.030,2844.00
1447.921,2824.00
1448.810,2498.00
1449.699,3041.00
1450.588,2712.00
1451.476,2552.00
1452.365,2733.00
1453.254,2569.00
1454.144,2519.00
1455.032,2768.00
1455.921,2396.00
1456.809,2903.00
1457.697,2443.00
1458.585,2610.00
1459.473,2580.00
1460.361,2505.00
1461.251,2698.00
1462.138,2711.00
1463.026,2588.00
1463.913,2869.00
1464.801,2546.00
1465.688,2757.00
1466.575,2651.00
1467.463,3137.00
1468.351,2514.00
1469.238,2640.00
1470.125,2250.00
1471.012,2707.00
1471.899,2742.00
1472.785,2441.00
1473.672,2648.00
1474.558,2860.00
1475.446,2763.00
1476.333,2820.00
1477.219,2455.00
1478.105,2620.00
1478.991,2604.00
1479.877,2943.00
1480.762,2641.00
1481.648,2547.00
1482.534,2789.00
1483.419,2740.00
1484.307,2759.00
1485.192,2634.00
1486.077,2506.00
1486.962,2518.00
1487.847,2392.00
1488.732,2506.00
1489.617,2652.00
1490.502,2917.00
1491.387,2765.00
1492.271,2477.00
1493.156,2493.00
1494.042,2468.00
1494.927,2879.00
1495.811,2538.00
1496.695,2771.00
1497.579,2947.00
1498.463,2629.00
1499.347,2695.00
1500.231,2652.00
1501.114,2682.00
1501.998,2935.00
1502.881,2658.00
1503.765,2918.00
1504.648,3045.00
1505.533,2757.00
1506.417,2658.00
1507.300,2624.00
1508.183,2692.00
1509.066,2159.00
1509.948,2867.00
1510.831,2989.00
1511.714,2464.00
1512.596,2753.00
1513.479,2927.00
1514.361,2854.00
1515.243,2667.00
1516.125,2804.00
1517.008,2958.00
1517.890,2614.00
1518.771,2684.00
1519.655,2846.00
1520.537,2588.00
1521.419,2540.00
1522.300,2685.00
1523.182,2797.00
1524.063,2776.00
1524.944,2960.00
1525.825,2848.00
1526.707,2506.00
1527.588,2462.00
1528.468,2729.00
1529.349,2313.00
1530.230,2573.00
1531.111,2789.00
1531.991,2741.00
1532.872,2379.00
1533.752,2622.00
1534.632,2559.00
1535.513,2487.00
1536.393,2807.00
1537.273,2995.00
1538.153,3300.00
1539.032,2402.00
1539.912,2646.00
1540.792,2687.00
1541.672,2703.00
1542.551,2781.00
1543.430,3212.00
1544.310,2681.00
1545.189,2535.00
1546.068,3039.00
1546.947,2774.00
1547.826,3020.00
1548.705,2634.00
1549.584,2891.00
1550.462,2594.00
1551.341,2828.00
1552.219,2693.00
1553.098,2836.00
1553.976,2898.00
1554.854,3093.00
1555.733,2849.00
1556.611,2586.00
1557.489,2477.00
1558.367,2665.00
1559.244,2814.00
1560.122,2638.00
1561.000,2744.00
1561.877,2955.00
1562.755,2538.00
1563.632,2628.00
1564.509,2925.00
1565.386,3057.00
1566.264,2434.00
1567.141,2297.00
1568.017,2817.00
1568.894,2631.00
1569.771,2726.00
1570.648,2784.00
1571.524,2675.00
1572.401,2431.00
1573.277,2475.00
1574.153,2729.00
1575.029,2532.00
1575.906,3394.00
1576.781,2871.00
1577.657,2610.00
1578.533,2927.00
1579.409,2285.00
1580.285,2620.00
1581.160,3082.00
1582.036,2836.00
1582.911,2483.00
1583.786,2994.00
1584.662,2453.00
1585.537,2628.00
1586.412,2684.00
1587.287,2507.00
1588.160,2845.00
1589.035,2326.00
1589.909,2685.00
1590.784,2625.00
1591.658,2423.00
1592.533,2702.00
1593.407,2697.00
1594.281,2543.00
1595.155,3074.00
1596.029,2607.00
1596.903,2620.00
1597.777,2599.00
1598.651,2895.00
1599.525,2377.00
1600.398,2699.00
1601.272,2617.00
1602.144,3186.00
1603.017,2646.00
1603.890,2906.00
1604.763,2762.00
1605.636,2803.00
1606.509,2368.00
1607.382,2513.00
1608.255,2700.00
1609.128,2856.00
1610.000,2647.00
1610.873,2373.00
1611.746,2582.00
1612.616,2597.00
1613.488,2253.00
1614.361,2655.00
1615.233,2607.00
1616.105,2861.00
1616.977,2574.00
1617.849,2503.00
1618.720,2982.00
1619.592,2946.00
1620.464,2759.00
1621.333,3120.00
1622.205,2630.00
1623.076,2657.00
1623.947,2661.00
1624.818,2899.00
1625.689,2792.00
1626.560,2604.00
1627.431,2731.00
1628.302,3059.00
1629.171,2806.00
1630.042,2956.00
1630.912,3644.00
1631.782,3242.00
1632.653,2470.00
1633.523,2849.00
1634.393,2924.00
1635.263,2544.00
1636.131,2673.00
1637.001,2568.00
1637.871,2282.00
1638.741,2336.00
1639.611,2448.00
1640.480,2779.00
1641.350,2529.00
1642.219,2500.00
1643.087,2148.00
1643.956,3140.00
1644.825,2890.00
1645.694,2870.00
1646.563,2860.00
1647.432,2705.00
1648.299,2653.00
1649.167,2816.00
1650.036,2513.00
1650.904,2848.00
1651.773,2891.00
1652.641,2674.00
1653.509,2873.00
1654.376,2550.00
1655.244,2704.00
1656.112,2710.00
1656.980,2701.00
1657.847,2538.00
1658.715,2845.00
1659.581,2560.00
1660.448,2897.00
1661.316,2158.00
1662.183,2744.00
1663.051,2723.00
1663.918,2737.00
1664.783,2719.00
1665.650,2776.00
1666.517,2836.00
1667.384,2726.00
1668.251,2699.00
1669.115,2882.00
1669.982,2664.00
1670.849,2952.00
1671.715,2644.00
1672.581,2847.00
1673.446,2812.00
1674.312,2697.00
1675.178,3077.00
1676.044,2789.00
1676.910,2750.00
1677.774,2748.00
1678.639,2347.00
1679.505,2691.00
1680.370,2778.00
1681.236,3308.00
1682.099,2665.00
1682.965,2695.00
1683.830,2303.00
1684.695,2517.00
1685.560,2593.00
1686.423,2807.00
1687.288,2778.00
1688.153,2726.00
1689.017,2626.00
1689.880,2718.00
1690.745,2827.00
1691.609,2485.00
1692.473,2821.00
1693.338,2916.00
1694.200,2925.00
1695.064,2662.00
1695.928,2602.00
1696.792,2695.00
1697.654,3212.00
1698.517,2723.00
1699.381,2416.00
1700.245,2336.00
1701.106,2975.00
1701.969,2597.00
1702.833,2815.00
1703.696,2557.00
1704.557,2641.00
1705.420,2519.00
1706.283,2679.00
1707.146,2811.00
1708.007,2527.00
1708.870,2494.00
1709.732,2374.00
1710.595,2574.00
1711.455,2423.00
1712.318,2622.00
1713.180,2952.00
1714.040,2717.00
1714.902,2849.00
1715.764,2678.00
1716.626,2492.00
1717.486,2656.00
1718.348,2958.00
1719.209,4783.00
1720.071,2332.00
1720.930,2469.00
1721.792,2556.00
1722.653,2584.00
1723.512,2599.00
1724.374,2660.00
1725.234,2766.00
1726.095,2721.00
1726.954,2700.00
1727.815,2814.00
1728.676,2665.00
1729.535,2888.00
1730.395,2667.00
1731.256,2616.00
1732.114,2749.00
1732.974,2175.00
1733.834,3017.00
1734.693,2854.00
1735.553,2717.00
1736.413,3055.00
1737.272,2555.00
1738.130,2622.00
1738.990,2752.00
1739.849,2610.00
1740.707,3678.00
1741.566,2723.00
1742.426,2744.00
1743.283,3093.00
1744.142,2584.00
1745.001,2372.00
1745.858,2866.00
1746.717,2769.00
1747.576,2806.00
1748.433,2813.00
1749.292,3280.00
1750.150,3288.00
1751.007,2882.00
1751.865,2920.00
1752.723,2735.00
1753.579,2620.00
1754.438,2920.00
1755.296,2877.00
1756.152,2261.00
1757.010,2394.00
1757.865,2861.00
1758.723,2353.00
1759.581,2995.00
1760.436,2686.00
1761.294,3052.00
1762.151,2662.00
1763.006,2610.00
1763.864,2343.00
1764.721,2892.00
1765.576,2733.00
1766.433,2848.00
1767.288,2629.00
1768.144,2747.00
1769.001,2653.00
1769.856,2783.00
1770.712,2916.00
1771.568,2498.00
1772.423,2594.00
1773.279,2655.00
1774.133,2590.00
1774.989,3061.00
1775.845,3088.00
1776.699,2904.00
1777.555,2659.00
1778.409,3209.00
1779.265,2630.00
1780.120,2673.00
1780.974,2677.00
1781.829,2319.00
1782.682,2746.00
1783.538,2504.00
1784.393,2718.00
1785.246,2594.00
1786.101,2787.00
1786.954,2816.00
1787.808,2861.00
1788.661,2421.00
1789.516,2624.00
1790.370,2615.00
1791.223,2873.00
1792.077,2723.00
1792.930,2814.00
1793.784,2580.00
1794.636,2715.00
1795.490,2691.00
1796.344,2710.00
1797.196,2652.00
1798.049,2888.00
1798.901,2590.00
1799.755,2922.00
1800.606,2537.00
1801.460,3208.00
1802.311,3000.00
1803.165,3077.00
1804.018,3033.00
1804.869,2767.00
1805.722,3184.00
1806.573,2744.00
1807.426,2543.00
1808.276,2687.00
1809.129,2606.00
1809.980,2889.00
1810.832,2972.00
1811.683,2634.00
1812.535,3019.00
1813.385,2620.00
1814.237,2943.00
1815.089,2748.00
1815.940,2984.00
1816.791,2667.00
1817.641,2561.00
1818.493,2855.00
1819.343,2780.00
1820.194,2568.00
1821.044,2810.00
1821.895,2918.00
1822.745,2435.00
1823.596,2577.00
1824.445,3084.00
1825.296,2793.00
1826.145,2677.00
1826.996,2899.00
1827.845,2722.00
1828.695,2745.00
1829.544,2675.00
1830.395,2767.00
1831.243,2635.00
1832.094,2464.00
1832.942,3298.00
1833.792,2831.00
1834.640,2759.00
1835.490,2714.00
1836.338,2756.00
1837.186,2576.00
1838.036,2602.00
1838.884,2690.00
1839.733,3048.00
1840.581,2893.00
1841.430,2825.00
1842.278,3033.00
1843.127,2592.00
1843.974,2373.00
1844.823,3139.00
1845.671,2827.00
1846.519,2735.00
1847.366,2781.00
1848.213,2351.00
1849.062,2526.00
1849.909,2447.00
1850.757,3359.00
1851.604,2830.00
1852.452,2651.00
1853.298,2864.00
1854.146,2747.00
1854.993,2747.00
1855.839,3240.00
1856.687,2838.00
1857.532,2844.00
1858.380,2751.00
1859.226,2735.00
1860.073,2869.00
1860.919,2520.00
1861.765,2609.00
1862.612,2943.00
1863.457,2898.00
1864.304,2638.00
1865.150,2837.00
1865.995,2718.00
1866.842,2810.00
1867.686,2937.00
1868.533,2796.00
1869.378,2766.00
1870.223,2700.00
1871.069,2636.00
1871.914,2746.00
1872.760,2709.00
1873.604,2516.00
1874.448,2809.00
1875.294,2873.00
1876.139,2592.00
1876.984,2874.00
1877.828,2380.00
1878.672,2235.00
1879.518,2586.00
1880.361,2868.00
1881.205,2869.00
1882.050,2505.00
1882.894,3214.00
1883.739,2589.00
1884.582,2472.00
1885.425,2571.00
1886.270,2963.00
1887.113,2453.00
1887.956,2794.00
1888.801,2761.00
1889.644,2534.00
1890.486,2351.00
1891.331,2642.00
1892.173,2777.00
1893.017,2770.00
1893.860,2984.00
1894.702,3030.00
1895.546,2712.00
1896.388,3418.00
1897.230,3065.00
1898.074,2613.00
1898.916,2493.00
1899.757,2569.00
1900.601,3356.00
1901.443,2982.00
1902.284,3031.00
1903.125,3182.00
1903.969,2871.00
1904.810,2957.00
1905.651,2805.00
1906.494,3023.00
1907.335,3161.00
1908.176,2835.00
1909.018,2818.00
1909.859,2695.00
1910.700,2586.00
1911.542,3238.00
1912.383,2786.00
1913.223,2348.00
1914.064,2875.00
1914.906,2957.00
1915.746,3037.00
1916.586,3200.00
1917.428,2704.00
1918.268,2723.00
1919.107,2602.00
1919.947,2494.00
1920.789,2645.00
1921.628,2957.00
1922.468,2723.00
1923.309,2577.00
1924.148,3064.00
1924.988,2823.00
1925.827,2719.00
1926.667,2618.00
1927.507,2767.00
1928.345,2573.00
1929.184,2866.00
1930.025,2554.00
1930.864,2977.00
1931.702,2955.00
1932.541,2671.00
1933.381,2848.00
1934.219,2900.00
1935.057,2999.00
1935.896,2466.00
1936.735,2710.00
1937.573,2620.00
1938.411,2525.00
1939.249,2842.00
1940.089,2577.00
1940.927,2956.00
1941.764,2988.00
1942.602,2675.00
1943.439,2604.00
1944.278,2686.00
1945.115,2660.00
1945.953,2468.00
1946.790,2790.00
1947.628,3065.00
1948.465,2816.00
1949.302,2856.00
1950.139,2852.00
1950.976,2593.00
1951.814,2874.00
1952.651,2776.00
1953.487,2529.00
1954.323,2993.00
1955.160,2679.00
1955.998,3081.00
1956.834,2704.00
1957.670,2794.00
1958.506,2958.00
1959.342,2842.00
1960.177,2811.00
1961.015,2880.00
1961.850,2785.00
1962.686,2776.00
1963.521,2760.00
1964.357,3006.00
1965.192,2497.00
1966.029,2899.00
1966.864,2649.00
1967.699,2960.00
1968.534,2753.00
1969.369,3010.00
1970.204,2699.00
1971.040,2774.00
1971.875,2680.00
1972.709,2770.00
1973.544,2609.00
1974.378,2622.00
1975.212,2860.00
1976.047,2613.00
1976.882,2608.00
1977.716,3183.00
1978.550,2444.00
1979.384,2677.00
1980.218,2694.00
1981.052,2652.00
1981.885,2782.00
1982.719,2736.00
1983.554,2907.00
1984.388,3041.00
1985.221,2829.00
1986.054,3033.00
1986.887,2765.00
1987.720,2591.00
1988.553,3026.00
1989.386,2831.00
1990.219,2846.00
1991.053,3030.00
1991.886,2598.00
1992.719,2945.00
1993.551,2283.00
1994.383,2848.00
1995.216,2676.00
1996.048,2420.00
1996.880,2918.00
1997.712,2639.00
1998.544,2772.00
1999.376,2793.00
2000.208,3005.00
