RamanScope Measure Spectrum Data V3.72

<< MEASURE CONDITION >>
Exposure Type,Aver
Exposure Time [sec],15
Exposure Count,4
Measure Time,2023/07/14 22:17:18
Data Name,""
Data Comment,""
Rayleigh Wave[nm],532.0

<< SAMPLE SPECTRUM >>
Wave[dcm-1],No117
146.591,576.25
147.626,643.50
148.664,821.50
149.699,925.50
150.737,1089.50
151.772,1249.00
152.809,1393.75
153.846,1615.25
154.881,1696.00
155.918,1848.25
156.953,1979.25
157.989,2078.00
159.026,2190.00
160.060,2274.25
161.096,2357.00
162.130,2465.00
163.167,2412.50
164.200,2502.75
165.236,2523.25
166.272,2590.50
167.305,2647.00
168.341,2648.75
169.374,2675.75
170.409,2767.00
171.445,2895.50
172.477,2868.50
173.512,2937.00
174.545,3027.00
175.580,3094.00
176.614,3156.50
177.647,3111.50
178.681,3141.25
179.713,3137.25
180.747,3079.50
181.781,3083.00
182.813,3025.00
183.847,2982.50
184.878,2990.00
185.912,2937.25
186.945,2961.50
187.976,2886.00
189.010,2865.75
190.043,2845.25
191.073,2922.25
192.106,2951.25
193.137,2959.75
194.170,2947.00
195.202,3012.00
196.232,3028.25
197.265,3074.00
198.297,3056.00
199.327,3112.75
200.359,3116.50
201.388,3218.00
202.420,3261.25
203.452,3282.00
204.481,3296.25
205.512,3461.50
206.544,3453.50
207.573,3493.25
208.604,3533.50
209.635,3601.00
210.663,3719.75
211.694,3794.25
212.725,3777.00
213.753,3913.75
214.783,3980.00
215.813,4024.25
216.841,4076.00
217.871,4069.75
218.899,4042.00
219.929,4096.00
220.959,4080.25
221.986,4025.25
223.016,3995.00
224.045,3909.75
225.072,3891.50
226.101,3903.00
227.130,3789.75
228.157,3747.25
229.185,3697.00
230.214,3716.50
231.241,3635.75
232.269,3648.00
233.297,3547.75
234.323,3567.25
235.351,3510.50
236.379,3486.50
237.407,3533.50
238.433,3472.50
239.460,3528.75
240.488,3572.50
241.513,3601.25
242.540,3578.25
243.568,3548.75
244.592,3639.75
245.619,3644.25
246.646,3647.00
247.671,3655.00
248.697,3625.25
249.724,3682.75
250.748,3609.00
251.774,3603.25
252.801,3650.50
253.827,3618.25
254.850,3644.75
255.876,3623.50
256.902,3684.50
257.925,3729.75
258.951,3721.75
259.976,3725.75
260.999,3747.25
262.024,3729.75
263.049,3790.75
264.074,3748.25
265.097,3804.00
266.122,3803.25
267.146,3923.00
268.168,3888.75
269.193,3914.00
270.217,3942.25
271.241,3971.00
272.263,3927.00
273.287,4007.25
274.311,4052.25
275.332,4013.75
276.356,4083.25
277.379,3986.00
278.402,4067.75
279.424,4040.00
280.447,4049.75
281.470,3994.75
282.492,3924.50
283.513,3928.00
284.536,3887.00
285.558,3840.25
286.581,3817.75
287.601,3743.75
288.623,3704.50
289.645,3694.50
290.665,3622.75
291.687,3564.25
292.709,3527.00
293.730,3538.50
294.750,3459.25
295.771,3402.25
296.792,3352.00
297.813,3393.25
298.832,3259.50
299.853,3281.75
300.874,3229.00
301.895,3171.75
302.913,3190.75
303.934,3111.75
304.954,3095.25
305.975,3091.50
306.993,3067.50
308.013,3029.25
309.033,3029.50
310.052,2999.50
311.072,3008.50
312.090,2947.75
313.109,2928.75
314.129,2876.50
315.148,2981.25
316.165,2893.50
317.184,2869.75
318.203,2895.25
319.222,2866.50
320.238,2824.50
321.257,2846.50
322.275,2828.50
323.294,2790.75
324.312,2810.50
325.328,2781.75
326.346,2769.25
327.364,2753.75
328.382,2757.50
329.397,2800.50
330.415,2761.00
331.432,2773.00
332.450,2751.00
333.467,2745.25
334.482,2711.50
335.499,2726.50
336.516,2760.75
337.533,2728.25
338.547,2710.25
339.564,2721.25
340.580,2738.00
341.597,2678.75
342.613,2734.00
343.627,2749.25
344.643,2670.75
345.659,2703.50
346.675,2653.25
347.690,2685.75
348.704,2690.75
349.719,2696.75
350.735,2614.50
351.750,2716.50
352.765,2665.00
353.778,2709.00
354.793,2667.00
355.808,2631.50
356.822,2683.00
357.837,2629.00
358.851,2718.75
359.864,2676.50
360.878,2702.50
361.892,2676.00
362.906,2741.75
363.920,2632.25
364.932,2676.25
365.945,2652.75
366.959,2665.50
367.972,2682.75
368.986,2718.00
369.999,2686.25
371.010,2737.75
372.023,2684.25
373.036,2711.00
374.049,2708.00
375.061,2715.00
376.072,2739.00
377.084,2718.50
378.097,2735.00
379.109,2742.50
380.121,2715.50
381.133,2685.50
382.143,2740.50
383.155,2720.50
384.166,2753.75
385.178,2712.50
386.189,2753.00
387.201,2712.75
388.212,2710.75
389.221,2732.25
390.232,2742.50
391.243,2698.50
392.254,2672.75
393.264,2656.75
394.275,2731.00
395.283,2637.00
396.294,2675.50
397.304,2688.75
398.314,2644.00
399.324,2648.50
400.334,2641.75
401.344,2684.50
402.351,2655.00
403.361,2604.25
404.370,2588.50
405.380,2625.50
406.389,2622.25
407.398,2599.50
408.407,2559.00
409.414,2569.00
410.423,2509.50
411.431,2525.00
412.440,2559.25
413.448,2564.75
414.457,2500.25
415.465,2517.75
416.471,2508.25
417.479,2515.00
418.487,2532.00
419.495,2471.75
420.503,2516.00
421.510,2503.50
422.518,2418.50
423.525,2487.50
424.530,2479.00
425.537,2453.25
426.544,2477.00
427.551,2450.00
428.558,2458.50
429.565,2392.50
430.571,2460.50
431.578,2407.25
432.582,2389.50
433.588,2411.50
434.595,2413.75
435.601,2392.00
436.607,2472.50
437.612,2393.50
438.618,2427.75
439.624,2410.75
440.627,2418.75
441.633,2405.50
442.638,2443.25
443.643,2355.75
444.648,2405.75
445.653,2350.25
446.658,2392.75
447.663,2397.25
448.667,2404.25
449.672,2390.75
450.674,2418.00
451.678,2382.75
452.682,2438.25
453.687,2466.50
454.690,2331.75
455.694,2425.75
456.698,2414.25
457.702,2410.25
458.705,2400.25
459.709,2383.50
460.710,2380.25
461.713,2446.75
462.716,2414.00
463.719,2431.00
464.722,2372.00
465.725,2396.25
466.727,2414.50
467.730,2453.25
468.732,2447.00
469.735,2425.75
470.737,2393.00
471.737,2442.25
472.739,2404.00
473.741,2431.75
474.742,2402.00
475.744,2367.00
476.746,2388.00
477.747,2428.75
478.748,2405.50
479.750,2409.75
480.751,2478.50
481.752,2404.75
482.753,2450.00
483.751,2422.25
484.752,2411.25
485.753,2456.75
486.753,2418.00
487.753,2453.25
488.754,2440.75
489.754,2437.00
490.754,2409.00
491.754,2400.75
492.754,2402.25
493.753,2413.00
494.753,2405.00
495.752,2412.75
496.752,2366.75
497.749,2365.00
498.748,2436.50
499.747,2337.75
500.746,2380.00
501.745,2420.50
502.744,2337.50
503.742,2366.50
504.741,2360.75
505.739,2374.50
506.737,2350.25
507.735,2330.25
508.734,2347.25
509.732,2324.00
510.729,2319.50
511.727,2306.25
512.725,2320.25
513.720,2274.75
514.718,2327.25
515.715,2346.75
516.712,2298.00
517.709,2320.00
518.706,2232.75
519.703,2291.00
520.700,2264.25
521.696,2297.50
522.693,2260.00
523.689,2254.75
524.686,2298.75
525.682,2240.00
526.678,2249.75
527.674,2268.25
528.670,2250.50
529.666,2248.00
530.661,2313.25
531.657,2302.25
532.652,2258.75
533.648,2232.00
534.641,2303.25
535.636,2286.75
536.631,2297.25
537.626,2293.50
538.621,2299.00
539.616,2297.00
540.610,2303.75
541.605,2275.00
542.599,2254.00
543.593,2267.50
544.587,2195.00
545.581,2273.25
546.575,2275.50
547.569,2293.00
548.563,2260.50
549.557,2240.75
550.550,2300.00
551.543,2275.25
552.537,2294.00
553.530,2312.50
554.523,2270.75
555.516,2267.75
556.509,2254.25
557.502,2263.00
558.494,2267.75
559.487,2300.50
560.479,2251.75
561.472,2257.00
562.464,2283.00
563.456,2264.75
564.448,2306.00
565.440,2297.75
566.432,2281.75
567.423,2291.00
568.415,2273.75
569.404,2278.75
570.396,2303.75
571.387,2322.25
572.378,2346.25
573.369,2351.25
574.360,2315.00
575.351,2373.25
576.341,2345.00
577.332,2320.00
578.323,2350.25
579.313,2333.25
580.303,2352.25
581.293,2341.50
582.283,2327.25
583.273,2335.00
584.263,2364.00
585.253,2343.00
586.243,2378.00
587.232,2379.00
588.222,2392.25
589.211,2368.00
590.200,2358.25
591.189,2433.50
592.178,2325.00
593.167,2360.00
594.156,2369.25
595.145,2351.75
596.133,2397.75
597.122,2337.50
598.110,2351.50
599.098,2382.75
600.086,2352.75
601.074,2353.50
602.062,2360.25
603.050,2380.50
604.038,2375.75
605.025,2390.00
606.013,2340.50
607.000,2380.50
607.987,2339.00
608.975,2337.00
609.962,2376.50
610.949,2313.00
611.936,2276.50
612.922,2330.25
613.909,2312.00
614.895,2346.75
615.882,2308.25
616.868,2260.00
617.854,2252.25
618.841,2242.50
619.826,2267.75
620.812,2234.00
621.798,2243.50
622.784,2217.25
623.769,2192.75
624.755,2143.75
625.740,2168.75
626.725,2105.50
627.711,2203.25
628.698,2123.00
629.683,2137.00
630.667,2167.75
631.652,2092.50
632.637,2050.00
633.621,2110.75
634.606,2071.00
635.590,2067.00
636.574,2012.75
637.558,1986.75
638.542,1976.00
639.526,1995.50
640.510,2011.50
641.493,2028.00
642.477,1990.75
643.460,1976.50
644.444,1980.75
645.427,2004.75
646.410,1949.00
647.393,1959.50
648.376,1965.50
649.359,1911.75
650.341,1940.25
651.324,1931.50
652.307,1871.50
653.289,1944.25
654.271,1920.00
655.253,1903.75
656.235,1883.75
657.217,1916.50
658.199,1882.50
659.181,1892.25
660.163,1839.00
661.144,1897.75
662.126,1851.00
663.107,1838.50
664.088,1890.75
665.069,1829.50
666.050,1834.00
667.033,1829.50
668.014,1834.50
668.995,1792.25
669.975,1812.25
670.956,1793.50
671.936,1847.75
672.916,1785.75
673.896,1757.75
674.876,1799.00
675.856,1782.25
676.836,1750.75
677.816,1756.75
678.795,1747.75
679.775,1762.00
680.754,1747.50
681.734,1785.25
682.713,1737.50
683.692,1709.25
684.671,1652.75
685.650,1631.75
686.629,1651.75
687.607,1668.75
688.586,1731.00
689.564,1650.75
690.543,1653.75
691.523,1631.00
692.501,1704.25
693.479,1605.50
694.457,1625.75
695.435,1602.75
696.413,1628.25
697.390,1619.50
698.368,1611.50
699.345,1635.25
700.322,1553.25
701.300,1584.25
702.277,1611.50
703.254,1629.50
704.231,1549.25
705.207,1579.00
706.184,1535.25
707.161,1535.25
708.137,1490.75
709.113,1521.50
710.090,1563.00
711.068,1557.00
712.044,1557.25
713.020,1518.00
713.996,1534.25
714.971,1577.50
715.947,1560.50
716.922,1500.50
717.898,1485.50
718.873,1446.25
719.848,1491.75
720.823,1511.75
721.798,1529.25
722.773,1470.75
723.748,1492.00
724.723,1505.00
725.697,1413.00
726.672,1460.50
727.646,1442.00
728.622,1478.75
729.596,1434.50
730.570,1413.25
731.544,1467.50
732.518,1470.25
733.492,1424.75
734.466,1449.50
735.439,1459.25
736.413,1439.00
737.386,1424.50
738.359,1436.00
739.332,1471.50
740.305,1391.00
741.278,1389.50
742.251,1405.50
743.224,1407.25
744.196,1382.25
745.171,1361.25
746.143,1435.50
747.115,1393.00
748.087,1426.75
749.059,1419.00
750.031,1420.00
751.003,1423.75
751.975,1407.00
752.947,1344.75
753.918,1400.25
754.890,1364.25
755.861,1397.25
756.832,1357.50
757.803,1346.50
758.774,1359.25
759.747,1342.25
760.718,1342.50
761.689,1297.75
762.659,1347.75
763.630,1305.00
764.600,1280.25
765.570,1304.25
766.540,1328.00
767.510,1312.00
768.480,1299.00
769.450,1306.25
770.420,1324.00
771.390,1301.00
772.359,1262.50
773.329,1264.00
774.300,1296.00
775.269,1288.25
776.238,1288.00
777.207,1218.25
778.176,1302.50
779.145,1263.75
780.114,1279.50
781.083,1237.50
782.051,1245.25
783.019,1259.25
783.988,1230.25
784.956,1252.25
785.924,1226.00
786.894,1260.00
787.862,1226.25
788.830,1250.75
789.797,1283.25
790.765,1241.75
791.732,1247.75
792.700,1221.25
793.667,1224.00
794.634,1220.25
795.601,1216.75
796.568,1265.50
797.535,1220.75
798.502,1182.25
799.468,1237.25
800.437,1216.25
801.403,1223.00
802.370,1228.25
803.336,1257.50
804.302,1210.50
805.268,1174.75
806.234,1185.75
807.200,1179.25
808.166,1167.50
809.131,1194.00
810.097,1181.75
811.062,1207.50
812.027,1166.75
812.994,1188.50
813.960,1181.25
814.925,1160.00
815.889,1133.25
816.854,1120.50
817.819,1162.50
818.783,1144.00
819.748,1108.75
820.712,1144.00
821.677,1152.75
822.641,1112.50
823.605,1175.75
824.571,1131.00
825.534,1147.50
826.498,1135.00
827.462,1162.50
828.425,1123.00
829.389,1126.25
830.352,1123.75
831.315,1165.75
832.279,1144.25
833.242,1118.25
834.204,1132.00
835.167,1087.25
836.132,1119.00
837.095,1144.00
838.057,1135.00
839.020,1093.50
839.982,1118.75
840.944,1123.50
841.906,1110.50
842.868,1099.75
843.830,1097.75
844.792,1096.00
845.753,1138.00
846.715,1120.25
847.679,1099.75
848.640,1062.00
849.601,1119.75
850.562,1072.25
851.523,1122.50
852.484,1093.25
853.445,1114.50
854.406,1121.25
855.367,1111.00
856.327,1116.75
857.288,1052.50
858.248,1117.00
859.210,1051.00
860.170,1117.50
861.130,1125.00
862.090,1079.50
863.050,1087.50
864.010,1109.75
864.969,1095.50
865.929,1055.00
866.888,1096.00
867.848,1079.25
868.807,1064.00
869.766,1083.00
870.727,1064.50
871.686,1131.75
872.645,1117.00
873.604,1058.25
874.562,1077.00
875.521,1105.50
876.479,1043.00
877.437,1137.50
878.396,1104.25
879.354,1058.50
880.312,1111.75
881.270,1140.25
882.229,1059.50
883.187,1068.25
884.145,1090.25
885.102,1099.50
886.059,1077.75
887.017,1080.25
887.974,1100.25
888.931,1055.75
889.888,1102.25
890.845,1067.25
891.802,1056.00
892.758,1054.25
893.717,1104.25
894.673,1079.00
895.630,1091.00
896.586,1111.75
897.542,1118.75
898.498,1075.00
899.454,1071.75
900.410,1068.75
901.366,1089.50
902.321,1081.00
903.277,1092.25
904.232,1125.25
905.189,1093.75
906.145,1092.25
907.100,1145.50
908.055,1031.00
909.010,1071.75
909.965,1088.25
910.919,1108.25
911.874,1092.50
912.828,1097.00
913.783,1051.00
914.737,1099.75
915.693,1085.00
916.648,1058.25
917.602,1091.50
918.555,1095.50
919.509,1104.75
920.463,1080.75
921.417,1082.25
922.370,1088.75
923.324,1112.50
924.277,1104.00
925.230,1107.25
926.183,1078.00
927.138,1109.25
928.091,1118.50
929.044,1083.75
929.996,1108.00
930.949,1109.50
931.902,1114.75
932.854,1137.75
933.806,1139.25
934.758,1111.00
935.711,1092.75
936.663,1058.75
937.614,1105.00
938.568,1107.00
939.520,1066.75
940.471,1079.75
941.423,1086.00
942.374,1120.75
943.326,1144.00
944.277,1083.25
945.228,1080.00
946.179,1116.75
947.130,1093.25
948.080,1108.50
949.031,1128.50
949.984,1079.75
950.934,1094.75
951.884,1096.00
952.835,1094.50
953.785,1086.25
954.735,1049.00
955.685,1116.75
956.635,1087.50
957.585,1107.75
958.534,1042.25
959.484,1152.25
960.433,1048.00
961.383,1084.75
962.334,1067.75
963.283,1099.25
964.232,1046.50
965.181,1075.25
966.130,1076.00
967.079,1061.50
968.027,1074.00
968.976,1050.50
969.924,1094.75
970.873,1051.25
971.821,1015.00
972.769,1036.25
973.719,1079.50
974.667,1082.25
975.615,1043.75
976.562,1049.50
977.510,1027.00
978.458,1027.25
979.405,1020.25
980.352,1009.00
981.300,1064.50
982.247,1099.50
983.194,1054.75
984.141,1032.50
985.088,1061.25
986.036,1026.00
986.983,1084.75
987.930,1045.25
988.876,1008.25
989.822,1013.25
990.769,1068.25
991.715,1047.25
992.661,1051.75
993.607,1006.00
994.553,1041.50
995.498,1010.25
996.444,1030.75
997.389,1069.00
998.337,1086.50
999.282,1022.00
1000.227,1038.00
1001.173,1054.00
1002.118,1015.25
1003.062,1034.75
1004.007,1031.00
1004.952,1035.75
1005.897,1058.25
1006.841,1015.75
1007.786,1021.25
1008.730,1026.50
1009.674,993.75
1010.618,1034.00
1011.564,1020.25
1012.508,1016.00
1013.452,985.75
1014.396,1031.00
1015.339,980.75
1016.283,1005.00
1017.226,1000.50
1018.170,998.75
1019.113,1004.25
1020.056,982.75
1020.999,994.75
1021.942,996.75
1022.885,1006.75
1023.828,1035.75
1024.770,997.75
1025.715,955.50
1026.657,976.00
1027.600,971.75
1028.542,1021.25
1029.484,987.25
1030.426,982.50
1031.368,1028.00
1032.310,989.25
1033.251,1023.75
1034.193,1044.00
1035.135,979.00
1036.076,984.75
1037.017,953.25
1037.959,1016.00
1038.900,1012.50
1039.843,1023.75
1040.784,971.00
1041.725,1008.75
1042.665,1007.50
1043.606,1014.75
1044.547,975.00
1045.487,981.75
1046.427,1045.00
1047.368,1012.75
1048.308,1022.50
1049.248,1011.50
1050.188,1039.25
1051.128,1026.75
1052.067,971.25
1053.007,1022.50
1053.947,1015.75
1054.886,994.25
1055.827,980.75
1056.766,1012.00
1057.706,993.25
1058.645,1032.75
1059.584,1025.25
1060.522,1031.00
1061.461,1039.25
1062.400,1017.25
1063.338,1033.75
1064.277,1010.25
1065.215,1047.00
1066.154,1026.75
1067.092,1007.50
1068.030,1010.00
1068.968,1008.50
1069.906,1068.50
1070.843,1036.25
1071.781,1040.00
1072.720,971.00
1073.658,1004.50
1074.595,997.75
1075.533,1022.25
1076.470,1096.50
1077.407,1023.50
1078.344,1058.00
1079.281,1042.25
1080.217,987.50
1081.154,995.25
1082.091,1053.50
1083.027,1034.25
1083.964,1068.25
1084.900,1056.75
1085.836,1001.00
1086.772,1059.00
1087.708,1027.00
1088.644,1044.00
1089.580,995.25
1090.515,972.50
1091.451,1075.50
1092.388,1033.25
1093.324,1067.50
1094.259,1017.75
1095.194,1047.25
1096.129,1066.50
1097.064,1039.75
1097.999,1016.00
1098.934,1047.75
1099.869,1033.75
1100.803,1032.50
1101.738,1023.75
1102.672,994.50
1103.607,978.00
1104.541,1045.50
1105.475,971.50
1106.409,1037.25
1107.343,1045.75
1108.277,1021.75
1109.210,998.25
1110.144,972.25
1111.078,1026.75
1112.011,983.75
1112.944,1011.00
1113.878,962.25
1114.811,960.25
1115.744,972.25
1116.678,995.25
1117.611,956.00
1118.544,957.00
1119.477,974.25
1120.409,974.25
1121.342,936.00
1122.274,971.50
1123.206,976.50
1124.138,992.00
1125.070,929.25
1126.002,996.50
1126.934,923.50
1127.866,968.75
1128.798,940.00
1129.729,923.25
1130.661,930.00
1131.592,978.25
1132.523,928.00
1133.454,917.25
1134.385,941.00
1135.317,924.25
1136.247,931.25
1137.178,920.75
1138.109,929.00
1139.039,939.50
1139.970,958.00
1140.900,939.00
1141.831,949.50
1142.761,939.25
1143.691,894.25
1144.621,939.50
1145.551,879.25
1146.480,936.75
1147.410,908.00
1148.340,906.00
1149.269,932.75
1150.199,930.00
1151.128,929.75
1152.057,934.25
1152.979,921.25
1153.898,898.75
1154.819,888.50
1155.739,944.25
1156.658,890.00
1157.579,885.50
1158.498,905.00
1159.419,907.25
1160.338,869.25
1161.256,868.00
1162.177,909.75
1163.095,880.75
1164.016,845.00
1164.934,953.75
1165.852,890.50
1166.772,885.25
1167.690,914.75
1168.610,896.75
1169.528,913.50
1170.446,876.25
1171.365,874.25
1172.283,907.25
1173.202,868.75
1174.120,851.50
1175.037,829.50
1175.956,911.00
1176.873,893.25
1177.792,881.00
1178.709,917.25
1179.626,871.25
1180.544,856.50
1181.461,880.25
1182.379,857.50
1183.296,899.75
1184.212,882.25
1185.130,852.25
1186.046,938.00
1186.962,875.75
1187.880,850.00
1188.796,881.00
1189.714,883.00
1190.629,922.75
1191.545,854.25
1192.462,831.50
1193.378,921.00
1194.295,849.50
1195.210,901.75
1196.125,843.25
1197.042,816.50
1197.957,910.75
1198.872,836.75
1199.788,853.25
1200.703,879.75
1201.619,850.50
1202.534,864.50
1203.448,864.25
1204.364,872.25
1205.278,865.00
1206.192,822.00
1207.108,858.50
1208.022,848.75
1208.938,819.00
1209.851,856.25
1210.765,863.25
1211.680,891.50
1212.594,857.25
1213.507,825.50
1214.422,856.75
1215.335,842.75
1216.248,845.50
1217.163,850.75
1218.076,848.00
1218.990,920.75
1219.903,851.25
1220.816,841.75
1221.730,878.00
1222.642,869.50
1223.554,865.00
1224.469,867.00
1225.380,843.00
1226.292,825.25
1227.206,895.25
1228.118,861.50
1229.032,869.75
1229.943,845.75
1230.855,841.75
1231.768,871.75
1232.679,887.50
1233.590,872.00
1234.503,825.75
1235.414,878.25
1236.325,865.00
1237.238,852.50
1238.149,872.50
1239.059,870.00
1239.972,863.25
1240.882,869.50
1241.793,885.75
1242.705,870.50
1243.615,850.25
1244.525,867.75
1245.437,872.00
1246.347,913.75
1247.259,845.25
1248.168,839.00
1249.078,912.00
1249.989,868.50
1250.899,867.00
1251.808,840.25
1252.719,917.75
1253.628,866.75
1254.537,849.00
1255.448,846.25
1256.357,876.75
1257.266,846.25
1258.176,905.00
1259.085,852.25
1259.993,891.25
1260.904,909.00
1261.812,854.25
1262.720,921.50
1263.630,906.00
1264.538,899.00
1265.446,853.50
1266.356,819.25
1267.263,873.25
1268.171,871.50
1269.080,914.00
1269.988,875.50
1270.895,895.00
1271.804,892.00
1272.711,869.00
1273.619,840.00
1274.527,882.25
1275.434,866.75
1276.341,887.75
1277.248,893.75
1278.156,857.50
1279.063,881.00
1279.969,880.00
1280.877,832.00
1281.783,881.75
1282.690,858.75
1283.598,822.50
1284.503,862.00
1285.409,857.25
1286.317,921.50
1287.223,882.00
1288.128,880.75
1289.036,851.25
1289.941,835.25
1290.846,859.25
1291.751,873.75
1292.658,835.75
1293.563,860.75
1294.468,864.75
1295.375,800.75
1296.280,832.75
1297.184,834.50
1298.091,821.00
1298.995,898.00
1299.900,836.25
1300.806,809.00
1301.710,859.00
1302.614,861.75
1303.518,845.50
1304.424,845.75
1305.327,846.00
1306.231,850.50
1307.137,887.25
1308.040,891.25
1308.943,847.00
1309.847,840.25
1310.752,876.50
1311.655,851.75
1312.558,827.00
1313.463,874.75
1314.366,822.00
1315.269,849.25
1316.171,822.00
1317.076,848.75
1317.978,789.00
1318.881,827.75
1319.785,847.25
1320.687,816.50
1321.589,801.75
1322.491,840.50
1323.395,852.00
1324.297,803.75
1325.198,804.25
1326.102,842.00
1327.004,824.50
1327.905,823.25
1328.806,841.00
1329.709,835.25
1330.611,842.00
1331.512,792.50
1332.413,851.00
1333.316,794.50
1334.216,770.25
1335.117,798.50
1336.020,753.25
1336.920,783.75
1337.821,781.75
1338.721,823.75
1339.623,770.50
1340.523,755.75
1341.423,774.00
1342.323,776.25
1343.225,799.75
1344.125,765.25
1345.025,785.75
1345.924,777.75
1346.826,775.00
1347.725,771.50
1348.624,795.25
1349.524,761.00
1350.425,780.75
1351.324,731.75
1352.223,734.25
1353.121,799.75
1354.022,749.75
1354.921,732.75
1355.819,755.25
1356.718,755.00
1357.618,737.75
1358.516,778.00
1359.415,773.75
1360.313,768.00
1361.213,734.25
1362.111,748.25
1363.008,726.25
1363.906,728.75
1364.806,766.50
1365.703,746.00
1366.601,750.50
1367.498,720.75
1368.397,748.75
1369.295,753.50
1370.192,740.25
1371.089,736.00
1371.987,695.00
1372.884,662.00
1373.781,702.25
1374.678,674.25
1375.574,727.25
1376.473,691.50
1377.369,722.50
1378.265,711.00
1379.161,739.00
1380.059,705.75
1380.955,710.50
1381.851,700.25
1382.747,680.25
1383.643,750.25
1384.540,716.00
1385.436,723.50
1386.331,741.50
1387.227,683.00
1388.124,713.00
1389.019,696.00
1389.914,691.75
1390.809,699.25
1391.704,744.50
1392.601,691.50
1393.495,706.75
1394.390,648.00
1395.285,682.00
1396.179,744.00
1397.075,721.75
1397.969,714.75
1398.864,684.50
1399.758,699.25
1400.652,714.25
1401.547,682.00
1402.441,685.00
1403.335,723.25
1404.229,725.25
1405.122,702.25
1406.017,715.50
1406.911,684.25
1407.804,661.75
1408.697,736.00
1409.590,693.25
1410.485,744.75
1411.378,685.00
1412.271,678.00
1413.163,689.50
1414.056,673.50
1414.949,708.50
1415.843,671.25
1416.735,708.50
1417.627,698.50
1418.520,691.75
1419.412,659.75
1420.306,661.25
1421.197,676.75
1422.089,658.00
1422.981,653.00
1423.873,675.25
1424.764,673.00
1425.657,665.25
1426.549,665.50
1427.440,607.75
1428.331,618.25
1429.222,650.75
1430.113,678.00
1431.006,741.75
1431.897,664.50
1432.787,657.25
1433.678,681.25
1434.568,644.50
1435.459,691.75
1436.351,650.75
1437.241,603.00
1438.131,684.50
1439.021,658.25
1439.911,664.00
1440.801,636.25
1441.693,612.50
1442.583,669.25
1443.472,664.00
1444.362,654.50
1445.251,696.25
1446.140,657.25
1447.030,653.50
1447.921,630.50
1448.810,673.25
1449.699,665.75
1450.588,655.25
1451.476,676.50
1452.365,640.75
1453.254,619.50
1454.144,620.00
1455.032,626.00
1455.921,659.75
1456.809,656.00
1457.697,604.75
1458.585,618.00
1459.473,618.50
1460.361,606.25
1461.251,647.25
1462.138,625.00
1463.026,613.50
1463.913,648.75
1464.801,614.25
1465.688,668.00
1466.575,643.75
1467.463,609.50
1468.351,606.25
1469.238,666.75
1470.125,631.50
1471.012,656.00
1471.899,627.50
1472.785,641.25
1473.672,655.00
1474.558,644.25
1475.446,639.75
1476.333,594.50
1477.219,613.75
1478.105,615.50
1478.991,635.50
1479.877,592.00
1480.762,619.50
1481.648,627.00
1482.534,619.25
1483.419,559.75
1484.307,632.50
1485.192,609.75
1486.077,593.00
1486.962,614.25
1487.847,646.25
1488.732,640.75
1489.617,619.75
1490.502,574.50
1491.387,609.50
1492.271,600.75
1493.156,603.50
1494.042,616.00
1494.927,638.00
1495.811,597.50
1496.695,624.75
1497.579,596.25
1498.463,610.50
1499.347,615.00
1500.231,641.25
1501.114,563.00
1501.998,600.00
1502.881,579.25
1503.765,592.00
1504.648,555.25
1505.533,608.50
1506.417,574.50
1507.300,573.00
1508.183,606.50
1509.066,581.25
1509.948,617.75
1510.831,576.75
1511.714,585.50
1512.596,636.25
1513.479,622.75
1514.361,566.25
1515.243,551.25
1516.125,593.25
1517.008,572.75
1517.890,600.25
1518.771,550.50
1519.655,598.00
1520.537,605.25
1521.419,575.50
1522.300,550.25
1523.182,590.75
1524.063,555.50
1524.944,599.00
1525.825,592.75
1526.707,588.75
1527.588,605.00
1528.468,570.75
1529.349,554.75
1530.230,588.00
1531.111,609.00
1531.991,553.50
1532.872,570.25
1533.752,542.00
1534.632,576.75
1535.513,592.50
1536.393,563.25
1537.273,580.00
1538.153,600.75
1539.032,575.00
1539.912,626.75
1540.792,597.25
1541.672,574.50
1542.551,565.00
1543.430,597.75
1544.310,559.25
1545.189,572.75
1546.068,577.75
1546.947,600.25
1547.826,571.00
1548.705,564.00
1549.584,597.75
1550.462,580.75
1551.341,568.75
1552.219,560.25
1553.098,581.25
1553.976,560.25
1554.854,534.00
1555.733,554.25
1556.611,508.50
1557.489,583.50
1558.367,594.00
1559.244,557.50
1560.122,575.25
1561.000,540.00
1561.877,560.75
1562.755,535.00
1563.632,551.50
1564.509,609.75
1565.386,549.75
1566.264,579.75
1567.141,551.00
1568.017,589.50
1568.894,583.50
1569.771,609.00
1570.648,557.00
1571.524,576.25
1572.401,532.75
1573.277,528.75
1574.153,564.50
1575.029,549.00
1575.906,517.00
1576.781,589.50
1577.657,572.75
1578.533,530.50
1579.409,540.00
1580.285,552.75
1581.160,557.50
1582.036,570.75
1582.911,545.25
1583.786,582.25
1584.662,531.75
1585.537,502.75
1586.412,480.50
1587.287,553.50
1588.160,525.00
1589.035,527.50
1589.909,556.00
1590.784,531.50
1591.658,554.50
1592.533,561.50
1593.407,550.25
1594.281,540.25
1595.155,529.25
1596.029,491.25
1596.903,522.75
1597.777,515.75
1598.651,594.25
1599.525,554.00
1600.398,544.75
1601.272,550.75
1602.144,529.25
1603.017,521.25
1603.890,586.50
1604.763,526.00
1605.636,549.50
1606.509,550.75
1607.382,550.25
1608.255,545.00
1609.128,542.75
1610.000,491.75
1610.873,570.50
1611.746,559.25
1612.616,506.75
1613.488,541.00
1614.361,612.75
1615.233,541.50
1616.105,561.75
1616.977,546.00
1617.849,537.75
1618.720,517.00
1619.592,550.25
1620.464,548.00
1621.333,540.50
1622.205,539.50
1623.076,512.25
1623.947,600.75
1624.818,527.75
1625.689,486.25
1626.560,502.25
1627.431,526.75
1628.302,507.50
1629.171,539.50
1630.042,540.25
1630.912,479.25
1631.782,547.75
1632.653,560.25
1633.523,525.50
1634.393,480.00
1635.263,525.75
1636.131,544.25
1637.001,548.50
1637.871,538.50
1638.741,533.25
1639.611,553.25
1640.480,466.50
1641.350,516.50
1642.219,502.75
1643.087,489.00
1643.956,545.00
1644.825,507.50
1645.694,567.25
1646.563,532.75
1647.432,566.75
1648.299,514.50
1649.167,536.50
1650.036,537.25
1650.904,537.00
1651.773,494.25
1652.641,549.50
1653.509,528.75
1654.376,553.00
1655.244,485.50
1656.112,487.75
1656.980,545.25
1657.847,525.75
1658.715,575.25
1659.581,492.75
1660.448,514.50
1661.316,500.50
1662.183,500.75
1663.051,518.00
1663.918,497.75
1664.783,529.25
1665.650,490.00
1666.517,479.25
1667.384,511.50
1668.251,509.75
1669.115,520.50
1669.982,500.50
1670.849,498.75
1671.715,560.75
1672.581,535.00
1673.446,511.50
1674.312,523.75
1675.178,564.25
1676.044,512.50
1676.910,515.25
1677.774,496.50
1678.639,510.75
1679.505,502.00
1680.370,521.75
1681.236,511.00
1682.099,536.50
1682.965,522.75
1683.830,513.75
1684.695,509.00
1685.560,520.50
1686.423,516.50
1687.288,533.00
1688.153,485.75
1689.017,494.50
1689.880,489.75
1690.745,514.25
1691.609,458.50
1692.473,533.00
1693.338,531.50
1694.200,508.50
1695.064,487.00
1695.928,551.75
1696.792,565.75
1697.654,498.50
1698.517,518.00
1699.381,490.25
1700.245,500.75
1701.106,532.00
1701.969,505.50
1702.833,497.75
1703.696,485.50
1704.557,496.25
1705.420,482.00
1706.283,474.50
1707.146,500.75
1708.007,475.50
1708.870,507.50
1709.732,505.00
1710.595,527.50
1711.455,506.75
1712.318,487.25
1713.180,481.00
1714.040,505.75
1714.902,504.75
1715.764,501.50
1716.626,487.75
1717.486,476.50
1718.348,534.75
1719.209,495.25
1720.071,507.50
1720.930,525.00
1721.792,494.50
1722.653,500.00
1723.512,487.50
1724.374,522.75
1725.234,502.50
1726.095,487.25
1726.954,488.75
1727.815,485.00
1728.676,492.00
1729.535,508.25
1730.395,489.50
1731.256,483.00
1732.114,509.75
1732.974,472.25
1733.834,504.75
1734.693,527.25
1735.553,514.50
1736.413,502.50
1737.272,514.25
1738.130,495.75
1738.990,447.00
1739.849,496.00
1740.707,521.50
1741.566,479.50
1742.426,529.00
1743.283,546.00
1744.142,482.50
1745.001,482.50
1745.858,481.75
1746.717,516.00
1747.576,512.25
1748.433,491.00
1749.292,470.00
1750.150,494.25
1751.007,519.25
1751.865,469.50
1752.723,500.25
1753.579,517.50
1754.438,550.75
1755.296,475.00
1756.152,496.75
1757.010,524.25
1757.865,514.50
1758.723,472.00
1759.581,484.50
1760.436,531.50
1761.294,534.00
1762.151,504.00
1763.006,506.00
1763.864,504.50
1764.721,473.00
1765.576,500.50
1766.433,485.50
1767.288,521.75
1768.144,480.50
1769.001,467.25
1769.856,507.75
1770.712,487.50
1771.568,451.50
1772.423,513.50
1773.279,481.00
1774.133,541.25
1774.989,508.50
1775.845,431.75
1776.699,485.75
1777.555,477.25
1778.409,497.00
1779.265,504.25
1780.120,493.25
1780.974,493.50
1781.829,503.75
1782.682,465.75
1783.538,520.50
1784.393,474.75
1785.246,490.75
1786.101,507.50
1786.954,510.25
1787.808,512.75
1788.661,464.75
1789.516,488.25
1790.370,443.50
1791.223,506.50
1792.077,522.25
1792.930,517.00
1793.784,470.00
1794.636,507.75
1795.490,499.75
1796.344,484.00
1797.196,505.50
1798.049,486.50
1798.901,518.25
1799.755,498.50
1800.606,496.75
1801.460,525.00
1802.311,504.00
1803.165,507.00
1804.018,495.75
1804.869,487.50
1805.722,499.75
1806.573,490.50
1807.426,526.00
1808.276,491.50
1809.129,453.25
1809.980,484.25
1810.832,480.75
1811.683,492.25
1812.535,463.25
1813.385,530.00
1814.237,502.25
1815.089,506.75
1815.940,474.25
1816.791,501.00
1817.641,506.25
1818.493,494.75
1819.343,489.00
1820.194,508.00
1821.044,522.25
1821.895,481.25
1822.745,472.00
1823.596,498.75
1824.445,460.75
1825.296,490.25
1826.145,427.25
1826.996,498.50
1827.845,514.25
1828.695,458.75
1829.544,462.00
1830.395,479.00
1831.243,468.50
1832.094,484.75
1832.942,462.25
1833.792,512.75
1834.640,520.75
1835.490,489.00
1836.338,495.50
1837.186,482.00
1838.036,486.00
1838.884,497.25
1839.733,446.25
1840.581,478.50
1841.430,479.25
1842.278,550.50
1843.127,451.25
1843.974,433.25
1844.823,451.75
1845.671,490.50
1846.519,501.50
1847.366,479.00
1848.213,477.00
1849.062,465.75
1849.909,479.25
1850.757,428.00
1851.604,505.75
1852.452,458.75
1853.298,495.75
1854.146,477.00
1854.993,496.00
1855.839,487.00
1856.687,508.00
1857.532,528.50
1858.380,460.50
1859.226,468.50
1860.073,487.25
1860.919,435.75
1861.765,462.00
1862.612,503.50
1863.457,484.25
1864.304,510.25
1865.150,519.25
1865.995,462.50
1866.842,481.75
1867.686,434.75
1868.533,504.00
1869.378,445.25
1870.223,475.50
1871.069,455.75
1871.914,461.25
1872.760,472.75
1873.604,491.00
1874.448,487.50
1875.294,478.25
1876.139,478.00
1876.984,472.00
1877.828,444.75
1878.672,488.50
1879.518,469.00
1880.361,423.25
1881.205,548.75
1882.050,459.75
1882.894,498.25
1883.739,486.75
1884.582,462.00
1885.425,485.00
1886.270,483.00
1887.113,442.00
1887.956,456.75
1888.801,448.75
1889.644,469.50
1890.486,432.50
1891.331,500.25
1892.173,505.25
1893.017,437.75
1893.860,465.50
1894.702,456.25
1895.546,492.75
1896.388,480.25
1897.230,492.25
1898.074,484.25
1898.916,500.00
1899.757,474.25
1900.601,451.75
1901.443,465.25
1902.284,514.00
1903.125,448.50
1903.969,466.00
1904.810,459.75
1905.651,434.50
1906.494,455.50
1907.335,495.75
1908.176,444.50
1909.018,469.25
1909.859,490.50
1910.700,444.50
1911.542,539.75
1912.383,441.75
1913.223,451.75
1914.064,471.00
1914.906,471.25
1915.746,503.00
1916.586,442.75
1917.428,456.00
1918.268,469.25
1919.107,480.00
1919.947,501.50
1920.789,485.00
1921.628,462.75
1922.468,447.25
1923.309,450.00
1924.148,483.25
1924.988,457.75
1925.827,487.25
1926.667,426.75
1927.507,500.25
1928.345,480.00
1929.184,443.25
1930.025,507.00
1930.864,441.50
1931.702,474.75
1932.541,408.75
1933.381,499.25
1934.219,474.00
1935.057,482.75
1935.896,427.00
1936.735,499.00
1937.573,479.00
1938.411,496.50
1939.249,481.25
1940.089,508.00
1940.927,423.50
1941.764,504.75
1942.602,500.25
1943.439,474.75
1944.278,482.25
1945.115,474.50
1945.953,436.00
1946.790,448.00
1947.628,530.75
1948.465,444.25
1949.302,446.50
1950.139,481.50
1950.976,473.25
1951.814,468.00
1952.651,468.75
1953.487,522.50
1954.323,482.75
1955.160,471.75
1955.998,514.25
1956.834,492.25
1957.670,462.75
1958.506,431.75
1959.342,418.75
1960.177,519.50
1961.015,458.25
1961.850,451.25
1962.686,433.25
1963.521,485.50
1964.357,506.50
1965.192,476.50
1966.029,479.00
1966.864,479.00
1967.699,475.50
1968.534,460.75
1969.369,428.75
1970.204,439.50
1971.040,456.75
1971.875,458.50
1972.709,424.00
1973.544,491.00
1974.378,471.50
1975.212,443.25
1976.047,484.75
1976.882,456.75
1977.716,481.50
1978.550,461.50
1979.384,477.50
1980.218,486.75
1981.052,447.00
1981.885,496.25
1982.719,471.50
1983.554,426.75
1984.388,487.25
1985.221,490.50
1986.054,457.75
1986.887,470.25
1987.720,473.50
1988.553,429.75
1989.386,439.00
1990.219,426.75
1991.053,428.75
1991.886,482.25
1992.719,468.25
1993.551,487.75
1994.383,480.25
1995.216,480.75
1996.048,499.00
1996.880,471.00
1997.712,430.50
1998.544,445.50
1999.376,488.00
2000.208,472.00
2001.040,466.25
2001.873,509.50
2002.705,492.25
2003.536,445.75
2004.367,509.25
2005.199,493.50
2006.030,488.25
2006.861,514.00
2007.692,484.25
2008.523,445.25
2009.354,469.75
2010.185,486.75
2011.016,495.50
2011.846,509.50
2012.677,447.00
2013.507,424.25
2014.338,470.75
2015.168,477.75
2015.999,453.00
2016.829,477.25
2017.659,501.25
2018.489,486.50
2019.319,460.75
2020.149,507.75
2020.980,451.50
2021.810,460.00
2022.639,455.25
2023.469,480.75
2024.298,478.75
2025.128,510.00
2025.957,464.75
2026.786,458.50
2027.615,477.00
2028.444,474.00
2029.273,491.75
2030.102,491.75
2030.931,481.25
2031.758,483.25
2032.586,469.75
2033.415,459.25
2034.243,473.00
2035.072,505.00
2035.900,447.00
2036.728,462.00
2037.556,468.25
2038.385,479.25
2039.213,485.50
2040.040,456.50
2040.868,479.50
2041.696,466.00
2042.524,499.50
2043.351,495.75
2044.179,499.25
2045.006,481.75
2045.006,481.75

Max Intensity Wave.,219.929
Max Intensity Data,4096.00
Min Intensity Wave.,1932.541
Min Intensity Data,408.75
FWHM Wave.,401.445
FWHM Value,1.11
Pressure Wave.,688.524
Pressure Value [GPa],-14.78823
G/D Ratio,0.68430
G/D Gband Wave.,1614.362
G/D Gband Intensity,612.75
G/D Dband Wave.,1307.663
G/D Dband Intensity,895.45

<< BACKGROUND SPECTRUM >>
Wave[dcm-1],No117
146.591,2326.00
147.626,2206.00
148.664,2144.00
149.699,2678.00
150.737,2382.00
151.772,2517.00
152.809,2529.00
153.846,2392.00
154.881,2549.00
155.918,2085.00
156.953,2423.00
157.989,2770.00
159.026,2596.00
160.060,2778.00
161.096,3030.00
162.130,2574.00
163.167,2724.00
164.200,2561.00
165.236,2776.00
166.272,2808.00
167.305,2365.00
168.341,2660.00
169.374,2935.00
170.409,2961.00
171.445,2840.00
172.477,2670.00
173.512,2544.00
174.545,2839.00
175.580,2999.00
176.614,3193.00
177.647,2981.00
178.681,3217.00
179.713,3526.00
180.747,3011.00
181.781,2895.00
182.813,3190.00
183.847,3258.00
184.878,2860.00
185.912,3147.00
186.945,3295.00
187.976,3245.00
189.010,2880.00
190.043,3053.00
191.073,3078.00
192.106,2871.00
193.137,3359.00
194.170,2693.00
195.202,3039.00
196.232,2813.00
197.265,3134.00
198.297,3254.00
199.327,2910.00
200.359,3118.00
201.388,3510.00
202.420,3032.00
203.452,3268.00
204.481,2808.00
205.512,3449.00
206.544,3248.00
207.573,3232.00
208.604,3632.00
209.635,3745.00
210.663,3119.00
211.694,3116.00
212.725,3021.00
213.753,2945.00
214.783,3559.00
215.813,3415.00
216.841,3128.00
217.871,3343.00
218.899,3091.00
219.929,3314.00
220.959,3039.00
221.986,3361.00
223.016,2903.00
224.045,3338.00
225.072,3312.00
226.101,3362.00
227.130,3443.00
228.157,2991.00
229.185,2481.00
230.214,3352.00
231.241,2985.00
232.269,2546.00
233.297,2847.00
234.323,3386.00
235.351,2988.00
236.379,3287.00
237.407,2889.00
238.433,3106.00
239.460,3261.00
240.488,3277.00
241.513,3346.00
242.540,3250.00
243.568,3389.00
244.592,3370.00
245.619,3359.00
246.646,3073.00
247.671,3092.00
248.697,2955.00
249.724,3160.00
250.748,3175.00
251.774,3214.00
252.801,3452.00
253.827,3279.00
254.850,3240.00
255.876,2843.00
256.902,3301.00
257.925,3137.00
258.951,2875.00
259.976,2892.00
260.999,3246.00
262.024,2979.00
263.049,3838.00
264.074,3311.00
265.097,3193.00
266.122,3272.00
267.146,3170.00
268.168,3404.00
269.193,2990.00
270.217,3399.00
271.241,2856.00
272.263,3076.00
273.287,3324.00
274.311,2900.00
275.332,3487.00
276.356,2984.00
277.379,3305.00
278.402,3268.00
279.424,3084.00
280.447,2982.00
281.470,2856.00
282.492,3274.00
283.513,3044.00
284.536,3336.00
285.558,3309.00
286.581,3281.00
287.601,3000.00
288.623,2952.00
289.645,3221.00
290.665,3262.00
291.687,3299.00
292.709,3252.00
293.730,3573.00
294.750,3038.00
295.771,2904.00
296.792,3250.00
297.813,3045.00
298.832,3243.00
299.853,2889.00
300.874,3145.00
301.895,3136.00
302.913,3135.00
303.934,3486.00
304.954,3203.00
305.975,3362.00
306.993,2877.00
308.013,3302.00
309.033,3173.00
310.052,3086.00
311.072,3020.00
312.090,3215.00
313.109,3477.00
314.129,3623.00
315.148,3117.00
316.165,3224.00
317.184,3427.00
318.203,2858.00
319.222,2878.00
320.238,3322.00
321.257,2957.00
322.275,2839.00
323.294,3156.00
324.312,3313.00
325.328,3465.00
326.346,3454.00
327.364,3430.00
328.382,3349.00
329.397,3275.00
330.415,3426.00
331.432,3356.00
332.450,3433.00
333.467,3663.00
334.482,2734.00
335.499,3548.00
336.516,2992.00
337.533,2710.00
338.547,2994.00
339.564,2976.00
340.580,3248.00
341.597,3145.00
342.613,3624.00
343.627,3129.00
344.643,3200.00
345.659,3257.00
346.675,3191.00
347.690,3040.00
348.704,3230.00
349.719,3025.00
350.735,2966.00
351.750,3327.00
352.765,3168.00
353.778,3108.00
354.793,3327.00
355.808,3017.00
356.822,3323.00
357.837,2793.00
358.851,3393.00
359.864,3126.00
360.878,2878.00
361.892,3126.00
362.906,3323.00
363.920,2747.00
364.932,3273.00
365.945,3296.00
366.959,3161.00
367.972,3086.00
368.986,2842.00
369.999,3542.00
371.010,2952.00
372.023,3562.00
373.036,3101.00
374.049,3537.00
375.061,3252.00
376.072,3116.00
377.084,3037.00
378.097,2831.00
379.109,3355.00
380.121,3161.00
381.133,2849.00
382.143,3283.00
383.155,2859.00
384.166,3015.00
385.178,3270.00
386.189,3350.00
387.201,2870.00
388.212,3082.00
389.221,3070.00
390.232,3128.00
391.243,3085.00
392.254,3220.00
393.264,2981.00
394.275,3396.00
395.283,3373.00
396.294,3834.00
397.304,3665.00
398.314,3307.00
399.324,3200.00
400.334,2782.00
401.344,3296.00
402.351,2774.00
403.361,3354.00
404.370,3128.00
405.380,3056.00
406.389,3500.00
407.398,3276.00
408.407,3236.00
409.414,3304.00
410.423,3501.00
411.431,2937.00
412.440,2789.00
413.448,3484.00
414.457,3032.00
415.465,2946.00
416.471,3014.00
417.479,3139.00
418.487,2944.00
419.495,3477.00
420.503,3253.00
421.510,2741.00
422.518,3363.00
423.525,3325.00
424.530,3558.00
425.537,3050.00
426.544,3354.00
427.551,3003.00
428.558,3763.00
429.565,3637.00
430.571,3008.00
431.578,3052.00
432.582,3050.00
433.588,3095.00
434.595,2755.00
435.601,3500.00
436.607,3401.00
437.612,2937.00
438.618,3467.00
439.624,3054.00
440.627,3080.00
441.633,3266.00
442.638,3774.00
443.643,3295.00
444.648,3188.00
445.653,3380.00
446.658,3041.00
447.663,3192.00
448.667,3022.00
449.672,3068.00
450.674,3109.00
451.678,2847.00
452.682,3012.00
453.687,2961.00
454.690,3837.00
455.694,3423.00
456.698,2686.00
457.702,2796.00
458.705,2915.00
459.709,2950.00
460.710,3027.00
461.713,3153.00
462.716,3208.00
463.719,3151.00
464.722,3396.00
465.725,3119.00
466.727,2970.00
467.730,3149.00
468.732,2907.00
469.735,3437.00
470.737,3062.00
471.737,3021.00
472.739,3050.00
473.741,2971.00
474.742,3222.00
475.744,3276.00
476.746,3195.00
477.747,3101.00
478.748,3298.00
479.750,3081.00
480.751,3121.00
481.752,3947.00
482.753,3218.00
483.751,3721.00
484.752,2762.00
485.753,3110.00
486.753,3019.00
487.753,3109.00
488.754,3594.00
489.754,2804.00
490.754,3489.00
491.754,3299.00
492.754,2814.00
493.753,3173.00
494.753,3077.00
495.752,3491.00
496.752,3199.00
497.749,3160.00
498.748,2967.00
499.747,3602.00
500.746,3251.00
501.745,2883.00
502.744,2924.00
503.742,3514.00
504.741,3085.00
505.739,2594.00
506.737,3054.00
507.735,3316.00
508.734,3524.00
509.732,3303.00
510.729,3549.00
511.727,3028.00
512.725,3041.00
513.720,2920.00
514.718,3419.00
515.715,2775.00
516.712,2732.00
517.709,3118.00
518.706,3057.00
519.703,3194.00
520.700,3370.00
521.696,3533.00
522.693,3085.00
523.689,2982.00
524.686,3312.00
525.682,2945.00
526.678,3658.00
527.674,3063.00
528.670,2708.00
529.666,3708.00
530.661,3626.00
531.657,3845.00
532.652,3331.00
533.648,3169.00
534.641,3377.00
535.636,3229.00
536.631,3258.00
537.626,3311.00
538.621,2862.00
539.616,2718.00
540.610,2627.00
541.605,3169.00
542.599,3251.00
543.593,3177.00
544.587,4168.00
545.581,3002.00
546.575,3203.00
547.569,3194.00
548.563,2843.00
549.557,2784.00
550.550,2872.00
551.543,2878.00
552.537,3296.00
553.530,2875.00
554.523,2929.00
555.516,3281.00
556.509,3141.00
557.502,2773.00
558.494,3347.00
559.487,3043.00
560.479,3379.00
561.472,3430.00
562.464,3295.00
563.456,3490.00
564.448,3063.00
565.440,3143.00
566.432,3568.00
567.423,3023.00
568.415,3057.00
569.404,3295.00
570.396,2954.00
571.387,3285.00
572.378,3138.00
573.369,4146.00
574.360,3862.00
575.351,3061.00
576.341,2987.00
577.332,3025.00
578.323,2785.00
579.313,3037.00
580.303,3407.00
581.293,3287.00
582.283,3135.00
583.273,3279.00
584.263,3175.00
585.253,3259.00
586.243,3338.00
587.232,2763.00
588.222,3094.00
589.211,3326.00
590.200,3223.00
591.189,3029.00
592.178,3134.00
593.167,3605.00
594.156,3441.00
595.145,3043.00
596.133,3603.00
597.122,3276.00
598.110,3386.00
599.098,3234.00
600.086,3138.00
601.074,3350.00
602.062,2980.00
603.050,2876.00
604.038,3276.00
605.025,2912.00
606.013,3380.00
607.000,3556.00
607.987,3176.00
608.975,3240.00
609.962,2864.00
610.949,3289.00
611.936,3456.00
612.922,3325.00
613.909,2844.00
614.895,3536.00
615.882,2959.00
616.868,3181.00
617.854,2910.00
618.841,3201.00
619.826,3253.00
620.812,3098.00
621.798,2918.00
622.784,3296.00
623.769,3255.00
624.755,2863.00
625.740,3193.00
626.725,2872.00
627.711,2976.00
628.698,3242.00
629.683,2935.00
630.667,3291.00
631.652,2897.00
632.637,3132.00
633.621,3320.00
634.606,3090.00
635.590,3278.00
636.574,3107.00
637.558,3248.00
638.542,3233.00
639.526,2984.00
640.510,2752.00
641.493,3179.00
642.477,3117.00
643.460,2810.00
644.444,3425.00
645.427,3412.00
646.410,2803.00
647.393,3126.00
648.376,3184.00
649.359,3059.00
650.341,3216.00
651.324,3215.00
652.307,3204.00
653.289,3061.00
654.271,3003.00
655.253,3044.00
656.235,3303.00
657.217,3360.00
658.199,2751.00
659.181,2866.00
660.163,3149.00
661.144,2995.00
662.126,3041.00
663.107,2927.00
664.088,4892.00
665.069,3422.00
666.050,2983.00
667.033,2870.00
668.014,3191.00
668.995,2701.00
669.975,3129.00
670.956,3167.00
671.936,3260.00
672.916,3102.00
673.896,3295.00
674.876,3039.00
675.856,2998.00
676.836,2888.00
677.816,2433.00
678.795,2938.00
679.775,2787.00
680.754,3165.00
681.734,3265.00
682.713,3279.00
683.692,2896.00
684.671,2775.00
685.650,2915.00
686.629,3018.00
687.607,2863.00
688.586,2860.00
689.564,2991.00
690.543,3399.00
691.523,2505.00
692.501,2931.00
693.479,3069.00
694.457,2923.00
695.435,3015.00
696.413,2770.00
697.390,2618.00
698.368,2791.00
699.345,3210.00
700.322,3103.00
701.300,3204.00
702.277,3156.00
703.254,3382.00
704.231,2684.00
705.207,3094.00
706.184,2928.00
707.161,2812.00
708.137,3009.00
709.113,2960.00
710.090,2916.00
711.068,2684.00
712.044,2728.00
713.020,3031.00
713.996,2720.00
714.971,2900.00
715.947,2937.00
716.922,2944.00
717.898,2886.00
718.873,3041.00
719.848,2856.00
720.823,2803.00
721.798,3096.00
722.773,2876.00
723.748,2610.00
724.723,3128.00
725.697,3011.00
726.672,2889.00
727.646,2613.00
728.622,3136.00
729.596,2752.00
730.570,2878.00
731.544,3195.00
732.518,3410.00
733.492,2969.00
734.466,3012.00
735.439,3117.00
736.413,3254.00
737.386,2556.00
738.359,2518.00
739.332,2645.00
740.305,2986.00
741.278,3481.00
742.251,3056.00
743.224,2856.00
744.196,2686.00
745.171,3304.00
746.143,3131.00
747.115,2877.00
748.087,2805.00
749.059,3220.00
750.031,3005.00
751.003,3835.00
751.975,3378.00
752.947,2830.00
753.918,3220.00
754.890,2683.00
755.861,2858.00
756.832,3161.00
757.803,2969.00
758.774,2965.00
759.747,2719.00
760.718,3352.00
761.689,2894.00
762.659,2678.00
763.630,3326.00
764.600,2719.00
765.570,3208.00
766.540,3261.00
767.510,3068.00
768.480,3181.00
769.450,2858.00
770.420,2932.00
771.390,2763.00
772.359,2916.00
773.329,2803.00
774.300,2609.00
775.269,2876.00
776.238,3150.00
777.207,3372.00
778.176,2583.00
779.145,2922.00
780.114,2793.00
781.083,2709.00
782.051,2876.00
783.019,2795.00
783.988,3221.00
784.956,2979.00
785.924,3118.00
786.894,3012.00
787.862,2826.00
788.830,3286.00
789.797,2703.00
790.765,2708.00
791.732,2873.00
792.700,2785.00
793.667,2701.00
794.634,2890.00
795.601,2873.00
796.568,2886.00
797.535,2950.00
798.502,3607.00
799.468,3017.00
800.437,2487.00
801.403,2756.00
802.370,3437.00
803.336,3070.00
804.302,2990.00
805.268,2563.00
806.234,2669.00
807.200,2858.00
808.166,2917.00
809.131,2645.00
810.097,3107.00
811.062,3802.00
812.027,3120.00
812.994,2694.00
813.960,2710.00
814.925,3075.00
815.889,2644.00
816.854,3184.00
817.819,2769.00
818.783,2857.00
819.748,3282.00
820.712,2868.00
821.677,2732.00
822.641,2854.00
823.605,2798.00
824.571,3296.00
825.534,2841.00
826.498,2772.00
827.462,2921.00
828.425,2760.00
829.389,3188.00
830.352,2939.00
831.315,3013.00
832.279,2610.00
833.242,2893.00
834.204,2773.00
835.167,2807.00
836.132,3194.00
837.095,2616.00
838.057,2802.00
839.020,2966.00
839.982,2971.00
840.944,2777.00
841.906,2756.00
842.868,3093.00
843.830,2668.00
844.792,3195.00
845.753,2766.00
846.715,2541.00
847.679,2698.00
848.640,2753.00
849.601,2835.00
850.562,3421.00
851.523,2807.00
852.484,2588.00
853.445,3118.00
854.406,2819.00
855.367,2826.00
856.327,3159.00
857.288,2617.00
858.248,2780.00
859.210,2847.00
860.170,2620.00
861.130,3151.00
862.090,2546.00
863.050,2737.00
864.010,2775.00
864.969,3028.00
865.929,2742.00
866.888,2637.00
867.848,2947.00
868.807,2774.00
869.766,2980.00
870.727,2869.00
871.686,3107.00
872.645,3098.00
873.604,3445.00
874.562,2885.00
875.521,2890.00
876.479,3562.00
877.437,2668.00
878.396,2670.00
879.354,3343.00
880.312,2696.00
881.270,2748.00
882.229,3284.00
883.187,2756.00
884.145,2791.00
885.102,3052.00
886.059,2957.00
887.017,3021.00
887.974,3060.00
888.931,3238.00
889.888,2612.00
890.845,2554.00
891.802,2458.00
892.758,2757.00
893.717,2537.00
894.673,2672.00
895.630,2741.00
896.586,3012.00
897.542,2778.00
898.498,2639.00
899.454,2961.00
900.410,2819.00
901.366,2796.00
902.321,3936.00
903.277,2783.00
904.232,2839.00
905.189,2575.00
906.145,2748.00
907.100,2284.00
908.055,2891.00
909.010,3051.00
909.965,2422.00
910.919,2921.00
911.874,2676.00
912.828,2903.00
913.783,2918.00
914.737,2437.00
915.693,2894.00
916.648,3068.00
917.602,3083.00
918.555,2921.00
919.509,2974.00
920.463,2896.00
921.417,2908.00
922.370,2654.00
923.324,2782.00
924.277,2780.00
925.230,2865.00
926.183,2509.00
927.138,2808.00
928.091,3089.00
929.044,2961.00
929.996,2763.00
930.949,2750.00
931.902,2941.00
932.854,2947.00
933.806,2683.00
934.758,3095.00
935.711,3128.00
936.663,2943.00
937.614,2926.00
938.568,2866.00
939.520,2518.00
940.471,2833.00
941.423,2922.00
942.374,2996.00
943.326,2832.00
944.277,2709.00
945.228,2975.00
946.179,2789.00
947.130,3180.00
948.080,2756.00
949.031,2643.00
949.984,2810.00
950.934,2819.00
951.884,2573.00
952.835,2816.00
953.785,2859.00
954.735,2760.00
955.685,2438.00
956.635,2739.00
957.585,2744.00
958.534,2778.00
959.484,2808.00
960.433,2724.00
961.383,2563.00
962.334,3093.00
963.283,2897.00
964.232,2997.00
965.181,2844.00
966.130,2910.00
967.079,2750.00
968.027,2834.00
968.976,2834.00
969.924,2712.00
970.873,2945.00
971.821,2893.00
972.769,3064.00
973.719,2984.00
974.667,2585.00
975.615,2830.00
976.562,2839.00
977.510,2537.00
978.458,2737.00
979.405,2954.00
980.352,2921.00
981.300,3102.00
982.247,2895.00
983.194,2650.00
984.141,2757.00
985.088,2819.00
986.036,2896.00
986.983,3103.00
987.930,3245.00
988.876,2487.00
989.822,3114.00
990.769,2632.00
991.715,2718.00
992.661,2523.00
993.607,2919.00
994.553,3412.00
995.498,2705.00
996.444,2348.00
997.389,2879.00
998.337,2591.00
999.282,2993.00
1000.227,2763.00
1001.173,2769.00
1002.118,2551.00
1003.062,3042.00
1004.007,2763.00
1004.952,3094.00
1005.897,3042.00
1006.841,2818.00
1007.786,2572.00
1008.730,2518.00
1009.674,3313.00
1010.618,2756.00
1011.564,2620.00
1012.508,2489.00
1013.452,3097.00
1014.396,2815.00
1015.339,2748.00
1016.283,2805.00
1017.226,2871.00
1018.170,2823.00
1019.113,3007.00
1020.056,2864.00
1020.999,2871.00
1021.942,2723.00
1022.885,3010.00
1023.828,3123.00
1024.770,2613.00
1025.715,2910.00
1026.657,2846.00
1027.600,2897.00
1028.542,3055.00
1029.484,2859.00
1030.426,2984.00
1031.368,2892.00
1032.310,2702.00
1033.251,2630.00
1034.193,2767.00
1035.135,2613.00
1036.076,2744.00
1037.017,2665.00
1037.959,2941.00
1038.900,2883.00
1039.843,2895.00
1040.784,2905.00
1041.725,2899.00
1042.665,2719.00
1043.606,2866.00
1044.547,2879.00
1045.487,2475.00
1046.427,2755.00
1047.368,2907.00
1048.308,2309.00
1049.248,2610.00
1050.188,2790.00
1051.128,2675.00
1052.067,2806.00
1053.007,2518.00
1053.947,2500.00
1054.886,2681.00
1055.827,2611.00
1056.766,3065.00
1057.706,2569.00
1058.645,2753.00
1059.584,2838.00
1060.522,3095.00
1061.461,2535.00
1062.400,2598.00
1063.338,2723.00
1064.277,2605.00
1065.215,2622.00
1066.154,2495.00
1067.092,2688.00
1068.030,2730.00
1068.968,2999.00
1069.906,3104.00
1070.843,3094.00
1071.781,2841.00
1072.720,2973.00
1073.658,2955.00
1074.595,2725.00
1075.533,2656.00
1076.470,2642.00
1077.407,3126.00
1078.344,2866.00
1079.281,2918.00
1080.217,2436.00
1081.154,2792.00
1082.091,2840.00
1083.027,2529.00
1083.964,3024.00
1084.900,2652.00
1085.836,2736.00
1086.772,2968.00
1087.708,2578.00
1088.644,2933.00
1089.580,2804.00
1090.515,2905.00
1091.451,2668.00
1092.388,2816.00
1093.324,2546.00
1094.259,3377.00
1095.194,2842.00
1096.129,2688.00
1097.064,2673.00
1097.999,2956.00
1098.934,2623.00
1099.869,2632.00
1100.803,2817.00
1101.738,2790.00
1102.672,2501.00
1103.607,2962.00
1104.541,2629.00
1105.475,2690.00
1106.409,2508.00
1107.343,2674.00
1108.277,2529.00
1109.210,2823.00
1110.144,2805.00
1111.078,2740.00
1112.011,2569.00
1112.944,2858.00
1113.878,2854.00
1114.811,2286.00
1115.744,2701.00
1116.678,2387.00
1117.611,2708.00
1118.544,2704.00
1119.477,2880.00
1120.409,2638.00
1121.342,3279.00
1122.274,2844.00
1123.206,4417.00
1124.138,2777.00
1125.070,3137.00
1126.002,2931.00
1126.934,2388.00
1127.866,2667.00
1128.798,2418.00
1129.729,2475.00
1130.661,2766.00
1131.592,2648.00
1132.523,2871.00
1133.454,2892.00
1134.385,2383.00
1135.317,2765.00
1136.247,2701.00
1137.178,2986.00
1138.109,2468.00
1139.039,3107.00
1139.970,2946.00
1140.900,2671.00
1141.831,2424.00
1142.761,2297.00
1143.691,2878.00
1144.621,2736.00
1145.551,2830.00
1146.480,2796.00
1147.410,2970.00
1148.340,2396.00
1149.269,2468.00
1150.199,2677.00
1151.128,3144.00
1152.057,2517.00
1152.979,2669.00
1153.898,2729.00
1154.819,2842.00
1155.739,2701.00
1156.658,2642.00
1157.579,2806.00
1158.498,2739.00
1159.419,2260.00
1160.338,2783.00
1161.256,2816.00
1162.177,2596.00
1163.095,2734.00
1164.016,2864.00
1164.934,2971.00
1165.852,2960.00
1166.772,2721.00
1167.690,2728.00
1168.610,2809.00
1169.528,2734.00
1170.446,2269.00
1171.365,2654.00
1172.283,2585.00
1173.202,2735.00
1174.120,2789.00
1175.037,2607.00
1175.956,2525.00
1176.873,2583.00
1177.792,2622.00
1178.709,3203.00
1179.626,2646.00
1180.544,2975.00
1181.461,2599.00
1182.379,2841.00
1183.296,2731.00
1184.212,2344.00
1185.130,2578.00
1186.046,3030.00
1186.962,2743.00
1187.880,3038.00
1188.796,2777.00
1189.714,2509.00
1190.629,2853.00
1191.545,2815.00
1192.462,2692.00
1193.378,2651.00
1194.295,2442.00
1195.210,2734.00
1196.125,2891.00
1197.042,2848.00
1197.957,2698.00
1198.872,2609.00
1199.788,2624.00
1200.703,3051.00
1201.619,2773.00
1202.534,2605.00
1203.448,2815.00
1204.364,2689.00
1205.278,2379.00
1206.192,2835.00
1207.108,3294.00
1208.022,3126.00
1208.938,2610.00
1209.851,2886.00
1210.765,2983.00
1211.680,2632.00
1212.594,2516.00
1213.507,2709.00
1214.422,3156.00
1215.335,2875.00
1216.248,2665.00
1217.163,2761.00
1218.076,3370.00
1218.990,2805.00
1219.903,2506.00
1220.816,2583.00
1221.730,2675.00
1222.642,2597.00
1223.554,2651.00
1224.469,2817.00
1225.380,2683.00
1226.292,2399.00
1227.206,2871.00
1228.118,3095.00
1229.032,2355.00
1229.943,2630.00
1230.855,2694.00
1231.768,2466.00
1232.679,2803.00
1233.590,2730.00
1234.503,2985.00
1235.414,2584.00
1236.325,2620.00
1237.238,2814.00
1238.149,2836.00
1239.059,2554.00
1239.972,2916.00
1240.882,2529.00
1241.793,2848.00
1242.705,3105.00
1243.615,2701.00
1244.525,2828.00
1245.437,2291.00
1246.347,2749.00
1247.259,2930.00
1248.168,3223.00
1249.078,2957.00
1249.989,3006.00
1250.899,2543.00
1251.808,2609.00
1252.719,2619.00
1253.628,2602.00
1254.537,3148.00
1255.448,2571.00
1256.357,2559.00
1257.266,2758.00
1258.176,2448.00
1259.085,2456.00
1259.993,2531.00
1260.904,2527.00
1261.812,2565.00
1262.720,3304.00
1263.630,2909.00
1264.538,2546.00
1265.446,2854.00
1266.356,2771.00
1267.263,3021.00
1268.171,2534.00
1269.080,2765.00
1269.988,2908.00
1270.895,2638.00
1271.804,2667.00
1272.711,2921.00
1273.619,2918.00
1274.527,2525.00
1275.434,2869.00
1276.341,2531.00
1277.248,2762.00
1278.156,3037.00
1279.063,2587.00
1279.969,2819.00
1280.877,3686.00
1281.783,2932.00
1282.690,2815.00
1283.598,2742.00
1284.503,2590.00
1285.409,2580.00
1286.317,3088.00
1287.223,3127.00
1288.128,2797.00
1289.036,2640.00
1289.941,2685.00
1290.846,2736.00
1291.751,2542.00
1292.658,2670.00
1293.563,3189.00
1294.468,2738.00
1295.375,2928.00
1296.280,3016.00
1297.184,3508.00
1298.091,2862.00
1298.995,2864.00
1299.900,3125.00
1300.806,2664.00
1301.710,2464.00
1302.614,2293.00
1303.518,2981.00
1304.424,2699.00
1305.327,2941.00
1306.231,2708.00
1307.137,2854.00
1308.040,2738.00
1308.943,2771.00
1309.847,2930.00
1310.752,2908.00
1311.655,2364.00
1312.558,2516.00
1313.463,2635.00
1314.366,2625.00
1315.269,2753.00
1316.171,2729.00
1317.076,2584.00
1317.978,2550.00
1318.881,2322.00
1319.785,2547.00
1320.687,2587.00
1321.589,2329.00
1322.491,2553.00
1323.395,2788.00
1324.297,3334.00
1325.198,2863.00
1326.102,2498.00
1327.004,2542.00
1327.905,3145.00
1328.806,2673.00
1329.709,2787.00
1330.611,2620.00
1331.512,2541.00
1332.413,3146.00
1333.316,2771.00
1334.216,2958.00
1335.117,2473.00
1336.020,2811.00
1336.920,2752.00
1337.821,2595.00
1338.721,2989.00
1339.623,2803.00
1340.523,2706.00
1341.423,2604.00
1342.323,3007.00
1343.225,2834.00
1344.125,2570.00
1345.025,2617.00
1345.924,2377.00
1346.826,3071.00
1347.725,3181.00
1348.624,2944.00
1349.524,2594.00
1350.425,2695.00
1351.324,2850.00
1352.223,2934.00
1353.121,2668.00
1354.022,2936.00
1354.921,3167.00
1355.819,2876.00
1356.718,2769.00
1357.618,2481.00
1358.516,2832.00
1359.415,3146.00
1360.313,2829.00
1361.213,2670.00
1362.111,3030.00
1363.008,3404.00
1363.906,2705.00
1364.806,2718.00
1365.703,2821.00
1366.601,2528.00
1367.498,2580.00
1368.397,2919.00
1369.295,2796.00
1370.192,2550.00
1371.089,2828.00
1371.987,2721.00
1372.884,3042.00
1373.781,2549.00
1374.678,2780.00
1375.574,2561.00
1376.473,2890.00
1377.369,2980.00
1378.265,2590.00
1379.161,2688.00
1380.059,2438.00
1380.955,2869.00
1381.851,2509.00
1382.747,2636.00
1383.643,2648.00
1384.540,2504.00
1385.436,2623.00
1386.331,2786.00
1387.227,2917.00
1388.124,2841.00
1389.019,2537.00
1389.914,2738.00
1390.809,2373.00
1391.704,3158.00
1392.601,2651.00
1393.495,3018.00
1394.390,2920.00
1395.285,3014.00
1396.179,2804.00
1397.075,2667.00
1397.969,2760.00
1398.864,2405.00
1399.758,2680.00
1400.652,2757.00
1401.547,2566.00
1402.441,2513.00
1403.335,3047.00
1404.229,2888.00
1405.122,2798.00
1406.017,2700.00
1406.911,2907.00
1407.804,3202.00
1408.697,2685.00
1409.590,2549.00
1410.485,2868.00
1411.378,2783.00
1412.271,2452.00
1413.163,2794.00
1414.056,2918.00
1414.949,3108.00
1415.843,2811.00
1416.735,2677.00
1417.627,2753.00
1418.520,2688.00
1419.412,2977.00
1420.306,2918.00
1421.197,3038.00
1422.089,2982.00
1422.981,3232.00
1423.873,2915.00
1424.764,2852.00
1425.657,2792.00
1426.549,2904.00
1427.440,3013.00
1428.331,2687.00
1429.222,2440.00
1430.113,2812.00
1431.006,2873.00
1431.897,2646.00
1432.787,2763.00
1433.678,2685.00
1434.568,2565.00
1435.459,2966.00
1436.351,2940.00
1437.241,2954.00
1438.131,2878.00
1439.021,2482.00
1439.911,2700.00
1440.801,2833.00
1441.693,3008.00
1442.583,2761.00
1443.472,2744.00
1444.362,2873.00
1445.251,2682.00
1446.140,2660.00
1447.030,2958.00
1447.921,2965.00
1448.810,2559.00
1449.699,3120.00
1450.588,2785.00
1451.476,2632.00
1452.365,2871.00
1453.254,2675.00
1454.144,2657.00
1455.032,2915.00
1455.921,2477.00
1456.809,3059.00
1457.697,2586.00
1458.585,2694.00
1459.473,2730.00
1460.361,2595.00
1461.251,2799.00
1462.138,2857.00
1463.026,2753.00
1463.913,3004.00
1464.801,2667.00
1465.688,2822.00
1466.575,2786.00
1467.463,3230.00
1468.351,2629.00
1469.238,2687.00
1470.125,2348.00
1471.012,2785.00
1471.899,2860.00
1472.785,2554.00
1473.672,2750.00
1474.558,2984.00
1475.446,2890.00
1476.333,2936.00
1477.219,2568.00
1478.105,2732.00
1478.991,2696.00
1479.877,3089.00
1480.762,2737.00
1481.648,2605.00
1482.534,2909.00
1483.419,2853.00
1484.307,2883.00
1485.192,2743.00
1486.077,2626.00
1486.962,2635.00
1487.847,2470.00
1488.732,2587.00
1489.617,2774.00
1490.502,3076.00
1491.387,2895.00
1492.271,2581.00
1493.156,2610.00
1494.042,2548.00
1494.927,2948.00
1495.811,2635.00
1496.695,2919.00
1497.579,3065.00
1498.463,2760.00
1499.347,2788.00
1500.231,2762.00
1501.114,2843.00
1501.998,3050.00
1502.881,2820.00
1503.765,3089.00
1504.648,3212.00
1505.533,2866.00
1506.417,2793.00
1507.300,2752.00
1508.183,2843.00
1509.066,2233.00
1509.948,2981.00
1510.831,3147.00
1511.714,2528.00
1512.596,2898.00
1513.479,3011.00
1514.361,3010.00
1515.243,2831.00
1516.125,2920.00
1517.008,3057.00
1517.890,2743.00
1518.771,2824.00
1519.655,2975.00
1520.537,2680.00
1521.419,2607.00
1522.300,2826.00
1523.182,2912.00
1524.063,2934.00
1524.944,3077.00
1525.825,2950.00
1526.707,2589.00
1527.588,2532.00
1528.468,2872.00
1529.349,2454.00
1530.230,2680.00
1531.111,2926.00
1531.991,2852.00
1532.872,2488.00
1533.752,2757.00
1534.632,2625.00
1535.513,2608.00
1536.393,2940.00
1537.273,3093.00
1538.153,3447.00
1539.032,2502.00
1539.912,2713.00
1540.792,2780.00
1541.672,2810.00
1542.551,2894.00
1543.430,3388.00
1544.310,2815.00
1545.189,2665.00
1546.068,3197.00
1546.947,2849.00
1547.826,3116.00
1548.705,2775.00
1549.584,2982.00
1550.462,2715.00
1551.341,2946.00
1552.219,2849.00
1553.098,2918.00
1553.976,3013.00
1554.854,3214.00
1555.733,3028.00
1556.611,2747.00
1557.489,2569.00
1558.367,2767.00
1559.244,2953.00
1560.122,2773.00
1561.000,2870.00
1561.877,3087.00
1562.755,2662.00
1563.632,2747.00
1564.509,3014.00
1565.386,3209.00
1566.264,2511.00
1567.141,2416.00
1568.017,2891.00
1568.894,2741.00
1569.771,2779.00
1570.648,2899.00
1571.524,2796.00
1572.401,2551.00
1573.277,2570.00
1574.153,2826.00
1575.029,2646.00
1575.906,3572.00
1576.781,2923.00
1577.657,2685.00
1578.533,3052.00
1579.409,2417.00
1580.285,2733.00
1581.160,3214.00
1582.036,2943.00
1582.911,2596.00
1583.786,3118.00
1584.662,2578.00
1585.537,2784.00
1586.412,2895.00
1587.287,2616.00
1588.160,2984.00
1589.035,2432.00
1589.909,2816.00
1590.784,2762.00
1591.658,2556.00
1592.533,2844.00
1593.407,2801.00
1594.281,2668.00
1595.155,3229.00
1596.029,2736.00
1596.903,2733.00
1597.777,2722.00
1598.651,2996.00
1599.525,2483.00
1600.398,2833.00
1601.272,2726.00
1602.144,3365.00
1603.017,2760.00
1603.890,3018.00
1604.763,2890.00
1605.636,2929.00
1606.509,2471.00
1607.382,2613.00
1608.255,2881.00
1609.128,3028.00
1610.000,2782.00
1610.873,2462.00
1611.746,2675.00
1612.616,2759.00
1613.488,2361.00
1614.361,2748.00
1615.233,2737.00
1616.105,3010.00
1616.977,2682.00
1617.849,2630.00
1618.720,3136.00
1619.592,3107.00
1620.464,2869.00
1621.333,3272.00
1622.205,2797.00
1623.076,2780.00
1623.947,2730.00
1624.818,3038.00
1625.689,2953.00
1626.560,2715.00
1627.431,2860.00
1628.302,3245.00
1629.171,2913.00
1630.042,3118.00
1630.912,3510.00
1631.782,3388.00
1632.653,2559.00
1633.523,2966.00
1634.393,3108.00
1635.263,2673.00
1636.131,2801.00
1637.001,2686.00
1637.871,2388.00
1638.741,2408.00
1639.611,2511.00
1640.480,2959.00
1641.350,2652.00
1642.219,2641.00
1643.087,2292.00
1643.956,3238.00
1644.825,3062.00
1645.694,2977.00
1646.563,2975.00
1647.432,2832.00
1648.299,2821.00
1649.167,2912.00
1650.036,2602.00
1650.904,2915.00
1651.773,3049.00
1652.641,2787.00
1653.509,2984.00
1654.376,2649.00
1655.244,2866.00
1656.112,2859.00
1656.980,2783.00
1657.847,2648.00
1658.715,2958.00
1659.581,2724.00
1660.448,3063.00
1661.316,2314.00
1662.183,2844.00
1663.051,2852.00
1663.918,2872.00
1664.783,2799.00
1665.650,2897.00
1666.517,3021.00
1667.384,2837.00
1668.251,2849.00
1669.115,3030.00
1669.982,2775.00
1670.849,3114.00
1671.715,2747.00
1672.581,2947.00
1673.446,2920.00
1674.312,2827.00
1675.178,3196.00
1676.044,2914.00
1676.910,2878.00
1677.774,2852.00
1678.639,2466.00
1679.505,2809.00
1680.370,2953.00
1681.236,3473.00
1682.099,2717.00
1682.965,2840.00
1683.830,2398.00
1684.695,2622.00
1685.560,2731.00
1686.423,2954.00
1687.288,2912.00
1688.153,2861.00
1689.017,2756.00
1689.880,2886.00
1690.745,2952.00
1691.609,2668.00
1692.473,2955.00
1693.338,3024.00
1694.200,3096.00
1695.064,2848.00
1695.928,2684.00
1696.792,2767.00
1697.654,3341.00
1698.517,2845.00
1699.381,2560.00
1700.245,2444.00
1701.106,3083.00
1701.969,2702.00
1702.833,2982.00
1703.696,2745.00
1704.557,2789.00
1705.420,2683.00
1706.283,2856.00
1707.146,3005.00
1708.007,2642.00
1708.870,2607.00
1709.732,2479.00
1710.595,2677.00
1711.455,2566.00
1712.318,2736.00
1713.180,3118.00
1714.040,2862.00
1714.902,3007.00
1715.764,2833.00
1716.626,2609.00
1717.486,2816.00
1718.348,3061.00
1719.209,5031.00
1720.071,2450.00
1720.930,2550.00
1721.792,2672.00
1722.653,2622.00
1723.512,2707.00
1724.374,2733.00
1725.234,2868.00
1726.095,2853.00
1726.954,2805.00
1727.815,2955.00
1728.676,2811.00
1729.535,3052.00
1730.395,2775.00
1731.256,2751.00
1732.114,2870.00
1732.974,2298.00
1733.834,3188.00
1734.693,2951.00
1735.553,2823.00
1736.413,3252.00
1737.272,2681.00
1738.130,2757.00
1738.990,2943.00
1739.849,2703.00
1740.707,3833.00
1741.566,2890.00
1742.426,2834.00
1743.283,3186.00
1744.142,2707.00
1745.001,2490.00
1745.858,3024.00
1746.717,2880.00
1747.576,2916.00
1748.433,2986.00
1749.292,3452.00
1750.150,3472.00
1751.007,3001.00
1751.865,3052.00
1752.723,2836.00
1753.579,2712.00
1754.438,3009.00
1755.296,3063.00
1756.152,2352.00
1757.010,2473.00
1757.865,2996.00
1758.723,2474.00
1759.581,3175.00
1760.436,2788.00
1761.294,3158.00
1762.151,2793.00
1763.006,2725.00
1763.864,2431.00
1764.721,3056.00
1765.576,2817.00
1766.433,2998.00
1767.288,2695.00
1768.144,2878.00
1769.001,2801.00
1769.856,2914.00
1770.712,3053.00
1771.568,2626.00
1772.423,2728.00
1773.279,2714.00
1774.133,2685.00
1774.989,3223.00
1775.845,3276.00
1776.699,3081.00
1777.555,2812.00
1778.409,3374.00
1779.265,2746.00
1780.120,2785.00
1780.974,2822.00
1781.829,2417.00
1782.682,2900.00
1783.538,2620.00
1784.393,2879.00
1785.246,2708.00
1786.101,2891.00
1786.954,2941.00
1787.808,3017.00
1788.661,2523.00
1789.516,2732.00
1790.370,2783.00
1791.223,3030.00
1792.077,2790.00
1792.930,2910.00
1793.784,2697.00
1794.636,2839.00
1795.490,2780.00
1796.344,2853.00
1797.196,2804.00
1798.049,2990.00
1798.901,2690.00
1799.755,3073.00
1800.606,2607.00
1801.460,3360.00
1802.311,3144.00
1803.165,3245.00
1804.018,3183.00
1804.869,2899.00
1805.722,3309.00
1806.573,2860.00
1807.426,2635.00
1808.276,2819.00
1809.129,2738.00
1809.980,3067.00
1810.832,3120.00
1811.683,2758.00
1812.535,3178.00
1813.385,2713.00
1814.237,3099.00
1815.089,2852.00
1815.940,3125.00
1816.791,2768.00
1817.641,2682.00
1818.493,2990.00
1819.343,2901.00
1820.194,2671.00
1821.044,2904.00
1821.895,3077.00
1822.745,2584.00
1823.596,2703.00
1824.445,3275.00
1825.296,2932.00
1826.145,2839.00
1826.996,3037.00
1827.845,2855.00
1828.695,2919.00
1829.544,2857.00
1830.395,2878.00
1831.243,2763.00
1832.094,2554.00
1832.942,3491.00
1833.792,2930.00
1834.640,2872.00
1835.490,2835.00
1836.338,2889.00
1837.186,2722.00
1838.036,2688.00
1838.884,2812.00
1839.733,3223.00
1840.581,3014.00
1841.430,2956.00
1842.278,3140.00
1843.127,2764.00
1843.974,2559.00
1844.823,3320.00
1845.671,3000.00
1846.519,2844.00
1847.366,2924.00
1848.213,2474.00
1849.062,2660.00
1849.909,2556.00
1850.757,3548.00
1851.604,2953.00
1852.452,2772.00
1853.298,3013.00
1854.146,2897.00
1854.993,2861.00
1855.839,3382.00
1856.687,2925.00
1857.532,2943.00
1858.380,2843.00
1859.226,2926.00
1860.073,2968.00
1860.919,2703.00
1861.765,2751.00
1862.612,3091.00
1863.457,3068.00
1864.304,2744.00
1865.150,2947.00
1865.995,2827.00
1866.842,2967.00
1867.686,3112.00
1868.533,2904.00
1869.378,2930.00
1870.223,2863.00
1871.069,2751.00
1871.914,2885.00
1872.760,2833.00
1873.604,2612.00
1874.448,2999.00
1875.294,3027.00
1876.139,2694.00
1876.984,2990.00
1877.828,2493.00
1878.672,2326.00
1879.518,2722.00
1880.361,3076.00
1881.205,2957.00
1882.050,2654.00
1882.894,3336.00
1883.739,2701.00
1884.582,2605.00
1885.425,2663.00
1886.270,3105.00
1887.113,2601.00
1887.956,2975.00
1888.801,2926.00
1889.644,2670.00
1890.486,2446.00
1891.331,2754.00
1892.173,2866.00
1893.017,2964.00
1893.860,3148.00
1894.702,3189.00
1895.546,2864.00
1896.388,3568.00
1897.230,3196.00
1898.074,2741.00
1898.916,2610.00
1899.757,2669.00
1900.601,3584.00
1901.443,3165.00
1902.284,3147.00
1903.125,3349.00
1903.969,3054.00
1904.810,3117.00
1905.651,2983.00
1906.494,3206.00
1907.335,3327.00
1908.176,3005.00
1909.018,2970.00
1909.859,2818.00
1910.700,2712.00
1911.542,3359.00
1912.383,2975.00
1913.223,2469.00
1914.064,2984.00
1914.906,3132.00
1915.746,3187.00
1916.586,3407.00
1917.428,2855.00
1918.268,2888.00
1919.107,2761.00
1919.947,2562.00
1920.789,2778.00
1921.628,3142.00
1922.468,2892.00
1923.309,2726.00
1924.148,3180.00
1924.988,2965.00
1925.827,2836.00
1926.667,2760.00
1927.507,2888.00
1928.345,2696.00
1929.184,3054.00
1930.025,2633.00
1930.864,3149.00
1931.702,3181.00
1932.541,2817.00
1933.381,2977.00
1934.219,3039.00
1935.057,3202.00
1935.896,2618.00
1936.735,2811.00
1937.573,2738.00
1938.411,2622.00
1939.249,3012.00
1940.089,2728.00
1940.927,3159.00
1941.764,3145.00
1942.602,2761.00
1943.439,2760.00
1944.278,2816.00
1945.115,2794.00
1945.953,2626.00
1946.790,2955.00
1947.628,3165.00
1948.465,3005.00
1949.302,3032.00
1950.139,2996.00
1950.976,2751.00
1951.814,3058.00
1952.651,2950.00
1953.487,2609.00
1954.323,3120.00
1955.160,2858.00
1955.998,3228.00
1956.834,2817.00
1957.670,2950.00
1958.506,3133.00
1959.342,2996.00
1960.177,2897.00
1961.015,3046.00
1961.850,2924.00
1962.686,2951.00
1963.521,2908.00
1964.357,3131.00
1965.192,2628.00
1966.029,3029.00
1966.864,2786.00
1967.699,3100.00
1968.534,2911.00
1969.369,3184.00
1970.204,2839.00
1971.040,2932.00
1971.875,2800.00
1972.709,2950.00
1973.544,2673.00
1974.378,2758.00
1975.212,2989.00
1976.047,2764.00
1976.882,2733.00
1977.716,3299.00
1978.550,2577.00
1979.384,2815.00
1980.218,2832.00
1981.052,2823.00
1981.885,2894.00
1982.719,2875.00
1983.554,3059.00
1984.388,3197.00
1985.221,2927.00
1986.054,3136.00
1986.887,2939.00
1987.720,2714.00
1988.553,3239.00
1989.386,2995.00
1990.219,3061.00
1991.053,3211.00
1991.886,2724.00
1992.719,3078.00
1993.551,2370.00
1994.383,3014.00
1995.216,2783.00
1996.048,2548.00
1996.880,3049.00
1997.712,2777.00
1998.544,2880.00
1999.376,2963.00
2000.208,3177.00
2001.040,3367.00
2001.873,2651.00
2002.705,2672.00
2003.536,2959.00
2004.367,2911.00
2005.199,2926.00
2006.030,2747.00
2006.861,2636.00
2007.692,2882.00
2008.523,2742.00
2009.354,2928.00
2010.185,2658.00
2011.016,3012.00
2011.846,3072.00
2012.677,2845.00
2013.507,3285.00
2014.338,3129.00
2015.168,2784.00
2015.999,3449.00
2016.829,2822.00
2017.659,3090.00
2018.489,3439.00
2019.319,2697.00
2020.149,3050.00
2020.980,2933.00
2021.810,2681.00
2022.639,2778.00
2023.469,2762.00
2024.298,2569.00
2025.128,2454.00
2025.957,2503.00
2026.786,2325.00
2027.615,2505.00
2028.444,2722.00
2029.273,2892.00
2030.102,2478.00
2030.931,2715.00
2031.758,3039.00
2032.586,2669.00
2033.415,2761.00
2034.243,2337.00
2035.072,2095.00
2035.900,2658.00
2036.728,2459.00
2037.556,2494.00
2038.385,2491.00
2039.213,2287.00
2040.040,2296.00
2040.868,2250.00
2041.696,2321.00
2042.524,2318.00
2043.351,2527.00
2044.179,2308.00
2045.006,2092.00
