RamanScope Measure Spectrum Data V3.72

<< MEASURE CONDITION >>
Exposure Type,Aver
Exposure Time [sec],15
Exposure Count,30
Measure Time,2023/07/03 20:32:57
Data Name,""
Data Comment,""
Rayleigh Wave[nm],532.0

<< SAMPLE SPECTRUM >>
Wave[dcm-1],No208
146.591,1087.20
147.626,1280.47
148.664,1520.07
149.699,1713.30
150.737,1915.77
151.772,2107.00
152.809,2337.40
153.846,2487.73
154.881,2656.07
155.918,2827.87
156.953,2923.00
157.989,3030.43
159.026,3154.53
160.060,3215.60
161.096,3268.10
162.130,3344.57
163.167,3428.50
164.200,3430.63
165.236,3507.37
166.272,3560.80
167.305,3559.57
168.341,3657.83
169.374,3692.57
170.409,3742.67
171.445,3800.50
172.477,3890.10
173.512,3893.40
174.545,3915.10
175.580,3906.93
176.614,3961.17
177.647,3954.30
178.681,3985.53
179.713,3964.70
180.747,3964.17
181.781,3928.73
182.813,3965.23
183.847,3965.53
184.878,3964.87
185.912,3908.50
186.945,3973.17
187.976,4005.63
189.010,4018.40
190.043,4023.47
191.073,4051.00
192.106,4096.93
193.137,4131.83
194.170,4140.83
195.202,4216.57
196.232,4238.37
197.265,4275.00
198.297,4317.47
199.327,4361.03
200.359,4359.23
201.388,4441.87
202.420,4537.93
203.452,4584.33
204.481,4642.27
205.512,4693.97
206.544,4752.57
207.573,4834.53
208.604,4950.27
209.635,5052.37
210.663,5182.67
211.694,5264.77
212.725,5352.47
213.753,5526.57
214.783,5586.97
215.813,5661.87
216.841,5736.83
217.871,5807.30
218.899,5847.77
219.929,5840.27
220.959,5734.07
221.986,5675.80
223.016,5626.87
224.045,5526.20
225.072,5433.37
226.101,5373.23
227.130,5242.60
228.157,5134.90
229.185,5088.50
230.214,5044.93
231.241,4970.80
232.269,4891.07
233.297,4885.60
234.323,4888.60
235.351,4817.57
236.379,4779.87
237.407,4812.63
238.433,4732.63
239.460,4802.70
240.488,4815.87
241.513,4848.97
242.540,4907.60
243.568,4973.83
244.592,5018.13
245.619,5034.07
246.646,5029.50
247.671,5051.20
248.697,5032.13
249.724,4986.03
250.748,4989.50
251.774,4912.23
252.801,4921.90
253.827,4916.20
254.850,4947.73
255.876,4919.70
256.902,4870.53
257.925,4871.47
258.951,4920.03
259.976,4979.40
260.999,4979.23
262.024,5050.83
263.049,5062.90
264.074,5062.07
265.097,5154.00
266.122,5133.23
267.146,5187.43
268.168,5240.93
269.193,5271.27
270.217,5294.37
271.241,5323.67
272.263,5347.70
273.287,5401.03
274.311,5466.73
275.332,5481.87
276.356,5503.80
277.379,5471.17
278.402,5500.43
279.424,5497.07
280.447,5503.03
281.470,5475.07
282.492,5411.67
283.513,5360.90
284.536,5266.97
285.558,5225.07
286.581,5187.67
287.601,5068.27
288.623,5022.77
289.645,4981.00
290.665,4886.27
291.687,4858.33
292.709,4800.50
293.730,4709.87
294.750,4709.53
295.771,4649.53
296.792,4564.20
297.813,4504.43
298.832,4494.23
299.853,4469.07
300.874,4413.10
301.895,4354.97
302.913,4329.63
303.934,4242.00
304.954,4233.23
305.975,4231.27
306.993,4222.60
308.013,4109.97
309.033,4095.10
310.052,4049.90
311.072,4019.10
312.090,4040.43
313.109,4039.10
314.129,3992.80
315.148,4001.03
316.165,3947.03
317.184,3935.80
318.203,3935.73
319.222,3874.57
320.238,3879.20
321.257,3860.87
322.275,3839.83
323.294,3807.43
324.312,3734.03
325.328,3806.77
326.346,3768.27
327.364,3772.33
328.382,3785.33
329.397,3733.93
330.415,3703.63
331.432,3699.13
332.450,3753.00
333.467,3735.07
334.482,3661.90
335.499,3697.70
336.516,3695.50
337.533,3709.53
338.547,3644.13
339.564,3644.83
340.580,3691.90
341.597,3666.70
342.613,3645.57
343.627,3619.37
344.643,3582.60
345.659,3607.97
346.675,3641.90
347.690,3641.43
348.704,3601.33
349.719,3632.07
350.735,3604.73
351.750,3679.00
352.765,3907.13
353.778,5580.63
354.793,4020.73
355.808,3643.03
356.822,3616.40
357.837,3637.13
358.851,3637.30
359.864,3624.50
360.878,3646.83
361.892,3651.67
362.906,3638.90
363.920,3601.70
364.932,3628.63
365.945,3635.53
366.959,3691.47
367.972,3647.60
368.986,3668.10
369.999,3638.00
371.010,3663.23
372.023,3688.87
373.036,3731.57
374.049,3758.90
375.061,3757.67
376.072,3715.70
377.084,3801.37
378.097,3817.27
379.109,3785.10
380.121,3799.37
381.133,3814.37
382.143,3840.17
383.155,3815.57
384.166,3835.13
385.178,3797.40
386.189,3832.53
387.201,3857.07
388.212,3828.03
389.221,3863.17
390.232,3857.23
391.243,3783.10
392.254,3793.77
393.264,3835.90
394.275,3796.07
395.283,3793.83
396.294,3722.93
397.304,3703.07
398.314,3729.07
399.324,3724.23
400.334,3712.60
401.344,3663.70
402.351,3644.20
403.361,3652.67
404.370,3639.00
405.380,3644.90
406.389,3623.63
407.398,3563.37
408.407,3619.93
409.414,3539.43
410.423,3574.30
411.431,3558.07
412.440,3501.50
413.448,3509.13
414.457,3539.10
415.465,3515.80
416.471,3481.03
417.479,3418.60
418.487,3465.50
419.495,3464.43
420.503,3491.43
421.510,3452.10
422.518,3354.70
423.525,3462.23
424.530,3400.60
425.537,3406.37
426.544,3413.53
427.551,3378.33
428.558,3354.50
429.565,3407.13
430.571,3344.70
431.578,3373.93
432.582,3366.37
433.588,3382.37
434.595,3365.83
435.601,3424.27
436.607,3403.70
437.612,3370.20
438.618,3371.93
439.624,3339.87
440.627,3349.80
441.633,3363.50
442.638,3339.27
443.643,3380.50
444.648,3351.60
445.653,3414.97
446.658,3339.80
447.663,3393.83
448.667,3370.47
449.672,3370.80
450.674,3365.20
451.678,3414.33
452.682,3410.87
453.687,3426.77
454.690,3392.73
455.694,3466.70
456.698,3376.03
457.702,3421.83
458.705,3395.80
459.709,3409.60
460.710,3432.77
461.713,3465.23
462.716,3418.33
463.719,3414.97
464.722,3436.63
465.725,3424.87
466.727,3435.53
467.730,3415.43
468.732,3434.77
469.735,3379.87
470.737,3468.73
471.737,3439.37
472.739,3448.37
473.741,3439.07
474.742,3426.03
475.744,3448.97
476.746,3422.87
477.747,3432.10
478.748,3493.53
479.750,3415.00
480.751,3430.00
481.752,3449.23
482.753,3482.70
483.751,3432.80
484.752,3447.83
485.753,3452.20
486.753,3446.57
487.753,3468.77
488.754,3443.83
489.754,3453.00
490.754,3448.03
491.754,3472.03
492.754,3484.83
493.753,3453.73
494.753,3414.70
495.752,3467.30
496.752,3434.03
497.749,3476.87
498.748,3432.63
499.747,3425.73
500.746,3441.77
501.745,3435.17
502.744,3417.10
503.742,3411.83
504.741,3397.83
505.739,3396.50
506.737,3399.67
507.735,3361.00
508.734,3392.23
509.732,3367.63
510.729,3352.33
511.727,3360.80
512.725,3367.20
513.720,3371.43
514.718,3380.93
515.715,3333.50
516.712,3335.27
517.709,3279.50
518.706,3302.63
519.703,3335.70
520.700,3330.73
521.696,3276.13
522.693,3375.83
523.689,3352.77
524.686,3364.47
525.682,3373.00
526.678,3328.80
527.674,3390.37
528.670,3398.03
529.666,3399.57
530.661,3404.80
531.657,3021.23
532.652,3435.90
533.648,3453.37
534.641,3480.13
535.636,3417.97
536.631,3437.50
537.626,3431.73
538.621,3474.67
539.616,3476.37
540.610,3456.57
541.605,3396.47
542.599,3478.20
543.593,3505.20
544.587,3453.90
545.581,3490.07
546.575,3495.33
547.569,3452.87
548.563,3529.90
549.557,3525.13
550.550,3480.33
551.543,3463.57
552.537,3470.83
553.530,3504.03
554.523,3530.07
555.516,3518.57
556.509,3513.07
557.502,3469.97
558.494,3482.27
559.487,3500.47
560.479,3523.87
561.472,3466.30
562.464,3435.73
563.456,3503.13
564.448,3511.27
565.440,3488.30
566.432,3538.87
567.423,3489.93
568.415,3477.70
569.404,3541.23
570.396,3519.27
571.387,3495.90
572.378,3518.10
573.369,3484.70
574.360,3565.23
575.351,3592.83
576.341,3549.93
577.332,3535.27
578.323,3571.73
579.313,3571.00
580.303,3546.37
581.293,3563.00
582.283,3620.10
583.273,3563.90
584.263,3545.33
585.253,3583.43
586.243,3570.80
587.232,3584.27
588.222,3588.70
589.211,3584.73
590.200,3607.30
591.189,3639.30
592.178,3600.07
593.167,3590.87
594.156,3549.47
595.145,3604.20
596.133,3592.57
597.122,3664.90
598.110,3562.90
599.098,3616.33
600.086,3612.53
601.074,3597.90
602.062,3624.27
603.050,3577.87
604.038,3566.83
605.025,3601.23
606.013,3615.40
607.000,3612.47
607.987,3641.73
608.975,3563.93
609.962,3577.37
610.949,3618.67
611.936,3573.00
612.922,3576.07
613.909,3495.27
614.895,3492.23
615.882,3561.17
616.868,3511.60
617.854,3530.30
618.841,3467.77
619.826,3483.87
620.812,3402.27
621.798,3453.13
622.784,3443.70
623.769,3389.53
624.755,3342.13
625.740,3338.40
626.725,3332.20
627.711,3294.07
628.698,3288.10
629.683,3263.83
630.667,3208.27
631.652,3217.77
632.637,3211.37
633.621,3205.53
634.606,3139.27
635.590,3175.77
636.574,3120.33
637.558,3117.60
638.542,3122.10
639.526,3086.43
640.510,3039.90
641.493,3086.03
642.477,3057.20
643.460,3033.87
644.444,3068.50
645.427,2995.73
646.410,2974.33
647.393,2963.73
648.376,3004.00
649.359,2931.27
650.341,2892.07
651.324,2912.13
652.307,2906.00
653.289,2867.97
654.271,2888.90
655.253,2887.13
656.235,2866.80
657.217,2847.80
658.199,2883.93
659.181,2812.40
660.163,2836.37
661.144,2790.93
662.126,2794.67
663.107,2800.73
664.088,2847.50
665.069,2700.50
666.050,2746.43
667.033,2749.43
668.014,2766.10
668.995,2747.93
669.975,2722.17
670.956,2700.70
671.936,2710.73
672.916,2682.03
673.896,2691.97
674.876,2685.27
675.856,2626.50
676.836,2619.37
677.816,2609.37
678.795,2629.60
679.775,2582.10
680.754,2577.97
681.734,2568.40
682.713,2524.10
683.692,2529.70
684.671,2497.90
685.650,2519.90
686.629,2451.30
687.607,2427.37
688.586,2452.33
689.564,2421.73
690.543,2461.87
691.523,2383.77
692.501,2339.63
693.479,2381.00
694.457,2363.40
695.435,2342.93
696.413,2342.07
697.390,2337.43
698.368,2330.90
699.345,2308.60
700.322,2289.27
701.300,2264.93
702.277,2244.57
703.254,2256.33
704.231,2249.30
705.207,2243.13
706.184,2243.73
707.161,2242.87
708.137,2252.37
709.113,2231.30
710.090,2142.77
711.068,2208.00
712.044,2200.60
713.020,2192.17
713.996,2169.13
714.971,2174.60
715.947,2172.73
716.922,2158.57
717.898,2116.00
718.873,2119.67
719.848,2122.90
720.823,2090.67
721.798,2113.30
722.773,2103.67
723.748,2101.80
724.723,2095.57
725.697,2067.60
726.672,2060.50
727.646,2094.17
728.622,2035.30
729.596,2073.90
730.570,2069.97
731.544,2058.03
732.518,2079.13
733.492,2050.80
734.466,2017.87
735.439,2023.67
736.413,2037.60
737.386,2008.70
738.359,1961.27
739.332,2006.73
740.305,1988.30
741.278,1974.23
742.251,2033.27
743.224,2008.90
744.196,1974.20
745.171,1974.40
746.143,1953.60
747.115,1970.60
748.087,1971.33
749.059,1994.90
750.031,1992.93
751.003,1960.97
751.975,1965.87
752.947,1969.50
753.918,1947.33
754.890,1899.23
755.861,1934.07
756.832,1950.80
757.803,1950.63
758.774,1902.93
759.747,1948.20
760.718,1893.90
761.689,1889.63
762.659,1885.67
763.630,1896.43
764.600,1896.60
765.570,1822.63
766.540,1873.90
767.510,1840.17
768.480,1855.50
769.450,1877.83
770.420,1862.03
771.390,1835.30
772.359,1777.43
773.329,1855.13
774.300,1871.97
775.269,1863.60
776.238,1805.13
777.207,1814.07
778.176,1780.53
779.145,1825.30
780.114,1827.40
781.083,1784.00
782.051,1766.13
783.019,1794.80
783.988,1770.40
784.956,1756.17
785.924,1762.63
786.894,1768.73
787.862,1753.13
788.830,1726.70
789.797,1760.57
790.765,1709.83
791.732,1735.07
792.700,1724.27
793.667,1693.80
794.634,1749.57
795.601,1658.30
796.568,1673.90
797.535,1650.97
798.502,1717.93
799.468,1685.30
800.437,1674.63
801.403,1674.47
802.370,1629.43
803.336,1659.20
804.302,1655.20
805.268,1640.83
806.234,1621.47
807.200,1643.80
808.166,1604.23
809.131,1614.97
810.097,1609.90
811.062,1648.77
812.027,1608.90
812.994,1621.13
813.960,1616.73
814.925,1594.33
815.889,1625.00
816.854,1570.13
817.819,1573.13
818.783,1600.77
819.748,1608.23
820.712,1604.97
821.677,1571.27
822.641,1568.50
823.605,1585.67
824.571,1587.10
825.534,1578.03
826.498,1593.03
827.462,1574.17
828.425,1562.03
829.389,1586.60
830.352,1587.57
831.315,1534.90
832.279,1568.03
833.242,1581.60
834.204,1575.80
835.167,1559.13
836.132,1554.97
837.095,1589.00
838.057,1595.07
839.020,1560.10
839.982,1539.73
840.944,1567.53
841.906,1561.70
842.868,1569.50
843.830,1563.50
844.792,1540.27
845.753,1564.43
846.715,1569.47
847.679,1540.73
848.640,1579.80
849.601,1508.23
850.562,1523.83
851.523,1546.50
852.484,1574.73
853.445,1520.23
854.406,1540.33
855.367,1509.63
856.327,1544.80
857.288,1521.00
858.248,1523.77
859.210,1552.87
860.170,1519.30
861.130,1524.10
862.090,1494.33
863.050,1514.33
864.010,1548.43
864.969,1528.53
865.929,1510.43
866.888,1553.00
867.848,1565.57
868.807,1539.77
869.766,1533.63
870.727,1490.83
871.686,1492.70
872.645,1501.90
873.604,1513.00
874.562,1533.00
875.521,1506.67
876.479,1475.27
877.437,1507.50
878.396,1511.73
879.354,1517.70
880.312,1494.23
881.270,1552.13
882.229,1519.93
883.187,1481.90
884.145,1495.97
885.102,1506.10
886.059,1481.83
887.017,1508.10
887.974,1481.87
888.931,1468.37
889.888,1492.33
890.845,1480.33
891.802,1464.60
892.758,1524.90
893.717,1522.43
894.673,1499.90
895.630,1497.80
896.586,1496.13
897.542,1530.83
898.498,1492.07
899.454,1515.67
900.410,1497.63
901.366,1513.57
902.321,1497.87
903.277,1524.73
904.232,1492.80
905.189,1549.87
906.145,1489.53
907.100,1510.30
908.055,1479.77
909.010,1487.50
909.965,1505.80
910.919,1541.53
911.874,1495.63
912.828,1492.10
913.783,1542.13
914.737,1504.37
915.693,1471.63
916.648,1534.10
917.602,1467.40
918.555,1473.40
919.509,1514.23
920.463,1520.07
921.417,1519.50
922.370,1517.17
923.324,1513.33
924.277,1540.00
925.230,1476.20
926.183,1496.00
927.138,1533.80
928.091,1490.40
929.044,1497.67
929.996,1508.27
930.949,1536.70
931.902,1502.43
932.854,1517.90
933.806,1541.50
934.758,1553.50
935.711,1532.60
936.663,1537.20
937.614,1521.70
938.568,1531.83
939.520,1484.23
940.471,1503.20
941.423,1524.43
942.374,1532.10
943.326,1566.57
944.277,1525.63
945.228,1515.40
946.179,1543.80
947.130,1491.70
948.080,1496.00
949.031,1514.93
949.984,1524.50
950.934,1530.80
951.884,1511.60
952.835,1525.97
953.785,1521.13
954.735,1526.77
955.685,1495.00
956.635,1504.43
957.585,1504.33
958.534,1514.70
959.484,1453.03
960.433,1510.27
961.383,1542.27
962.334,1520.67
963.283,1459.77
964.232,1503.93
965.181,1517.57
966.130,1472.60
967.079,1493.90
968.027,1500.20
968.976,1491.07
969.924,1486.17
970.873,1476.17
971.821,1496.07
972.769,1503.43
973.719,1516.73
974.667,1531.73
975.615,1505.37
976.562,1544.97
977.510,1514.93
978.458,1522.87
979.405,1516.37
980.352,1484.50
981.300,1499.00
982.247,1526.53
983.194,1539.60
984.141,1509.47
985.088,1519.93
986.036,1502.07
986.983,1514.83
987.930,1469.13
988.876,1473.90
989.822,1510.30
990.769,1525.77
991.715,1481.77
992.661,1531.90
993.607,1468.47
994.553,1471.20
995.498,1506.77
996.444,1510.57
997.389,1504.53
998.337,1524.57
999.282,1540.00
1000.227,1521.43
1001.173,1514.10
1002.118,1511.20
1003.062,1545.87
1004.007,1517.80
1004.952,1525.67
1005.897,1465.53
1006.841,1501.73
1007.786,1520.47
1008.730,1538.47
1009.674,1487.93
1010.618,1518.77
1011.564,1517.67
1012.508,1527.63
1013.452,1473.20
1014.396,1510.30
1015.339,1519.60
1016.283,1495.17
1017.226,1492.90
1018.170,1529.87
1019.113,1512.00
1020.056,1526.20
1020.999,1535.13
1021.942,1528.63
1022.885,1540.53
1023.828,1507.83
1024.770,1570.40
1025.715,1567.47
1026.657,1551.63
1027.600,1552.67
1028.542,1560.00
1029.484,1574.43
1030.426,1548.53
1031.368,1546.40
1032.310,1529.77
1033.251,1579.07
1034.193,1573.90
1035.135,1558.57
1036.076,1594.30
1037.017,1572.23
1037.959,1587.53
1038.900,1612.10
1039.843,1588.33
1040.784,1586.03
1041.725,1584.50
1042.665,1639.60
1043.606,1600.63
1044.547,1623.70
1045.487,1608.83
1046.427,1633.37
1047.368,1634.07
1048.308,1605.70
1049.248,1604.63
1050.188,1640.43
1051.128,1622.50
1052.067,1657.50
1053.007,1650.93
1053.947,1652.70
1054.886,1648.90
1055.827,1645.23
1056.766,1693.37
1057.706,1698.20
1058.645,1692.67
1059.584,1712.40
1060.522,1684.63
1061.461,1690.60
1062.400,1706.43
1063.338,1691.70
1064.277,1690.63
1065.215,1720.33
1066.154,1747.50
1067.092,1755.00
1068.030,1741.30
1068.968,1735.00
1069.906,1737.30
1070.843,1739.97
1071.781,1760.43
1072.720,1749.67
1073.658,1780.27
1074.595,1778.80
1075.533,1778.70
1076.470,1778.93
1077.407,1784.57
1078.344,1813.93
1079.281,1794.43
1080.217,1800.73
1081.154,1802.20
1082.091,1779.30
1083.027,1821.47
1083.964,1801.10
1084.900,1814.10
1085.836,1812.37
1086.772,1774.00
1087.708,1780.80
1088.644,1811.90
1089.580,1814.17
1090.515,1809.53
1091.451,1814.80
1092.388,1815.97
1093.324,1810.10
1094.259,1852.77
1095.194,1782.40
1096.129,1783.10
1097.064,1803.23
1097.999,1815.73
1098.934,1766.93
1099.869,1793.63
1100.803,1760.17
1101.738,1722.27
1102.672,1776.27
1103.607,1782.50
1104.541,1763.13
1105.475,1757.03
1106.409,1730.30
1107.343,1733.57
1108.277,1690.67
1109.210,1721.60
1110.144,1683.57
1111.078,1694.67
1112.011,1682.97
1112.944,1658.67
1113.878,1699.67
1114.811,1649.63
1115.744,1680.10
1116.678,1650.30
1117.611,1639.07
1118.544,1631.30
1119.477,1583.53
1120.409,1622.23
1121.342,1573.10
1122.274,1584.00
1123.206,1139.73
1124.138,1598.53
1125.070,1535.87
1126.002,1539.53
1126.934,1553.70
1127.866,1547.00
1128.798,1496.70
1129.729,1537.73
1130.661,1558.10
1131.592,1549.70
1132.523,1506.27
1133.454,1504.60
1134.385,1438.63
1135.317,1476.77
1136.247,1484.67
1137.178,1484.03
1138.109,1472.47
1139.039,1427.10
1139.970,1434.27
1140.900,1480.07
1141.831,1450.33
1142.761,1429.87
1143.691,1023.10
1144.621,1483.83
1145.551,1416.20
1146.480,1392.30
1147.410,1427.03
1148.340,1417.07
1149.269,1436.43
1150.199,1395.73
1151.128,1408.40
1152.057,1399.87
1152.979,1378.20
1153.898,1381.77
1154.819,1372.97
1155.739,1386.20
1156.658,1388.43
1157.579,1352.60
1158.498,1325.57
1159.419,1349.70
1160.338,1343.90
1161.256,1326.63
1162.177,1325.67
1163.095,1384.57
1164.016,1270.97
1164.934,1308.33
1165.852,1337.37
1166.772,1312.07
1167.690,1344.63
1168.610,1315.90
1169.528,1296.97
1170.446,1303.20
1171.365,1307.03
1172.283,1272.80
1173.202,1284.33
1174.120,1303.63
1175.037,1300.20
1175.956,1285.40
1176.873,1295.93
1177.792,1289.50
1178.709,1298.73
1179.626,1293.10
1180.544,1246.10
1181.461,1285.03
1182.379,1251.33
1183.296,1278.80
1184.212,1277.80
1185.130,1264.13
1186.046,1255.37
1186.962,1266.17
1187.880,1238.93
1188.796,1243.40
1189.714,1262.10
1190.629,1267.77
1191.545,1244.17
1192.462,1284.20
1193.378,1254.77
1194.295,1254.87
1195.210,1230.67
1196.125,1246.97
1197.042,1234.63
1197.957,1193.20
1198.872,1228.90
1199.788,1240.63
1200.703,1235.17
1201.619,1230.90
1202.534,1207.87
1203.448,1235.40
1204.364,1222.60
1205.278,1237.27
1206.192,1226.80
1207.108,1243.07
1208.022,1242.00
1208.938,1222.10
1209.851,1227.23
1210.765,1235.80
1211.680,1210.50
1212.594,1263.07
1213.507,1285.63
1214.422,1255.07
1215.335,1254.40
1216.248,1238.20
1217.163,1245.00
1218.076,1235.20
1218.990,1271.50
1219.903,1245.97
1220.816,1264.47
1221.730,1266.33
1222.642,1240.33
1223.554,1238.83
1224.469,1234.17
1225.380,1264.27
1226.292,1234.50
1227.206,1206.30
1228.118,1271.40
1229.032,1246.90
1229.943,1231.70
1230.855,1247.27
1231.768,1242.80
1232.679,1236.67
1233.590,1233.87
1234.503,1229.23
1235.414,1276.00
1236.325,1274.83
1237.238,1234.23
1238.149,1258.87
1239.059,1271.50
1239.972,1275.57
1240.882,1274.53
1241.793,1273.80
1242.705,1287.53
1243.615,1257.27
1244.525,1243.87
1245.437,1298.33
1246.347,1287.57
1247.259,1232.83
1248.168,1275.53
1249.078,1268.53
1249.989,1229.47
1250.899,1260.33
1251.808,1274.03
1252.719,1304.57
1253.628,1301.33
1254.537,1265.03
1255.448,1277.10
1256.357,1277.47
1257.266,1298.73
1258.176,1279.83
1259.085,1284.03
1259.993,1283.30
1260.904,1290.63
1261.812,1324.20
1262.720,1292.60
1263.630,1306.70
1264.538,1270.67
1265.446,1288.27
1266.356,1271.10
1267.263,1268.13
1268.171,1324.87
1269.080,1278.07
1269.988,1308.97
1270.895,1345.20
1271.804,1273.53
1272.711,1264.90
1273.619,1279.60
1274.527,1322.10
1275.434,1295.53
1276.341,1267.60
1277.248,1289.93
1278.156,1322.37
1279.063,1276.27
1279.969,1276.00
1280.877,1253.67
1281.783,1303.77
1282.690,1263.30
1283.598,1250.97
1284.503,1283.63
1285.409,1287.17
1286.317,1274.53
1287.223,1264.83
1288.128,1265.17
1289.036,1295.83
1289.941,1244.63
1290.846,1266.37
1291.751,1262.17
1292.658,1269.40
1293.563,1303.90
1294.468,1227.57
1295.375,1277.23
1296.280,1273.23
1297.184,1248.00
1298.091,1230.23
1298.995,1208.83
1299.900,1254.87
1300.806,1246.40
1301.710,1228.70
1302.614,1233.13
1303.518,1231.20
1304.424,1200.33
1305.327,1232.70
1306.231,1223.37
1307.137,1199.97
1308.040,1206.40
1308.943,1238.90
1309.847,1227.47
1310.752,1198.37
1311.655,1205.53
1312.558,1182.63
1313.463,1196.00
1314.366,1219.37
1315.269,1145.70
1316.171,1189.90
1317.076,1179.33
1317.978,1188.33
1318.881,1171.53
1319.785,1121.40
1320.687,1168.10
1321.589,1190.63
1322.491,1152.00
1323.395,1158.30
1324.297,1139.33
1325.198,1124.07
1326.102,1157.17
1327.004,1147.47
1327.905,1142.70
1328.806,1125.60
1329.709,1133.90
1330.611,1147.90
1331.512,1146.63
1332.413,1136.50
1333.316,1138.00
1334.216,1098.50
1335.117,1116.93
1336.020,1134.13
1336.920,1102.60
1337.821,1112.37
1338.721,1080.43
1339.623,1088.80
1340.523,1086.43
1341.423,1097.23
1342.323,1090.40
1343.225,1086.60
1344.125,1102.07
1345.025,1093.13
1345.924,1070.97
1346.826,1063.07
1347.725,1109.27
1348.624,1072.40
1349.524,1061.93
1350.425,1084.37
1351.324,1073.87
1352.223,1075.90
1353.121,1060.67
1354.022,1060.03
1354.921,1018.80
1355.819,1056.73
1356.718,1045.67
1357.618,1016.80
1358.516,1060.80
1359.415,1058.67
1360.313,1022.03
1361.213,1047.70
1362.111,1027.27
1363.008,1006.20
1363.906,1011.60
1364.806,984.73
1365.703,983.87
1366.601,1006.27
1367.498,979.60
1368.397,1006.63
1369.295,985.40
1370.192,981.40
1371.089,1013.83
1371.987,956.27
1372.884,1017.43
1373.781,1017.57
1374.678,950.03
1375.574,963.17
1376.473,973.87
1377.369,952.43
1378.265,975.57
1379.161,974.20
1380.059,949.23
1380.955,982.90
1381.851,1001.67
1382.747,934.67
1383.643,959.20
1384.540,953.73
1385.436,966.73
1386.331,966.27
1387.227,950.27
1388.124,926.93
1389.019,956.80
1389.914,977.33
1390.809,936.10
1391.704,932.53
1392.601,944.27
1393.495,930.00
1394.390,940.73
1395.285,924.37
1396.179,930.57
1397.075,950.10
1397.969,944.20
1398.864,930.83
1399.758,913.80
1400.652,896.63
1401.547,924.70
1402.441,892.63
1403.335,910.80
1404.229,911.43
1405.122,973.57
1406.017,904.20
1406.911,902.03
1407.804,943.43
1408.697,885.40
1409.590,889.57
1410.485,934.30
1411.378,939.73
1412.271,906.77
1413.163,897.13
1414.056,892.93
1414.949,886.77
1415.843,910.47
1416.735,913.53
1417.627,841.00
1418.520,896.23
1419.412,893.83
1420.306,915.47
1421.197,885.27
1422.089,903.90
1422.981,888.17
1423.873,863.77
1424.764,902.07
1425.657,882.57
1426.549,853.67
1427.440,874.57
1428.331,893.57
1429.222,829.70
1430.113,866.80
1431.006,858.37
1431.897,853.53
1432.787,870.50
1433.678,887.37
1434.568,830.10
1435.459,871.03
1436.351,862.10
1437.241,827.20
1438.131,861.63
1439.021,889.63
1439.911,851.13
1440.801,809.47
1441.693,863.33
1442.583,875.60
1443.472,871.73
1444.362,852.57
1445.251,844.57
1446.140,800.37
1447.030,848.50
1447.921,841.80
1448.810,845.97
1449.699,829.87
1450.588,843.23
1451.476,845.80
1452.365,857.53
1453.254,850.47
1454.144,854.27
1455.032,847.83
1455.921,805.17
1456.809,800.57
1457.697,810.27
1458.585,838.53
1459.473,831.23
1460.361,819.90
1461.251,781.97
1462.138,821.50
1463.026,856.03
1463.913,811.57
1464.801,867.77
1465.688,807.90
1466.575,824.47
1467.463,846.67
1468.351,809.07
1469.238,831.50
1470.125,825.47
1471.012,767.17
1471.899,821.43
1472.785,799.97
1473.672,807.50
1474.558,843.70
1475.446,833.30
1476.333,826.17
1477.219,800.20
1478.105,781.07
1478.991,794.93
1479.877,779.87
1480.762,814.47
1481.648,766.10
1482.534,809.23
1483.419,811.23
1484.307,804.93
1485.192,796.40
1486.077,803.80
1486.962,790.10
1487.847,790.57
1488.732,787.60
1489.617,813.17
1490.502,797.23
1491.387,818.23
1492.271,797.10
1493.156,789.20
1494.042,747.80
1494.927,812.07
1495.811,795.43
1496.695,771.23
1497.579,753.37
1498.463,763.33
1499.347,785.63
1500.231,772.03
1501.114,775.33
1501.998,764.37
1502.881,750.77
1503.765,775.90
1504.648,812.87
1505.533,781.07
1506.417,753.03
1507.300,758.60
1508.183,787.20
1509.066,765.80
1509.948,753.90
1510.831,769.13
1511.714,764.63
1512.596,787.33
1513.479,738.77
1514.361,741.33
1515.243,752.80
1516.125,762.30
1517.008,756.80
1517.890,777.83
1518.771,764.67
1519.655,784.37
1520.537,782.30
1521.419,762.90
1522.300,776.93
1523.182,747.63
1524.063,752.33
1524.944,734.43
1525.825,772.20
1526.707,725.80
1527.588,713.50
1528.468,750.03
1529.349,743.93
1530.230,747.30
1531.111,742.97
1531.991,768.30
1532.872,734.43
1533.752,712.40
1534.632,783.17
1535.513,746.67
1536.393,743.40
1537.273,720.97
1538.153,733.30
1539.032,699.60
1539.912,734.13
1540.792,735.43
1541.672,740.63
1542.551,733.23
1543.430,742.07
1544.310,707.90
1545.189,718.93
1546.068,741.40
1546.947,686.87
1547.826,720.40
1548.705,713.80
1549.584,728.43
1550.462,732.17
1551.341,707.80
1552.219,763.27
1553.098,688.67
1553.976,694.23
1554.854,692.90
1555.733,683.73
1556.611,709.27
1557.489,690.97
1558.367,714.07
1559.244,691.37
1560.122,702.00
1561.000,718.73
1561.877,714.83
1562.755,697.57
1563.632,744.90
1564.509,720.27
1565.386,706.70
1566.264,710.73
1567.141,689.53
1568.017,703.17
1568.894,688.60
1569.771,683.47
1570.648,681.03
1571.524,685.37
1572.401,659.03
1573.277,710.70
1574.153,708.37
1575.029,685.30
1575.906,666.00
1576.781,675.53
1577.657,678.43
1578.533,739.20
1579.409,716.37
1580.285,670.17
1581.160,698.57
1582.036,709.63
1582.911,675.23
1583.786,641.40
1584.662,675.00
1585.537,700.20
1586.412,672.20
1587.287,670.30
1588.160,720.07
1589.035,663.93
1589.909,671.07
1590.784,686.40
1591.658,718.20
1592.533,703.97
1593.407,691.97
1594.281,700.90
1595.155,686.27
1596.029,671.27
1596.903,678.93
1597.777,686.60
1598.651,674.73
1599.525,682.23
1600.398,664.27
1601.272,658.50
1602.144,690.87
1603.017,664.57
1603.890,677.40
1604.763,683.70
1605.636,663.37
1606.509,682.47
1607.382,688.57
1608.255,697.57
1609.128,683.10
1610.000,658.23
1610.873,672.77
1611.746,682.17
1612.616,654.77
1613.488,693.37
1614.361,698.67
1615.233,670.60
1616.105,666.13
1616.977,666.93
1617.849,669.27
1618.720,679.33
1619.592,678.20
1620.464,627.73
1621.333,658.43
1622.205,653.47
1623.076,649.83
1623.947,666.57
1624.818,671.77
1625.689,662.10
1626.560,651.33
1627.431,651.00
1628.302,665.43
1629.171,660.03
1630.042,668.10
1630.912,643.40
1631.782,692.07
1632.653,689.07
1633.523,661.77
1634.393,700.37
1635.263,647.57
1636.131,650.77
1637.001,688.37
1637.871,679.57
1638.741,635.50
1639.611,691.77
1640.480,664.17
1641.350,641.57
1642.219,647.63
1643.087,669.53
1643.956,675.03
1644.825,656.27
1645.694,688.03
1646.563,664.53
1647.432,654.37
1648.299,644.17
1649.167,669.20
1650.036,649.13
1650.904,613.40
1651.773,641.10
1652.641,637.53
1653.509,650.87
1654.376,633.77
1655.244,667.43
1656.112,630.37
1656.980,620.00
1657.847,645.60
1658.715,635.73
1659.581,653.83
1660.448,661.63
1661.316,649.83
1662.183,641.40
1663.051,635.60
1663.918,646.53
1664.783,631.60
1665.650,626.43
1666.517,625.53
1667.384,632.10
1668.251,659.10
1669.115,656.17
1669.982,635.07
1670.849,664.63
1671.715,657.30
1672.581,675.07
1673.446,652.00
1674.312,639.97
1675.178,640.13
1676.044,651.83
1676.910,622.13
1677.774,656.70
1678.639,643.30
1679.505,612.67
1680.370,658.50
1681.236,656.87
1682.099,665.43
1682.965,619.87
1683.830,636.13
1684.695,638.83
1685.560,683.60
1686.423,626.80
1687.288,606.87
1688.153,624.87
1689.017,634.77
1689.880,655.57
1690.745,608.23
1691.609,603.77
1692.473,636.87
1693.338,589.13
1694.200,617.83
1695.064,617.47
1695.928,608.03
1696.792,625.57
1697.654,630.30
1698.517,608.83
1699.381,602.07
1700.245,636.20
1701.106,623.90
1701.969,617.97
1702.833,616.87
1703.696,613.80
1704.557,573.50
1705.420,619.20
1706.283,639.10
1707.146,604.37
1708.007,642.53
1708.870,594.17
1709.732,631.77
1710.595,625.83
1711.455,591.13
1712.318,610.53
1713.180,614.40
1714.040,617.33
1714.902,628.73
1715.764,590.23
1716.626,635.27
1717.486,596.37
1718.348,613.53
1719.209,221.77
1720.071,601.20
1720.930,618.00
1721.792,605.30
1722.653,622.83
1723.512,610.63
1724.374,586.17
1725.234,636.10
1726.095,613.87
1726.954,587.23
1727.815,590.87
1728.676,607.63
1729.535,600.57
1730.395,584.90
1731.256,589.93
1732.114,608.87
1732.974,608.17
1733.834,607.93
1734.693,608.07
1735.553,581.50
1736.413,579.67
1737.272,607.10
1738.130,626.50
1738.990,603.90
1739.849,617.30
1740.707,618.47
1741.566,610.90
1742.426,602.50
1743.283,614.23
1744.142,590.40
1745.001,565.73
1745.858,608.13
1746.717,606.43
1747.576,610.47
1748.433,614.17
1749.292,609.17
1750.150,625.17
1751.007,625.27
1751.865,594.40
1752.723,616.43
1753.579,563.07
1754.438,587.03
1755.296,578.30
1756.152,571.27
1757.010,622.13
1757.865,583.37
1758.723,587.57
1759.581,601.70
1760.436,571.27
1761.294,590.80
1762.151,603.97
1763.006,628.43
1763.864,582.17
1764.721,580.73
1765.576,615.10
1766.433,595.77
1767.288,584.80
1768.144,597.80
1769.001,591.83
1769.856,596.83
1770.712,597.37
1771.568,574.93
1772.423,587.90
1773.279,612.37
1774.133,557.50
1774.989,557.50
1775.845,579.33
1776.699,581.60
1777.555,591.30
1778.409,550.00
1779.265,613.10
1780.120,571.40
1780.974,562.37
1781.829,605.63
1782.682,560.47
1783.538,604.13
1784.393,594.13
1785.246,611.97
1786.101,584.13
1786.954,628.83
1787.808,583.13
1788.661,580.13
1789.516,612.83
1790.370,570.03
1791.223,590.70
1792.077,602.27
1792.930,543.50
1793.784,580.80
1794.636,589.03
1795.490,548.67
1796.344,581.17
1797.196,545.63
1798.049,575.87
1798.901,559.00
1799.755,562.37
1800.606,559.17
1801.460,590.80
1802.311,579.47
1803.165,577.93
1804.018,569.53
1804.869,576.13
1805.722,563.60
1806.573,580.30
1807.426,584.73
1808.276,580.97
1809.129,556.37
1809.980,572.33
1810.832,570.87
1811.683,547.20
1812.535,527.37
1813.385,575.13
1814.237,623.30
1815.089,566.97
1815.940,604.43
1816.791,547.63
1817.641,554.67
1818.493,593.73
1819.343,583.03
1820.194,546.93
1821.044,599.17
1821.895,587.80
1822.745,579.27
1823.596,577.03
1824.445,608.27
1825.296,577.40
1826.145,545.10
1826.996,575.00
1827.845,590.30
1828.695,568.17
1829.544,558.23
1830.395,535.80
1831.243,577.70
1832.094,600.90
1832.942,538.00
1833.792,547.53
1834.640,578.77
1835.490,538.70
1836.338,584.43
1837.186,572.00
1838.036,573.00
1838.884,548.97
1839.733,558.13
1840.581,551.23
1841.430,558.43
1842.278,543.37
1843.127,550.77
1843.974,555.97
1844.823,561.07
1845.671,563.90
1846.519,565.70
1847.366,519.83
1848.213,555.37
1849.062,592.07
1849.909,547.00
1850.757,528.20
1851.604,526.73
1852.452,571.77
1853.298,542.50
1854.146,514.27
1854.993,521.30
1855.839,546.67
1856.687,534.77
1857.532,545.00
1858.380,556.20
1859.226,557.43
1860.073,556.23
1860.919,593.13
1861.765,546.47
1862.612,554.33
1863.457,569.43
1864.304,536.03
1865.150,550.83
1865.995,569.70
1866.842,593.47
1867.686,536.20
1868.533,571.47
1869.378,524.50
1870.223,579.73
1871.069,545.33
1871.914,531.23
1872.760,542.13
1873.604,527.83
1874.448,532.13
1875.294,534.20
1876.139,533.67
1876.984,580.20
1877.828,555.90
1878.672,562.80
1879.518,522.07
1880.361,562.87
1881.205,530.37
1882.050,558.93
1882.894,554.67
1883.739,531.90
1884.582,579.43
1885.425,517.43
1886.270,570.87
1887.113,554.13
1887.956,524.37
1888.801,541.40
1889.644,555.93
1890.486,525.80
1891.331,558.00
1892.173,530.60
1893.017,512.97
1893.860,572.40
1894.702,557.77
1895.546,526.97
1896.388,572.40
1897.230,556.70
1898.074,533.37
1898.916,539.63
1899.757,534.17
1900.601,517.70
1901.443,532.23
1902.284,553.93
1903.125,562.43
1903.969,513.50
1904.810,559.70
1905.651,531.53
1906.494,528.27
1907.335,524.77
1908.176,555.60
1909.018,533.23
1909.859,560.10
1910.700,555.73
1911.542,568.37
1912.383,518.23
1913.223,560.93
1914.064,578.00
1914.906,539.77
1915.746,562.30
1916.586,548.10
1917.428,550.97
1918.268,537.60
1919.107,546.53
1919.947,516.00
1920.789,553.70
1921.628,505.23
1922.468,542.23
1923.309,499.37
1924.148,518.93
1924.988,559.60
1925.827,506.73
1926.667,552.20
1927.507,552.00
1928.345,529.10
1929.184,543.00
1930.025,572.30
1930.864,518.00
1931.702,548.20
1932.541,545.60
1933.381,536.90
1934.219,530.13
1935.057,514.00
1935.896,550.00
1936.735,522.90
1937.573,519.30
1938.411,523.37
1939.249,553.10
1940.089,529.37
1940.927,533.37
1941.764,554.73
1942.602,520.00
1943.439,554.73
1944.278,514.23
1945.115,546.60
1945.953,533.60
1946.790,561.77
1947.628,524.93
1948.465,496.27
1949.302,519.60
1950.139,465.20
1950.976,534.70
1951.814,556.73
1952.651,548.33
1953.487,529.10
1954.323,515.03
1955.160,497.40
1955.998,531.70
1956.834,529.90
1957.670,524.37
1958.506,523.20
1959.342,512.60
1960.177,525.33
1961.015,584.63
1961.850,519.57
1962.686,546.87
1963.521,511.57
1964.357,522.83
1965.192,499.90
1966.029,567.03
1966.864,523.37
1967.699,521.40
1968.534,506.77
1969.369,513.23
1970.204,514.80
1971.040,493.50
1971.875,503.40
1972.709,542.07
1973.544,539.70
1974.378,503.97
1975.212,538.43
1976.047,520.97
1976.882,524.07
1977.716,487.73
1978.550,529.13
1979.384,514.47
1980.218,540.40
1981.052,505.33
1981.885,518.43
1982.719,532.50
1983.554,512.93
1984.388,524.27
1985.221,515.80
1986.054,554.90
1986.887,546.63
1987.720,504.77
1988.553,539.17
1989.386,515.27
1990.219,504.80
1991.053,492.90
1991.886,547.57
1992.719,538.33
1993.551,508.63
1994.383,509.73
1995.216,510.50
1996.048,472.87
1996.880,514.50
1997.712,542.43
1998.544,553.40
1999.376,486.23
2000.208,453.17
2000.208,453.17

Max Intensity Wave.,218.899
Max Intensity Data,5847.77
Min Intensity Wave.,1719.209
Min Intensity Data,221.77
FWHM Wave.,398.922
FWHM Value,3.20
Pressure Wave.,685.398
Pressure Value [GPa],-23.02158
G/D Ratio,0.61266
G/D Gband Wave.,1552.155
G/D Gband Intensity,763.62
G/D Dband Wave.,1300.806
G/D Dband Intensity,1246.40

<< BACKGROUND SPECTRUM >>
Wave[dcm-1],No208
146.591,2251.00
147.626,2102.00
148.664,2016.00
149.699,2504.00
150.737,2244.00
151.772,2410.00
152.809,2361.00
153.846,2301.00
154.881,2381.00
155.918,1933.00
156.953,2277.00
157.989,2591.00
159.026,2406.00
160.060,2603.00
161.096,2839.00
162.130,2462.00
163.167,2507.00
164.200,2444.00
165.236,2594.00
166.272,2643.00
167.305,2284.00
168.341,2514.00
169.374,2748.00
170.409,2757.00
171.445,2699.00
172.477,2480.00
173.512,2372.00
174.545,2656.00
175.580,2863.00
176.614,3007.00
177.647,2805.00
178.681,3013.00
179.713,3325.00
180.747,2763.00
181.781,2711.00
182.813,2947.00
183.847,3063.00
184.878,2682.00
185.912,2999.00
186.945,3103.00
187.976,3035.00
189.010,2695.00
190.043,2824.00
191.073,2898.00
192.106,2715.00
193.137,3155.00
194.170,2555.00
195.202,2876.00
196.232,2657.00
197.265,2955.00
198.297,3063.00
199.327,2762.00
200.359,2964.00
201.388,3315.00
202.420,2870.00
203.452,3070.00
204.481,2677.00
205.512,3296.00
206.544,3078.00
207.573,3053.00
208.604,3384.00
209.635,3506.00
210.663,2916.00
211.694,2964.00
212.725,2830.00
213.753,2776.00
214.783,3404.00
215.813,3253.00
216.841,2997.00
217.871,3136.00
218.899,2869.00
219.929,3101.00
220.959,2899.00
221.986,3163.00
223.016,2749.00
224.045,3155.00
225.072,3090.00
226.101,3166.00
227.130,3239.00
228.157,2851.00
229.185,2359.00
230.214,3173.00
231.241,2812.00
232.269,2474.00
233.297,2675.00
234.323,3195.00
235.351,2799.00
236.379,3088.00
237.407,2736.00
238.433,2950.00
239.460,3091.00
240.488,3111.00
241.513,3200.00
242.540,3093.00
243.568,3168.00
244.592,3210.00
245.619,3211.00
246.646,2936.00
247.671,2930.00
248.697,2781.00
249.724,3032.00
250.748,2967.00
251.774,3012.00
252.801,3260.00
253.827,3103.00
254.850,3032.00
255.876,2658.00
256.902,3144.00
257.925,2997.00
258.951,2742.00
259.976,2772.00
260.999,3101.00
262.024,2733.00
263.049,3587.00
264.074,3124.00
265.097,2973.00
266.122,3067.00
267.146,2999.00
268.168,3171.00
269.193,2848.00
270.217,3234.00
271.241,2731.00
272.263,2895.00
273.287,3179.00
274.311,2757.00
275.332,3292.00
276.356,2867.00
277.379,3122.00
278.402,3111.00
279.424,2943.00
280.447,2865.00
281.470,2690.00
282.492,3040.00
283.513,2859.00
284.536,3151.00
285.558,3143.00
286.581,3081.00
287.601,2845.00
288.623,2771.00
289.645,3050.00
290.665,3139.00
291.687,3111.00
292.709,3094.00
293.730,3367.00
294.750,2856.00
295.771,2751.00
296.792,3067.00
297.813,2948.00
298.832,3003.00
299.853,2705.00
300.874,2963.00
301.895,2947.00
302.913,2936.00
303.934,3263.00
304.954,3011.00
305.975,3178.00
306.993,2698.00
308.013,3124.00
309.033,3014.00
310.052,2930.00
311.072,2924.00
312.090,3044.00
313.109,3228.00
314.129,3380.00
315.148,2961.00
316.165,3056.00
317.184,3232.00
318.203,2712.00
319.222,2748.00
320.238,3099.00
321.257,2796.00
322.275,2696.00
323.294,2992.00
324.312,3184.00
325.328,3222.00
326.346,3292.00
327.364,3212.00
328.382,3129.00
329.397,3116.00
330.415,3240.00
331.432,3224.00
332.450,3205.00
333.467,3411.00
334.482,2601.00
335.499,3312.00
336.516,2876.00
337.533,2550.00
338.547,2843.00
339.564,2851.00
340.580,3052.00
341.597,2952.00
342.613,3424.00
343.627,2995.00
344.643,3047.00
345.659,3116.00
346.675,2968.00
347.690,2868.00
348.704,3099.00
349.719,2855.00
350.735,2749.00
351.750,3136.00
352.765,2980.00
353.778,2971.00
354.793,3143.00
355.808,2823.00
356.822,3172.00
357.837,2629.00
358.851,3227.00
359.864,2934.00
360.878,2690.00
361.892,2936.00
362.906,3179.00
363.920,2626.00
364.932,3084.00
365.945,3072.00
366.959,2977.00
367.972,2947.00
368.986,2728.00
369.999,3401.00
371.010,2868.00
372.023,3343.00
373.036,2934.00
374.049,3340.00
375.061,3051.00
376.072,3024.00
377.084,2847.00
378.097,2696.00
379.109,3200.00
380.121,2991.00
381.133,2664.00
382.143,3115.00
383.155,2725.00
384.166,2896.00
385.178,3114.00
386.189,3184.00
387.201,2691.00
388.212,2938.00
389.221,2909.00
390.232,2976.00
391.243,2929.00
392.254,3027.00
393.264,2792.00
394.275,3222.00
395.283,3161.00
396.294,3615.00
397.304,3498.00
398.314,3088.00
399.324,3036.00
400.334,2650.00
401.344,3143.00
402.351,2676.00
403.361,3213.00
404.370,2976.00
405.380,2900.00
406.389,3306.00
407.398,3144.00
408.407,3054.00
409.414,3173.00
410.423,3297.00
411.431,2733.00
412.440,2685.00
413.448,3324.00
414.457,2835.00
415.465,2778.00
416.471,2882.00
417.479,3027.00
418.487,2809.00
419.495,3299.00
420.503,3069.00
421.510,2597.00
422.518,3210.00
423.525,3134.00
424.530,3410.00
425.537,2907.00
426.544,3210.00
427.551,2869.00
428.558,3609.00
429.565,3393.00
430.571,2910.00
431.578,2892.00
432.582,2866.00
433.588,2939.00
434.595,2634.00
435.601,3252.00
436.607,3205.00
437.612,2740.00
438.618,3323.00
439.624,2957.00
440.627,2961.00
441.633,3118.00
442.638,3601.00
443.643,3071.00
444.648,3022.00
445.653,3143.00
446.658,2901.00
447.663,2991.00
448.667,2866.00
449.672,2912.00
450.674,2999.00
451.678,2695.00
452.682,2854.00
453.687,2809.00
454.690,3577.00
455.694,3207.00
456.698,2594.00
457.702,2632.00
458.705,2779.00
459.709,2795.00
460.710,2855.00
461.713,2993.00
462.716,3068.00
463.719,2999.00
464.722,3183.00
465.725,2962.00
466.727,2838.00
467.730,3053.00
468.732,2754.00
469.735,3315.00
470.737,2877.00
471.737,2896.00
472.739,2879.00
473.741,2800.00
474.742,3075.00
475.744,3087.00
476.746,3064.00
477.747,2986.00
478.748,3101.00
479.750,2954.00
480.751,3014.00
481.752,3732.00
482.753,3041.00
483.751,3550.00
484.752,2624.00
485.753,2973.00
486.753,2868.00
487.753,2979.00
488.754,3421.00
489.754,2688.00
490.754,3290.00
491.754,3128.00
492.754,2670.00
493.753,2999.00
494.753,2924.00
495.752,3304.00
496.752,3036.00
497.749,2992.00
498.748,2847.00
499.747,3372.00
500.746,3064.00
501.745,2764.00
502.744,2765.00
503.742,3302.00
504.741,2925.00
505.739,2468.00
506.737,2889.00
507.735,3143.00
508.734,3361.00
509.732,3134.00
510.729,3325.00
511.727,2886.00
512.725,2898.00
513.720,2775.00
514.718,3213.00
515.715,2667.00
516.712,2620.00
517.709,3036.00
518.706,2923.00
519.703,3043.00
520.700,3195.00
521.696,3392.00
522.693,2888.00
523.689,2847.00
524.686,3151.00
525.682,2779.00
526.678,3488.00
527.674,2889.00
528.670,2574.00
529.666,3478.00
530.661,3454.00
531.657,3648.00
532.652,3134.00
533.648,2992.00
534.641,3165.00
535.636,3044.00
536.631,3077.00
537.626,3172.00
538.621,2740.00
539.616,2587.00
540.610,2512.00
541.605,3055.00
542.599,3044.00
543.593,2960.00
544.587,3923.00
545.581,2824.00
546.575,3023.00
547.569,3052.00
548.563,2652.00
549.557,2639.00
550.550,2776.00
551.543,2739.00
552.537,3161.00
553.530,2753.00
554.523,2742.00
555.516,3084.00
556.509,2938.00
557.502,2627.00
558.494,3191.00
559.487,2920.00
560.479,3144.00
561.472,3229.00
562.464,3163.00
563.456,3247.00
564.448,2929.00
565.440,2996.00
566.432,3327.00
567.423,2886.00
568.415,2915.00
569.404,3075.00
570.396,2809.00
571.387,3147.00
572.378,3004.00
573.369,3974.00
574.360,3643.00
575.351,2911.00
576.341,2826.00
577.332,2881.00
578.323,2641.00
579.313,2871.00
580.303,3250.00
581.293,3128.00
582.283,2939.00
583.273,3114.00
584.263,3031.00
585.253,3096.00
586.243,3168.00
587.232,2659.00
588.222,2948.00
589.211,3174.00
590.200,3056.00
591.189,2916.00
592.178,2959.00
593.167,3412.00
594.156,3288.00
595.145,2905.00
596.133,3464.00
597.122,3051.00
598.110,3232.00
599.098,3040.00
600.086,2995.00
601.074,3193.00
602.062,2822.00
603.050,2757.00
604.038,3137.00
605.025,2783.00
606.013,3198.00
607.000,3377.00
607.987,2990.00
608.975,3062.00
609.962,2786.00
610.949,3097.00
611.936,3258.00
612.922,3141.00
613.909,2748.00
614.895,3365.00
615.882,2814.00
616.868,2996.00
617.854,2706.00
618.841,3009.00
619.826,3046.00
620.812,3005.00
621.798,2773.00
622.784,3125.00
623.769,3066.00
624.755,2709.00
625.740,3043.00
626.725,2723.00
627.711,2871.00
628.698,3053.00
629.683,2779.00
630.667,3186.00
631.652,2751.00
632.637,2938.00
633.621,3119.00
634.606,2926.00
635.590,3072.00
636.574,2946.00
637.558,3052.00
638.542,3023.00
639.526,2808.00
640.510,2633.00
641.493,3000.00
642.477,2969.00
643.460,2683.00
644.444,3165.00
645.427,3215.00
646.410,2669.00
647.393,2975.00
648.376,3026.00
649.359,2911.00
650.341,3091.00
651.324,3086.00
652.307,3027.00
653.289,2965.00
654.271,2862.00
655.253,2890.00
656.235,3105.00
657.217,3239.00
658.199,2610.00
659.181,2772.00
660.163,2976.00
661.144,2859.00
662.126,2875.00
663.107,2768.00
664.088,6116.00
665.069,3297.00
666.050,2815.00
667.033,2714.00
668.014,3029.00
668.995,2573.00
669.975,2990.00
670.956,2991.00
671.936,3113.00
672.916,2947.00
673.896,3083.00
674.876,2893.00
675.856,2874.00
676.836,2743.00
677.816,2323.00
678.795,2791.00
679.775,2698.00
680.754,3021.00
681.734,3111.00
682.713,3147.00
683.692,2766.00
684.671,2664.00
685.650,2727.00
686.629,2870.00
687.607,2759.00
688.586,2748.00
689.564,2856.00
690.543,3207.00
691.523,2389.00
692.501,2858.00
693.479,2925.00
694.457,2788.00
695.435,2870.00
696.413,2663.00
697.390,2496.00
698.368,2658.00
699.345,3101.00
700.322,2945.00
701.300,3090.00
702.277,3077.00
703.254,3245.00
704.231,2567.00
705.207,2967.00
706.184,2777.00
707.161,2655.00
708.137,2786.00
709.113,2774.00
710.090,2871.00
711.068,2575.00
712.044,2598.00
713.020,2876.00
713.996,2608.00
714.971,2794.00
715.947,2834.00
716.922,2793.00
717.898,2764.00
718.873,2881.00
719.848,2720.00
720.823,2716.00
721.798,2970.00
722.773,2757.00
723.748,2534.00
724.723,3004.00
725.697,2852.00
726.672,2788.00
727.646,2498.00
728.622,2984.00
729.596,2588.00
730.570,2724.00
731.544,3068.00
732.518,3229.00
733.492,2801.00
734.466,2876.00
735.439,3009.00
736.413,3104.00
737.386,2471.00
738.359,2486.00
739.332,2533.00
740.305,2850.00
741.278,3312.00
742.251,2874.00
743.224,2712.00
744.196,2563.00
745.171,3141.00
746.143,3041.00
747.115,2781.00
748.087,2708.00
749.059,3054.00
750.031,2870.00
751.003,3655.00
751.975,3231.00
752.947,2669.00
753.918,3064.00
754.890,2608.00
755.861,2750.00
756.832,2986.00
757.803,2810.00
758.774,2841.00
759.747,2568.00
760.718,3193.00
761.689,2741.00
762.659,2601.00
763.630,3127.00
764.600,2520.00
765.570,3078.00
766.540,3118.00
767.510,2959.00
768.480,3038.00
769.450,2696.00
770.420,2797.00
771.390,2632.00
772.359,2803.00
773.329,2648.00
774.300,2481.00
775.269,2703.00
776.238,2984.00
777.207,3151.00
778.176,2528.00
779.145,2767.00
780.114,2646.00
781.083,2561.00
782.051,2762.00
783.019,2668.00
783.988,3086.00
784.956,2856.00
785.924,2966.00
786.894,2852.00
787.862,2696.00
788.830,3161.00
789.797,2605.00
790.765,2613.00
791.732,2749.00
792.700,2644.00
793.667,2610.00
794.634,2723.00
795.601,2783.00
796.568,2810.00
797.535,2868.00
798.502,3401.00
799.468,2906.00
800.437,2403.00
801.403,2645.00
802.370,3289.00
803.336,2983.00
804.302,2872.00
805.268,2471.00
806.234,2562.00
807.200,2719.00
808.166,2798.00
809.131,2589.00
810.097,2990.00
811.062,3625.00
812.027,3022.00
812.994,2600.00
813.960,2607.00
814.925,2948.00
815.889,2490.00
816.854,3036.00
817.819,2661.00
818.783,2718.00
819.748,3080.00
820.712,2732.00
821.677,2681.00
822.641,2714.00
823.605,2701.00
824.571,3117.00
825.534,2736.00
826.498,2675.00
827.462,2797.00
828.425,2619.00
829.389,3047.00
830.352,2816.00
831.315,2923.00
832.279,2502.00
833.242,2722.00
834.204,2638.00
835.167,2656.00
836.132,3071.00
837.095,2489.00
838.057,2664.00
839.020,2808.00
839.982,2860.00
840.944,2671.00
841.906,2634.00
842.868,2949.00
843.830,2528.00
844.792,3049.00
845.753,2655.00
846.715,2421.00
847.679,2599.00
848.640,2581.00
849.601,2770.00
850.562,3263.00
851.523,2695.00
852.484,2442.00
853.445,2995.00
854.406,2700.00
855.367,2746.00
856.327,3034.00
857.288,2525.00
858.248,2683.00
859.210,2677.00
860.170,2525.00
861.130,3013.00
862.090,2458.00
863.050,2638.00
864.010,2654.00
864.969,2890.00
865.929,2595.00
866.888,2500.00
867.848,2793.00
868.807,2633.00
869.766,2840.00
870.727,2739.00
871.686,2997.00
872.645,3010.00
873.604,3294.00
874.562,2749.00
875.521,2802.00
876.479,3379.00
877.437,2589.00
878.396,2597.00
879.354,3162.00
880.312,2608.00
881.270,2619.00
882.229,3078.00
883.187,2642.00
884.145,2673.00
885.102,2920.00
886.059,2847.00
887.017,2884.00
887.974,2973.00
888.931,3102.00
889.888,2532.00
890.845,2454.00
891.802,2380.00
892.758,2622.00
893.717,2429.00
894.673,2568.00
895.630,2640.00
896.586,2904.00
897.542,2649.00
898.498,2538.00
899.454,2845.00
900.410,2677.00
901.366,2648.00
902.321,2619.00
903.277,2664.00
904.232,2747.00
905.189,2431.00
906.145,2665.00
907.100,2210.00
908.055,2717.00
909.010,2930.00
909.965,2342.00
910.919,2754.00
911.874,2568.00
912.828,2771.00
913.783,2741.00
914.737,2365.00
915.693,2788.00
916.648,2880.00
917.602,2979.00
918.555,2819.00
919.509,2839.00
920.463,2752.00
921.417,2745.00
922.370,2566.00
923.324,2682.00
924.277,2627.00
925.230,2781.00
926.183,2434.00
927.138,2672.00
928.091,2961.00
929.044,2822.00
929.996,2650.00
930.949,2636.00
931.902,2844.00
932.854,2839.00
933.806,2545.00
934.758,2929.00
935.711,2972.00
936.663,2765.00
937.614,2791.00
938.568,2726.00
939.520,2426.00
940.471,2732.00
941.423,2790.00
942.374,2882.00
943.326,2712.00
944.277,2601.00
945.228,2852.00
946.179,2689.00
947.130,3060.00
948.080,2692.00
949.031,2575.00
949.984,2677.00
950.934,2691.00
951.884,2485.00
952.835,2692.00
953.785,2726.00
954.735,2582.00
955.685,2363.00
956.635,2626.00
957.585,2636.00
958.534,2621.00
959.484,2781.00
960.433,2598.00
961.383,2433.00
962.334,2936.00
963.283,2819.00
964.232,2838.00
965.181,2689.00
966.130,2814.00
967.079,2621.00
968.027,2723.00
968.976,2741.00
969.924,2623.00
970.873,2828.00
971.821,2742.00
972.769,2919.00
973.719,2830.00
974.667,2454.00
975.615,2709.00
976.562,2661.00
977.510,2399.00
978.458,2600.00
979.405,2809.00
980.352,2786.00
981.300,2963.00
982.247,2771.00
983.194,2516.00
984.141,2622.00
985.088,2721.00
986.036,2775.00
986.983,2994.00
987.930,3152.00
988.876,2405.00
989.822,2943.00
990.769,2522.00
991.715,2613.00
992.661,2401.00
993.607,2822.00
994.553,3290.00
995.498,2592.00
996.444,2274.00
997.389,2771.00
998.337,2497.00
999.282,2832.00
1000.227,2633.00
1001.173,2705.00
1002.118,2443.00
1003.062,2871.00
1004.007,2672.00
1004.952,2975.00
1005.897,2971.00
1006.841,2683.00
1007.786,2450.00
1008.730,2397.00
1009.674,3187.00
1010.618,2651.00
1011.564,2506.00
1012.508,2393.00
1013.452,2979.00
1014.396,2735.00
1015.339,2631.00
1016.283,2721.00
1017.226,2766.00
1018.170,2690.00
1019.113,2910.00
1020.056,2727.00
1020.999,2718.00
1021.942,2596.00
1022.885,2844.00
1023.828,3024.00
1024.770,2482.00
1025.715,2732.00
1026.657,2668.00
1027.600,2745.00
1028.542,2912.00
1029.484,2720.00
1030.426,2873.00
1031.368,2785.00
1032.310,2618.00
1033.251,2521.00
1034.193,2685.00
1035.135,2507.00
1036.076,2611.00
1037.017,2541.00
1037.959,2815.00
1038.900,2731.00
1039.843,2803.00
1040.784,2758.00
1041.725,2810.00
1042.665,2586.00
1043.606,2778.00
1044.547,2735.00
1045.487,2381.00
1046.427,2661.00
1047.368,2756.00
1048.308,2260.00
1049.248,2522.00
1050.188,2691.00
1051.128,2630.00
1052.067,2641.00
1053.007,2396.00
1053.947,2404.00
1054.886,2579.00
1055.827,2505.00
1056.766,2882.00
1057.706,2445.00
1058.645,2653.00
1059.584,2706.00
1060.522,2959.00
1061.461,2445.00
1062.400,2474.00
1063.338,2663.00
1064.277,2512.00
1065.215,2507.00
1066.154,2374.00
1067.092,2565.00
1068.030,2639.00
1068.968,2860.00
1069.906,2991.00
1070.843,2956.00
1071.781,2735.00
1072.720,2818.00
1073.658,2812.00
1074.595,2578.00
1075.533,2548.00
1076.470,2583.00
1077.407,2977.00
1078.344,2744.00
1079.281,2805.00
1080.217,2308.00
1081.154,2654.00
1082.091,2751.00
1083.027,2433.00
1083.964,2930.00
1084.900,2545.00
1085.836,2600.00
1086.772,2910.00
1087.708,2486.00
1088.644,2828.00
1089.580,2683.00
1090.515,2740.00
1091.451,2592.00
1092.388,2696.00
1093.324,2440.00
1094.259,3187.00
1095.194,2780.00
1096.129,2625.00
1097.064,2560.00
1097.999,2789.00
1098.934,2558.00
1099.869,2552.00
1100.803,2723.00
1101.738,2757.00
1102.672,2374.00
1103.607,2784.00
1104.541,2540.00
1105.475,2530.00
1106.409,2426.00
1107.343,2597.00
1108.277,2460.00
1109.210,2701.00
1110.144,2696.00
1111.078,2669.00
1112.011,2442.00
1112.944,2776.00
1113.878,2698.00
1114.811,2201.00
1115.744,2551.00
1116.678,2309.00
1117.611,2553.00
1118.544,2592.00
1119.477,2775.00
1120.409,2554.00
1121.342,3146.00
1122.274,2754.00
1123.206,4225.00
1124.138,2650.00
1125.070,2992.00
1126.002,2864.00
1126.934,2293.00
1127.866,2559.00
1128.798,2369.00
1129.729,2380.00
1130.661,2633.00
1131.592,2530.00
1132.523,2742.00
1133.454,2746.00
1134.385,2352.00
1135.317,2667.00
1136.247,2573.00
1137.178,2849.00
1138.109,2373.00
1139.039,3049.00
1139.970,2843.00
1140.900,2539.00
1141.831,2342.00
1142.761,2243.00
1143.691,3278.00
1144.621,2591.00
1145.551,2706.00
1146.480,2708.00
1147.410,2842.00
1148.340,2301.00
1149.269,2331.00
1150.199,2584.00
1151.128,3021.00
1152.057,2437.00
1152.979,2571.00
1153.898,2627.00
1154.819,2724.00
1155.739,2618.00
1156.658,2538.00
1157.579,2671.00
1158.498,2658.00
1159.419,2196.00
1160.338,2669.00
1161.256,2712.00
1162.177,2502.00
1163.095,2573.00
1164.016,2756.00
1164.934,2911.00
1165.852,2805.00
1166.772,2625.00
1167.690,2627.00
1168.610,2700.00
1169.528,2658.00
1170.446,2198.00
1171.365,2558.00
1172.283,2550.00
1173.202,2649.00
1174.120,2660.00
1175.037,2496.00
1175.956,2461.00
1176.873,2488.00
1177.792,2527.00
1178.709,3088.00
1179.626,2517.00
1180.544,2883.00
1181.461,2497.00
1182.379,2742.00
1183.296,2621.00
1184.212,2266.00
1185.130,2479.00
1186.046,2967.00
1186.962,2621.00
1187.880,2915.00
1188.796,2681.00
1189.714,2427.00
1190.629,2751.00
1191.545,2690.00
1192.462,2526.00
1193.378,2598.00
1194.295,2343.00
1195.210,2663.00
1196.125,2776.00
1197.042,2712.00
1197.957,2676.00
1198.872,2526.00
1199.788,2543.00
1200.703,2956.00
1201.619,2649.00
1202.534,2525.00
1203.448,2704.00
1204.364,2575.00
1205.278,2288.00
1206.192,2694.00
1207.108,3118.00
1208.022,2976.00
1208.938,2494.00
1209.851,2788.00
1210.765,2864.00
1211.680,2544.00
1212.594,2388.00
1213.507,2516.00
1214.422,3001.00
1215.335,2721.00
1216.248,2561.00
1217.163,2645.00
1218.076,3213.00
1218.990,2710.00
1219.903,2390.00
1220.816,2434.00
1221.730,2571.00
1222.642,2494.00
1223.554,2545.00
1224.469,2713.00
1225.380,2556.00
1226.292,2310.00
1227.206,2797.00
1228.118,2927.00
1229.032,2263.00
1229.943,2524.00
1230.855,2576.00
1231.768,2390.00
1232.679,2727.00
1233.590,2623.00
1234.503,2865.00
1235.414,2476.00
1236.325,2492.00
1237.238,2735.00
1238.149,2726.00
1239.059,2442.00
1239.972,2793.00
1240.882,2432.00
1241.793,2751.00
1242.705,2944.00
1243.615,2601.00
1244.525,2743.00
1245.437,2189.00
1246.347,2671.00
1247.259,2829.00
1248.168,3058.00
1249.078,2890.00
1249.989,2935.00
1250.899,2462.00
1251.808,2498.00
1252.719,2548.00
1253.628,2477.00
1254.537,3011.00
1255.448,2460.00
1256.357,2465.00
1257.266,2621.00
1258.176,2383.00
1259.085,2358.00
1259.993,2453.00
1260.904,2474.00
1261.812,2423.00
1262.720,3231.00
1263.630,2761.00
1264.538,2475.00
1265.446,2720.00
1266.356,2643.00
1267.263,2911.00
1268.171,2390.00
1269.080,2703.00
1269.988,2785.00
1270.895,2479.00
1271.804,2598.00
1272.711,2833.00
1273.619,2778.00
1274.527,2411.00
1275.434,2742.00
1276.341,2444.00
1277.248,2655.00
1278.156,2877.00
1279.063,2506.00
1279.969,2737.00
1280.877,3545.00
1281.783,2811.00
1282.690,2703.00
1283.598,2620.00
1284.503,2479.00
1285.409,2451.00
1286.317,2982.00
1287.223,3023.00
1288.128,2696.00
1289.036,2490.00
1289.941,2583.00
1290.846,2625.00
1291.751,2458.00
1292.658,2525.00
1293.563,3017.00
1294.468,2675.00
1295.375,2771.00
1296.280,2840.00
1297.184,3339.00
1298.091,2734.00
1298.995,2819.00
1299.900,2995.00
1300.806,2524.00
1301.710,2390.00
1302.614,2205.00
1303.518,2870.00
1304.424,2610.00
1305.327,2821.00
1306.231,2613.00
1307.137,2794.00
1308.040,2697.00
1308.943,2636.00
1309.847,2826.00
1310.752,2826.00
1311.655,2293.00
1312.558,2418.00
1313.463,2572.00
1314.366,2492.00
1315.269,2724.00
1316.171,2602.00
1317.076,2512.00
1317.978,2412.00
1318.881,2241.00
1319.785,2528.00
1320.687,2497.00
1321.589,2217.00
1322.491,2480.00
1323.395,2702.00
1324.297,3200.00
1325.198,2778.00
1326.102,2447.00
1327.004,2457.00
1327.905,3012.00
1328.806,2601.00
1329.709,2688.00
1330.611,2542.00
1331.512,2422.00
1332.413,3065.00
1333.316,2671.00
1334.216,2812.00
1335.117,2364.00
1336.020,2640.00
1336.920,2639.00
1337.821,2503.00
1338.721,2901.00
1339.623,2692.00
1340.523,2596.00
1341.423,2491.00
1342.323,2903.00
1343.225,2706.00
1344.125,2433.00
1345.025,2492.00
1345.924,2303.00
1346.826,2970.00
1347.725,3001.00
1348.624,2863.00
1349.524,2488.00
1350.425,2550.00
1351.324,2697.00
1352.223,2771.00
1353.121,2599.00
1354.022,2800.00
1354.921,3033.00
1355.819,2735.00
1356.718,2667.00
1357.618,2410.00
1358.516,2708.00
1359.415,2975.00
1360.313,2714.00
1361.213,2562.00
1362.111,2892.00
1363.008,3261.00
1363.906,2602.00
1364.806,2656.00
1365.703,2732.00
1366.601,2456.00
1367.498,2471.00
1368.397,2808.00
1369.295,2709.00
1370.192,2477.00
1371.089,2688.00
1371.987,2650.00
1372.884,2872.00
1373.781,2410.00
1374.678,2650.00
1375.574,2472.00
1376.473,2757.00
1377.369,2864.00
1378.265,2468.00
1379.161,2589.00
1380.059,2353.00
1380.955,2727.00
1381.851,2369.00
1382.747,2544.00
1383.643,2566.00
1384.540,2430.00
1385.436,2506.00
1386.331,2675.00
1387.227,2805.00
1388.124,2757.00
1389.019,2436.00
1389.914,2569.00
1390.809,2282.00
1391.704,3042.00
1392.601,2531.00
1393.495,2913.00
1394.390,2779.00
1395.285,2876.00
1396.179,2692.00
1397.075,2558.00
1397.969,2667.00
1398.864,2314.00
1399.758,2601.00
1400.652,2680.00
1401.547,2452.00
1402.441,2431.00
1403.335,2964.00
1404.229,2670.00
1405.122,2652.00
1406.017,2617.00
1406.911,2767.00
1407.804,2993.00
1408.697,2633.00
1409.590,2477.00
1410.485,2771.00
1411.378,2650.00
1412.271,2331.00
1413.163,2698.00
1414.056,2771.00
1414.949,3007.00
1415.843,2668.00
1416.735,2571.00
1417.627,2684.00
1418.520,2603.00
1419.412,2838.00
1420.306,2764.00
1421.197,2906.00
1422.089,2816.00
1422.981,3083.00
1423.873,2805.00
1424.764,2720.00
1425.657,2656.00
1426.549,2800.00
1427.440,2835.00
1428.331,2522.00
1429.222,2372.00
1430.113,2681.00
1431.006,2828.00
1431.897,2550.00
1432.787,2653.00
1433.678,2541.00
1434.568,2490.00
1435.459,2852.00
1436.351,2805.00
1437.241,2806.00
1438.131,2783.00
1439.021,2361.00
1439.911,2613.00
1440.801,2739.00
1441.693,2852.00
1442.583,2614.00
1443.472,2618.00
1444.362,2751.00
1445.251,2598.00
1446.140,2604.00
1447.030,2820.00
1447.921,2833.00
1448.810,2471.00
1449.699,3016.00
1450.588,2672.00
1451.476,2540.00
1452.365,2726.00
1453.254,2539.00
1454.144,2505.00
1455.032,2768.00
1455.921,2409.00
1456.809,2960.00
1457.697,2463.00
1458.585,2575.00
1459.473,2585.00
1460.361,2487.00
1461.251,2761.00
1462.138,2719.00
1463.026,2571.00
1463.913,2886.00
1464.801,2502.00
1465.688,2738.00
1466.575,2658.00
1467.463,3059.00
1468.351,2509.00
1469.238,2609.00
1470.125,2245.00
1471.012,2741.00
1471.899,2718.00
1472.785,2474.00
1473.672,2634.00
1474.558,2831.00
1475.446,2754.00
1476.333,2776.00
1477.219,2460.00
1478.105,2636.00
1478.991,2607.00
1479.877,2948.00
1480.762,2628.00
1481.648,2541.00
1482.534,2768.00
1483.419,2686.00
1484.307,2741.00
1485.192,2620.00
1486.077,2487.00
1486.962,2504.00
1487.847,2405.00
1488.732,2486.00
1489.617,2632.00
1490.502,2891.00
1491.387,2740.00
1492.271,2478.00
1493.156,2481.00
1494.042,2477.00
1494.927,2819.00
1495.811,2528.00
1496.695,2801.00
1497.579,2946.00
1498.463,2655.00
1499.347,2682.00
1500.231,2681.00
1501.114,2707.00
1501.998,2905.00
1502.881,2702.00
1503.765,2933.00
1504.648,3010.00
1505.533,2739.00
1506.417,2667.00
1507.300,2605.00
1508.183,2687.00
1509.066,2136.00
1509.948,2883.00
1510.831,2986.00
1511.714,2443.00
1512.596,2747.00
1513.479,2901.00
1514.361,2870.00
1515.243,2677.00
1516.125,2807.00
1517.008,2902.00
1517.890,2574.00
1518.771,2669.00
1519.655,2843.00
1520.537,2570.00
1521.419,2464.00
1522.300,2665.00
1523.182,2778.00
1524.063,2770.00
1524.944,2948.00
1525.825,2808.00
1526.707,2491.00
1527.588,2452.00
1528.468,2720.00
1529.349,2321.00
1530.230,2560.00
1531.111,2823.00
1531.991,2665.00
1532.872,2369.00
1533.752,2643.00
1534.632,2465.00
1535.513,2507.00
1536.393,2790.00
1537.273,2955.00
1538.153,3283.00
1539.032,2427.00
1539.912,2630.00
1540.792,2653.00
1541.672,2647.00
1542.551,2759.00
1543.430,3230.00
1544.310,2709.00
1545.189,2546.00
1546.068,3047.00
1546.947,2794.00
1547.826,2969.00
1548.705,2655.00
1549.584,2861.00
1550.462,2610.00
1551.341,2817.00
1552.219,2670.00
1553.098,2834.00
1553.976,2903.00
1554.854,3088.00
1555.733,2890.00
1556.611,2585.00
1557.489,2480.00
1558.367,2659.00
1559.244,2837.00
1560.122,2656.00
1561.000,2719.00
1561.877,2956.00
1562.755,2542.00
1563.632,2583.00
1564.509,2904.00
1565.386,3027.00
1566.264,2401.00
1567.141,2305.00
1568.017,2811.00
1568.894,2660.00
1569.771,2731.00
1570.648,2787.00
1571.524,2694.00
1572.401,2454.00
1573.277,2425.00
1574.153,2695.00
1575.029,2535.00
1575.906,3381.00
1576.781,2844.00
1577.657,2610.00
1578.533,2855.00
1579.409,2287.00
1580.285,2646.00
1581.160,3065.00
1582.036,2808.00
1582.911,2494.00
1583.786,3026.00
1584.662,2477.00
1585.537,2598.00
1586.412,2709.00
1587.287,2509.00
1588.160,2800.00
1589.035,2335.00
1589.909,2689.00
1590.784,2631.00
1591.658,2435.00
1592.533,2697.00
1593.407,2670.00
1594.281,2538.00
1595.155,3059.00
1596.029,2590.00
1596.903,2606.00
1597.777,2581.00
1598.651,2913.00
1599.525,2375.00
1600.398,2697.00
1601.272,2633.00
1602.144,3178.00
1603.017,2619.00
1603.890,2906.00
1604.763,2751.00
1605.636,2838.00
1606.509,2380.00
1607.382,2478.00
1608.255,2720.00
1609.128,2874.00
1610.000,2629.00
1610.873,2364.00
1611.746,2552.00
1612.616,2613.00
1613.488,2232.00
1614.361,2638.00
1615.233,2624.00
1616.105,2905.00
1616.977,2578.00
1617.849,2501.00
1618.720,2952.00
1619.592,2956.00
1620.464,2791.00
1621.333,3124.00
1622.205,2674.00
1623.076,2653.00
1623.947,2653.00
1624.818,2902.00
1625.689,2784.00
1626.560,2581.00
1627.431,2719.00
1628.302,3039.00
1629.171,2796.00
1630.042,2968.00
1630.912,3286.00
1631.782,3210.00
1632.653,2443.00
1633.523,2809.00
1634.393,2852.00
1635.263,2548.00
1636.131,2652.00
1637.001,2563.00
1637.871,2278.00
1638.741,2325.00
1639.611,2377.00
1640.480,2777.00
1641.350,2546.00
1642.219,2501.00
1643.087,2162.00
1643.956,3075.00
1644.825,2899.00
1645.694,2828.00
1646.563,2818.00
1647.432,2704.00
1648.299,2694.00
1649.167,2790.00
1650.036,2476.00
1650.904,2869.00
1651.773,2893.00
1652.641,2697.00
1653.509,2868.00
1654.376,2541.00
1655.244,2687.00
1656.112,2727.00
1656.980,2706.00
1657.847,2528.00
1658.715,2843.00
1659.581,2559.00
1660.448,2870.00
1661.316,2185.00
1662.183,2709.00
1663.051,2715.00
1663.918,2691.00
1664.783,2696.00
1665.650,2755.00
1666.517,2839.00
1667.384,2691.00
1668.251,2674.00
1669.115,2856.00
1669.982,2638.00
1670.849,2911.00
1671.715,2615.00
1672.581,2768.00
1673.446,2757.00
1674.312,2681.00
1675.178,3055.00
1676.044,2735.00
1676.910,2765.00
1677.774,2687.00
1678.639,2326.00
1679.505,2682.00
1680.370,2767.00
1681.236,3282.00
1682.099,2583.00
1682.965,2697.00
1683.830,2272.00
1684.695,2487.00
1685.560,2545.00
1686.423,2807.00
1687.288,2823.00
1688.153,2717.00
1689.017,2595.00
1689.880,2718.00
1690.745,2830.00
1691.609,2522.00
1692.473,2818.00
1693.338,2930.00
1694.200,2941.00
1695.064,2680.00
1695.928,2600.00
1696.792,2673.00
1697.654,3156.00
1698.517,2718.00
1699.381,2437.00
1700.245,2325.00
1701.106,2967.00
1701.969,2573.00
1702.833,2816.00
1703.696,2583.00
1704.557,2679.00
1705.420,2535.00
1706.283,2671.00
1707.146,2825.00
1708.007,2455.00
1708.870,2499.00
1709.732,2351.00
1710.595,2547.00
1711.455,2470.00
1712.318,2590.00
1713.180,2938.00
1714.040,2719.00
1714.902,2831.00
1715.764,2708.00
1716.626,2436.00
1717.486,2640.00
1718.348,2930.00
1719.209,4891.00
1720.071,2349.00
1720.930,2416.00
1721.792,2521.00
1722.653,2517.00
1723.512,2566.00
1724.374,2646.00
1725.234,2693.00
1726.095,2690.00
1726.954,2682.00
1727.815,2817.00
1728.676,2664.00
1729.535,2894.00
1730.395,2669.00
1731.256,2600.00
1732.114,2718.00
1732.974,2156.00
1733.834,3029.00
1734.693,2835.00
1735.553,2720.00
1736.413,3101.00
1737.272,2560.00
1738.130,2587.00
1738.990,2758.00
1739.849,2549.00
1740.707,3651.00
1741.566,2696.00
1742.426,2710.00
1743.283,3053.00
1744.142,2574.00
1745.001,2383.00
1745.858,2836.00
1746.717,2728.00
1747.576,2762.00
1748.433,2813.00
1749.292,3226.00
1750.150,3253.00
1751.007,2852.00
1751.865,2884.00
1752.723,2682.00
1753.579,2645.00
1754.438,2903.00
1755.296,2908.00
1756.152,2269.00
1757.010,2340.00
1757.865,2886.00
1758.723,2350.00
1759.581,2984.00
1760.436,2663.00
1761.294,3044.00
1762.151,2644.00
1763.006,2572.00
1763.864,2341.00
1764.721,2882.00
1765.576,2685.00
1766.433,2813.00
1767.288,2593.00
1768.144,2714.00
1769.001,2624.00
1769.856,2759.00
1770.712,2899.00
1771.568,2490.00
1772.423,2576.00
1773.279,2572.00
1774.133,2607.00
1774.989,3094.00
1775.845,3244.00
1776.699,2928.00
1777.555,2656.00
1778.409,3243.00
1779.265,2601.00
1780.120,2649.00
1780.974,2684.00
1781.829,2273.00
1782.682,2746.00
1783.538,2483.00
1784.393,2714.00
1785.246,2548.00
1786.101,2778.00
1786.954,2756.00
1787.808,2894.00
1788.661,2416.00
1789.516,2561.00
1790.370,2633.00
1791.223,2852.00
1792.077,2657.00
1792.930,2792.00
1793.784,2559.00
1794.636,2682.00
1795.490,2672.00
1796.344,2702.00
1797.196,2701.00
1798.049,2835.00
1798.901,2589.00
1799.755,2925.00
1800.606,2493.00
1801.460,3183.00
1802.311,2970.00
1803.165,3079.00
1804.018,3030.00
1804.869,2754.00
1805.722,3154.00
1806.573,2721.00
1807.426,2507.00
1808.276,2673.00
1809.129,2612.00
1809.980,2888.00
1810.832,2967.00
1811.683,2618.00
1812.535,3063.00
1813.385,2621.00
1814.237,2909.00
1815.089,2727.00
1815.940,2924.00
1816.791,2658.00
1817.641,2570.00
1818.493,2806.00
1819.343,2758.00
1820.194,2584.00
1821.044,2760.00
1821.895,2884.00
1822.745,2408.00
1823.596,2565.00
1824.445,3056.00
1825.296,2773.00
1826.145,2672.00
1826.996,2865.00
1827.845,2719.00
1828.695,2748.00
1829.544,2683.00
1830.395,2760.00
1831.243,2591.00
1832.094,2399.00
1832.942,3313.00
1833.792,2827.00
1834.640,2741.00
1835.490,2723.00
1836.338,2731.00
1837.186,2574.00
1838.036,2542.00
1838.884,2690.00
1839.733,3015.00
1840.581,2879.00
1841.430,2813.00
1842.278,3048.00
1843.127,2588.00
1843.974,2382.00
1844.823,3118.00
1845.671,2839.00
1846.519,2696.00
1847.366,2797.00
1848.213,2341.00
1849.062,2476.00
1849.909,2438.00
1850.757,3357.00
1851.604,2831.00
1852.452,2606.00
1853.298,2881.00
1854.146,2785.00
1854.993,2770.00
1855.839,3199.00
1856.687,2841.00
1857.532,2834.00
1858.380,2698.00
1859.226,2760.00
1860.073,2807.00
1860.919,2494.00
1861.765,2592.00
1862.612,2921.00
1863.457,2893.00
1864.304,2655.00
1865.150,2816.00
1865.995,2656.00
1866.842,2767.00
1867.686,2951.00
1868.533,2746.00
1869.378,2777.00
1870.223,2692.00
1871.069,2599.00
1871.914,2739.00
1872.760,2700.00
1873.604,2514.00
1874.448,2873.00
1875.294,2894.00
1876.139,2587.00
1876.984,2785.00
1877.828,2360.00
1878.672,2206.00
1879.518,2596.00
1880.361,2871.00
1881.205,2870.00
1882.050,2505.00
1882.894,3180.00
1883.739,2592.00
1884.582,2451.00
1885.425,2552.00
1886.270,2923.00
1887.113,2460.00
1887.956,2816.00
1888.801,2759.00
1889.644,2509.00
1890.486,2322.00
1891.331,2620.00
1892.173,2761.00
1893.017,2790.00
1893.860,2959.00
1894.702,2988.00
1895.546,2724.00
1896.388,3342.00
1897.230,3040.00
1898.074,2618.00
1898.916,2493.00
1899.757,2549.00
1900.601,3381.00
1901.443,2993.00
1902.284,2976.00
1903.125,3143.00
1903.969,2914.00
1904.810,2923.00
1905.651,2795.00
1906.494,3033.00
1907.335,3167.00
1908.176,2812.00
1909.018,2794.00
1909.859,2651.00
1910.700,2562.00
1911.542,3207.00
1912.383,2800.00
1913.223,2320.00
1914.064,2806.00
1914.906,2964.00
1915.746,3011.00
1916.586,3157.00
1917.428,2685.00
1918.268,2748.00
1919.107,2600.00
1919.947,2503.00
1920.789,2618.00
1921.628,2966.00
1922.468,2697.00
1923.309,2593.00
1924.148,3026.00
1924.988,2760.00
1925.827,2721.00
1926.667,2586.00
1927.507,2742.00
1928.345,2545.00
1929.184,2861.00
1930.025,2507.00
1930.864,2965.00
1931.702,3000.00
1932.541,2611.00
1933.381,2838.00
1934.219,2875.00
1935.057,3018.00
1935.896,2405.00
1936.735,2687.00
1937.573,2644.00
1938.411,2523.00
1939.249,2856.00
1940.089,2603.00
1940.927,2959.00
1941.764,2969.00
1942.602,2646.00
1943.439,2581.00
1944.278,2695.00
1945.115,2623.00
1945.953,2450.00
1946.790,2745.00
1947.628,3066.00
1948.465,2847.00
1949.302,2867.00
1950.139,2920.00
1950.976,2587.00
1951.814,2849.00
1952.651,2743.00
1953.487,2511.00
1954.323,2980.00
1955.160,2731.00
1955.998,3070.00
1956.834,2702.00
1957.670,2779.00
1958.506,2949.00
1959.342,2826.00
1960.177,2756.00
1961.015,2785.00
1961.850,2766.00
1962.686,2742.00
1963.521,2772.00
1964.357,3004.00
1965.192,2522.00
1966.029,2812.00
1966.864,2645.00
1967.699,2948.00
1968.534,2769.00
1969.369,3001.00
1970.204,2692.00
1971.040,2786.00
1971.875,2673.00
1972.709,2738.00
1973.544,2546.00
1974.378,2633.00
1975.212,2805.00
1976.047,2626.00
1976.882,2580.00
1977.716,3132.00
1978.550,2426.00
1979.384,2686.00
1980.218,2669.00
1981.052,2673.00
1981.885,2744.00
1982.719,2708.00
1983.554,2880.00
1984.388,3011.00
1985.221,2799.00
1986.054,2941.00
1986.887,2744.00
1987.720,2585.00
1988.553,2998.00
1989.386,2814.00
1990.219,2875.00
1991.053,3057.00
1991.886,2591.00
1992.719,2901.00
1993.551,2268.00
1994.383,2878.00
1995.216,2659.00
1996.048,2498.00
1996.880,2895.00
1997.712,2584.00
1998.544,2701.00
1999.376,2842.00
2000.208,3073.00
