RamanScope Measure Spectrum Data V3.72

<< MEASURE CONDITION >>
Exposure Type,Aver
Exposure Time [sec],15
Exposure Count,30
Measure Time,2023/07/14 20:44:19
Data Name,""
Data Comment,""
Rayleigh Wave[nm],532.0

<< SAMPLE SPECTRUM >>
Wave[dcm-1],No100
146.591,778.03
147.626,922.80
148.664,1163.57
149.699,1345.30
150.737,1532.43
151.772,1721.53
152.809,1939.23
153.846,2138.87
154.881,2328.13
155.918,2500.63
156.953,2621.60
157.989,2736.37
159.026,2841.50
160.060,2950.60
161.096,2999.90
162.130,3086.90
163.167,3129.93
164.200,3206.67
165.236,3229.40
166.272,3299.67
167.305,3377.17
168.341,3422.43
169.374,3489.70
170.409,3603.77
171.445,3595.10
172.477,3672.20
173.512,3730.63
174.545,3777.40
175.580,3795.03
176.614,3873.47
177.647,3852.67
178.681,3894.40
179.713,3944.73
180.747,3897.47
181.781,3908.70
182.813,3887.93
183.847,3850.43
184.878,3885.00
185.912,3859.07
186.945,3899.13
187.976,3901.70
189.010,3894.73
190.043,3917.00
191.073,3930.03
192.106,3964.80
193.137,3987.43
194.170,4049.40
195.202,4087.77
196.232,4167.53
197.265,4181.97
198.297,4214.17
199.327,4299.30
200.359,4346.37
201.388,4403.13
202.420,4470.83
203.452,4618.77
204.481,4678.53
205.512,4784.50
206.544,4846.70
207.573,4927.03
208.604,5041.50
209.635,5247.20
210.663,5322.30
211.694,5511.70
212.725,5600.20
213.753,5743.47
214.783,5859.03
215.813,5899.07
216.841,5999.50
217.871,5970.03
218.899,5949.63
219.929,6015.83
220.959,5988.60
221.986,5885.70
223.016,5711.13
224.045,5645.70
225.072,5557.47
226.101,5480.10
227.130,5309.43
228.157,5308.30
229.185,5231.67
230.214,5190.77
231.241,5143.53
232.269,5064.17
233.297,5002.07
234.323,5006.30
235.351,5028.90
236.379,4998.03
237.407,4997.67
238.433,4900.70
239.460,4935.23
240.488,5016.57
241.513,5076.97
242.540,5096.20
243.568,5076.93
244.592,5150.53
245.619,5195.30
246.646,5183.33
247.671,5192.57
248.697,5152.90
249.724,5129.90
250.748,5163.30
251.774,5117.67
252.801,5133.27
253.827,5090.47
254.850,5100.07
255.876,5109.97
256.902,5119.33
257.925,5102.43
258.951,5178.03
259.976,5200.10
260.999,5238.00
262.024,5301.93
263.049,5295.83
264.074,5338.30
265.097,5362.70
266.122,5465.13
267.146,5510.20
268.168,5479.17
269.193,5556.00
270.217,5615.33
271.241,5660.53
272.263,5658.00
273.287,5688.57
274.311,5773.83
275.332,5764.83
276.356,5798.00
277.379,5740.63
278.402,5734.90
279.424,5654.67
280.447,5655.57
281.470,5586.80
282.492,5566.00
283.513,5475.07
284.536,5414.97
285.558,5354.90
286.581,5268.87
287.601,5191.57
288.623,5158.20
289.645,5065.50
290.665,5008.80
291.687,4979.60
292.709,4903.97
293.730,4806.90
294.750,4767.33
295.771,4733.77
296.792,4692.50
297.813,4620.87
298.832,4593.27
299.853,4488.73
300.874,4457.90
301.895,4443.00
302.913,4384.63
303.934,4324.80
304.954,4272.07
305.975,4288.33
306.993,4262.80
308.013,4222.73
309.033,4157.40
310.052,4164.17
311.072,4110.50
312.090,4129.00
313.109,4142.33
314.129,4083.10
315.148,4027.37
316.165,4045.20
317.184,4042.90
318.203,4002.73
319.222,4000.97
320.238,3968.50
321.257,3924.63
322.275,3976.20
323.294,3928.90
324.312,3928.70
325.328,3886.20
326.346,3875.00
327.364,3804.37
328.382,3886.37
329.397,3903.87
330.415,3832.37
331.432,3845.37
332.450,3873.47
333.467,3842.77
334.482,3847.23
335.499,3823.83
336.516,3813.00
337.533,3839.83
338.547,3844.43
339.564,3792.70
340.580,3791.20
341.597,3774.90
342.613,3814.60
343.627,3798.07
344.643,3805.53
345.659,3751.70
346.675,3773.50
347.690,3810.00
348.704,3804.80
349.719,3802.07
350.735,3781.40
351.750,3727.53
352.765,3745.10
353.778,3759.97
354.793,3814.60
355.808,3738.60
356.822,3760.33
357.837,3751.73
358.851,3824.90
359.864,3767.63
360.878,3771.30
361.892,3751.17
362.906,3773.87
363.920,3802.07
364.932,3762.20
365.945,3768.20
366.959,3784.17
367.972,3798.80
368.986,3814.67
369.999,3801.77
371.010,3791.77
372.023,3835.97
373.036,3820.70
374.049,3860.63
375.061,3893.90
376.072,3858.50
377.084,3889.10
378.097,3885.00
379.109,3882.40
380.121,3873.50
381.133,3881.53
382.143,3879.80
383.155,3868.37
384.166,3891.30
385.178,3867.83
386.189,3920.07
387.201,3922.53
388.212,3809.63
389.221,3857.67
390.232,3794.93
391.243,3826.17
392.254,3851.77
393.264,3769.13
394.275,3790.90
395.283,3777.60
396.294,3724.97
397.304,3734.20
398.314,3734.97
399.324,3721.27
400.334,3735.03
401.344,3711.67
402.351,3654.30
403.361,3583.03
404.370,3675.20
405.380,3619.00
406.389,3646.03
407.398,3560.80
408.407,3577.70
409.414,3593.13
410.423,3568.83
411.431,3557.97
412.440,3558.27
413.448,3460.67
414.457,3512.57
415.465,3480.40
416.471,3433.37
417.479,3460.00
418.487,3432.20
419.495,3441.53
420.503,3440.13
421.510,3441.10
422.518,3369.73
423.525,3414.37
424.530,3378.10
425.537,3342.37
426.544,3410.77
427.551,3385.67
428.558,3358.73
429.565,3351.70
430.571,3377.27
431.578,3372.83
432.582,3391.23
433.588,3336.17
434.595,3309.63
435.601,3339.93
436.607,3369.20
437.612,3318.17
438.618,3397.20
439.624,3333.97
440.627,3307.63
441.633,3335.30
442.638,3349.63
443.643,3314.03
444.648,3344.77
445.653,3300.17
446.658,3325.00
447.663,3316.83
448.667,3304.13
449.672,3284.23
450.674,3290.93
451.678,3336.37
452.682,3343.03
453.687,3343.80
454.690,3315.33
455.694,3339.90
456.698,3328.30
457.702,3376.30
458.705,3358.67
459.709,3365.20
460.710,3318.97
461.713,3362.67
462.716,3373.50
463.719,3357.37
464.722,3296.03
465.725,3352.80
466.727,3341.67
467.730,3397.87
468.732,3414.17
469.735,3337.37
470.737,3335.63
471.737,3366.23
472.739,3376.40
473.741,3367.97
474.742,3390.87
475.744,3366.60
476.746,3406.07
477.747,3362.10
478.748,3376.87
479.750,3426.53
480.751,3389.80
481.752,3432.63
482.753,3390.97
483.751,3396.40
484.752,3403.57
485.753,3436.20
486.753,3411.60
487.753,3393.73
488.754,3436.43
489.754,3400.17
490.754,3403.87
491.754,3414.97
492.754,3434.63
493.753,3401.17
494.753,3372.60
495.752,3379.53
496.752,3383.93
497.749,3385.40
498.748,3431.30
499.747,3355.47
500.746,3348.67
501.745,3330.57
502.744,3326.50
503.742,3354.93
504.741,3335.43
505.739,3323.37
506.737,3328.63
507.735,3325.67
508.734,3342.90
509.732,3302.73
510.729,3296.60
511.727,3282.43
512.725,3279.47
513.720,3280.57
514.718,3260.67
515.715,3242.53
516.712,3211.40
517.709,3202.17
518.706,3290.97
519.703,3237.27
520.700,3241.57
521.696,3152.50
522.693,3224.60
523.689,3223.00
524.686,3273.03
525.682,3232.67
526.678,3252.37
527.674,3234.07
528.670,3252.33
529.666,3238.40
530.661,3232.63
531.657,3035.70
532.652,3193.80
533.648,3230.87
534.641,3237.57
535.636,3267.33
536.631,3240.23
537.626,3231.63
538.621,3263.50
539.616,3236.83
540.610,3259.30
541.605,3236.63
542.599,3239.73
543.593,3239.60
544.587,3233.23
545.581,3205.10
546.575,3208.57
547.569,3241.77
548.563,3242.50
549.557,3217.07
550.550,3234.90
551.543,3244.40
552.537,3219.20
553.530,3230.10
554.523,3251.13
555.516,3212.37
556.509,3227.93
557.502,3228.40
558.494,3246.70
559.487,3266.43
560.479,3295.33
561.472,3307.33
562.464,3254.67
563.456,3277.10
564.448,3218.17
565.440,3259.37
566.432,3277.53
567.423,3250.97
568.415,3311.43
569.404,3277.43
570.396,3308.13
571.387,3362.13
572.378,3336.93
573.369,3363.90
574.360,3347.53
575.351,3369.23
576.341,3368.03
577.332,3396.87
578.323,3389.73
579.313,3409.50
580.303,3407.97
581.293,3430.60
582.283,3444.57
583.273,3434.47
584.263,3391.83
585.253,3466.37
586.243,3458.53
587.232,3468.50
588.222,3472.40
589.211,3435.23
590.200,3497.87
591.189,3493.80
592.178,3532.93
593.167,3467.77
594.156,3494.77
595.145,3494.47
596.133,3500.17
597.122,3565.43
598.110,3480.63
599.098,3523.17
600.086,3456.47
601.074,3503.07
602.062,3560.03
603.050,3564.13
604.038,3547.30
605.025,3516.07
606.013,3511.53
607.000,3549.27
607.987,3471.40
608.975,3476.30
609.962,3406.03
610.949,3450.47
611.936,3469.73
612.922,3382.03
613.909,3391.03
614.895,3373.87
615.882,3329.77
616.868,3369.03
617.854,3348.90
618.841,3331.53
619.826,3285.90
620.812,3269.60
621.798,3224.10
622.784,3272.67
623.769,3205.50
624.755,3197.70
625.740,3150.67
626.725,3140.93
627.711,3182.37
628.698,3148.77
629.683,3112.33
630.667,3070.03
631.652,3025.37
632.637,3049.53
633.621,3027.80
634.606,3029.73
635.590,3041.13
636.574,2979.93
637.558,2965.70
638.542,2994.23
639.526,2955.53
640.510,2958.20
641.493,2881.80
642.477,2885.17
643.460,2922.33
644.444,2935.70
645.427,2874.10
646.410,2883.50
647.393,2881.97
648.376,2854.87
649.359,2865.13
650.341,2838.77
651.324,2853.87
652.307,2782.70
653.289,2789.07
654.271,2824.80
655.253,2817.20
656.235,2760.23
657.217,2798.07
658.199,2770.00
659.181,2815.37
660.163,2828.00
661.144,2777.53
662.126,2776.87
663.107,2728.77
664.088,2770.60
665.069,2764.07
666.050,2758.50
667.033,2715.97
668.014,2727.87
668.995,2711.27
669.975,2697.93
670.956,2700.90
671.936,2649.03
672.916,2664.53
673.896,2647.23
674.876,2656.60
675.856,2637.33
676.836,2598.20
677.816,2592.40
678.795,2625.93
679.775,2527.53
680.754,2570.63
681.734,2533.60
682.713,2484.80
683.692,2494.87
684.671,2452.27
685.650,2485.93
686.629,2474.87
687.607,2449.90
688.586,2395.13
689.564,2417.00
690.543,2405.53
691.523,2364.97
692.501,2358.27
693.479,2359.80
694.457,2384.63
695.435,2368.63
696.413,2341.70
697.390,2371.37
698.368,2313.20
699.345,2313.50
700.322,2335.63
701.300,2326.93
702.277,2339.77
703.254,2304.17
704.231,2270.40
705.207,2275.13
706.184,2294.43
707.161,2290.60
708.137,2288.67
709.113,2225.90
710.090,2245.20
711.068,2246.27
712.044,2255.27
713.020,2217.33
713.996,2247.73
714.971,2195.80
715.947,2163.43
716.922,2189.93
717.898,2221.73
718.873,2180.40
719.848,2205.50
720.823,2195.03
721.798,2172.50
722.773,2172.83
723.748,2167.40
724.723,2158.40
725.697,2152.23
726.672,2151.77
727.646,2168.17
728.622,2106.90
729.596,2117.17
730.570,2159.33
731.544,2093.10
732.518,2104.70
733.492,2124.03
734.466,2140.57
735.439,2064.43
736.413,2022.03
737.386,2103.70
738.359,2085.83
739.332,2058.10
740.305,2095.93
741.278,2070.10
742.251,2085.97
743.224,2081.13
744.196,2056.40
745.171,2036.20
746.143,2005.10
747.115,2047.63
748.087,2025.27
749.059,2070.83
750.031,2053.47
751.003,1995.63
751.975,1963.87
752.947,2007.97
753.918,1991.93
754.890,2001.60
755.861,1990.33
756.832,1964.17
757.803,1987.57
758.774,1978.10
759.747,1972.40
760.718,1940.73
761.689,1934.00
762.659,1909.10
763.630,1956.10
764.600,1912.20
765.570,1920.33
766.540,1948.47
767.510,1909.53
768.480,1861.87
769.450,1935.73
770.420,1869.10
771.390,1873.43
772.359,1908.07
773.329,1872.60
774.300,1873.03
775.269,1894.17
776.238,1909.33
777.207,1872.00
778.176,1836.90
779.145,1854.27
780.114,1867.20
781.083,1860.07
782.051,1871.70
783.019,1862.10
783.988,1878.80
784.956,1879.03
785.924,1861.43
786.894,1831.50
787.862,1821.47
788.830,1838.83
789.797,1792.03
790.765,1818.47
791.732,1818.03
792.700,1788.50
793.667,1796.20
794.634,1804.00
795.601,1797.47
796.568,1803.67
797.535,1797.27
798.502,1769.50
799.468,1782.70
800.437,1815.53
801.403,1766.30
802.370,1795.33
803.336,1769.47
804.302,1750.63
805.268,1794.67
806.234,1773.30
807.200,1759.33
808.166,1755.47
809.131,1747.73
810.097,1755.43
811.062,1735.37
812.027,1773.60
812.994,1726.47
813.960,1736.47
814.925,1760.73
815.889,1751.90
816.854,1741.83
817.819,1714.53
818.783,1738.23
819.748,1713.03
820.712,1724.93
821.677,1723.50
822.641,1700.40
823.605,1725.17
824.571,1669.17
825.534,1697.90
826.498,1724.10
827.462,1680.03
828.425,1715.40
829.389,1746.43
830.352,1688.47
831.315,1688.93
832.279,1738.63
833.242,1666.67
834.204,1666.03
835.167,1696.93
836.132,1656.93
837.095,1695.43
838.057,1676.53
839.020,1660.73
839.982,1648.13
840.944,1675.70
841.906,1628.73
842.868,1672.43
843.830,1666.93
844.792,1673.80
845.753,1672.60
846.715,1673.67
847.679,1668.30
848.640,1656.30
849.601,1627.10
850.562,1609.67
851.523,1669.93
852.484,1694.57
853.445,1612.03
854.406,1613.33
855.367,1588.43
856.327,1638.33
857.288,1651.93
858.248,1614.60
859.210,1617.67
860.170,1617.47
861.130,1623.83
862.090,1627.67
863.050,1634.27
864.010,1609.17
864.969,1611.30
865.929,1596.27
866.888,1631.73
867.848,1598.83
868.807,1626.13
869.766,1599.67
870.727,1592.77
871.686,1585.23
872.645,1593.23
873.604,1583.93
874.562,1633.83
875.521,1591.50
876.479,1596.43
877.437,1561.47
878.396,1609.43
879.354,1612.20
880.312,1559.40
881.270,1587.77
882.229,1556.87
883.187,1570.80
884.145,1596.50
885.102,1611.83
886.059,1582.60
887.017,1600.30
887.974,1567.53
888.931,1554.57
889.888,1623.30
890.845,1580.53
891.802,1602.33
892.758,1580.90
893.717,1598.13
894.673,1592.50
895.630,1535.53
896.586,1596.90
897.542,1580.63
898.498,1551.90
899.454,1550.47
900.410,1596.00
901.366,1605.57
902.321,1593.90
903.277,1594.67
904.232,1574.83
905.189,1575.13
906.145,1552.40
907.100,1599.03
908.055,1595.30
909.010,1576.17
909.965,1580.90
910.919,1608.87
911.874,1572.63
912.828,1588.40
913.783,1569.63
914.737,1628.90
915.693,1580.40
916.648,1603.47
917.602,1573.77
918.555,1585.50
919.509,1618.93
920.463,1546.80
921.417,1573.47
922.370,1605.63
923.324,1534.07
924.277,1583.67
925.230,1582.33
926.183,1556.50
927.138,1582.73
928.091,1585.17
929.044,1572.23
929.996,1612.80
930.949,1587.00
931.902,1584.60
932.854,1612.57
933.806,1576.97
934.758,1602.27
935.711,1609.00
936.663,1589.43
937.614,1613.43
938.568,1622.37
939.520,1585.83
940.471,1591.77
941.423,1563.40
942.374,1576.07
943.326,1577.70
944.277,1591.40
945.228,1574.60
946.179,1601.47
947.130,1596.07
948.080,1573.13
949.031,1599.20
949.984,1572.37
950.934,1601.67
951.884,1573.10
952.835,1602.27
953.785,1583.67
954.735,1526.70
955.685,1569.87
956.635,1594.63
957.585,1618.20
958.534,1617.20
959.484,1597.30
960.433,1571.83
961.383,1554.63
962.334,1584.87
963.283,1598.53
964.232,1590.67
965.181,1591.13
966.130,1577.40
967.079,1607.37
968.027,1535.07
968.976,1600.60
969.924,1530.17
970.873,1580.87
971.821,1581.87
972.769,1531.30
973.719,1549.83
974.667,1574.20
975.615,1564.33
976.562,1575.30
977.510,1533.73
978.458,1558.37
979.405,1568.63
980.352,1565.63
981.300,1539.10
982.247,1581.97
983.194,1559.47
984.141,1552.67
985.088,1536.80
986.036,1572.87
986.983,1579.47
987.930,1540.87
988.876,1592.87
989.822,1516.60
990.769,1552.10
991.715,1531.13
992.661,1529.73
993.607,1528.60
994.553,1536.67
995.498,1564.13
996.444,1534.77
997.389,1532.90
998.337,1536.73
999.282,1546.77
1000.227,1528.27
1001.173,1538.07
1002.118,1545.47
1003.062,1538.83
1004.007,1549.97
1004.952,1516.57
1005.897,1518.87
1006.841,1519.03
1007.786,1513.57
1008.730,1539.40
1009.674,1477.03
1010.618,1522.30
1011.564,1549.07
1012.508,1538.57
1013.452,1546.83
1014.396,1549.63
1015.339,1498.77
1016.283,1548.50
1017.226,1512.30
1018.170,1531.90
1019.113,1524.37
1020.056,1500.53
1020.999,1515.53
1021.942,1526.43
1022.885,1478.50
1023.828,1510.73
1024.770,1563.37
1025.715,1536.83
1026.657,1520.50
1027.600,1532.60
1028.542,1511.73
1029.484,1519.17
1030.426,1506.83
1031.368,1537.63
1032.310,1497.97
1033.251,1506.47
1034.193,1490.93
1035.135,1556.17
1036.076,1509.03
1037.017,1535.17
1037.959,1526.13
1038.900,1509.73
1039.843,1542.93
1040.784,1364.97
1041.725,1521.43
1042.665,1552.43
1043.606,1540.83
1044.547,1544.90
1045.487,1521.73
1046.427,1554.87
1047.368,1559.10
1048.308,1561.10
1049.248,1556.90
1050.188,1568.00
1051.128,1546.63
1052.067,1524.97
1053.007,1546.97
1053.947,1535.07
1054.886,1539.13
1055.827,1532.93
1056.766,1533.73
1057.706,1560.60
1058.645,1526.90
1059.584,1567.43
1060.522,1537.10
1061.461,1575.63
1062.400,1554.57
1063.338,1545.17
1064.277,1552.27
1065.215,1561.87
1066.154,1533.13
1067.092,1548.10
1068.030,1558.83
1068.968,1555.67
1069.906,1550.17
1070.843,1552.73
1071.781,1557.97
1072.720,1546.67
1073.658,1573.80
1074.595,1562.67
1075.533,1575.43
1076.470,1550.70
1077.407,1617.93
1078.344,1586.50
1079.281,1609.30
1080.217,1606.93
1081.154,1568.03
1082.091,1588.40
1083.027,1581.63
1083.964,1579.20
1084.900,1564.63
1085.836,1538.47
1086.772,1587.83
1087.708,1561.90
1088.644,1526.67
1089.580,1584.43
1090.515,1568.53
1091.451,1599.83
1092.388,1554.17
1093.324,1552.17
1094.259,1589.83
1095.194,1568.40
1096.129,1582.03
1097.064,1596.10
1097.999,1545.13
1098.934,1585.40
1099.869,1562.27
1100.803,1558.40
1101.738,1571.83
1102.672,1551.03
1103.607,1540.13
1104.541,1545.20
1105.475,1549.23
1106.409,1538.17
1107.343,1536.00
1108.277,1546.13
1109.210,1506.57
1110.144,1503.30
1111.078,1497.50
1112.011,1559.97
1112.944,1499.27
1113.878,1518.50
1114.811,1501.80
1115.744,1513.37
1116.678,1507.73
1117.611,1468.97
1118.544,1514.70
1119.477,1494.17
1120.409,1490.13
1121.342,1468.03
1122.274,1446.17
1123.206,1862.73
1124.138,1473.10
1125.070,1448.60
1126.002,1500.77
1126.934,1479.37
1127.866,1477.80
1128.798,1493.60
1129.729,1403.53
1130.661,1454.80
1131.592,1476.00
1132.523,1455.70
1133.454,1444.10
1134.385,1457.30
1135.317,1456.00
1136.247,1441.10
1137.178,1459.47
1138.109,1452.87
1139.039,1436.00
1139.970,1424.73
1140.900,1433.97
1141.831,1447.63
1142.761,1450.43
1143.691,1404.17
1144.621,1439.47
1145.551,1451.80
1146.480,1411.70
1147.410,1416.37
1148.340,1414.07
1149.269,1405.00
1150.199,1397.13
1151.128,1431.60
1152.057,1429.67
1152.979,1436.87
1153.898,1389.53
1154.819,1413.40
1155.739,1419.30
1156.658,1394.43
1157.579,1392.43
1158.498,1413.10
1159.419,1397.93
1160.338,1422.03
1161.256,1405.37
1162.177,1358.93
1163.095,1425.97
1164.016,1377.60
1164.934,1367.43
1165.852,1370.47
1166.772,1376.70
1167.690,1370.43
1168.610,1383.33
1169.528,1370.27
1170.446,1383.87
1171.365,1370.67
1172.283,1371.87
1173.202,1383.93
1174.120,1395.40
1175.037,1374.60
1175.956,1393.93
1176.873,1411.40
1177.792,1418.33
1178.709,1385.30
1179.626,1376.63
1180.544,1353.97
1181.461,1340.07
1182.379,1398.83
1183.296,1376.67
1184.212,1386.57
1185.130,1409.83
1186.046,1367.03
1186.962,1387.10
1187.880,1363.47
1188.796,1403.50
1189.714,1343.87
1190.629,1369.57
1191.545,1397.37
1192.462,1378.60
1193.378,1344.43
1194.295,1354.30
1195.210,1353.67
1196.125,1401.10
1197.042,1382.17
1197.957,1379.40
1198.872,1392.50
1199.788,1381.03
1200.703,1347.60
1201.619,1367.93
1202.534,1366.80
1203.448,1383.17
1204.364,1373.80
1205.278,1365.83
1206.192,1397.57
1207.108,1407.83
1208.022,1384.80
1208.938,1379.07
1209.851,1358.93
1210.765,1369.80
1211.680,1382.23
1212.594,1388.60
1213.507,1368.23
1214.422,1356.27
1215.335,1393.00
1216.248,1393.60
1217.163,1380.50
1218.076,1366.27
1218.990,1350.30
1219.903,1378.40
1220.816,1375.73
1221.730,1403.20
1222.642,1418.97
1223.554,1404.20
1224.469,1359.27
1225.380,1410.90
1226.292,1394.43
1227.206,1368.73
1228.118,1406.80
1229.032,1383.73
1229.943,1381.50
1230.855,1392.07
1231.768,1432.00
1232.679,1424.63
1233.590,1425.27
1234.503,1360.03
1235.414,1378.17
1236.325,1367.70
1237.238,1364.97
1238.149,1424.43
1239.059,1426.43
1239.972,1387.40
1240.882,1355.17
1241.793,1401.13
1242.705,1425.87
1243.615,1407.10
1244.525,1403.20
1245.437,1430.43
1246.347,1428.03
1247.259,1422.80
1248.168,1391.13
1249.078,1455.73
1249.989,1426.40
1250.899,1398.60
1251.808,1413.47
1252.719,1428.30
1253.628,1425.07
1254.537,1418.07
1255.448,1408.80
1256.357,1408.80
1257.266,1387.17
1258.176,1428.77
1259.085,1394.63
1259.993,1396.40
1260.904,1409.53
1261.812,1388.47
1262.720,1442.47
1263.630,1425.10
1264.538,1419.73
1265.446,1422.80
1266.356,1405.67
1267.263,1378.07
1268.171,1434.23
1269.080,1415.30
1269.988,1397.93
1270.895,1383.83
1271.804,1387.43
1272.711,1387.40
1273.619,1391.83
1274.527,1383.50
1275.434,1406.70
1276.341,1380.43
1277.248,1424.50
1278.156,1391.23
1279.063,1414.23
1279.969,1413.80
1280.877,1395.20
1281.783,1400.80
1282.690,1382.80
1283.598,1373.27
1284.503,1347.60
1285.409,1375.27
1286.317,1420.37
1287.223,1397.07
1288.128,1389.20
1289.036,1396.03
1289.941,1402.40
1290.846,1407.77
1291.751,1332.93
1292.658,1377.60
1293.563,1371.80
1294.468,1352.17
1295.375,1355.13
1296.280,1370.10
1297.184,1366.67
1298.091,1328.57
1298.995,1363.93
1299.900,1357.70
1300.806,1356.80
1301.710,1377.90
1302.614,1343.03
1303.518,1358.53
1304.424,1350.37
1305.327,1350.50
1306.231,1356.93
1307.137,1340.90
1308.040,1336.23
1308.943,1343.63
1309.847,1311.03
1310.752,1312.10
1311.655,1318.60
1312.558,1344.63
1313.463,1298.13
1314.366,1310.67
1315.269,1288.17
1316.171,1313.27
1317.076,1312.43
1317.978,1308.77
1318.881,1299.37
1319.785,1262.03
1320.687,1272.80
1321.589,1288.23
1322.491,1278.40
1323.395,1253.40
1324.297,1300.13
1325.198,1240.83
1326.102,1284.00
1327.004,1312.10
1327.905,1239.13
1328.806,1275.20
1329.709,1296.93
1330.611,1301.30
1331.512,1280.70
1332.413,1275.43
1333.316,1275.07
1334.216,1278.70
1335.117,1237.47
1336.020,1276.33
1336.920,1275.10
1337.821,1254.63
1338.721,1266.07
1339.623,1265.40
1340.523,1238.13
1341.423,1234.10
1342.323,1243.70
1343.225,1256.53
1344.125,1222.27
1345.025,1220.97
1345.924,1245.13
1346.826,1189.87
1347.725,1258.73
1348.624,1211.33
1349.524,1234.03
1350.425,1254.07
1351.324,1251.07
1352.223,1213.83
1353.121,1206.57
1354.022,1203.70
1354.921,1201.67
1355.819,1168.90
1356.718,1184.27
1357.618,1175.27
1358.516,1205.63
1359.415,1169.30
1360.313,1159.83
1361.213,1189.77
1362.111,1166.70
1363.008,1162.63
1363.906,1199.60
1364.806,1166.53
1365.703,1163.17
1366.601,1172.07
1367.498,1183.30
1368.397,1153.97
1369.295,1159.60
1370.192,1172.10
1371.089,1201.43
1371.987,1127.90
1372.884,1135.17
1373.781,1126.77
1374.678,1191.20
1375.574,1142.00
1376.473,1098.47
1377.369,1161.40
1378.265,1139.37
1379.161,1199.07
1380.059,1134.53
1380.955,1128.13
1381.851,1145.70
1382.747,1133.97
1383.643,1141.90
1384.540,1081.00
1385.436,1147.53
1386.331,1091.90
1387.227,1125.60
1388.124,1149.37
1389.019,1124.10
1389.914,1135.10
1390.809,1116.20
1391.704,1115.43
1392.601,1109.73
1393.495,1112.37
1394.390,1108.07
1395.285,1099.30
1396.179,1138.73
1397.075,1104.87
1397.969,1089.70
1398.864,1101.07
1399.758,1114.67
1400.652,1113.33
1401.547,1095.47
1402.441,1081.07
1403.335,1129.47
1404.229,1080.90
1405.122,1102.03
1406.017,1088.37
1406.911,1105.50
1407.804,1088.83
1408.697,1077.20
1409.590,1088.63
1410.485,1063.40
1411.378,1123.97
1412.271,1090.27
1413.163,1062.20
1414.056,1054.40
1414.949,1090.93
1415.843,1045.57
1416.735,1092.53
1417.627,1049.03
1418.520,1035.97
1419.412,1092.93
1420.306,1083.07
1421.197,1110.37
1422.089,1080.33
1422.981,1115.40
1423.873,1082.77
1424.764,1067.07
1425.657,1046.60
1426.549,1076.73
1427.440,1079.70
1428.331,1058.63
1429.222,1063.57
1430.113,1038.60
1431.006,1071.57
1431.897,1057.20
1432.787,1040.73
1433.678,1038.47
1434.568,1032.67
1435.459,1038.73
1436.351,1004.47
1437.241,1051.20
1438.131,1048.90
1439.021,1049.80
1439.911,1055.77
1440.801,1040.20
1441.693,1011.73
1442.583,1047.50
1443.472,1029.90
1444.362,1000.27
1445.251,1032.90
1446.140,1051.67
1447.030,1013.53
1447.921,1044.03
1448.810,1034.60
1449.699,1003.50
1450.588,1053.33
1451.476,985.70
1452.365,1033.30
1453.254,1074.43
1454.144,993.50
1455.032,1017.17
1455.921,984.63
1456.809,1022.63
1457.697,1026.23
1458.585,1021.77
1459.473,1013.23
1460.361,988.33
1461.251,1068.57
1462.138,1026.47
1463.026,1007.13
1463.913,982.50
1464.801,1013.77
1465.688,999.97
1466.575,1022.17
1467.463,975.73
1468.351,1006.30
1469.238,975.63
1470.125,989.77
1471.012,983.43
1471.899,1016.73
1472.785,1021.77
1473.672,991.67
1474.558,982.03
1475.446,986.67
1476.333,978.43
1477.219,978.87
1478.105,948.43
1478.991,1012.80
1479.877,966.57
1480.762,987.53
1481.648,971.43
1482.534,969.90
1483.419,949.30
1484.307,953.77
1485.192,964.23
1486.077,978.80
1486.962,992.20
1487.847,930.13
1488.732,965.50
1489.617,1001.67
1490.502,963.03
1491.387,944.53
1492.271,962.23
1493.156,1003.47
1494.042,971.27
1494.927,976.33
1495.811,961.80
1496.695,935.70
1497.579,974.60
1498.463,973.57
1499.347,954.03
1500.231,940.10
1501.114,939.10
1501.998,972.07
1502.881,932.17
1503.765,950.53
1504.648,939.50
1505.533,974.87
1506.417,935.37
1507.300,876.07
1508.183,970.00
1509.066,935.37
1509.948,937.33
1510.831,933.43
1511.714,919.17
1512.596,971.30
1513.479,936.77
1514.361,933.53
1515.243,918.30
1516.125,938.97
1517.008,933.60
1517.890,936.77
1518.771,907.07
1519.655,942.27
1520.537,934.73
1521.419,936.57
1522.300,928.97
1523.182,903.57
1524.063,941.77
1524.944,943.80
1525.825,928.97
1526.707,918.73
1527.588,918.73
1528.468,907.20
1529.349,921.53
1530.230,933.20
1531.111,910.43
1531.991,959.13
1532.872,914.03
1533.752,920.40
1534.632,896.63
1535.513,915.40
1536.393,917.93
1537.273,906.67
1538.153,869.17
1539.032,915.80
1539.912,906.57
1540.792,891.23
1541.672,932.07
1542.551,896.17
1543.430,909.60
1544.310,887.10
1545.189,917.13
1546.068,891.83
1546.947,941.77
1547.826,920.97
1548.705,920.43
1549.584,912.77
1550.462,882.50
1551.341,902.43
1552.219,923.97
1553.098,852.87
1553.976,908.77
1554.854,911.47
1555.733,876.07
1556.611,903.73
1557.489,914.27
1558.367,901.20
1559.244,890.33
1560.122,872.90
1561.000,892.40
1561.877,901.50
1562.755,875.40
1563.632,896.00
1564.509,905.87
1565.386,882.67
1566.264,853.50
1567.141,873.67
1568.017,873.63
1568.894,925.73
1569.771,894.17
1570.648,873.80
1571.524,870.57
1572.401,880.27
1573.277,891.70
1574.153,905.67
1575.029,887.00
1575.906,896.80
1576.781,872.80
1577.657,872.27
1578.533,892.93
1579.409,887.53
1580.285,875.40
1581.160,872.40
1582.036,874.70
1582.911,866.73
1583.786,832.30
1584.662,865.30
1585.537,844.20
1586.412,880.10
1587.287,865.03
1588.160,859.83
1589.035,845.17
1589.909,869.93
1590.784,910.83
1591.658,879.67
1592.533,858.80
1593.407,860.93
1594.281,855.40
1595.155,871.43
1596.029,861.00
1596.903,857.13
1597.777,856.23
1598.651,855.53
1599.525,863.27
1600.398,882.90
1601.272,876.47
1602.144,840.20
1603.017,857.90
1603.890,875.50
1604.763,861.53
1605.636,877.00
1606.509,871.73
1607.382,858.87
1608.255,902.83
1609.128,824.63
1610.000,898.03
1610.873,851.27
1611.746,886.43
1612.616,850.67
1613.488,889.60
1614.361,843.17
1615.233,867.53
1616.105,832.20
1616.977,853.20
1617.849,849.07
1618.720,860.60
1619.592,858.30
1620.464,864.60
1621.333,843.67
1622.205,846.53
1623.076,842.80
1623.947,845.87
1624.818,828.30
1625.689,828.70
1626.560,854.33
1627.431,842.83
1628.302,846.30
1629.171,857.13
1630.042,825.07
1630.912,854.73
1631.782,894.10
1632.653,828.87
1633.523,857.70
1634.393,852.17
1635.263,813.67
1636.131,836.20
1637.001,823.63
1637.871,850.13
1638.741,834.47
1639.611,840.10
1640.480,848.00
1641.350,848.03
1642.219,806.50
1643.087,855.00
1643.956,847.30
1644.825,807.23
1645.694,856.73
1646.563,809.67
1647.432,852.73
1648.299,813.40
1649.167,846.70
1650.036,844.77
1650.904,840.07
1651.773,848.83
1652.641,837.90
1653.509,821.30
1654.376,850.17
1655.244,845.67
1656.112,811.27
1656.980,808.10
1657.847,800.80
1658.715,827.17
1659.581,835.77
1660.448,794.20
1661.316,815.00
1662.183,807.50
1663.051,812.70
1663.918,802.90
1664.783,822.50
1665.650,820.73
1666.517,835.13
1667.384,831.10
1668.251,834.20
1669.115,795.20
1669.982,802.17
1670.849,837.77
1671.715,822.03
1672.581,814.17
1673.446,838.73
1674.312,800.40
1675.178,835.13
1676.044,858.10
1676.910,849.53
1677.774,800.20
1678.639,800.40
1679.505,840.87
1680.370,835.43
1681.236,829.70
1682.099,796.80
1682.965,835.77
1683.830,825.60
1684.695,781.57
1685.560,820.00
1686.423,850.77
1687.288,818.57
1688.153,815.53
1689.017,811.47
1689.880,808.90
1690.745,810.73
1691.609,821.70
1692.473,822.33
1693.338,818.63
1694.200,808.47
1695.064,825.87
1695.928,793.57
1696.792,817.87
1697.654,803.97
1698.517,812.83
1699.381,807.67
1700.245,834.17
1701.106,802.97
1701.969,831.50
1702.833,789.33
1703.696,830.83
1704.557,770.87
1705.420,813.47
1706.283,820.93
1707.146,676.47
1708.007,573.10
1708.870,767.03
1709.732,778.20
1710.595,802.17
1711.455,797.27
1712.318,809.80
1713.180,791.13
1714.040,857.07
1714.902,839.50
1715.764,792.53
1716.626,792.87
1717.486,798.93
1718.348,841.87
1719.209,814.03
1720.071,786.83
1720.930,821.87
1721.792,798.80
1722.653,800.53
1723.512,806.97
1724.374,798.00
1725.234,816.57
1726.095,814.90
1726.954,811.33
1727.815,772.37
1728.676,783.50
1729.535,810.10
1730.395,778.27
1731.256,818.23
1732.114,789.33
1732.974,802.80
1733.834,808.83
1734.693,767.20
1735.553,803.00
1736.413,810.80
1737.272,792.20
1738.130,805.60
1738.990,809.93
1739.849,828.73
1740.707,793.43
1741.566,792.10
1742.426,851.00
1743.283,830.43
1744.142,817.57
1745.001,773.23
1745.858,793.17
1746.717,827.47
1747.576,812.80
1748.433,785.17
1749.292,799.90
1750.150,793.03
1751.007,796.67
1751.865,753.03
1752.723,809.13
1753.579,765.33
1754.438,808.63
1755.296,809.30
1756.152,819.07
1757.010,792.63
1757.865,819.17
1758.723,796.87
1759.581,809.23
1760.436,756.97
1761.294,785.27
1762.151,785.53
1763.006,781.20
1763.864,767.67
1764.721,805.23
1765.576,768.23
1766.433,828.57
1767.288,780.27
1768.144,797.10
1769.001,731.83
1769.856,792.43
1770.712,816.40
1771.568,761.33
1772.423,756.77
1773.279,803.37
1774.133,784.20
1774.989,756.37
1775.845,785.07
1776.699,773.50
1777.555,784.43
1778.409,806.63
1779.265,805.07
1780.120,781.03
1780.974,784.00
1781.829,797.90
1782.682,777.43
1783.538,753.20
1784.393,811.63
1785.246,802.83
1786.101,805.70
1786.954,793.80
1787.808,794.60
1788.661,786.97
1789.516,755.43
1790.370,785.70
1791.223,810.53
1792.077,769.37
1792.930,785.63
1793.784,781.90
1794.636,774.40
1795.490,803.23
1796.344,788.20
1797.196,753.07
1798.049,752.07
1798.901,770.23
1799.755,746.90
1800.606,798.67
1801.460,791.33
1802.311,819.50
1803.165,803.77
1804.018,782.37
1804.869,769.30
1805.722,788.80
1806.573,781.33
1807.426,808.87
1808.276,767.07
1809.129,769.33
1809.980,797.97
1810.832,770.30
1811.683,759.97
1812.535,768.30
1813.385,759.93
1814.237,775.53
1815.089,809.20
1815.940,744.73
1816.791,798.70
1817.641,753.20
1818.493,763.67
1819.343,768.77
1820.194,775.83
1821.044,779.57
1821.895,792.90
1822.745,783.70
1823.596,737.93
1824.445,765.07
1825.296,758.60
1826.145,790.97
1826.996,783.60
1827.845,762.47
1828.695,789.83
1829.544,781.13
1830.395,797.20
1831.243,743.47
1832.094,765.63
1832.942,789.83
1833.792,801.83
1834.640,791.37
1835.490,768.17
1836.338,802.03
1837.186,780.23
1838.036,756.27
1838.884,747.10
1839.733,741.57
1840.581,780.63
1841.430,756.93
1842.278,761.73
1843.127,762.47
1843.974,781.17
1844.823,756.00
1845.671,761.00
1846.519,749.97
1847.366,774.57
1848.213,781.20
1849.062,755.90
1849.909,719.00
1850.757,738.00
1851.604,742.97
1852.452,763.07
1853.298,772.57
1854.146,737.00
1854.993,756.70
1855.839,791.60
1856.687,761.97
1857.532,759.60
1858.380,757.83
1859.226,754.90
1860.073,783.43
1860.919,791.73
1861.765,767.20
1862.612,798.10
1863.457,759.93
1864.304,791.33
1865.150,741.93
1865.995,791.27
1866.842,773.60
1867.686,757.37
1868.533,739.90
1869.378,762.53
1870.223,760.27
1871.069,761.17
1871.914,761.53
1872.760,757.63
1873.604,771.17
1874.448,717.63
1875.294,752.77
1876.139,762.53
1876.984,788.37
1877.828,741.47
1878.672,750.20
1879.518,767.80
1880.361,762.83
1881.205,735.43
1882.050,767.47
1882.894,737.90
1883.739,767.47
1884.582,756.13
1885.425,751.50
1886.270,755.00
1887.113,747.93
1887.956,786.43
1888.801,763.90
1889.644,765.10
1890.486,753.57
1891.331,733.97
1892.173,760.53
1893.017,739.63
1893.860,723.73
1894.702,759.83
1895.546,741.40
1896.388,753.63
1897.230,734.23
1898.074,752.30
1898.916,769.50
1899.757,752.83
1900.601,716.37
1901.443,773.60
1902.284,754.20
1903.125,732.97
1903.969,752.77
1904.810,768.60
1905.651,728.57
1906.494,773.60
1907.335,723.80
1908.176,730.17
1909.018,721.83
1909.859,749.50
1910.700,744.80
1911.542,736.00
1912.383,744.67
1913.223,743.00
1914.064,758.17
1914.906,771.87
1915.746,774.43
1916.586,752.63
1917.428,750.37
1918.268,779.93
1919.107,749.00
1919.947,754.20
1920.789,747.90
1921.628,783.90
1922.468,728.93
1923.309,701.30
1924.148,711.87
1924.988,752.30
1925.827,767.90
1926.667,769.37
1927.507,749.43
1928.345,768.23
1929.184,773.27
1930.025,747.53
1930.864,753.00
1931.702,771.07
1932.541,777.00
1933.381,770.67
1934.219,740.27
1935.057,765.17
1935.896,756.53
1936.735,756.83
1937.573,738.33
1938.411,737.10
1939.249,758.70
1940.089,765.40
1940.927,737.57
1941.764,761.20
1942.602,788.70
1943.439,714.63
1944.278,734.10
1945.115,736.50
1945.953,759.87
1946.790,754.80
1947.628,742.47
1948.465,765.57
1949.302,712.50
1950.139,734.60
1950.976,731.63
1951.814,777.30
1952.651,755.40
1953.487,759.63
1954.323,744.70
1955.160,746.33
1955.998,772.60
1956.834,767.30
1957.670,723.77
1958.506,744.20
1959.342,736.73
1960.177,720.87
1961.015,761.40
1961.850,744.37
1962.686,751.13
1963.521,775.63
1964.357,701.40
1965.192,781.70
1966.029,739.47
1966.864,740.80
1967.699,785.97
1968.534,738.40
1969.369,740.17
1970.204,745.93
1971.040,764.73
1971.875,737.80
1972.709,738.30
1973.544,731.27
1974.378,741.97
1975.212,774.80
1976.047,739.20
1976.882,743.43
1977.716,747.37
1978.550,693.83
1979.384,768.30
1980.218,720.43
1981.052,741.17
1981.885,752.37
1982.719,734.33
1983.554,730.37
1984.388,778.73
1985.221,738.80
1986.054,766.33
1986.887,747.07
1987.720,750.00
1988.553,768.30
1989.386,744.47
1990.219,742.70
1991.053,783.90
1991.886,708.73
1992.719,741.77
1993.551,710.93
1994.383,708.60
1995.216,730.67
1996.048,747.67
1996.880,762.60
1997.712,779.03
1998.544,760.03
1999.376,746.63
2000.208,708.00
2000.208,708.00

Max Intensity Wave.,219.929
Max Intensity Data,6015.83
Min Intensity Wave.,1708.007
Min Intensity Data,573.10
FWHM Wave.,287.192
FWHM Value,227.84
Pressure Wave.,685.897
Pressure Value [GPa],-21.71732
G/D Ratio,0.68436
G/D Gband Wave.,1547.128
G/D Gband Intensity,943.27
G/D Dband Wave.,1301.599
G/D Dband Intensity,1378.32

<< BACKGROUND SPECTRUM >>
Wave[dcm-1],No100
146.591,2255.00
147.626,2128.00
148.664,2041.00
149.699,2517.00
150.737,2270.00
151.772,2411.00
152.809,2388.00
153.846,2307.00
154.881,2390.00
155.918,1948.00
156.953,2267.00
157.989,2604.00
159.026,2443.00
160.060,2604.00
161.096,2852.00
162.130,2467.00
163.167,2552.00
164.200,2443.00
165.236,2645.00
166.272,2660.00
167.305,2239.00
168.341,2524.00
169.374,2767.00
170.409,2726.00
171.445,2720.00
172.477,2527.00
173.512,2377.00
174.545,2678.00
175.580,2873.00
176.614,2988.00
177.647,2802.00
178.681,3018.00
179.713,3280.00
180.747,2791.00
181.781,2661.00
182.813,2936.00
183.847,3092.00
184.878,2693.00
185.912,2963.00
186.945,3103.00
187.976,3025.00
189.010,2704.00
190.043,2847.00
191.073,2931.00
192.106,2719.00
193.137,3183.00
194.170,2544.00
195.202,2923.00
196.232,2650.00
197.265,2971.00
198.297,3071.00
199.327,2772.00
200.359,2962.00
201.388,3353.00
202.420,2899.00
203.452,3035.00
204.481,2668.00
205.512,3300.00
206.544,3075.00
207.573,3050.00
208.604,3395.00
209.635,3484.00
210.663,2988.00
211.694,2923.00
212.725,2812.00
213.753,2778.00
214.783,3348.00
215.813,3256.00
216.841,2946.00
217.871,3148.00
218.899,2932.00
219.929,3097.00
220.959,2832.00
221.986,3109.00
223.016,2765.00
224.045,3128.00
225.072,3090.00
226.101,3176.00
227.130,3274.00
228.157,2798.00
229.185,2312.00
230.214,3145.00
231.241,2801.00
232.269,2436.00
233.297,2680.00
234.323,3225.00
235.351,2759.00
236.379,3063.00
237.407,2725.00
238.433,2972.00
239.460,3142.00
240.488,3114.00
241.513,3175.00
242.540,3079.00
243.568,3221.00
244.592,3192.00
245.619,3181.00
246.646,2930.00
247.671,2922.00
248.697,2791.00
249.724,2989.00
250.748,2971.00
251.774,2992.00
252.801,3248.00
253.827,3078.00
254.850,3055.00
255.876,2670.00
256.902,3136.00
257.925,3012.00
258.951,2717.00
259.976,2754.00
260.999,3088.00
262.024,2769.00
263.049,3616.00
264.074,3063.00
265.097,3004.00
266.122,3037.00
267.146,2995.00
268.168,3220.00
269.193,2823.00
270.217,3192.00
271.241,2682.00
272.263,2910.00
273.287,3181.00
274.311,2734.00
275.332,3260.00
276.356,2821.00
277.379,3109.00
278.402,3107.00
279.424,2936.00
280.447,2861.00
281.470,2714.00
282.492,3059.00
283.513,2878.00
284.536,3140.00
285.558,3110.00
286.581,3113.00
287.601,2858.00
288.623,2781.00
289.645,3053.00
290.665,3097.00
291.687,3107.00
292.709,3101.00
293.730,3398.00
294.750,2875.00
295.771,2722.00
296.792,3043.00
297.813,2918.00
298.832,3016.00
299.853,2742.00
300.874,2977.00
301.895,2942.00
302.913,2972.00
303.934,3269.00
304.954,3033.00
305.975,3142.00
306.993,2712.00
308.013,3085.00
309.033,3023.00
310.052,2891.00
311.072,2880.00
312.090,3025.00
313.109,3230.00
314.129,3386.00
315.148,3007.00
316.165,3056.00
317.184,3202.00
318.203,2749.00
319.222,2729.00
320.238,3118.00
321.257,2828.00
322.275,2661.00
323.294,2995.00
324.312,3131.00
325.328,3256.00
326.346,3273.00
327.364,3310.00
328.382,3163.00
329.397,3091.00
330.415,3224.00
331.432,3198.00
332.450,3216.00
333.467,3458.00
334.482,2582.00
335.499,3344.00
336.516,2869.00
337.533,2560.00
338.547,2833.00
339.564,2848.00
340.580,3096.00
341.597,2958.00
342.613,3425.00
343.627,2978.00
344.643,2984.00
345.659,3116.00
346.675,2961.00
347.690,2858.00
348.704,3060.00
349.719,2857.00
350.735,2733.00
351.750,3194.00
352.765,3000.00
353.778,2977.00
354.793,3094.00
355.808,2843.00
356.822,3128.00
357.837,2641.00
358.851,3182.00
359.864,2961.00
360.878,2726.00
361.892,2964.00
362.906,3146.00
363.920,2568.00
364.932,3115.00
365.945,3081.00
366.959,2969.00
367.972,2913.00
368.986,2680.00
369.999,3378.00
371.010,2866.00
372.023,3326.00
373.036,2951.00
374.049,3357.00
375.061,3060.00
376.072,2989.00
377.084,2844.00
378.097,2675.00
379.109,3187.00
380.121,2997.00
381.133,2675.00
382.143,3132.00
383.155,2711.00
384.166,2882.00
385.178,3106.00
386.189,3150.00
387.201,2653.00
388.212,2943.00
389.221,2901.00
390.232,3037.00
391.243,2921.00
392.254,2991.00
393.264,2839.00
394.275,3206.00
395.283,3170.00
396.294,3634.00
397.304,3455.00
398.314,3090.00
399.324,3016.00
400.334,2632.00
401.344,3100.00
402.351,2659.00
403.361,3240.00
404.370,2892.00
405.380,2909.00
406.389,3308.00
407.398,3143.00
408.407,3061.00
409.414,3169.00
410.423,3270.00
411.431,2748.00
412.440,2639.00
413.448,3350.00
414.457,2838.00
415.465,2817.00
416.471,2912.00
417.479,3002.00
418.487,2809.00
419.495,3265.00
420.503,3087.00
421.510,2616.00
422.518,3165.00
423.525,3170.00
424.530,3391.00
425.537,2934.00
426.544,3213.00
427.551,2847.00
428.558,3561.00
429.565,3418.00
430.571,2869.00
431.578,2890.00
432.582,2850.00
433.588,2963.00
434.595,2632.00
435.601,3275.00
436.607,3200.00
437.612,2788.00
438.618,3238.00
439.624,2913.00
440.627,2946.00
441.633,3093.00
442.638,3560.00
443.643,3092.00
444.648,2979.00
445.653,3180.00
446.658,2879.00
447.663,3013.00
448.667,2881.00
449.672,2919.00
450.674,2984.00
451.678,2691.00
452.682,2867.00
453.687,2822.00
454.690,3586.00
455.694,3241.00
456.698,2555.00
457.702,2639.00
458.705,2761.00
459.709,2764.00
460.710,2871.00
461.713,3022.00
462.716,3039.00
463.719,2994.00
464.722,3224.00
465.725,2926.00
466.727,2860.00
467.730,3011.00
468.732,2733.00
469.735,3296.00
470.737,2908.00
471.737,2881.00
472.739,2894.00
473.741,2818.00
474.742,3037.00
475.744,3081.00
476.746,3002.00
477.747,2965.00
478.748,3172.00
479.750,2895.00
480.751,2979.00
481.752,3684.00
482.753,3079.00
483.751,3525.00
484.752,2603.00
485.753,2919.00
486.753,2836.00
487.753,2987.00
488.754,3382.00
489.754,2695.00
490.754,3282.00
491.754,3093.00
492.754,2659.00
493.753,3004.00
494.753,2934.00
495.752,3336.00
496.752,3026.00
497.749,2991.00
498.748,2809.00
499.747,3392.00
500.746,3101.00
501.745,2792.00
502.744,2770.00
503.742,3314.00
504.741,2948.00
505.739,2490.00
506.737,2885.00
507.735,3120.00
508.734,3336.00
509.732,3121.00
510.729,3320.00
511.727,2863.00
512.725,2881.00
513.720,2757.00
514.718,3251.00
515.715,2664.00
516.712,2639.00
517.709,2999.00
518.706,2815.00
519.703,3034.00
520.700,3172.00
521.696,3378.00
522.693,2894.00
523.689,2838.00
524.686,3121.00
525.682,2788.00
526.678,3437.00
527.674,2892.00
528.670,2561.00
529.666,3490.00
530.661,3461.00
531.657,3639.00
532.652,3185.00
533.648,2994.00
534.641,3217.00
535.636,3026.00
536.631,3086.00
537.626,3143.00
538.621,2716.00
539.616,2598.00
540.610,2516.00
541.605,3000.00
542.599,3054.00
543.593,2988.00
544.587,3893.00
545.581,2877.00
546.575,3065.00
547.569,3012.00
548.563,2664.00
549.557,2651.00
550.550,2759.00
551.543,2730.00
552.537,3160.00
553.530,2769.00
554.523,2743.00
555.516,3130.00
556.509,2973.00
557.502,2633.00
558.494,3155.00
559.487,2891.00
560.479,3140.00
561.472,3202.00
562.464,3139.00
563.456,3271.00
564.448,2975.00
565.440,3012.00
566.432,3372.00
567.423,2930.00
568.415,2847.00
569.404,3114.00
570.396,2812.00
571.387,3097.00
572.378,3021.00
573.369,3903.00
574.360,3649.00
575.351,2941.00
576.341,2842.00
577.332,2858.00
578.323,2671.00
579.313,2858.00
580.303,3235.00
581.293,3093.00
582.283,2960.00
583.273,3091.00
584.263,3025.00
585.253,3055.00
586.243,3158.00
587.232,2657.00
588.222,2959.00
589.211,3182.00
590.200,3014.00
591.189,2932.00
592.178,2915.00
593.167,3414.00
594.156,3245.00
595.145,2896.00
596.133,3448.00
597.122,3059.00
598.110,3232.00
599.098,3038.00
600.086,3033.00
601.074,3165.00
602.062,2795.00
603.050,2697.00
604.038,3076.00
605.025,2783.00
606.013,3155.00
607.000,3335.00
607.987,3035.00
608.975,3037.00
609.962,2803.00
610.949,3122.00
611.936,3211.00
612.922,3203.00
613.909,2727.00
614.895,3350.00
615.882,2840.00
616.868,2971.00
617.854,2731.00
618.841,3006.00
619.826,3092.00
620.812,2964.00
621.798,2794.00
622.784,3127.00
623.769,3085.00
624.755,2700.00
625.740,3057.00
626.725,2713.00
627.711,2818.00
628.698,3058.00
629.683,2805.00
630.667,3158.00
631.652,2774.00
632.637,2941.00
633.621,3168.00
634.606,2926.00
635.590,3076.00
636.574,2944.00
637.558,3082.00
638.542,3016.00
639.526,2845.00
640.510,2589.00
641.493,3064.00
642.477,3001.00
643.460,2688.00
644.444,3203.00
645.427,3270.00
646.410,2653.00
647.393,2931.00
648.376,3048.00
649.359,2886.00
650.341,3081.00
651.324,3054.00
652.307,3075.00
653.289,2960.00
654.271,2840.00
655.253,2890.00
656.235,3141.00
657.217,3210.00
658.199,2645.00
659.181,2724.00
660.163,2945.00
661.144,2870.00
662.126,2865.00
663.107,2806.00
664.088,4664.00
665.069,3207.00
666.050,2809.00
667.033,2722.00
668.014,3008.00
668.995,2573.00
669.975,2995.00
670.956,2986.00
671.936,3169.00
672.916,2952.00
673.896,3111.00
674.876,2883.00
675.856,2837.00
676.836,2735.00
677.816,2296.00
678.795,2746.00
679.775,2702.00
680.754,2990.00
681.734,3143.00
682.713,3152.00
683.692,2753.00
684.671,2645.00
685.650,2733.00
686.629,2835.00
687.607,2728.00
688.586,2786.00
689.564,2827.00
690.543,3254.00
691.523,2403.00
692.501,2856.00
693.479,2936.00
694.457,2759.00
695.435,2853.00
696.413,2674.00
697.390,2468.00
698.368,2685.00
699.345,3086.00
700.322,2918.00
701.300,3065.00
702.277,3013.00
703.254,3267.00
704.231,2572.00
705.207,2956.00
706.184,2751.00
707.161,2631.00
708.137,2826.00
709.113,2825.00
710.090,2781.00
711.068,2582.00
712.044,2586.00
713.020,2888.00
713.996,2578.00
714.971,2815.00
715.947,2872.00
716.922,2825.00
717.898,2708.00
718.873,2880.00
719.848,2683.00
720.823,2657.00
721.798,2963.00
722.773,2737.00
723.748,2512.00
724.723,2990.00
725.697,2819.00
726.672,2742.00
727.646,2494.00
728.622,3012.00
729.596,2621.00
730.570,2694.00
731.544,3072.00
732.518,3264.00
733.492,2800.00
734.466,2826.00
735.439,3021.00
736.413,3149.00
737.386,2429.00
738.359,2416.00
739.332,2557.00
740.305,2818.00
741.278,3294.00
742.251,2890.00
743.224,2693.00
744.196,2534.00
745.171,3140.00
746.143,3053.00
747.115,2740.00
748.087,2719.00
749.059,3060.00
750.031,2856.00
751.003,3690.00
751.975,3277.00
752.947,2699.00
753.918,3084.00
754.890,2564.00
755.861,2752.00
756.832,3047.00
757.803,2819.00
758.774,2829.00
759.747,2601.00
760.718,3201.00
761.689,2735.00
762.659,2618.00
763.630,3119.00
764.600,2586.00
765.570,3059.00
766.540,3086.00
767.510,2936.00
768.480,3074.00
769.450,2693.00
770.420,2854.00
771.390,2681.00
772.359,2749.00
773.329,2665.00
774.300,2530.00
775.269,2752.00
776.238,2971.00
777.207,3154.00
778.176,2543.00
779.145,2796.00
780.114,2677.00
781.083,2563.00
782.051,2712.00
783.019,2663.00
783.988,3045.00
784.956,2810.00
785.924,2943.00
786.894,2876.00
787.862,2702.00
788.830,3118.00
789.797,2648.00
790.765,2583.00
791.732,2753.00
792.700,2665.00
793.667,2593.00
794.634,2748.00
795.601,2743.00
796.568,2759.00
797.535,2806.00
798.502,3434.00
799.468,2904.00
800.437,2374.00
801.403,2663.00
802.370,3260.00
803.336,2961.00
804.302,2865.00
805.268,2428.00
806.234,2538.00
807.200,2717.00
808.166,2770.00
809.131,2555.00
810.097,2961.00
811.062,3645.00
812.027,2974.00
812.994,2600.00
813.960,2602.00
814.925,2902.00
815.889,2490.00
816.854,3008.00
817.819,2656.00
818.783,2697.00
819.748,3076.00
820.712,2724.00
821.677,2612.00
822.641,2713.00
823.605,2687.00
824.571,3149.00
825.534,2745.00
826.498,2648.00
827.462,2835.00
828.425,2615.00
829.389,3007.00
830.352,2814.00
831.315,2913.00
832.279,2474.00
833.242,2782.00
834.204,2679.00
835.167,2644.00
836.132,3075.00
837.095,2516.00
838.057,2693.00
839.020,2826.00
839.982,2873.00
840.944,2650.00
841.906,2665.00
842.868,2955.00
843.830,2533.00
844.792,3022.00
845.753,2668.00
846.715,2423.00
847.679,2586.00
848.640,2606.00
849.601,2757.00
850.562,3277.00
851.523,2666.00
852.484,2425.00
853.445,3009.00
854.406,2723.00
855.367,2763.00
856.327,3028.00
857.288,2474.00
858.248,2691.00
859.210,2703.00
860.170,2530.00
861.130,3004.00
862.090,2417.00
863.050,2587.00
864.010,2686.00
864.969,2896.00
865.929,2597.00
866.888,2490.00
867.848,2822.00
868.807,2636.00
869.766,2861.00
870.727,2722.00
871.686,3001.00
872.645,3008.00
873.604,3288.00
874.562,2739.00
875.521,2793.00
876.479,3350.00
877.437,2625.00
878.396,2573.00
879.354,3154.00
880.312,2650.00
881.270,2664.00
882.229,3134.00
883.187,2622.00
884.145,2657.00
885.102,2905.00
886.059,2836.00
887.017,2873.00
887.974,2960.00
888.931,3087.00
889.888,2483.00
890.845,2433.00
891.802,2330.00
892.758,2636.00
893.717,2419.00
894.673,2559.00
895.630,2670.00
896.586,2880.00
897.542,2684.00
898.498,2558.00
899.454,2866.00
900.410,2657.00
901.366,2648.00
902.321,3732.00
903.277,2680.00
904.232,2757.00
905.189,2495.00
906.145,2681.00
907.100,2212.00
908.055,2697.00
909.010,2919.00
909.965,2335.00
910.919,2775.00
911.874,2584.00
912.828,2767.00
913.783,2795.00
914.737,2314.00
915.693,2762.00
916.648,2884.00
917.602,2958.00
918.555,2782.00
919.509,2813.00
920.463,2785.00
921.417,2781.00
922.370,2544.00
923.324,2736.00
924.277,2671.00
925.230,2755.00
926.183,2431.00
927.138,2696.00
928.091,2953.00
929.044,2839.00
929.996,2618.00
930.949,2654.00
931.902,2845.00
932.854,2826.00
933.806,2626.00
934.758,2953.00
935.711,2981.00
936.663,2802.00
937.614,2769.00
938.568,2720.00
939.520,2403.00
940.471,2722.00
941.423,2817.00
942.374,2910.00
943.326,2776.00
944.277,2599.00
945.228,2848.00
946.179,2695.00
947.130,3048.00
948.080,2688.00
949.031,2567.00
949.984,2704.00
950.934,2687.00
951.884,2493.00
952.835,2692.00
953.785,2750.00
954.735,2672.00
955.685,2378.00
956.635,2607.00
957.585,2601.00
958.534,2604.00
959.484,2725.00
960.433,2608.00
961.383,2490.00
962.334,2934.00
963.283,2756.00
964.232,2847.00
965.181,2696.00
966.130,2785.00
967.079,2592.00
968.027,2756.00
968.976,2702.00
969.924,2652.00
970.873,2795.00
971.821,2729.00
972.769,2956.00
973.719,2868.00
974.667,2485.00
975.615,2734.00
976.562,2715.00
977.510,2452.00
978.458,2629.00
979.405,2834.00
980.352,2756.00
981.300,2991.00
982.247,2781.00
983.194,2550.00
984.141,2636.00
985.088,2740.00
986.036,2759.00
986.983,2991.00
987.930,3132.00
988.876,2360.00
989.822,2989.00
990.769,2567.00
991.715,2627.00
992.661,2456.00
993.607,2812.00
994.553,3299.00
995.498,2582.00
996.444,2303.00
997.389,2788.00
998.337,2552.00
999.282,2866.00
1000.227,2680.00
1001.173,2707.00
1002.118,2452.00
1003.062,2901.00
1004.007,2668.00
1004.952,3008.00
1005.897,2943.00
1006.841,2709.00
1007.786,2471.00
1008.730,2440.00
1009.674,3221.00
1010.618,2663.00
1011.564,2487.00
1012.508,2406.00
1013.452,2905.00
1014.396,2703.00
1015.339,2646.00
1016.283,2674.00
1017.226,2764.00
1018.170,2690.00
1019.113,2903.00
1020.056,2744.00
1020.999,2725.00
1021.942,2612.00
1022.885,2897.00
1023.828,3018.00
1024.770,2468.00
1025.715,2742.00
1026.657,2712.00
1027.600,2743.00
1028.542,2925.00
1029.484,2748.00
1030.426,2853.00
1031.368,2781.00
1032.310,2607.00
1033.251,2563.00
1034.193,2725.00
1035.135,2471.00
1036.076,2642.00
1037.017,2527.00
1037.959,2827.00
1038.900,2799.00
1039.843,2782.00
1040.784,2916.00
1041.725,2802.00
1042.665,2606.00
1043.606,2755.00
1044.547,2728.00
1045.487,2381.00
1046.427,2649.00
1047.368,2757.00
1048.308,2222.00
1049.248,2504.00
1050.188,2666.00
1051.128,2598.00
1052.067,2678.00
1053.007,2413.00
1053.947,2392.00
1054.886,2572.00
1055.827,2489.00
1056.766,2972.00
1057.706,2438.00
1058.645,2673.00
1059.584,2721.00
1060.522,2982.00
1061.461,2425.00
1062.400,2477.00
1063.338,2647.00
1064.277,2518.00
1065.215,2512.00
1066.154,2438.00
1067.092,2598.00
1068.030,2631.00
1068.968,2864.00
1069.906,3024.00
1070.843,2969.00
1071.781,2745.00
1072.720,2827.00
1073.658,2828.00
1074.595,2624.00
1075.533,2566.00
1076.470,2610.00
1077.407,2947.00
1078.344,2753.00
1079.281,2764.00
1080.217,2284.00
1081.154,2676.00
1082.091,2718.00
1083.027,2454.00
1083.964,2905.00
1084.900,2576.00
1085.836,2648.00
1086.772,2869.00
1087.708,2477.00
1088.644,2871.00
1089.580,2684.00
1090.515,2744.00
1091.451,2579.00
1092.388,2723.00
1093.324,2471.00
1094.259,3221.00
1095.194,2745.00
1096.129,2595.00
1097.064,2550.00
1097.999,2838.00
1098.934,2514.00
1099.869,2539.00
1100.803,2718.00
1101.738,2688.00
1102.672,2400.00
1103.607,2805.00
1104.541,2551.00
1105.475,2541.00
1106.409,2432.00
1107.343,2597.00
1108.277,2422.00
1109.210,2727.00
1110.144,2687.00
1111.078,2704.00
1112.011,2419.00
1112.944,2780.00
1113.878,2715.00
1114.811,2195.00
1115.744,2580.00
1116.678,2315.00
1117.611,2621.00
1118.544,2594.00
1119.477,2759.00
1120.409,2556.00
1121.342,3155.00
1122.274,2778.00
1123.206,3032.00
1124.138,2678.00
1125.070,3017.00
1126.002,2815.00
1126.934,2292.00
1127.866,2573.00
1128.798,2309.00
1129.729,2423.00
1130.661,2647.00
1131.592,2552.00
1132.523,2739.00
1133.454,2763.00
1134.385,2279.00
1135.317,2643.00
1136.247,2592.00
1137.178,2843.00
1138.109,2367.00
1139.039,3003.00
1139.970,2855.00
1140.900,2573.00
1141.831,2334.00
1142.761,2227.00
1143.691,3282.00
1144.621,2630.00
1145.551,2670.00
1146.480,2709.00
1147.410,2855.00
1148.340,2316.00
1149.269,2389.00
1150.199,2600.00
1151.128,3030.00
1152.057,2415.00
1152.979,2564.00
1153.898,2650.00
1154.819,2724.00
1155.739,2620.00
1156.658,2570.00
1157.579,2692.00
1158.498,2624.00
1159.419,2193.00
1160.338,2648.00
1161.256,2688.00
1162.177,2537.00
1163.095,2596.00
1164.016,2738.00
1164.934,2916.00
1165.852,2860.00
1166.772,2623.00
1167.690,2673.00
1168.610,2713.00
1169.528,2661.00
1170.446,2209.00
1171.365,2562.00
1172.283,2523.00
1173.202,2634.00
1174.120,2659.00
1175.037,2495.00
1175.956,2453.00
1176.873,2462.00
1177.792,2492.00
1178.709,3094.00
1179.626,2535.00
1180.544,2879.00
1181.461,2545.00
1182.379,2705.00
1183.296,2620.00
1184.212,2274.00
1185.130,2435.00
1186.046,2975.00
1186.962,2631.00
1187.880,2920.00
1188.796,2648.00
1189.714,2471.00
1190.629,2774.00
1191.545,2682.00
1192.462,2573.00
1193.378,2624.00
1194.295,2371.00
1195.210,2681.00
1196.125,2745.00
1197.042,2691.00
1197.957,2629.00
1198.872,2491.00
1199.788,2526.00
1200.703,2986.00
1201.619,2666.00
1202.534,2514.00
1203.448,2706.00
1204.364,2580.00
1205.278,2320.00
1206.192,2657.00
1207.108,3105.00
1208.022,2976.00
1208.938,2477.00
1209.851,2793.00
1210.765,2863.00
1211.680,2534.00
1212.594,2421.00
1213.507,2590.00
1214.422,3055.00
1215.335,2727.00
1216.248,2565.00
1217.163,2651.00
1218.076,3237.00
1218.990,2779.00
1219.903,2423.00
1220.816,2463.00
1221.730,2579.00
1222.642,2478.00
1223.554,2530.00
1224.469,2738.00
1225.380,2563.00
1226.292,2291.00
1227.206,2781.00
1228.118,2936.00
1229.032,2289.00
1229.943,2535.00
1230.855,2579.00
1231.768,2343.00
1232.679,2685.00
1233.590,2587.00
1234.503,2882.00
1235.414,2515.00
1236.325,2542.00
1237.238,2726.00
1238.149,2699.00
1239.059,2420.00
1239.972,2826.00
1240.882,2473.00
1241.793,2756.00
1242.705,2954.00
1243.615,2589.00
1244.525,2720.00
1245.437,2179.00
1246.347,2644.00
1247.259,2781.00
1248.168,3063.00
1249.078,2816.00
1249.989,2879.00
1250.899,2440.00
1251.808,2494.00
1252.719,2547.00
1253.628,2488.00
1254.537,2998.00
1255.448,2457.00
1256.357,2452.00
1257.266,2655.00
1258.176,2345.00
1259.085,2361.00
1259.993,2454.00
1260.904,2469.00
1261.812,2470.00
1262.720,3167.00
1263.630,2783.00
1264.538,2457.00
1265.446,2722.00
1266.356,2617.00
1267.263,2930.00
1268.171,2410.00
1269.080,2694.00
1269.988,2808.00
1270.895,2574.00
1271.804,2617.00
1272.711,2824.00
1273.619,2797.00
1274.527,2456.00
1275.434,2740.00
1276.341,2450.00
1277.248,2641.00
1278.156,2914.00
1279.063,2477.00
1279.969,2713.00
1280.877,3500.00
1281.783,2815.00
1282.690,2712.00
1283.598,2610.00
1284.503,2530.00
1285.409,2476.00
1286.317,2958.00
1287.223,3004.00
1288.128,2677.00
1289.036,2504.00
1289.941,2541.00
1290.846,2596.00
1291.751,2505.00
1292.658,2542.00
1293.563,3057.00
1294.468,2663.00
1295.375,2805.00
1296.280,2859.00
1297.184,3336.00
1298.091,2750.00
1298.995,2778.00
1299.900,3002.00
1300.806,2523.00
1301.710,2352.00
1302.614,2216.00
1303.518,2872.00
1304.424,2564.00
1305.327,2815.00
1306.231,2593.00
1307.137,2773.00
1308.040,2684.00
1308.943,2652.00
1309.847,2862.00
1310.752,2826.00
1311.655,2299.00
1312.558,2396.00
1313.463,2577.00
1314.366,2509.00
1315.269,2693.00
1316.171,2607.00
1317.076,2493.00
1317.978,2419.00
1318.881,2239.00
1319.785,2514.00
1320.687,2506.00
1321.589,2226.00
1322.491,2463.00
1323.395,2730.00
1324.297,3161.00
1325.198,2788.00
1326.102,2429.00
1327.004,2414.00
1327.905,3060.00
1328.806,2599.00
1329.709,2664.00
1330.611,2523.00
1331.512,2436.00
1332.413,3061.00
1333.316,2662.00
1334.216,2776.00
1335.117,2402.00
1336.020,2640.00
1336.920,2618.00
1337.821,2484.00
1338.721,2868.00
1339.623,2664.00
1340.523,2592.00
1341.423,2496.00
1342.323,2877.00
1343.225,2677.00
1344.125,2477.00
1345.025,2517.00
1345.924,2272.00
1346.826,2995.00
1347.725,2990.00
1348.624,2854.00
1349.524,2478.00
1350.425,2553.00
1351.324,2686.00
1352.223,2781.00
1353.121,2597.00
1354.022,2809.00
1354.921,3007.00
1355.819,2764.00
1356.718,2670.00
1357.618,2390.00
1358.516,2723.00
1359.415,3027.00
1360.313,2757.00
1361.213,2568.00
1362.111,2916.00
1363.008,3270.00
1363.906,2583.00
1364.806,2646.00
1365.703,2724.00
1366.601,2449.00
1367.498,2448.00
1368.397,2831.00
1369.295,2681.00
1370.192,2445.00
1371.089,2674.00
1371.987,2632.00
1372.884,2903.00
1373.781,2459.00
1374.678,2594.00
1375.574,2469.00
1376.473,2801.00
1377.369,2826.00
1378.265,2482.00
1379.161,2536.00
1380.059,2327.00
1380.955,2750.00
1381.851,2388.00
1382.747,2521.00
1383.643,2557.00
1384.540,2459.00
1385.436,2492.00
1386.331,2717.00
1387.227,2770.00
1388.124,2715.00
1389.019,2427.00
1389.914,2593.00
1390.809,2283.00
1391.704,3037.00
1392.601,2543.00
1393.495,2902.00
1394.390,2782.00
1395.285,2879.00
1396.179,2674.00
1397.075,2591.00
1397.969,2689.00
1398.864,2328.00
1399.758,2566.00
1400.652,2640.00
1401.547,2467.00
1402.441,2422.00
1403.335,2941.00
1404.229,2792.00
1405.122,2692.00
1406.017,2615.00
1406.911,2756.00
1407.804,3039.00
1408.697,2625.00
1409.590,2461.00
1410.485,2811.00
1411.378,2653.00
1412.271,2323.00
1413.163,2703.00
1414.056,2803.00
1414.949,2991.00
1415.843,2698.00
1416.735,2566.00
1417.627,2671.00
1418.520,2639.00
1419.412,2826.00
1420.306,2777.00
1421.197,2868.00
1422.089,2823.00
1422.981,3050.00
1423.873,2780.00
1424.764,2734.00
1425.657,2676.00
1426.549,2747.00
1427.440,2809.00
1428.331,2536.00
1429.222,2324.00
1430.113,2701.00
1431.006,2794.00
1431.897,2538.00
1432.787,2661.00
1433.678,2580.00
1434.568,2466.00
1435.459,2869.00
1436.351,2856.00
1437.241,2778.00
1438.131,2792.00
1439.021,2389.00
1439.911,2590.00
1440.801,2700.00
1441.693,2892.00
1442.583,2656.00
1443.472,2643.00
1444.362,2776.00
1445.251,2593.00
1446.140,2556.00
1447.030,2849.00
1447.921,2822.00
1448.810,2460.00
1449.699,3023.00
1450.588,2645.00
1451.476,2595.00
1452.365,2749.00
1453.254,2496.00
1454.144,2554.00
1455.032,2775.00
1455.921,2419.00
1456.809,2931.00
1457.697,2441.00
1458.585,2576.00
1459.473,2594.00
1460.361,2498.00
1461.251,2650.00
1462.138,2707.00
1463.026,2621.00
1463.913,2901.00
1464.801,2544.00
1465.688,2733.00
1466.575,2650.00
1467.463,3110.00
1468.351,2502.00
1469.238,2640.00
1470.125,2267.00
1471.012,2705.00
1471.899,2708.00
1472.785,2445.00
1473.672,2653.00
1474.558,2862.00
1475.446,2786.00
1476.333,2816.00
1477.219,2474.00
1478.105,2654.00
1478.991,2572.00
1479.877,2952.00
1480.762,2625.00
1481.648,2525.00
1482.534,2789.00
1483.419,2740.00
1484.307,2793.00
1485.192,2631.00
1486.077,2498.00
1486.962,2498.00
1487.847,2437.00
1488.732,2507.00
1489.617,2631.00
1490.502,2908.00
1491.387,2792.00
1492.271,2479.00
1493.156,2458.00
1494.042,2443.00
1494.927,2841.00
1495.811,2540.00
1496.695,2818.00
1497.579,2920.00
1498.463,2631.00
1499.347,2699.00
1500.231,2689.00
1501.114,2724.00
1501.998,2896.00
1502.881,2703.00
1503.765,2930.00
1504.648,3062.00
1505.533,2736.00
1506.417,2672.00
1507.300,2686.00
1508.183,2693.00
1509.066,2161.00
1509.948,2888.00
1510.831,3001.00
1511.714,2465.00
1512.596,2763.00
1513.479,2894.00
1514.361,2853.00
1515.243,2686.00
1516.125,2806.00
1517.008,2911.00
1517.890,2617.00
1518.771,2703.00
1519.655,2840.00
1520.537,2593.00
1521.419,2483.00
1522.300,2694.00
1523.182,2806.00
1524.063,2772.00
1524.944,2930.00
1525.825,2839.00
1526.707,2481.00
1527.588,2449.00
1528.468,2752.00
1529.349,2324.00
1530.230,2563.00
1531.111,2826.00
1531.991,2667.00
1532.872,2373.00
1533.752,2624.00
1534.632,2535.00
1535.513,2512.00
1536.393,2802.00
1537.273,2974.00
1538.153,3309.00
1539.032,2386.00
1539.912,2640.00
1540.792,2685.00
1541.672,2653.00
1542.551,2782.00
1543.430,3233.00
1544.310,2692.00
1545.189,2543.00
1546.068,3082.00
1546.947,2713.00
1547.826,2943.00
1548.705,2632.00
1549.584,2863.00
1550.462,2640.00
1551.341,2811.00
1552.219,2707.00
1553.098,2837.00
1553.976,2859.00
1554.854,3037.00
1555.733,2870.00
1556.611,2575.00
1557.489,2450.00
1558.367,2659.00
1559.244,2826.00
1560.122,2668.00
1561.000,2726.00
1561.877,2933.00
1562.755,2550.00
1563.632,2612.00
1564.509,2900.00
1565.386,3032.00
1566.264,2463.00
1567.141,2300.00
1568.017,2821.00
1568.894,2621.00
1569.771,2708.00
1570.648,2782.00
1571.524,2697.00
1572.401,2427.00
1573.277,2438.00
1574.153,2693.00
1575.029,2509.00
1575.906,3342.00
1576.781,2835.00
1577.657,2608.00
1578.533,2886.00
1579.409,2294.00
1580.285,2636.00
1581.160,3071.00
1582.036,2837.00
1582.911,2489.00
1583.786,3037.00
1584.662,2464.00
1585.537,2650.00
1586.412,2698.00
1587.287,2511.00
1588.160,2846.00
1589.035,2333.00
1589.909,2689.00
1590.784,2592.00
1591.658,2442.00
1592.533,2724.00
1593.407,2690.00
1594.281,2562.00
1595.155,3053.00
1596.029,2592.00
1596.903,2624.00
1597.777,2588.00
1598.651,2920.00
1599.525,2367.00
1600.398,2677.00
1601.272,2613.00
1602.144,3220.00
1603.017,2621.00
1603.890,2891.00
1604.763,2754.00
1605.636,2791.00
1606.509,2360.00
1607.382,2519.00
1608.255,2694.00
1609.128,2900.00
1610.000,2590.00
1610.873,2372.00
1611.746,2542.00
1612.616,2617.00
1613.488,2229.00
1614.361,2681.00
1615.233,2612.00
1616.105,2904.00
1616.977,2579.00
1617.849,2515.00
1618.720,2963.00
1619.592,2956.00
1620.464,2732.00
1621.333,3119.00
1622.205,2666.00
1623.076,2654.00
1623.947,2660.00
1624.818,2924.00
1625.689,2802.00
1626.560,2581.00
1627.431,2728.00
1628.302,3069.00
1629.171,2781.00
1630.042,2993.00
1630.912,3630.00
1631.782,3188.00
1632.653,2506.00
1633.523,2819.00
1634.393,2910.00
1635.263,2568.00
1636.131,2653.00
1637.001,2613.00
1637.871,2295.00
1638.741,2317.00
1639.611,2409.00
1640.480,2775.00
1641.350,2530.00
1642.219,2538.00
1643.087,2163.00
1643.956,3075.00
1644.825,2947.00
1645.694,2852.00
1646.563,2856.00
1647.432,2714.00
1648.299,2714.00
1649.167,2779.00
1650.036,2484.00
1650.904,2796.00
1651.773,2869.00
1652.641,2673.00
1653.509,2851.00
1654.376,2524.00
1655.244,2697.00
1656.112,2726.00
1656.980,2699.00
1657.847,2559.00
1658.715,2856.00
1659.581,2579.00
1660.448,2937.00
1661.316,2210.00
1662.183,2731.00
1663.051,2720.00
1663.918,2723.00
1664.783,2687.00
1665.650,2756.00
1666.517,2831.00
1667.384,2680.00
1668.251,2703.00
1669.115,2922.00
1669.982,2657.00
1670.849,2935.00
1671.715,2653.00
1672.581,2806.00
1673.446,2773.00
1674.312,2723.00
1675.178,3066.00
1676.044,2722.00
1676.910,2717.00
1677.774,2731.00
1678.639,2358.00
1679.505,2649.00
1680.370,2792.00
1681.236,3302.00
1682.099,2647.00
1682.965,2689.00
1683.830,2274.00
1684.695,2532.00
1685.560,2601.00
1686.423,2782.00
1687.288,2799.00
1688.153,2717.00
1689.017,2617.00
1689.880,2763.00
1690.745,2820.00
1691.609,2495.00
1692.473,2815.00
1693.338,2878.00
1694.200,2942.00
1695.064,2673.00
1695.928,2610.00
1696.792,2675.00
1697.654,3168.00
1698.517,2704.00
1699.381,2419.00
1700.245,2317.00
1701.106,2962.00
1701.969,2564.00
1702.833,2848.00
1703.696,2566.00
1704.557,2682.00
1705.420,2545.00
1706.283,2689.00
1707.146,2964.00
1708.007,2720.00
1708.870,2513.00
1709.732,2390.00
1710.595,2578.00
1711.455,2445.00
1712.318,2597.00
1713.180,2954.00
1714.040,2669.00
1714.902,2820.00
1715.764,2695.00
1716.626,2487.00
1717.486,2657.00
1718.348,2903.00
1719.209,4204.00
1720.071,2370.00
1720.930,2419.00
1721.792,2530.00
1722.653,2511.00
1723.512,2572.00
1724.374,2633.00
1725.234,2706.00
1726.095,2681.00
1726.954,2671.00
1727.815,2832.00
1728.676,2654.00
1729.535,2880.00
1730.395,2682.00
1731.256,2563.00
1732.114,2749.00
1732.974,2168.00
1733.834,3025.00
1734.693,2864.00
1735.553,2702.00
1736.413,3086.00
1737.272,2580.00
1738.130,2602.00
1738.990,2752.00
1739.849,2540.00
1740.707,3665.00
1741.566,2713.00
1742.426,2676.00
1743.283,3036.00
1744.142,2557.00
1745.001,2383.00
1745.858,2858.00
1746.717,2732.00
1747.576,2765.00
1748.433,2842.00
1749.292,3243.00
1750.150,3304.00
1751.007,2877.00
1751.865,2926.00
1752.723,2688.00
1753.579,2635.00
1754.438,2893.00
1755.296,2882.00
1756.152,2236.00
1757.010,2372.00
1757.865,2851.00
1758.723,2347.00
1759.581,2985.00
1760.436,2696.00
1761.294,3028.00
1762.151,2679.00
1763.006,2618.00
1763.864,2367.00
1764.721,2868.00
1765.576,2712.00
1766.433,2803.00
1767.288,2597.00
1768.144,2743.00
1769.001,2705.00
1769.856,2772.00
1770.712,2871.00
1771.568,2506.00
1772.423,2634.00
1773.279,2558.00
1774.133,2589.00
1774.989,3102.00
1775.845,3052.00
1776.699,2940.00
1777.555,2673.00
1778.409,3183.00
1779.265,2612.00
1780.120,2645.00
1780.974,2673.00
1781.829,2287.00
1782.682,2754.00
1783.538,2545.00
1784.393,2710.00
1785.246,2554.00
1786.101,2770.00
1786.954,2817.00
1787.808,2878.00
1788.661,2412.00
1789.516,2629.00
1790.370,2620.00
1791.223,2843.00
1792.077,2705.00
1792.930,2769.00
1793.784,2566.00
1794.636,2716.00
1795.490,2635.00
1796.344,2707.00
1797.196,2703.00
1798.049,2872.00
1798.901,2589.00
1799.755,2955.00
1800.606,2475.00
1801.460,3199.00
1802.311,2957.00
1803.165,3059.00
1804.018,3030.00
1804.869,2787.00
1805.722,3134.00
1806.573,2727.00
1807.426,2490.00
1808.276,2688.00
1809.129,2590.00
1809.980,2873.00
1810.832,2970.00
1811.683,2645.00
1812.535,3021.00
1813.385,2640.00
1814.237,2967.00
1815.089,2696.00
1815.940,2987.00
1816.791,2619.00
1817.641,2580.00
1818.493,2851.00
1819.343,2760.00
1820.194,2554.00
1821.044,2795.00
1821.895,2892.00
1822.745,2418.00
1823.596,2625.00
1824.445,3104.00
1825.296,2819.00
1826.145,2637.00
1826.996,2877.00
1827.845,2743.00
1828.695,2740.00
1829.544,2686.00
1830.395,2706.00
1831.243,2646.00
1832.094,2443.00
1832.942,3272.00
1833.792,2784.00
1834.640,2744.00
1835.490,2696.00
1836.338,2727.00
1837.186,2580.00
1838.036,2576.00
1838.884,2704.00
1839.733,3032.00
1840.581,2871.00
1841.430,2829.00
1842.278,3028.00
1843.127,2596.00
1843.974,2372.00
1844.823,3118.00
1845.671,2867.00
1846.519,2720.00
1847.366,2764.00
1848.213,2341.00
1849.062,2536.00
1849.909,2483.00
1850.757,3360.00
1851.604,2833.00
1852.452,2626.00
1853.298,2872.00
1854.146,2774.00
1854.993,2745.00
1855.839,3171.00
1856.687,2805.00
1857.532,2817.00
1858.380,2704.00
1859.226,2790.00
1860.073,2802.00
1860.919,2519.00
1861.765,2582.00
1862.612,2908.00
1863.457,2908.00
1864.304,2617.00
1865.150,2851.00
1865.995,2641.00
1866.842,2813.00
1867.686,2936.00
1868.533,2786.00
1869.378,2755.00
1870.223,2723.00
1871.069,2602.00
1871.914,2736.00
1872.760,2685.00
1873.604,2495.00
1874.448,2891.00
1875.294,2888.00
1876.139,2557.00
1876.984,2811.00
1877.828,2378.00
1878.672,2243.00
1879.518,2576.00
1880.361,2867.00
1881.205,2886.00
1882.050,2508.00
1882.894,3214.00
1883.739,2561.00
1884.582,2479.00
1885.425,2544.00
1886.270,2953.00
1887.113,2461.00
1887.956,2774.00
1888.801,2750.00
1889.644,2512.00
1890.486,2314.00
1891.331,2654.00
1892.173,2745.00
1893.017,2797.00
1893.860,3012.00
1894.702,2985.00
1895.546,2737.00
1896.388,3379.00
1897.230,3079.00
1898.074,2613.00
1898.916,2486.00
1899.757,2543.00
1900.601,3398.00
1901.443,2994.00
1902.284,3010.00
1903.125,3185.00
1903.969,2891.00
1904.810,2924.00
1905.651,2825.00
1906.494,3008.00
1907.335,3182.00
1908.176,2851.00
1909.018,2825.00
1909.859,2679.00
1910.700,2580.00
1911.542,3240.00
1912.383,2790.00
1913.223,2350.00
1914.064,2838.00
1914.906,2957.00
1915.746,3024.00
1916.586,3168.00
1917.428,2705.00
1918.268,2728.00
1919.107,2614.00
1919.947,2468.00
1920.789,2652.00
1921.628,2915.00
1922.468,2737.00
1923.309,2613.00
1924.148,3041.00
1924.988,2793.00
1925.827,2682.00
1926.667,2571.00
1927.507,2754.00
1928.345,2531.00
1929.184,2843.00
1930.025,2540.00
1930.864,2959.00
1931.702,2996.00
1932.541,2591.00
1933.381,2822.00
1934.219,2881.00
1935.057,2986.00
1935.896,2424.00
1936.735,2682.00
1937.573,2625.00
1938.411,2514.00
1939.249,2877.00
1940.089,2588.00
1940.927,2977.00
1941.764,2998.00
1942.602,2600.00
1943.439,2651.00
1944.278,2700.00
1945.115,2662.00
1945.953,2461.00
1946.790,2789.00
1947.628,3062.00
1948.465,2804.00
1949.302,2897.00
1950.139,2854.00
1950.976,2615.00
1951.814,2849.00
1952.651,2773.00
1953.487,2507.00
1954.323,2972.00
1955.160,2695.00
1955.998,3062.00
1956.834,2679.00
1957.670,2814.00
1958.506,2944.00
1959.342,2818.00
1960.177,2800.00
1961.015,2847.00
1961.850,2772.00
1962.686,2765.00
1963.521,2744.00
1964.357,3036.00
1965.192,2474.00
1966.029,2877.00
1966.864,2650.00
1967.699,2908.00
1968.534,2772.00
1969.369,2985.00
1970.204,2682.00
1971.040,2741.00
1971.875,2661.00
1972.709,2772.00
1973.544,2579.00
1974.378,2625.00
1975.212,2803.00
1976.047,2631.00
1976.882,2600.00
1977.716,3119.00
1978.550,2478.00
1979.384,2643.00
1980.218,2706.00
1981.052,2665.00
1981.885,2743.00
1982.719,2753.00
1983.554,2891.00
1984.388,3000.00
1985.221,2810.00
1986.054,2954.00
1986.887,2774.00
1987.720,2555.00
1988.553,3009.00
1989.386,2817.00
1990.219,2869.00
1991.053,2980.00
1991.886,2627.00
1992.719,2927.00
1993.551,2299.00
1994.383,2911.00
1995.216,2669.00
1996.048,2443.00
1996.880,2875.00
1997.712,2570.00
1998.544,2703.00
1999.376,2806.00
2000.208,3042.00
