RamanScope Measure Spectrum Data V3.72

<< MEASURE CONDITION >>
Exposure Type,Aver
Exposure Time [sec],15
Exposure Count,30
Measure Time,2023/07/12 20:13:28
Data Name,""
Data Comment,""
Rayleigh Wave[nm],532.0

<< SAMPLE SPECTRUM >>
Wave[dcm-1],No42
146.591,910.30
147.626,1057.07
148.664,1252.83
149.699,1422.17
150.737,1581.40
151.772,1760.90
152.809,1856.27
153.846,1969.30
154.881,2084.67
155.918,2201.37
156.953,2302.67
157.989,2380.90
159.026,2385.50
160.060,2461.40
161.096,2514.13
162.130,2588.17
163.167,2620.17
164.200,2649.93
165.236,2698.90
166.272,2722.17
167.305,2772.00
168.341,2791.17
169.374,2856.20
170.409,2928.63
171.445,2974.43
172.477,2970.83
173.512,2965.03
174.545,3013.93
175.580,3011.60
176.614,3055.63
177.647,3042.57
178.681,3047.33
179.713,3014.80
180.747,2996.63
181.781,2992.17
182.813,2992.80
183.847,3015.40
184.878,3033.67
185.912,3011.93
186.945,3110.87
187.976,3095.17
189.010,3112.70
190.043,3064.40
191.073,3142.93
192.106,3159.00
193.137,3219.40
194.170,3237.83
195.202,3221.20
196.232,3272.03
197.265,3270.27
198.297,3318.57
199.327,3363.27
200.359,3365.47
201.388,3433.30
202.420,3502.77
203.452,3561.57
204.481,3553.10
205.512,3683.23
206.544,3698.47
207.573,3779.87
208.604,3850.43
209.635,3929.67
210.663,4059.87
211.694,4172.63
212.725,4256.87
213.753,4401.23
214.783,4561.20
215.813,4503.47
216.841,4602.23
217.871,4675.80
218.899,4691.67
219.929,4712.33
220.959,4656.73
221.986,4616.90
223.016,4483.00
224.045,4428.63
225.072,4359.57
226.101,4251.87
227.130,4128.00
228.157,4058.40
229.185,3962.90
230.214,3946.70
231.241,3839.70
232.269,3787.37
233.297,3746.17
234.323,3737.53
235.351,3741.23
236.379,3678.50
237.407,3687.10
238.433,3657.37
239.460,3711.40
240.488,3699.10
241.513,3745.63
242.540,3792.10
243.568,3836.50
244.592,3857.37
245.619,3890.10
246.646,3847.50
247.671,3849.33
248.697,3776.30
249.724,3788.53
250.748,3708.17
251.774,3711.97
252.801,3753.27
253.827,3718.70
254.850,3719.13
255.876,3714.50
256.902,3749.67
257.925,3764.57
258.951,3773.93
259.976,3750.80
260.999,3798.60
262.024,3790.23
263.049,3878.50
264.074,3864.63
265.097,3921.17
266.122,3961.93
267.146,3994.53
268.168,3993.40
269.193,4071.03
270.217,4126.23
271.241,4152.77
272.263,4179.07
273.287,4232.50
274.311,4312.80
275.332,4350.87
276.356,4354.33
277.379,4339.30
278.402,4347.80
279.424,4336.17
280.447,4322.83
281.470,4297.37
282.492,4227.03
283.513,4167.73
284.536,4116.70
285.558,4090.23
286.581,4032.40
287.601,3990.87
288.623,3931.67
289.645,3862.83
290.665,3828.23
291.687,3782.27
292.709,3693.43
293.730,3651.97
294.750,3658.63
295.771,3603.73
296.792,3544.80
297.813,3465.83
298.832,3437.43
299.853,3429.80
300.874,3369.23
301.895,3341.23
302.913,3325.63
303.934,3260.10
304.954,3242.87
305.975,2567.40
306.993,3198.73
308.013,3180.63
309.033,3144.07
310.052,3138.43
311.072,3122.93
312.090,3059.87
313.109,3017.30
314.129,3020.20
315.148,3039.17
316.165,3017.87
317.184,3027.00
318.203,2979.53
319.222,2981.77
320.238,2983.77
321.257,2942.20
322.275,2953.57
323.294,2893.67
324.312,2892.83
325.328,2911.17
326.346,2919.50
327.364,2870.00
328.382,2929.40
329.397,2838.13
330.415,2844.00
331.432,2850.47
332.450,2817.80
333.467,2852.10
334.482,2799.13
335.499,2805.23
336.516,2849.70
337.533,2825.53
338.547,2773.13
339.564,2779.57
340.580,2814.70
341.597,2773.00
342.613,2708.57
343.627,2768.30
344.643,2770.37
345.659,2740.40
346.675,2786.10
347.690,2768.67
348.704,2733.27
349.719,2723.33
350.735,2703.57
351.750,2750.63
352.765,2744.53
353.778,2709.97
354.793,2728.83
355.808,2735.47
356.822,2751.83
357.837,2747.70
358.851,2713.97
359.864,2707.43
360.878,2749.67
361.892,2758.47
362.906,2754.37
363.920,2741.33
364.932,2756.30
365.945,2784.33
366.959,2754.47
367.972,2810.47
368.986,2793.70
369.999,2794.57
371.010,2821.80
372.023,2808.87
373.036,2826.97
374.049,2831.33
375.061,2842.60
376.072,2825.73
377.084,2861.10
378.097,2913.07
379.109,2895.57
380.121,2900.27
381.133,2894.67
382.143,2923.07
383.155,2885.70
384.166,2943.77
385.178,2920.90
386.189,2892.63
387.201,2936.50
388.212,2932.67
389.221,2950.63
390.232,2927.60
391.243,2911.07
392.254,2893.63
393.264,2940.67
394.275,2918.10
395.283,2918.33
396.294,2825.80
397.304,2834.77
398.314,2882.77
399.324,2851.53
400.334,2830.90
401.344,2812.37
402.351,2817.50
403.361,2842.70
404.370,2794.00
405.380,2808.97
406.389,2754.97
407.398,2745.40
408.407,2733.40
409.414,2765.67
410.423,2680.77
411.431,2723.30
412.440,2716.70
413.448,2634.70
414.457,2681.27
415.465,2684.97
416.471,2672.97
417.479,2668.03
418.487,2644.37
419.495,2661.13
420.503,2637.77
421.510,2625.37
422.518,2561.83
423.525,2629.13
424.530,2637.63
425.537,2611.53
426.544,2628.17
427.551,2586.13
428.558,2623.43
429.565,2600.37
430.571,2596.70
431.578,2552.40
432.582,2574.90
433.588,2564.83
434.595,2591.60
435.601,2601.73
436.607,2598.40
437.612,2555.57
438.618,2585.10
439.624,2566.53
440.627,2575.00
441.633,2551.07
442.638,2578.70
443.643,2615.43
444.648,2611.13
445.653,2573.33
446.658,2589.87
447.663,2586.70
448.667,2547.07
449.672,2564.50
450.674,2616.83
451.678,2610.57
452.682,2615.10
453.687,2600.00
454.690,2617.60
455.694,2653.07
456.698,2647.33
457.702,2586.63
458.705,2592.97
459.709,2604.40
460.710,2640.37
461.713,2660.10
462.716,2619.63
463.719,2648.13
464.722,2650.50
465.725,2639.90
466.727,2642.53
467.730,2635.13
468.732,2639.60
469.735,2650.53
470.737,2630.13
471.737,2638.47
472.739,2619.70
473.741,2636.27
474.742,2651.10
475.744,2650.07
476.746,2671.70
477.747,2661.67
478.748,2706.73
479.750,2666.63
480.751,2659.07
481.752,2660.87
482.753,2671.27
483.751,2572.37
484.752,2669.67
485.753,2686.50
486.753,2675.33
487.753,2692.70
488.754,2668.97
489.754,2652.43
490.754,2651.27
491.754,2693.70
492.754,2722.70
493.753,2656.73
494.753,2644.10
495.752,2674.63
496.752,2636.87
497.749,2646.07
498.748,2666.63
499.747,2631.50
500.746,2622.00
501.745,2659.73
502.744,2624.43
503.742,2618.33
504.741,2615.37
505.739,2615.37
506.737,2643.33
507.735,2589.70
508.734,2633.60
509.732,2560.53
510.729,2559.67
511.727,2580.27
512.725,2560.70
513.720,2600.43
514.718,2542.70
515.715,2552.90
516.712,2567.07
517.709,2584.13
518.706,2588.50
519.703,2556.50
520.700,2580.50
521.696,2583.97
522.693,2571.43
523.689,2589.53
524.686,2593.00
525.682,2579.10
526.678,2564.13
527.674,2552.70
528.670,2577.37
529.666,2588.97
530.661,2609.87
531.657,2573.57
532.652,2590.13
533.648,2629.00
534.641,2608.70
535.636,2637.00
536.631,2566.73
537.626,2642.47
538.621,2621.97
539.616,2653.43
540.610,2615.50
541.605,2611.63
542.599,2641.70
543.593,2649.00
544.587,2614.93
545.581,2617.53
546.575,2620.37
547.569,2642.37
548.563,2660.20
549.557,2628.90
550.550,2610.07
551.543,2617.60
552.537,2605.53
553.530,2604.03
554.523,2643.83
555.516,2619.07
556.509,2638.60
557.502,2627.43
558.494,2600.13
559.487,2670.57
560.479,2620.30
561.472,2629.47
562.464,2643.63
563.456,2624.60
564.448,2603.03
565.440,2605.87
566.432,2606.10
567.423,2605.87
568.415,2627.20
569.404,2632.37
570.396,2626.80
571.387,2594.77
572.378,2615.13
573.369,2629.53
574.360,2689.67
575.351,2671.33
576.341,2674.47
577.332,2591.33
578.323,2655.70
579.313,2681.03
580.303,2685.60
581.293,2657.63
582.283,2651.80
583.273,2669.67
584.263,2683.80
585.253,2697.30
586.243,2722.87
587.232,2684.77
588.222,2697.97
589.211,2651.43
590.200,2688.30
591.189,2705.20
592.178,2688.90
593.167,2676.63
594.156,2628.37
595.145,2730.77
596.133,2713.40
597.122,2645.63
598.110,2672.23
599.098,2705.00
600.086,2682.37
601.074,2707.03
602.062,2708.53
603.050,2640.87
604.038,2674.53
605.025,2695.33
606.013,2666.03
607.000,2659.33
607.987,2614.73
608.975,2633.83
609.962,2681.17
610.949,2686.33
611.936,2578.93
612.922,2581.20
613.909,2586.43
614.895,2573.17
615.882,2584.73
616.868,2538.60
617.854,2554.80
618.841,2534.10
619.826,2471.30
620.812,2517.87
621.798,2480.33
622.784,2463.87
623.769,2407.33
624.755,2381.30
625.740,2400.70
626.725,2373.80
627.711,2387.70
628.698,2351.43
629.683,2348.67
630.667,2350.73
631.652,2319.83
632.637,2309.80
633.621,2281.03
634.606,2262.33
635.590,2253.87
636.574,2225.50
637.558,2252.87
638.542,2245.77
639.526,2219.27
640.510,2167.93
641.493,2234.90
642.477,2176.80
643.460,2179.37
644.444,2138.53
645.427,2120.07
646.410,2135.10
647.393,2144.33
648.376,2113.67
649.359,2103.40
650.341,2034.70
651.324,2056.67
652.307,2043.43
653.289,2072.53
654.271,2063.73
655.253,2053.70
656.235,2037.57
657.217,2032.47
658.199,2043.33
659.181,2045.43
660.163,2043.87
661.144,1975.50
662.126,1936.90
663.107,1998.43
664.088,1954.70
665.069,1977.83
666.050,1969.87
667.033,1964.23
668.014,1971.73
668.995,1970.80
669.975,1942.83
670.956,1919.97
671.936,1953.27
672.916,1892.83
673.896,1878.57
674.876,1910.43
675.856,1880.90
676.836,1878.13
677.816,1844.83
678.795,1858.10
679.775,1833.70
680.754,1859.73
681.734,1781.90
682.713,1804.10
683.692,1817.57
684.671,1780.30
685.650,1804.20
686.629,1760.60
687.607,1771.07
688.586,1753.43
689.564,1724.50
690.543,1770.53
691.523,1707.80
692.501,1720.63
693.479,1682.87
694.457,1687.23
695.435,1663.67
696.413,1661.40
697.390,1686.47
698.368,1656.70
699.345,1655.43
700.322,1661.43
701.300,1628.83
702.277,1628.00
703.254,1639.07
704.231,1578.53
705.207,1632.67
706.184,1563.83
707.161,1580.57
708.137,1591.83
709.113,1588.73
710.090,1593.10
711.068,1539.97
712.044,1521.07
713.020,1559.07
713.996,1549.33
714.971,1547.20
715.947,1541.13
716.922,1521.10
717.898,1523.33
718.873,1557.10
719.848,1498.30
720.823,1513.40
721.798,1518.57
722.773,1532.27
723.748,1539.97
724.723,1508.00
725.697,1511.10
726.672,1469.03
727.646,1512.40
728.622,1468.03
729.596,1494.83
730.570,1450.63
731.544,1445.20
732.518,1474.67
733.492,1447.90
734.466,1466.50
735.439,1456.50
736.413,1432.83
737.386,1433.77
738.359,1438.57
739.332,1450.90
740.305,1408.77
741.278,1438.13
742.251,1430.90
743.224,1426.80
744.196,1433.03
745.171,1441.50
746.143,1413.90
747.115,1400.63
748.087,1405.60
749.059,1435.43
750.031,1383.80
751.003,1398.17
751.975,1431.77
752.947,1428.57
753.918,1389.00
754.890,1383.07
755.861,1378.03
756.832,1363.60
757.803,1342.70
758.774,1342.87
759.747,1348.97
760.718,1330.40
761.689,1345.43
762.659,1340.80
763.630,1339.43
764.600,1302.93
765.570,1332.27
766.540,1282.93
767.510,1286.93
768.480,1338.03
769.450,1325.77
770.420,1295.30
771.390,1310.40
772.359,1320.77
773.329,1290.73
774.300,1318.73
775.269,1315.20
776.238,1279.37
777.207,1285.03
778.176,1269.67
779.145,1291.63
780.114,1280.67
781.083,1278.20
782.051,1257.40
783.019,1263.07
783.988,1263.30
784.956,1269.07
785.924,1250.50
786.894,1252.03
787.862,1253.30
788.830,1223.37
789.797,1272.50
790.765,1222.83
791.732,1258.97
792.700,1204.27
793.667,1221.73
794.634,1233.07
795.601,1233.33
796.568,1199.50
797.535,1188.87
798.502,1236.07
799.468,1217.90
800.437,1179.77
801.403,1213.30
802.370,1238.57
803.336,1192.40
804.302,1215.23
805.268,1193.17
806.234,1205.67
807.200,1196.23
808.166,1169.33
809.131,1204.13
810.097,1191.00
811.062,1190.63
812.027,1172.50
812.994,1172.97
813.960,1179.93
814.925,1185.93
815.889,1211.67
816.854,1185.73
817.819,1151.87
818.783,1178.80
819.748,1220.73
820.712,1180.70
821.677,1179.47
822.641,1206.67
823.605,1156.53
824.571,1156.10
825.534,1165.83
826.498,1185.17
827.462,1188.23
828.425,1166.13
829.389,1182.80
830.352,1182.83
831.315,1181.50
832.279,1176.60
833.242,1175.70
834.204,1161.83
835.167,1205.70
836.132,1198.87
837.095,1188.13
838.057,1171.23
839.020,1170.40
839.982,1190.00
840.944,1155.43
841.906,1193.07
842.868,1162.93
843.830,1173.63
844.792,1174.63
845.753,1185.47
846.715,1218.83
847.679,1198.57
848.640,1169.63
849.601,1211.40
850.562,1212.80
851.523,1210.53
852.484,1185.07
853.445,1218.27
854.406,1194.03
855.367,1239.90
856.327,1177.80
857.288,1209.53
858.248,1189.40
859.210,1180.37
860.170,1174.40
861.130,1187.80
862.090,1168.07
863.050,1190.60
864.010,1199.53
864.969,1179.50
865.929,1209.53
866.888,1211.00
867.848,1198.20
868.807,1215.30
869.766,1147.60
870.727,1191.37
871.686,1189.00
872.645,1194.23
873.604,1203.97
874.562,1233.80
875.521,1221.23
876.479,1169.50
877.437,1239.40
878.396,1199.67
879.354,1212.20
880.312,1200.27
881.270,1233.80
882.229,1221.60
883.187,1212.90
884.145,1228.00
885.102,1165.67
886.059,1222.30
887.017,1251.53
887.974,1186.40
888.931,1169.87
889.888,1221.67
890.845,1211.60
891.802,1230.40
892.758,1185.77
893.717,1233.40
894.673,1237.30
895.630,1185.77
896.586,1204.30
897.542,1247.07
898.498,1217.90
899.454,1227.27
900.410,1199.23
901.366,1208.50
902.321,1231.27
903.277,1201.57
904.232,1230.77
905.189,1234.87
906.145,1253.30
907.100,1245.00
908.055,1239.80
909.010,1219.17
909.965,1208.30
910.919,1250.20
911.874,1196.90
912.828,1237.37
913.783,1231.47
914.737,1217.30
915.693,1199.43
916.648,1191.57
917.602,1220.97
918.555,1204.00
919.509,1209.27
920.463,1223.60
921.417,1219.07
922.370,1182.23
923.324,1188.60
924.277,1202.97
925.230,1197.27
926.183,1182.93
927.138,1234.27
928.091,1217.77
929.044,1204.07
929.996,1248.70
930.949,1211.57
931.902,1205.73
932.854,1217.20
933.806,1231.13
934.758,1198.00
935.711,1231.23
936.663,1246.97
937.614,1223.13
938.568,1241.20
939.520,1218.13
940.471,1212.50
941.423,1229.63
942.374,1245.60
943.326,1197.97
944.277,1213.83
945.228,1174.93
946.179,1222.07
947.130,1166.70
948.080,1210.30
949.031,1203.47
949.984,1190.83
950.934,1203.63
951.884,1195.90
952.835,1208.83
953.785,1187.93
954.735,1202.87
955.685,1174.10
956.635,1199.80
957.585,1188.53
958.534,1152.83
959.484,1210.77
960.433,1153.10
961.383,1162.23
962.334,1189.50
963.283,1150.70
964.232,1167.40
965.181,1148.47
966.130,1182.50
967.079,1191.23
968.027,1131.30
968.976,1155.70
969.924,1161.30
970.873,1143.20
971.821,1164.60
972.769,1147.10
973.719,1205.77
974.667,1178.17
975.615,1209.67
976.562,1159.67
977.510,1167.83
978.458,1203.73
979.405,1195.23
980.352,1155.70
981.300,1175.67
982.247,1187.67
983.194,1188.07
984.141,1148.10
985.088,1114.83
986.036,1171.97
986.983,1195.87
987.930,1154.03
988.876,1159.97
989.822,1164.43
990.769,1183.73
991.715,1182.47
992.661,1140.93
993.607,1178.63
994.553,1165.67
995.498,1198.47
996.444,1141.67
997.389,1168.10
998.337,1165.70
999.282,1144.53
1000.227,1169.37
1001.173,1180.20
1002.118,1179.20
1003.062,1174.87
1004.007,1174.97
1004.952,1151.87
1005.897,1169.47
1006.841,1144.30
1007.786,1156.30
1008.730,1169.37
1009.674,1188.33
1010.618,1204.23
1011.564,1127.27
1012.508,1182.97
1013.452,1160.07
1014.396,1231.33
1015.339,1157.63
1016.283,1188.80
1017.226,1182.70
1018.170,1183.57
1019.113,1175.33
1020.056,1203.50
1020.999,1224.93
1021.942,1198.17
1022.885,1220.43
1023.828,1186.30
1024.770,1202.70
1025.715,1212.10
1026.657,1225.97
1027.600,1221.00
1028.542,1236.70
1029.484,1212.83
1030.426,1220.50
1031.368,1183.13
1032.310,1216.67
1033.251,1211.43
1034.193,1212.97
1035.135,1224.53
1036.076,1218.73
1037.017,1220.97
1037.959,1207.33
1038.900,1243.03
1039.843,1243.57
1040.784,1247.17
1041.725,1271.07
1042.665,1225.43
1043.606,1293.80
1044.547,1251.80
1045.487,1269.20
1046.427,1240.70
1047.368,1249.63
1048.308,1235.37
1049.248,1244.20
1050.188,1216.07
1051.128,1240.83
1052.067,1275.03
1053.007,1250.57
1053.947,1256.93
1054.886,1283.17
1055.827,1258.77
1056.766,1276.70
1057.706,1261.87
1058.645,1266.90
1059.584,1237.23
1060.522,1282.30
1061.461,1273.23
1062.400,1274.27
1063.338,1288.60
1064.277,1304.87
1065.215,1293.27
1066.154,1281.50
1067.092,1315.00
1068.030,1296.13
1068.968,1303.10
1069.906,1315.30
1070.843,1254.43
1071.781,1347.27
1072.720,1332.57
1073.658,1346.83
1074.595,1311.57
1075.533,1334.80
1076.470,1349.07
1077.407,1335.10
1078.344,1354.17
1079.281,1322.30
1080.217,1341.73
1081.154,1305.43
1082.091,1330.33
1083.027,1318.50
1083.964,1309.33
1084.900,1296.63
1085.836,1327.03
1086.772,1359.40
1087.708,1288.37
1088.644,1336.97
1089.580,1324.57
1090.515,1321.10
1091.451,1324.70
1092.388,1342.40
1093.324,1296.73
1094.259,1327.67
1095.194,1341.13
1096.129,1274.50
1097.064,1276.97
1097.999,1293.03
1098.934,1291.50
1099.869,1265.77
1100.803,1274.27
1101.738,1270.80
1102.672,1259.67
1103.607,1298.20
1104.541,1225.57
1105.475,1250.53
1106.409,1235.63
1107.343,1222.90
1108.277,1232.30
1109.210,1170.93
1110.144,1236.43
1111.078,1226.07
1112.011,1200.50
1112.944,1157.20
1113.878,1163.90
1114.811,1168.80
1115.744,1182.80
1116.678,1164.17
1117.611,1131.47
1118.544,1130.67
1119.477,1119.87
1120.409,1143.97
1121.342,1181.10
1122.274,1099.70
1123.206,1118.53
1124.138,1111.97
1125.070,1078.77
1126.002,1122.67
1126.934,1088.77
1127.866,1109.27
1128.798,1086.13
1129.729,1109.87
1130.661,1095.23
1131.592,1070.90
1132.523,1055.93
1133.454,1045.80
1134.385,1061.03
1135.317,1073.57
1136.247,1025.53
1137.178,1034.20
1138.109,1023.97
1139.039,1008.47
1139.970,1010.57
1140.900,1017.77
1141.831,995.47
1142.761,1033.23
1143.691,1001.60
1144.621,1027.23
1145.551,1010.73
1146.480,1001.80
1147.410,984.00
1148.340,986.37
1149.269,998.93
1150.199,1004.90
1151.128,998.23
1152.057,965.20
1152.979,965.57
1153.898,990.20
1154.819,926.10
1155.739,970.37
1156.658,934.73
1157.579,943.27
1158.498,940.40
1159.419,971.93
1160.338,929.67
1161.256,924.50
1162.177,941.60
1163.095,884.17
1164.016,938.93
1164.934,982.53
1165.852,942.67
1166.772,916.53
1167.690,913.43
1168.610,904.80
1169.528,952.20
1170.446,924.03
1171.365,913.63
1172.283,901.40
1173.202,902.33
1174.120,942.93
1175.037,914.73
1175.956,934.77
1176.873,906.60
1177.792,911.90
1178.709,964.67
1179.626,899.13
1180.544,877.83
1181.461,924.20
1182.379,909.27
1183.296,893.30
1184.212,916.70
1185.130,881.13
1186.046,889.53
1186.962,900.43
1187.880,868.20
1188.796,914.80
1189.714,890.90
1190.629,886.63
1191.545,950.60
1192.462,897.30
1193.378,868.67
1194.295,900.90
1195.210,873.70
1196.125,899.67
1197.042,878.03
1197.957,875.97
1198.872,890.57
1199.788,890.17
1200.703,856.80
1201.619,896.43
1202.534,856.17
1203.448,888.83
1204.364,882.37
1205.278,872.10
1206.192,900.47
1207.108,923.73
1208.022,903.30
1208.938,894.13
1209.851,870.23
1210.765,918.03
1211.680,855.80
1212.594,877.27
1213.507,865.13
1214.422,900.73
1215.335,888.17
1216.248,900.40
1217.163,920.17
1218.076,874.07
1218.990,900.20
1219.903,851.53
1220.816,885.63
1221.730,911.10
1222.642,928.23
1223.554,924.90
1224.469,858.87
1225.380,894.07
1226.292,895.27
1227.206,903.83
1228.118,870.57
1229.032,903.53
1229.943,932.97
1230.855,920.33
1231.768,886.47
1232.679,909.47
1233.590,926.17
1234.503,936.27
1235.414,906.60
1236.325,884.70
1237.238,897.13
1238.149,901.57
1239.059,921.83
1239.972,928.23
1240.882,925.63
1241.793,909.70
1242.705,912.83
1243.615,898.40
1244.525,920.40
1245.437,903.93
1246.347,922.10
1247.259,910.27
1248.168,946.27
1249.078,923.97
1249.989,903.37
1250.899,933.63
1251.808,913.50
1252.719,928.53
1253.628,936.43
1254.537,915.10
1255.448,948.87
1256.357,944.53
1257.266,960.37
1258.176,915.60
1259.085,931.50
1259.993,917.83
1260.904,971.10
1261.812,947.13
1262.720,901.47
1263.630,939.93
1264.538,922.30
1265.446,961.03
1266.356,930.20
1267.263,963.43
1268.171,955.03
1269.080,977.37
1269.988,906.57
1270.895,944.03
1271.804,940.67
1272.711,979.80
1273.619,967.93
1274.527,938.90
1275.434,965.40
1276.341,944.10
1277.248,925.73
1278.156,978.80
1279.063,932.30
1279.969,932.30
1280.877,906.67
1281.783,946.47
1282.690,964.67
1283.598,948.97
1284.503,926.33
1285.409,889.93
1286.317,924.23
1287.223,970.43
1288.128,891.90
1289.036,930.03
1289.941,930.93
1290.846,901.00
1291.751,968.87
1292.658,914.17
1293.563,921.90
1294.468,930.73
1295.375,908.97
1296.280,925.37
1297.184,911.70
1298.091,903.63
1298.995,911.00
1299.900,890.83
1300.806,882.90
1301.710,902.43
1302.614,871.73
1303.518,888.77
1304.424,877.10
1305.327,891.60
1306.231,911.20
1307.137,917.17
1308.040,889.20
1308.943,865.97
1309.847,880.80
1310.752,857.23
1311.655,857.00
1312.558,868.07
1313.463,851.30
1314.366,875.80
1315.269,880.23
1316.171,879.40
1317.076,866.40
1317.978,819.73
1318.881,830.30
1319.785,830.90
1320.687,847.10
1321.589,838.17
1322.491,814.40
1323.395,825.73
1324.297,839.73
1325.198,838.93
1326.102,821.43
1327.004,830.23
1327.905,801.00
1328.806,811.03
1329.709,830.67
1330.611,795.27
1331.512,833.93
1332.413,816.13
1333.316,828.30
1334.216,829.93
1335.117,802.00
1336.020,755.73
1336.920,774.87
1337.821,817.43
1338.721,805.53
1339.623,787.53
1340.523,804.70
1341.423,776.17
1342.323,807.83
1343.225,773.13
1344.125,766.33
1345.025,784.77
1345.924,778.53
1346.826,766.00
1347.725,784.03
1348.624,754.37
1349.524,788.90
1350.425,744.17
1351.324,788.73
1352.223,749.10
1353.121,735.77
1354.022,757.33
1354.921,730.83
1355.819,760.27
1356.718,740.80
1357.618,729.90
1358.516,772.93
1359.415,732.80
1360.313,733.07
1361.213,738.40
1362.111,702.73
1363.008,719.50
1363.906,742.63
1364.806,731.50
1365.703,742.43
1366.601,702.43
1367.498,745.53
1368.397,707.23
1369.295,719.10
1370.192,704.17
1371.089,726.60
1371.987,705.93
1372.884,698.80
1373.781,692.73
1374.678,693.10
1375.574,705.77
1376.473,707.47
1377.369,686.73
1378.265,689.63
1379.161,710.67
1380.059,712.57
1380.955,680.37
1381.851,705.87
1382.747,651.77
1383.643,682.37
1384.540,713.47
1385.436,699.13
1386.331,642.67
1387.227,693.43
1388.124,684.97
1389.019,661.57
1389.914,666.03
1390.809,663.20
1391.704,682.00
1392.601,664.53
1393.495,653.40
1394.390,691.87
1395.285,672.80
1396.179,651.60
1397.075,655.17
1397.969,696.90
1398.864,663.87
1399.758,657.10
1400.652,653.87
1401.547,617.27
1402.441,637.33
1403.335,662.83
1404.229,655.53
1405.122,628.57
1406.017,628.73
1406.911,632.27
1407.804,637.50
1408.697,692.87
1409.590,631.77
1410.485,608.60
1411.378,649.10
1412.271,603.47
1413.163,651.40
1414.056,622.17
1414.949,621.13
1415.843,646.67
1416.735,602.57
1417.627,613.00
1418.520,606.40
1419.412,620.47
1420.306,622.50
1421.197,629.47
1422.089,627.17
1422.981,616.63
1423.873,591.80
1424.764,649.77
1425.657,614.20
1426.549,601.53
1427.440,621.27
1428.331,623.33
1429.222,595.13
1430.113,645.50
1431.006,606.20
1431.897,606.63
1432.787,608.70
1433.678,595.77
1434.568,612.30
1435.459,571.97
1436.351,603.80
1437.241,615.23
1438.131,595.83
1439.021,611.57
1439.911,604.83
1440.801,632.17
1441.693,595.10
1442.583,617.33
1443.472,594.30
1444.362,613.87
1445.251,618.10
1446.140,584.43
1447.030,585.37
1447.921,593.10
1448.810,606.03
1449.699,546.17
1450.588,558.23
1451.476,577.30
1452.365,599.93
1453.254,552.50
1454.144,597.27
1455.032,607.03
1455.921,563.60
1456.809,568.23
1457.697,595.47
1458.585,580.67
1459.473,585.80
1460.361,558.10
1461.251,532.90
1462.138,573.57
1463.026,563.93
1463.913,518.20
1464.801,565.03
1465.688,558.97
1466.575,562.27
1467.463,549.93
1468.351,590.33
1469.238,563.57
1470.125,556.57
1471.012,555.17
1471.899,528.87
1472.785,598.40
1473.672,580.13
1474.558,518.47
1475.446,568.23
1476.333,563.00
1477.219,535.37
1478.105,567.70
1478.991,528.90
1479.877,546.10
1480.762,553.90
1481.648,554.63
1482.534,550.87
1483.419,550.87
1484.307,524.27
1485.192,551.67
1486.077,521.93
1486.962,567.10
1487.847,565.63
1488.732,550.73
1489.617,538.23
1490.502,535.90
1491.387,545.37
1492.271,534.20
1493.156,553.40
1494.042,552.17
1494.927,596.07
1495.811,543.13
1496.695,520.30
1497.579,540.83
1498.463,556.53
1499.347,536.13
1500.231,526.67
1501.114,520.57
1501.998,533.43
1502.881,523.23
1503.765,543.27
1504.648,547.43
1505.533,544.90
1506.417,525.60
1507.300,514.43
1508.183,552.97
1509.066,535.17
1509.948,533.40
1510.831,497.70
1511.714,506.47
1512.596,521.23
1513.479,511.47
1514.361,498.27
1515.243,542.63
1516.125,506.30
1517.008,520.20
1517.890,490.10
1518.771,514.33
1519.655,510.63
1520.537,497.30
1521.419,480.27
1522.300,499.23
1523.182,498.27
1524.063,486.77
1524.944,507.80
1525.825,516.87
1526.707,510.40
1527.588,523.30
1528.468,490.60
1529.349,502.97
1530.230,528.73
1531.111,517.43
1531.991,497.63
1532.872,519.50
1533.752,496.10
1534.632,468.93
1535.513,536.37
1536.393,526.57
1537.273,515.97
1538.153,519.33
1539.032,511.37
1539.912,500.40
1540.792,474.40
1541.672,494.00
1542.551,452.97
1543.430,512.67
1544.310,471.70
1545.189,481.97
1546.068,517.90
1546.947,489.23
1547.826,518.83
1548.705,464.90
1549.584,477.13
1550.462,484.83
1551.341,473.87
1552.219,489.87
1553.098,504.13
1553.976,449.77
1554.854,476.70
1555.733,459.37
1556.611,456.30
1557.489,490.20
1558.367,470.87
1559.244,487.13
1560.122,500.20
1561.000,476.97
1561.877,534.80
1562.755,473.53
1563.632,448.77
1564.509,469.97
1565.386,469.67
1566.264,497.60
1567.141,504.00
1568.017,467.83
1568.894,496.97
1569.771,510.23
1570.648,425.93
1571.524,486.63
1572.401,487.67
1573.277,463.87
1574.153,486.83
1575.029,478.13
1575.906,448.77
1576.781,419.47
1577.657,490.90
1578.533,486.53
1579.409,466.67
1580.285,503.30
1581.160,459.47
1582.036,450.33
1582.911,492.40
1583.786,459.07
1584.662,437.27
1585.537,458.23
1586.412,459.17
1587.287,482.07
1588.160,494.97
1589.035,468.90
1589.909,446.30
1590.784,479.73
1591.658,490.67
1592.533,498.77
1593.407,452.50
1594.281,451.33
1595.155,470.70
1596.029,481.53
1596.903,434.40
1597.777,482.40
1598.651,478.67
1599.525,453.57
1600.398,476.93
1601.272,455.60
1602.144,437.73
1603.017,455.73
1603.890,454.53
1604.763,467.27
1605.636,450.07
1606.509,458.13
1607.382,457.83
1608.255,473.83
1609.128,435.60
1610.000,488.00
1610.873,483.13
1611.746,424.90
1612.616,458.73
1613.488,492.60
1614.361,447.13
1615.233,482.23
1616.105,504.47
1616.977,477.90
1617.849,416.03
1618.720,474.27
1619.592,471.30
1620.464,473.37
1621.333,484.50
1622.205,452.37
1623.076,470.57
1623.947,422.70
1624.818,455.10
1625.689,475.23
1626.560,429.37
1627.431,443.10
1628.302,463.30
1629.171,418.80
1630.042,474.60
1630.912,469.43
1631.782,480.13
1632.653,453.93
1633.523,440.13
1634.393,465.40
1635.263,450.20
1636.131,444.00
1637.001,424.90
1637.871,469.47
1638.741,430.57
1639.611,428.20
1640.480,396.33
1641.350,470.87
1642.219,468.37
1643.087,407.57
1643.956,449.30
1644.825,435.47
1645.694,435.53
1646.563,451.93
1647.432,454.57
1648.299,446.50
1649.167,440.70
1650.036,430.40
1650.904,449.43
1651.773,438.43
1652.641,432.83
1653.509,412.83
1654.376,460.50
1655.244,435.77
1656.112,428.50
1656.980,458.90
1657.847,423.77
1658.715,450.60
1659.581,437.23
1660.448,419.73
1661.316,466.73
1662.183,437.90
1663.051,420.53
1663.918,432.50
1664.783,448.53
1665.650,458.77
1666.517,428.03
1667.384,461.47
1668.251,428.23
1669.115,427.20
1669.982,421.97
1670.849,429.87
1671.715,409.07
1672.581,412.27
1673.446,449.30
1674.312,434.57
1675.178,391.23
1676.044,407.07
1676.910,430.27
1677.774,458.07
1678.639,444.63
1679.505,426.63
1680.370,414.00
1681.236,441.20
1682.099,405.90
1682.965,392.47
1683.830,450.10
1684.695,410.50
1685.560,418.97
1686.423,412.10
1687.288,390.67
1688.153,408.20
1689.017,384.03
1689.880,428.97
1690.745,380.33
1691.609,422.00
1692.473,422.50
1693.338,376.93
1694.200,444.53
1695.064,431.73
1695.928,395.03
1696.792,439.63
1697.654,413.80
1698.517,400.97
1699.381,443.10
1700.245,424.30
1701.106,439.33
1701.969,409.37
1702.833,421.17
1703.696,397.03
1704.557,428.03
1705.420,412.00
1706.283,405.07
1707.146,391.73
1708.007,406.03
1708.870,414.67
1709.732,418.27
1710.595,400.20
1711.455,430.50
1712.318,419.80
1713.180,404.93
1714.040,432.47
1714.902,424.93
1715.764,419.20
1716.626,400.47
1717.486,431.63
1718.348,431.43
1719.209,-403.93
1720.071,414.60
1720.930,414.73
1721.792,410.57
1722.653,398.80
1723.512,384.83
1724.374,423.73
1725.234,439.10
1726.095,415.40
1726.954,425.33
1727.815,428.30
1728.676,413.27
1729.535,402.23
1730.395,447.90
1731.256,425.87
1732.114,408.30
1732.974,392.67
1733.834,420.80
1734.693,411.23
1735.553,416.53
1736.413,356.73
1737.272,393.23
1738.130,385.13
1738.990,373.30
1739.849,416.73
1740.707,415.93
1741.566,431.43
1742.426,400.80
1743.283,378.23
1744.142,379.43
1745.001,413.10
1745.858,372.90
1746.717,379.07
1747.576,357.30
1748.433,396.03
1749.292,401.30
1750.150,409.43
1751.007,408.20
1751.865,413.40
1752.723,412.30
1753.579,398.77
1754.438,395.67
1755.296,360.97
1756.152,401.80
1757.010,370.60
1757.865,393.90
1758.723,366.17
1759.581,389.27
1760.436,369.47
1761.294,409.17
1762.151,365.20
1763.006,388.30
1763.864,418.83
1764.721,411.77
1765.576,397.47
1766.433,375.87
1767.288,394.93
1768.144,428.87
1769.001,374.97
1769.856,387.17
1770.712,409.30
1771.568,349.53
1772.423,416.70
1773.279,381.17
1774.133,409.83
1774.989,399.67
1775.845,409.57
1776.699,389.73
1777.555,409.13
1778.409,424.70
1779.265,361.23
1780.120,358.17
1780.974,390.57
1781.829,384.23
1782.682,423.07
1783.538,432.57
1784.393,352.13
1785.246,361.37
1786.101,365.40
1786.954,438.80
1787.808,373.37
1788.661,367.80
1789.516,400.20
1790.370,346.80
1791.223,386.10
1792.077,379.10
1792.930,376.00
1793.784,377.07
1794.636,411.47
1795.490,357.43
1796.344,348.80
1797.196,404.63
1798.049,365.70
1798.901,360.73
1799.755,339.13
1800.606,363.93
1801.460,380.70
1802.311,364.23
1803.165,413.63
1804.018,378.77
1804.869,373.93
1805.722,429.77
1806.573,368.93
1807.426,363.07
1808.276,399.23
1809.129,373.63
1809.980,349.87
1810.832,362.97
1811.683,360.97
1812.535,354.37
1813.385,372.27
1814.237,381.10
1815.089,376.63
1815.940,370.07
1816.791,374.73
1817.641,384.63
1818.493,351.03
1819.343,350.43
1820.194,394.50
1821.044,389.57
1821.895,405.50
1822.745,385.07
1823.596,363.93
1824.445,357.00
1825.296,377.10
1826.145,362.27
1826.996,417.10
1827.845,378.10
1828.695,327.07
1829.544,351.00
1830.395,367.73
1831.243,386.00
1832.094,381.17
1832.942,423.77
1833.792,352.43
1834.640,387.77
1835.490,381.87
1836.338,382.27
1837.186,344.23
1838.036,383.93
1838.884,354.70
1839.733,378.47
1840.581,393.63
1841.430,363.13
1842.278,390.17
1843.127,346.40
1843.974,413.87
1844.823,383.30
1845.671,385.27
1846.519,358.37
1847.366,393.03
1848.213,373.97
1849.062,390.33
1849.909,354.77
1850.757,315.03
1851.604,342.33
1852.452,321.30
1853.298,353.20
1854.146,384.57
1854.993,347.47
1855.839,395.03
1856.687,353.77
1857.532,361.53
1858.380,393.33
1859.226,358.70
1860.073,367.57
1860.919,349.00
1861.765,375.07
1862.612,381.77
1863.457,355.17
1864.304,364.07
1865.150,393.70
1865.995,376.53
1866.842,352.67
1867.686,352.73
1868.533,372.03
1869.378,368.37
1870.223,375.33
1871.069,385.13
1871.914,350.00
1872.760,348.53
1873.604,380.57
1874.448,373.80
1875.294,386.57
1876.139,348.03
1876.984,362.03
1877.828,339.93
1878.672,354.23
1879.518,376.43
1880.361,350.70
1881.205,362.53
1882.050,351.97
1882.894,372.83
1883.739,336.50
1884.582,366.00
1885.425,365.77
1886.270,376.60
1887.113,388.80
1887.956,359.50
1888.801,357.80
1889.644,338.43
1890.486,352.27
1891.331,391.20
1892.173,375.17
1893.017,331.73
1893.860,362.00
1894.702,389.87
1895.546,349.20
1896.388,340.30
1897.230,389.10
1898.074,349.50
1898.916,338.57
1899.757,395.47
1900.601,366.47
1901.443,351.67
1902.284,365.20
1903.125,330.37
1903.969,327.90
1904.810,347.23
1905.651,351.70
1906.494,359.27
1907.335,358.83
1908.176,374.17
1909.018,381.90
1909.859,365.70
1910.700,357.60
1911.542,378.10
1912.383,354.77
1913.223,339.30
1914.064,331.63
1914.906,355.23
1915.746,366.43
1916.586,370.43
1917.428,304.80
1918.268,352.07
1919.107,345.87
1919.947,325.70
1920.789,355.67
1921.628,369.20
1922.468,368.97
1923.309,345.13
1924.148,338.37
1924.988,356.40
1925.827,348.57
1926.667,314.73
1927.507,323.27
1928.345,350.93
1929.184,346.37
1930.025,324.43
1930.864,343.37
1931.702,353.30
1932.541,360.47
1933.381,338.13
1934.219,340.00
1935.057,361.30
1935.896,326.90
1936.735,317.97
1937.573,351.60
1938.411,363.97
1939.249,346.03
1940.089,342.00
1940.927,329.93
1941.764,318.37
1942.602,334.80
1943.439,351.03
1944.278,351.37
1945.115,349.43
1945.953,362.57
1946.790,316.67
1947.628,326.43
1948.465,311.17
1949.302,312.27
1950.139,347.00
1950.976,350.20
1951.814,350.03
1952.651,348.37
1953.487,326.07
1954.323,371.43
1955.160,382.43
1955.998,291.90
1956.834,359.53
1957.670,347.40
1958.506,319.57
1959.342,368.63
1960.177,326.57
1961.015,356.90
1961.850,337.23
1962.686,336.67
1963.521,345.43
1964.357,341.47
1965.192,380.43
1966.029,351.67
1966.864,341.03
1967.699,350.17
1968.534,319.30
1969.369,351.60
1970.204,324.50
1971.040,353.50
1971.875,354.33
1972.709,354.60
1973.544,312.40
1974.378,358.53
1975.212,324.23
1976.047,321.77
1976.882,340.43
1977.716,329.83
1978.550,337.10
1979.384,334.20
1980.218,311.60
1981.052,344.60
1981.885,350.03
1982.719,342.23
1983.554,342.93
1984.388,352.67
1985.221,350.10
1986.054,369.77
1986.887,359.13
1987.720,335.73
1988.553,334.27
1989.386,345.17
1990.219,299.20
1991.053,344.70
1991.886,321.87
1992.719,347.60
1993.551,325.70
1994.383,345.80
1995.216,335.13
1996.048,344.60
1996.880,294.43
1997.712,322.77
1998.544,312.83
1999.376,331.47
2000.208,338.70
2001.040,362.83
2001.873,324.07
2002.705,352.27
2003.536,359.87
2004.367,313.53
2005.199,332.07
2006.030,326.63
2006.861,324.90
2007.692,346.13
2008.523,332.77
2009.354,301.23
2010.185,312.43
2011.016,298.70
2011.846,293.00
2012.677,327.17
2013.507,348.50
2014.338,350.83
2015.168,306.70
2015.999,320.70
2016.829,337.30
2017.659,322.07
2018.489,353.27
2019.319,314.73
2020.149,328.27
2020.980,316.37
2021.810,339.57
2022.639,349.33
2023.469,381.70
2024.298,348.90
2025.128,377.60
2025.957,318.50
2026.786,318.40
2027.615,338.97
2028.444,321.50
2029.273,335.77
2030.102,370.80
2030.931,351.93
2031.758,345.47
2032.586,322.60
2033.415,362.57
2034.243,340.37
2035.072,335.30
2035.900,349.20
2036.728,364.73
2037.556,330.13
2038.385,318.53
2039.213,373.53
2040.040,333.87
2040.868,333.40
2041.696,331.30
2042.524,337.77
2043.351,308.07
2044.179,346.47
2045.006,326.33
2045.006,326.33

Max Intensity Wave.,219.929
Max Intensity Data,4712.33
Min Intensity Wave.,1719.209
Min Intensity Data,-403.93
FWHM Wave.,403.228
FWHM Value,0.84
Pressure Wave.,685.507
Pressure Value [GPa],-22.73729
G/D Ratio,0.58198
G/D Gband Wave.,1561.864
G/D Gband Intensity,534.81
G/D Dband Wave.,1306.843
G/D Dband Intensity,918.96

<< BACKGROUND SPECTRUM >>
Wave[dcm-1],No42
146.591,2257.00
147.626,2125.00
148.664,2039.00
149.699,2523.00
150.737,2259.00
151.772,2371.00
152.809,2403.00
153.846,2323.00
154.881,2419.00
155.918,1975.00
156.953,2279.00
157.989,2575.00
159.026,2486.00
160.060,2647.00
161.096,2867.00
162.130,2486.00
163.167,2551.00
164.200,2444.00
165.236,2631.00
166.272,2691.00
167.305,2285.00
168.341,2570.00
169.374,2781.00
170.409,2755.00
171.445,2702.00
172.477,2539.00
173.512,2433.00
174.545,2682.00
175.580,2867.00
176.614,3025.00
177.647,2814.00
178.681,3015.00
179.713,3333.00
180.747,2834.00
181.781,2739.00
182.813,3013.00
183.847,3090.00
184.878,2718.00
185.912,2981.00
186.945,3074.00
187.976,3055.00
189.010,2701.00
190.043,2877.00
191.073,2911.00
192.106,2733.00
193.137,3155.00
194.170,2534.00
195.202,2927.00
196.232,2683.00
197.265,3019.00
198.297,3087.00
199.327,2777.00
200.359,2986.00
201.388,3335.00
202.420,2895.00
203.452,3091.00
204.481,2723.00
205.512,3273.00
206.544,3102.00
207.573,3075.00
208.604,3419.00
209.635,3555.00
210.663,2950.00
211.694,2957.00
212.725,2846.00
213.753,2790.00
214.783,3287.00
215.813,3276.00
216.841,3006.00
217.871,3173.00
218.899,2924.00
219.929,3127.00
220.959,2885.00
221.986,3120.00
223.016,2787.00
224.045,3149.00
225.072,3102.00
226.101,3178.00
227.130,3237.00
228.157,2818.00
229.185,2374.00
230.214,3157.00
231.241,2860.00
232.269,2491.00
233.297,2729.00
234.323,3256.00
235.351,2799.00
236.379,3124.00
237.407,2778.00
238.433,2966.00
239.460,3121.00
240.488,3150.00
241.513,3221.00
242.540,3108.00
243.568,3204.00
244.592,3242.00
245.619,3204.00
246.646,2922.00
247.671,2929.00
248.697,2832.00
249.724,3004.00
250.748,3032.00
251.774,3009.00
252.801,3258.00
253.827,3125.00
254.850,3092.00
255.876,2700.00
256.902,3130.00
257.925,2960.00
258.951,2742.00
259.976,2809.00
260.999,3108.00
262.024,2813.00
263.049,3604.00
264.074,3121.00
265.097,3019.00
266.122,3069.00
267.146,2995.00
268.168,3228.00
269.193,2862.00
270.217,3210.00
271.241,2715.00
272.263,2899.00
273.287,3176.00
274.311,2752.00
275.332,3276.00
276.356,2843.00
277.379,3098.00
278.402,3125.00
279.424,2953.00
280.447,2897.00
281.470,2714.00
282.492,3092.00
283.513,2918.00
284.536,3211.00
285.558,3182.00
286.581,3113.00
287.601,2829.00
288.623,2793.00
289.645,3087.00
290.665,3129.00
291.687,3127.00
292.709,3135.00
293.730,3414.00
294.750,2882.00
295.771,2758.00
296.792,3074.00
297.813,2958.00
298.832,3061.00
299.853,2741.00
300.874,3013.00
301.895,2969.00
302.913,2960.00
303.934,3283.00
304.954,3047.00
305.975,4210.00
306.993,2742.00
308.013,3096.00
309.033,3007.00
310.052,2914.00
311.072,2893.00
312.090,3069.00
313.109,3308.00
314.129,3419.00
315.148,3005.00
316.165,3082.00
317.184,3211.00
318.203,2757.00
319.222,2739.00
320.238,3114.00
321.257,2844.00
322.275,2690.00
323.294,3019.00
324.312,3158.00
325.328,3256.00
326.346,3293.00
327.364,3256.00
328.382,3107.00
329.397,3133.00
330.415,3244.00
331.432,3238.00
332.450,3288.00
333.467,3439.00
334.482,2614.00
335.499,3377.00
336.516,2865.00
337.533,2572.00
338.547,2858.00
339.564,2873.00
340.580,3090.00
341.597,2999.00
342.613,3529.00
343.627,3004.00
344.643,3035.00
345.659,3128.00
346.675,2983.00
347.690,2894.00
348.704,3104.00
349.719,2898.00
350.735,2797.00
351.750,3194.00
352.765,3013.00
353.778,3009.00
354.793,3160.00
355.808,2850.00
356.822,3208.00
357.837,2671.00
358.851,3286.00
359.864,2993.00
360.878,2753.00
361.892,2964.00
362.906,3178.00
363.920,2612.00
364.932,3114.00
365.945,3063.00
366.959,3032.00
367.972,2928.00
368.986,2712.00
369.999,3364.00
371.010,2827.00
372.023,3348.00
373.036,2973.00
374.049,3388.00
375.061,3085.00
376.072,3011.00
377.084,2889.00
378.097,2691.00
379.109,3193.00
380.121,2990.00
381.133,2698.00
382.143,3150.00
383.155,2766.00
384.166,2891.00
385.178,3112.00
386.189,3232.00
387.201,2720.00
388.212,2941.00
389.221,2911.00
390.232,3017.00
391.243,2937.00
392.254,3060.00
393.264,2838.00
394.275,3214.00
395.283,3159.00
396.294,3662.00
397.304,3521.00
398.314,3097.00
399.324,3037.00
400.334,2675.00
401.344,3153.00
402.351,2659.00
403.361,3183.00
404.370,2971.00
405.380,2882.00
406.389,3350.00
407.398,3122.00
408.407,3091.00
409.414,3154.00
410.423,3341.00
411.431,2756.00
412.440,2665.00
413.448,3407.00
414.457,2884.00
415.465,2803.00
416.471,2861.00
417.479,3015.00
418.487,2830.00
419.495,3296.00
420.503,3119.00
421.510,2627.00
422.518,3218.00
423.525,3181.00
424.530,3405.00
425.537,2910.00
426.544,3219.00
427.551,2877.00
428.558,3566.00
429.565,3463.00
430.571,2876.00
431.578,2947.00
432.582,2894.00
433.588,2992.00
434.595,2634.00
435.601,3308.00
436.607,3223.00
437.612,2780.00
438.618,3344.00
439.624,2972.00
440.627,2972.00
441.633,3142.00
442.638,3596.00
443.643,3073.00
444.648,3017.00
445.653,3228.00
446.658,2909.00
447.663,3028.00
448.667,2926.00
449.672,2947.00
450.674,2961.00
451.678,2718.00
452.682,2865.00
453.687,2852.00
454.690,3602.00
455.694,3246.00
456.698,2544.00
457.702,2691.00
458.705,2813.00
459.709,2833.00
460.710,2876.00
461.713,3017.00
462.716,3062.00
463.719,2987.00
464.722,3162.00
465.725,2961.00
466.727,2858.00
467.730,3053.00
468.732,2783.00
469.735,3296.00
470.737,2962.00
471.737,2921.00
472.739,2943.00
473.741,2835.00
474.742,3077.00
475.744,3121.00
476.746,3042.00
477.747,2963.00
478.748,3118.00
479.750,2943.00
480.751,3014.00
481.752,3749.00
482.753,3095.00
483.751,3636.00
484.752,2635.00
485.753,2980.00
486.753,2878.00
487.753,2982.00
488.754,3428.00
489.754,2715.00
490.754,3328.00
491.754,3129.00
492.754,2661.00
493.753,3024.00
494.753,2942.00
495.752,3336.00
496.752,3070.00
497.749,3018.00
498.748,2852.00
499.747,3392.00
500.746,3128.00
501.745,2765.00
502.744,2800.00
503.742,3341.00
504.741,2949.00
505.739,2477.00
506.737,2883.00
507.735,3173.00
508.734,3346.00
509.732,3175.00
510.729,3366.00
511.727,2903.00
512.725,2954.00
513.720,2757.00
514.718,3275.00
515.715,2681.00
516.712,2627.00
517.709,2989.00
518.706,2870.00
519.703,3038.00
520.700,3162.00
521.696,3351.00
522.693,2943.00
523.689,2845.00
524.686,3136.00
525.682,2788.00
526.678,3479.00
527.674,2963.00
528.670,2610.00
529.666,3513.00
530.661,3437.00
531.657,3170.00
532.652,3203.00
533.648,3008.00
534.641,3226.00
535.636,3018.00
536.631,3152.00
537.626,3163.00
538.621,2768.00
539.616,2576.00
540.610,2525.00
541.605,3012.00
542.599,3050.00
543.593,2992.00
544.587,3917.00
545.581,2859.00
546.575,3052.00
547.569,3029.00
548.563,2693.00
549.557,2679.00
550.550,2786.00
551.543,2757.00
552.537,3167.00
553.530,2799.00
554.523,2763.00
555.516,3121.00
556.509,2926.00
557.502,2631.00
558.494,3218.00
559.487,2879.00
560.479,3174.00
561.472,3209.00
562.464,3099.00
563.456,3281.00
564.448,2946.00
565.440,3013.00
566.432,3402.00
567.423,2919.00
568.415,2878.00
569.404,3120.00
570.396,2815.00
571.387,3161.00
572.378,3034.00
573.369,3961.00
574.360,3649.00
575.351,2967.00
576.341,2827.00
577.332,2933.00
578.323,2683.00
579.313,2871.00
580.303,3251.00
581.293,3138.00
582.283,2999.00
583.273,3130.00
584.263,3010.00
585.253,3110.00
586.243,3132.00
587.232,2654.00
588.222,2944.00
589.211,3213.00
590.200,3068.00
591.189,2953.00
592.178,2969.00
593.167,3425.00
594.156,3334.00
595.145,2877.00
596.133,3447.00
597.122,3163.00
598.110,3211.00
599.098,3065.00
600.086,3011.00
601.074,3179.00
602.062,2815.00
603.050,2779.00
604.038,3127.00
605.025,2799.00
606.013,3218.00
607.000,3399.00
607.987,3070.00
608.975,3083.00
609.962,2746.00
610.949,3109.00
611.936,3302.00
612.922,3193.00
613.909,2699.00
614.895,3369.00
615.882,2843.00
616.868,3037.00
617.854,2739.00
618.841,3006.00
619.826,3139.00
620.812,2947.00
621.798,2782.00
622.784,3167.00
623.769,3101.00
624.755,2746.00
625.740,3067.00
626.725,2737.00
627.711,2846.00
628.698,3067.00
629.683,2789.00
630.667,3155.00
631.652,2755.00
632.637,2956.00
633.621,3167.00
634.606,2926.00
635.590,3118.00
636.574,2966.00
637.558,3052.00
638.542,3014.00
639.526,2828.00
640.510,2648.00
641.493,3012.00
642.477,2988.00
643.460,2689.00
644.444,3248.00
645.427,3264.00
646.410,2668.00
647.393,2956.00
648.376,3090.00
649.359,2901.00
650.341,3144.00
651.324,3120.00
652.307,3072.00
653.289,2940.00
654.271,2878.00
655.253,2904.00
656.235,3128.00
657.217,3265.00
658.199,2632.00
659.181,2741.00
660.163,2968.00
661.144,2897.00
662.126,2958.00
663.107,2801.00
664.088,4726.00
665.069,3241.00
666.050,2838.00
667.033,2737.00
668.014,3055.00
668.995,2589.00
669.975,3002.00
670.956,3016.00
671.936,3130.00
672.916,2995.00
673.896,3134.00
674.876,2901.00
675.856,2868.00
676.836,2745.00
677.816,2350.00
678.795,2833.00
679.775,2698.00
680.754,3005.00
681.734,3179.00
682.713,3149.00
683.692,2759.00
684.671,2648.00
685.650,2727.00
686.629,2842.00
687.607,2734.00
688.586,2766.00
689.564,2860.00
690.543,3199.00
691.523,2388.00
692.501,2812.00
693.479,2949.00
694.457,2801.00
695.435,2879.00
696.413,2672.00
697.390,2489.00
698.368,2694.00
699.345,3098.00
700.322,2938.00
701.300,3076.00
702.277,3051.00
703.254,3232.00
704.231,2609.00
705.207,2945.00
706.184,2824.00
707.161,2675.00
708.137,2845.00
709.113,2803.00
710.090,2791.00
711.068,2636.00
712.044,2658.00
713.020,2890.00
713.996,2619.00
714.971,2818.00
715.947,2841.00
716.922,2828.00
717.898,2748.00
718.873,2863.00
719.848,2756.00
720.823,2723.00
721.798,2977.00
722.773,2737.00
723.748,2502.00
724.723,3004.00
725.697,2834.00
726.672,2786.00
727.646,2499.00
728.622,3012.00
729.596,2596.00
730.570,2764.00
731.544,3104.00
732.518,3258.00
733.492,2836.00
734.466,2868.00
735.439,3001.00
736.413,3141.00
737.386,2481.00
738.359,2437.00
739.332,2520.00
740.305,2883.00
741.278,3310.00
742.251,2931.00
743.224,2723.00
744.196,2565.00
745.171,3115.00
746.143,3041.00
747.115,2779.00
748.087,2722.00
749.059,3070.00
750.031,2914.00
751.003,3683.00
751.975,3226.00
752.947,2665.00
753.918,3088.00
754.890,2581.00
755.861,2770.00
756.832,3053.00
757.803,2870.00
758.774,2869.00
759.747,2607.00
760.718,3232.00
761.689,2735.00
762.659,2617.00
763.630,3155.00
764.600,2591.00
765.570,3056.00
766.540,3167.00
767.510,2971.00
768.480,3026.00
769.450,2719.00
770.420,2841.00
771.390,2654.00
772.359,2766.00
773.329,2680.00
774.300,2491.00
775.269,2738.00
776.238,3021.00
777.207,3157.00
778.176,2537.00
779.145,2795.00
780.114,2688.00
781.083,2575.00
782.051,2770.00
783.019,2694.00
783.988,3087.00
784.956,2841.00
785.924,2982.00
786.894,2885.00
787.862,2705.00
788.830,3170.00
789.797,2614.00
790.765,2601.00
791.732,2746.00
792.700,2699.00
793.667,2597.00
794.634,2760.00
795.601,2750.00
796.568,2808.00
797.535,2871.00
798.502,3422.00
799.468,2901.00
800.437,2437.00
801.403,2656.00
802.370,3259.00
803.336,2997.00
804.302,2867.00
805.268,2463.00
806.234,2548.00
807.200,2734.00
808.166,2807.00
809.131,2578.00
810.097,2995.00
811.062,3649.00
812.027,3016.00
812.994,2614.00
813.960,2612.00
814.925,2946.00
815.889,2491.00
816.854,3012.00
817.819,2672.00
818.783,2740.00
819.748,3065.00
820.712,2735.00
821.677,2624.00
822.641,2676.00
823.605,2733.00
824.571,3174.00
825.534,2771.00
826.498,2673.00
827.462,2808.00
828.425,2643.00
829.389,3061.00
830.352,2823.00
831.315,2922.00
832.279,2509.00
833.242,2774.00
834.204,2678.00
835.167,2631.00
836.132,3045.00
837.095,2519.00
838.057,2700.00
839.020,2824.00
839.982,2851.00
840.944,2707.00
841.906,2627.00
842.868,2996.00
843.830,2549.00
844.792,3059.00
845.753,2695.00
846.715,2422.00
847.679,2585.00
848.640,2634.00
849.601,2734.00
850.562,3239.00
851.523,2685.00
852.484,2498.00
853.445,2965.00
854.406,2717.00
855.367,2695.00
856.327,3071.00
857.288,2496.00
858.248,2694.00
859.210,2703.00
860.170,2542.00
861.130,3018.00
862.090,2460.00
863.050,2621.00
864.010,2690.00
864.969,2928.00
865.929,2597.00
866.888,2525.00
867.848,2834.00
868.807,2633.00
869.766,2905.00
870.727,2747.00
871.686,3007.00
872.645,3016.00
873.604,3298.00
874.562,2739.00
875.521,2790.00
876.479,3399.00
877.437,2573.00
878.396,2608.00
879.354,3171.00
880.312,2621.00
881.270,2647.00
882.229,3102.00
883.187,2625.00
884.145,2658.00
885.102,2975.00
886.059,2810.00
887.017,2860.00
887.974,2986.00
888.931,3109.00
889.888,2510.00
890.845,2440.00
891.802,2336.00
892.758,2684.00
893.717,2430.00
894.673,2552.00
895.630,2656.00
896.586,2909.00
897.542,2665.00
898.498,2540.00
899.454,2844.00
900.410,2697.00
901.366,2666.00
902.321,2611.00
903.277,2713.00
904.232,2736.00
905.189,2479.00
906.145,2612.00
907.100,2198.00
908.055,2698.00
909.010,2932.00
909.965,2363.00
910.919,2773.00
911.874,2597.00
912.828,2753.00
913.783,2772.00
914.737,2366.00
915.693,2770.00
916.648,2915.00
917.602,2959.00
918.555,2809.00
919.509,2860.00
920.463,2761.00
921.417,2771.00
922.370,2591.00
923.324,2706.00
924.277,2677.00
925.230,2782.00
926.183,2438.00
927.138,2679.00
928.091,2945.00
929.044,2826.00
929.996,2640.00
930.949,2668.00
931.902,2843.00
932.854,2831.00
933.806,2588.00
934.758,2997.00
935.711,2981.00
936.663,2730.00
937.614,2798.00
938.568,2720.00
939.520,2395.00
940.471,2718.00
941.423,2776.00
942.374,2865.00
943.326,2773.00
944.277,2590.00
945.228,2881.00
946.179,2677.00
947.130,3083.00
948.080,2659.00
949.031,2564.00
949.984,2698.00
950.934,2711.00
951.884,2486.00
952.835,2703.00
953.785,2756.00
954.735,2593.00
955.685,2387.00
956.635,2604.00
957.585,2650.00
958.534,2673.00
959.484,2718.00
960.433,2635.00
961.383,2480.00
962.334,2953.00
963.283,2807.00
964.232,2869.00
965.181,2754.00
966.130,2793.00
967.079,2611.00
968.027,2767.00
968.976,2739.00
969.924,2633.00
970.873,2847.00
971.821,2759.00
972.769,2958.00
973.719,2834.00
974.667,2487.00
975.615,2695.00
976.562,2734.00
977.510,2452.00
978.458,2589.00
979.405,2806.00
980.352,2779.00
981.300,2972.00
982.247,2788.00
983.194,2538.00
984.141,2656.00
985.088,2779.00
986.036,2780.00
986.983,2988.00
987.930,3149.00
988.876,2377.00
989.822,2974.00
990.769,2545.00
991.715,2597.00
992.661,2466.00
993.607,2803.00
994.553,3277.00
995.498,2558.00
996.444,2330.00
997.389,2796.00
998.337,2558.00
999.282,2906.00
1000.227,2665.00
1001.173,2697.00
1002.118,2448.00
1003.062,2904.00
1004.007,2693.00
1004.952,3015.00
1005.897,2931.00
1006.841,2724.00
1007.786,2484.00
1008.730,2443.00
1009.674,3159.00
1010.618,2627.00
1011.564,2557.00
1012.508,2389.00
1013.452,2962.00
1014.396,2695.00
1015.339,2647.00
1016.283,2691.00
1017.226,2751.00
1018.170,2717.00
1019.113,2902.00
1020.056,2726.00
1020.999,2686.00
1021.942,2591.00
1022.885,2835.00
1023.828,3004.00
1024.770,2509.00
1025.715,2748.00
1026.657,2663.00
1027.600,2731.00
1028.542,2900.00
1029.484,2747.00
1030.426,2832.00
1031.368,2811.00
1032.310,2575.00
1033.251,2540.00
1034.193,2699.00
1035.135,2489.00
1036.076,2630.00
1037.017,2538.00
1037.959,2849.00
1038.900,2746.00
1039.843,2786.00
1040.784,2741.00
1041.725,2760.00
1042.665,2635.00
1043.606,2708.00
1044.547,2729.00
1045.487,2347.00
1046.427,2676.00
1047.368,2770.00
1048.308,2257.00
1049.248,2527.00
1050.188,2734.00
1051.128,2637.00
1052.067,2660.00
1053.007,2418.00
1053.947,2402.00
1054.886,2552.00
1055.827,2502.00
1056.766,2949.00
1057.706,2472.00
1058.645,2676.00
1059.584,2800.00
1060.522,2977.00
1061.461,2466.00
1062.400,2497.00
1063.338,2648.00
1064.277,2504.00
1065.215,2522.00
1066.154,2424.00
1067.092,2579.00
1068.030,2660.00
1068.968,2872.00
1069.906,3008.00
1070.843,3009.00
1071.781,2726.00
1072.720,2808.00
1073.658,2800.00
1074.595,2624.00
1075.533,2551.00
1076.470,2569.00
1077.407,2977.00
1078.344,2748.00
1079.281,2800.00
1080.217,2303.00
1081.154,2687.00
1082.091,2735.00
1083.027,2472.00
1083.964,2949.00
1084.900,2590.00
1085.836,2618.00
1086.772,2854.00
1087.708,2501.00
1088.644,2827.00
1089.580,2689.00
1090.515,2749.00
1091.451,2596.00
1092.388,2690.00
1093.324,2474.00
1094.259,3218.00
1095.194,2707.00
1096.129,2637.00
1097.064,2597.00
1097.999,2824.00
1098.934,2537.00
1099.869,2563.00
1100.803,2718.00
1101.738,2702.00
1102.672,2408.00
1103.607,2774.00
1104.541,2590.00
1105.475,2536.00
1106.409,2429.00
1107.343,2616.00
1108.277,2441.00
1109.210,2752.00
1110.144,2653.00
1111.078,2655.00
1112.011,2452.00
1112.944,2803.00
1113.878,2745.00
1114.811,2203.00
1115.744,2578.00
1116.678,2324.00
1117.611,2602.00
1118.544,2614.00
1119.477,2794.00
1120.409,2556.00
1121.342,3085.00
1122.274,2768.00
1123.206,3000.00
1124.138,2688.00
1125.070,3013.00
1126.002,2835.00
1126.934,2309.00
1127.866,2556.00
1128.798,2332.00
1129.729,2351.00
1130.661,2647.00
1131.592,2566.00
1132.523,2752.00
1133.454,2777.00
1134.385,2298.00
1135.317,2631.00
1136.247,2609.00
1137.178,2868.00
1138.109,2395.00
1139.039,3032.00
1139.970,2851.00
1140.900,2590.00
1141.831,2389.00
1142.761,2218.00
1143.691,3277.00
1144.621,2635.00
1145.551,2693.00
1146.480,2698.00
1147.410,2868.00
1148.340,2315.00
1149.269,2374.00
1150.199,2578.00
1151.128,3040.00
1152.057,2461.00
1152.979,2610.00
1153.898,2608.00
1154.819,2768.00
1155.739,2629.00
1156.658,2590.00
1157.579,2693.00
1158.498,2657.00
1159.419,2172.00
1160.338,2710.00
1161.256,2729.00
1162.177,2515.00
1163.095,2690.00
1164.016,2712.00
1164.934,2857.00
1165.852,2811.00
1166.772,2634.00
1167.690,2669.00
1168.610,2725.00
1169.528,2623.00
1170.446,2194.00
1171.365,2557.00
1172.283,2546.00
1173.202,2647.00
1174.120,2658.00
1175.037,2500.00
1175.956,2446.00
1176.873,2513.00
1177.792,2539.00
1178.709,3056.00
1179.626,2548.00
1180.544,2877.00
1181.461,2498.00
1182.379,2727.00
1183.296,2644.00
1184.212,2268.00
1185.130,2499.00
1186.046,2965.00
1186.962,2627.00
1187.880,2937.00
1188.796,2669.00
1189.714,2446.00
1190.629,2779.00
1191.545,2655.00
1192.462,2570.00
1193.378,2622.00
1194.295,2337.00
1195.210,2663.00
1196.125,2770.00
1197.042,2720.00
1197.957,2644.00
1198.872,2515.00
1199.788,2534.00
1200.703,2992.00
1201.619,2644.00
1202.534,2529.00
1203.448,2718.00
1204.364,2601.00
1205.278,2325.00
1206.192,2661.00
1207.108,3094.00
1208.022,2981.00
1208.938,2475.00
1209.851,2810.00
1210.765,2827.00
1211.680,2573.00
1212.594,2423.00
1213.507,2599.00
1214.422,3025.00
1215.335,2758.00
1216.248,2562.00
1217.163,2619.00
1218.076,3242.00
1218.990,2747.00
1219.903,2472.00
1220.816,2477.00
1221.730,2587.00
1222.642,2481.00
1223.554,2518.00
1224.469,2760.00
1225.380,2595.00
1226.292,2299.00
1227.206,2762.00
1228.118,2989.00
1229.032,2273.00
1229.943,2483.00
1230.855,2567.00
1231.768,2397.00
1232.679,2710.00
1233.590,2591.00
1234.503,2811.00
1235.414,2502.00
1236.325,2523.00
1237.238,2725.00
1238.149,2739.00
1239.059,2454.00
1239.972,2797.00
1240.882,2434.00
1241.793,2766.00
1242.705,2994.00
1243.615,2612.00
1244.525,2710.00
1245.437,2224.00
1246.347,2689.00
1247.259,2821.00
1248.168,3040.00
1249.078,2881.00
1249.989,2916.00
1250.899,2446.00
1251.808,2527.00
1252.719,2568.00
1253.628,2506.00
1254.537,3029.00
1255.448,2453.00
1256.357,2450.00
1257.266,2613.00
1258.176,2384.00
1259.085,2354.00
1259.993,2459.00
1260.904,2448.00
1261.812,2439.00
1262.720,3185.00
1263.630,2805.00
1264.538,2486.00
1265.446,2720.00
1266.356,2622.00
1267.263,2879.00
1268.171,2431.00
1269.080,2664.00
1269.988,2841.00
1270.895,2552.00
1271.804,2606.00
1272.711,2778.00
1273.619,2769.00
1274.527,2446.00
1275.434,2721.00
1276.341,2440.00
1277.248,2676.00
1278.156,2887.00
1279.063,2509.00
1279.969,2746.00
1280.877,3536.00
1281.783,2808.00
1282.690,2670.00
1283.598,2595.00
1284.503,2500.00
1285.409,2500.00
1286.317,2997.00
1287.223,2989.00
1288.128,2723.00
1289.036,2528.00
1289.941,2565.00
1290.846,2663.00
1291.751,2395.00
1292.658,2567.00
1293.563,3060.00
1294.468,2638.00
1295.375,2802.00
1296.280,2862.00
1297.184,3335.00
1298.091,2728.00
1298.995,2793.00
1299.900,3032.00
1300.806,2548.00
1301.710,2383.00
1302.614,2245.00
1303.518,2887.00
1304.424,2596.00
1305.327,2832.00
1306.231,2603.00
1307.137,2759.00
1308.040,2687.00
1308.943,2673.00
1309.847,2841.00
1310.752,2839.00
1311.655,2310.00
1312.558,2419.00
1313.463,2583.00
1314.366,2506.00
1315.269,2663.00
1316.171,2604.00
1317.076,2519.00
1317.978,2470.00
1318.881,2261.00
1319.785,2507.00
1320.687,2505.00
1321.589,2247.00
1322.491,2492.00
1323.395,2718.00
1324.297,3175.00
1325.198,2762.00
1326.102,2454.00
1327.004,2452.00
1327.905,3053.00
1328.806,2614.00
1329.709,2700.00
1330.611,2589.00
1331.512,2444.00
1332.413,3062.00
1333.316,2669.00
1334.216,2773.00
1335.117,2386.00
1336.020,2725.00
1336.920,2664.00
1337.821,2462.00
1338.721,2878.00
1339.623,2692.00
1340.523,2579.00
1341.423,2500.00
1342.323,2888.00
1343.225,2717.00
1344.125,2468.00
1345.025,2503.00
1345.924,2296.00
1346.826,2984.00
1347.725,3026.00
1348.624,2869.00
1349.524,2479.00
1350.425,2608.00
1351.324,2692.00
1352.223,2816.00
1353.121,2626.00
1354.022,2819.00
1354.921,3033.00
1355.819,2736.00
1356.718,2685.00
1357.618,2392.00
1358.516,2714.00
1359.415,3026.00
1360.313,2725.00
1361.213,2587.00
1362.111,2941.00
1363.008,3285.00
1363.906,2596.00
1364.806,2638.00
1365.703,2699.00
1366.601,2475.00
1367.498,2434.00
1368.397,2828.00
1369.295,2676.00
1370.192,2467.00
1371.089,2706.00
1371.987,2612.00
1372.884,2892.00
1373.781,2441.00
1374.678,2651.00
1375.574,2473.00
1376.473,2745.00
1377.369,2865.00
1378.265,2478.00
1379.161,2575.00
1380.059,2314.00
1380.955,2755.00
1381.851,2382.00
1382.747,2552.00
1383.643,2571.00
1384.540,2400.00
1385.436,2510.00
1386.331,2728.00
1387.227,2765.00
1388.124,2746.00
1389.019,2440.00
1389.914,2620.00
1390.809,2285.00
1391.704,3035.00
1392.601,2544.00
1393.495,2916.00
1394.390,2768.00
1395.285,2855.00
1396.179,2718.00
1397.075,2612.00
1397.969,2645.00
1398.864,2324.00
1399.758,2582.00
1400.652,2656.00
1401.547,2496.00
1402.441,2427.00
1403.335,2960.00
1404.229,2657.00
1405.122,2720.00
1406.017,2632.00
1406.911,2782.00
1407.804,3053.00
1408.697,2579.00
1409.590,2464.00
1410.485,2836.00
1411.378,2684.00
1412.271,2367.00
1413.163,2682.00
1414.056,2788.00
1414.949,3028.00
1415.843,2657.00
1416.735,2619.00
1417.627,2660.00
1418.520,2624.00
1419.412,2876.00
1420.306,2802.00
1421.197,2911.00
1422.089,2853.00
1422.981,3105.00
1423.873,2840.00
1424.764,2713.00
1425.657,2670.00
1426.549,2794.00
1427.440,2842.00
1428.331,2533.00
1429.222,2363.00
1430.113,2648.00
1431.006,2829.00
1431.897,2548.00
1432.787,2659.00
1433.678,2582.00
1434.568,2464.00
1435.459,2894.00
1436.351,2821.00
1437.241,2759.00
1438.131,2804.00
1439.021,2401.00
1439.911,2604.00
1440.801,2675.00
1441.693,2878.00
1442.583,2665.00
1443.472,2635.00
1444.362,2744.00
1445.251,2559.00
1446.140,2580.00
1447.030,2850.00
1447.921,2846.00
1448.810,2457.00
1449.699,3055.00
1450.588,2712.00
1451.476,2573.00
1452.365,2728.00
1453.254,2578.00
1454.144,2522.00
1455.032,2752.00
1455.921,2399.00
1456.809,2949.00
1457.697,2441.00
1458.585,2593.00
1459.473,2585.00
1460.361,2502.00
1461.251,2767.00
1462.138,2722.00
1463.026,2630.00
1463.913,2938.00
1464.801,2564.00
1465.688,2754.00
1466.575,2685.00
1467.463,3108.00
1468.351,2481.00
1469.238,2624.00
1470.125,2273.00
1471.012,2711.00
1471.899,2768.00
1472.785,2442.00
1473.672,2637.00
1474.558,2911.00
1475.446,2771.00
1476.333,2812.00
1477.219,2492.00
1478.105,2623.00
1478.991,2630.00
1479.877,2958.00
1480.762,2641.00
1481.648,2512.00
1482.534,2787.00
1483.419,2713.00
1484.307,2781.00
1485.192,2622.00
1486.077,2532.00
1486.962,2502.00
1487.847,2391.00
1488.732,2478.00
1489.617,2669.00
1490.502,2925.00
1491.387,2781.00
1492.271,2483.00
1493.156,2485.00
1494.042,2450.00
1494.927,2810.00
1495.811,2543.00
1496.695,2802.00
1497.579,2946.00
1498.463,2636.00
1499.347,2697.00
1500.231,2682.00
1501.114,2733.00
1501.998,2920.00
1502.881,2700.00
1503.765,2938.00
1504.648,3048.00
1505.533,2754.00
1506.417,2680.00
1507.300,2641.00
1508.183,2697.00
1509.066,2145.00
1509.948,2873.00
1510.831,3040.00
1511.714,2475.00
1512.596,2791.00
1513.479,2922.00
1514.361,2875.00
1515.243,2661.00
1516.125,2831.00
1517.008,2926.00
1517.890,2641.00
1518.771,2694.00
1519.655,2863.00
1520.537,2626.00
1521.419,2536.00
1522.300,2718.00
1523.182,2812.00
1524.063,2815.00
1524.944,2961.00
1525.825,2841.00
1526.707,2476.00
1527.588,2440.00
1528.468,2766.00
1529.349,2338.00
1530.230,2570.00
1531.111,2824.00
1531.991,2720.00
1532.872,2357.00
1533.752,2640.00
1534.632,2560.00
1535.513,2488.00
1536.393,2792.00
1537.273,2954.00
1538.153,3256.00
1539.032,2393.00
1539.912,2636.00
1540.792,2701.00
1541.672,2697.00
1542.551,2813.00
1543.430,3234.00
1544.310,2716.00
1545.189,2578.00
1546.068,3062.00
1546.947,2770.00
1547.826,2960.00
1548.705,2689.00
1549.584,2901.00
1550.462,2633.00
1551.341,2840.00
1552.219,2728.00
1553.098,2798.00
1553.976,2907.00
1554.854,3086.00
1555.733,2897.00
1556.611,2632.00
1557.489,2485.00
1558.367,2682.00
1559.244,2829.00
1560.122,2642.00
1561.000,2748.00
1561.877,2898.00
1562.755,2560.00
1563.632,2666.00
1564.509,2940.00
1565.386,3049.00
1566.264,2425.00
1567.141,2269.00
1568.017,2824.00
1568.894,2648.00
1569.771,2690.00
1570.648,2826.00
1571.524,2682.00
1572.401,2416.00
1573.277,2457.00
1574.153,2717.00
1575.029,2541.00
1575.906,3413.00
1576.781,2888.00
1577.657,2603.00
1578.533,2898.00
1579.409,2326.00
1580.285,2598.00
1581.160,3096.00
1582.036,2863.00
1582.911,2477.00
1583.786,3021.00
1584.662,2496.00
1585.537,2648.00
1586.412,2722.00
1587.287,2498.00
1588.160,2818.00
1589.035,2336.00
1589.909,2709.00
1590.784,2625.00
1591.658,2461.00
1592.533,2700.00
1593.407,2700.00
1594.281,2578.00
1595.155,3062.00
1596.029,2578.00
1596.903,2656.00
1597.777,2584.00
1598.651,2913.00
1599.525,2388.00
1600.398,2689.00
1601.272,2640.00
1602.144,3237.00
1603.017,2646.00
1603.890,2924.00
1604.763,2755.00
1605.636,2816.00
1606.509,2391.00
1607.382,2508.00
1608.255,2729.00
1609.128,2898.00
1610.000,2605.00
1610.873,2358.00
1611.746,2612.00
1612.616,2611.00
1613.488,2220.00
1614.361,2683.00
1615.233,2596.00
1616.105,2833.00
1616.977,2550.00
1617.849,2553.00
1618.720,2966.00
1619.592,2965.00
1620.464,2731.00
1621.333,3109.00
1622.205,2667.00
1623.076,2632.00
1623.947,2687.00
1624.818,2906.00
1625.689,2771.00
1626.560,2603.00
1627.431,2721.00
1628.302,3063.00
1629.171,2832.00
1630.042,2955.00
1630.912,3278.00
1631.782,3210.00
1632.653,2482.00
1633.523,2837.00
1634.393,2898.00
1635.263,2537.00
1636.131,2661.00
1637.001,2625.00
1637.871,2287.00
1638.741,2336.00
1639.611,2439.00
1640.480,2834.00
1641.350,2526.00
1642.219,2483.00
1643.087,2212.00
1643.956,3098.00
1644.825,2924.00
1645.694,2900.00
1646.563,2823.00
1647.432,2692.00
1648.299,2688.00
1649.167,2801.00
1650.036,2508.00
1650.904,2843.00
1651.773,2893.00
1652.641,2693.00
1653.509,2882.00
1654.376,2528.00
1655.244,2719.00
1656.112,2739.00
1656.980,2666.00
1657.847,2557.00
1658.715,2841.00
1659.581,2582.00
1660.448,2922.00
1661.316,2165.00
1662.183,2711.00
1663.051,2731.00
1663.918,2713.00
1664.783,2680.00
1665.650,2742.00
1666.517,2846.00
1667.384,2667.00
1668.251,2718.00
1669.115,2909.00
1669.982,2652.00
1670.849,2956.00
1671.715,2682.00
1672.581,2840.00
1673.446,2790.00
1674.312,2700.00
1675.178,3129.00
1676.044,2797.00
1676.910,2772.00
1677.774,2693.00
1678.639,2328.00
1679.505,2682.00
1680.370,2839.00
1681.236,3297.00
1682.099,2655.00
1682.965,2745.00
1683.830,2277.00
1684.695,2519.00
1685.560,2611.00
1686.423,2826.00
1687.288,2834.00
1688.153,2746.00
1689.017,2658.00
1689.880,2747.00
1690.745,2880.00
1691.609,2529.00
1692.473,2836.00
1693.338,2941.00
1694.200,2934.00
1695.064,2685.00
1695.928,2622.00
1696.792,2676.00
1697.654,3183.00
1698.517,2729.00
1699.381,2418.00
1700.245,2336.00
1701.106,2968.00
1701.969,2602.00
1702.833,2826.00
1703.696,2616.00
1704.557,2652.00
1705.420,2564.00
1706.283,2720.00
1707.146,2844.00
1708.007,2505.00
1708.870,2493.00
1709.732,2365.00
1710.595,2604.00
1711.455,2433.00
1712.318,2610.00
1713.180,2954.00
1714.040,2710.00
1714.902,2852.00
1715.764,2683.00
1716.626,2484.00
1717.486,2657.00
1718.348,2928.00
1719.209,4996.00
1720.071,2351.00
1720.930,2437.00
1721.792,2539.00
1722.653,2552.00
1723.512,2612.00
1724.374,2634.00
1725.234,2711.00
1726.095,2699.00
1726.954,2669.00
1727.815,2800.00
1728.676,2672.00
1729.535,2915.00
1730.395,2626.00
1731.256,2582.00
1732.114,2740.00
1732.974,2176.00
1733.834,3027.00
1734.693,2845.00
1735.553,2705.00
1736.413,3144.00
1737.272,2593.00
1738.130,2646.00
1738.990,2794.00
1739.849,2574.00
1740.707,3661.00
1741.566,2698.00
1742.426,2736.00
1743.283,3109.00
1744.142,2605.00
1745.001,2359.00
1745.858,2892.00
1746.717,2789.00
1747.576,2839.00
1748.433,2850.00
1749.292,3282.00
1750.150,3296.00
1751.007,2870.00
1751.865,2883.00
1752.723,2701.00
1753.579,2629.00
1754.438,2912.00
1755.296,2941.00
1756.152,2267.00
1757.010,2402.00
1757.865,2894.00
1758.723,2389.00
1759.581,3019.00
1760.436,2699.00
1761.294,3028.00
1762.151,2713.00
1763.006,2622.00
1763.864,2335.00
1764.721,2871.00
1765.576,2716.00
1766.433,2859.00
1767.288,2608.00
1768.144,2706.00
1769.001,2667.00
1769.856,2793.00
1770.712,2891.00
1771.568,2528.00
1772.423,2572.00
1773.279,2627.00
1774.133,2586.00
1774.989,3086.00
1775.845,3056.00
1776.699,2936.00
1777.555,2662.00
1778.409,3197.00
1779.265,2677.00
1780.120,2688.00
1780.974,2685.00
1781.829,2325.00
1782.682,2727.00
1783.538,2487.00
1784.393,2772.00
1785.246,2615.00
1786.101,2811.00
1786.954,2783.00
1787.808,2915.00
1788.661,2432.00
1789.516,2602.00
1790.370,2675.00
1791.223,2882.00
1792.077,2702.00
1792.930,2796.00
1793.784,2585.00
1794.636,2690.00
1795.490,2697.00
1796.344,2764.00
1797.196,2673.00
1798.049,2866.00
1798.901,2601.00
1799.755,2971.00
1800.606,2512.00
1801.460,3218.00
1802.311,3025.00
1803.165,3078.00
1804.018,3046.00
1804.869,2789.00
1805.722,3117.00
1806.573,2750.00
1807.426,2545.00
1808.276,2673.00
1809.129,2610.00
1809.980,2934.00
1810.832,3004.00
1811.683,2646.00
1812.535,3051.00
1813.385,2645.00
1814.237,2973.00
1815.089,2749.00
1815.940,2980.00
1816.791,2655.00
1817.641,2566.00
1818.493,2870.00
1819.343,2794.00
1820.194,2564.00
1821.044,2794.00
1821.895,2881.00
1822.745,2425.00
1823.596,2608.00
1824.445,3124.00
1825.296,2812.00
1826.145,2682.00
1826.996,2862.00
1827.845,2741.00
1828.695,2804.00
1829.544,2720.00
1830.395,2756.00
1831.243,2613.00
1832.094,2451.00
1832.942,3253.00
1833.792,2845.00
1834.640,2761.00
1835.490,2707.00
1836.338,2763.00
1837.186,2634.00
1838.036,2555.00
1838.884,2718.00
1839.733,3023.00
1840.581,2870.00
1841.430,2841.00
1842.278,3030.00
1843.127,2632.00
1843.974,2363.00
1844.823,3109.00
1845.671,2855.00
1846.519,2728.00
1847.366,2748.00
1848.213,2354.00
1849.062,2510.00
1849.909,2471.00
1850.757,3405.00
1851.604,2845.00
1852.452,2677.00
1853.298,2897.00
1854.146,2743.00
1854.993,2775.00
1855.839,3187.00
1856.687,2835.00
1857.532,2827.00
1858.380,2694.00
1859.226,2791.00
1860.073,2826.00
1860.919,2554.00
1861.765,2598.00
1862.612,2920.00
1863.457,2927.00
1864.304,2677.00
1865.150,2808.00
1865.995,2677.00
1866.842,2829.00
1867.686,2959.00
1868.533,2790.00
1869.378,2764.00
1870.223,2710.00
1871.069,2594.00
1871.914,2750.00
1872.760,2720.00
1873.604,2492.00
1874.448,2840.00
1875.294,2868.00
1876.139,2604.00
1876.984,2836.00
1877.828,2412.00
1878.672,2248.00
1879.518,2581.00
1880.361,2904.00
1881.205,2869.00
1882.050,2532.00
1882.894,3205.00
1883.739,2618.00
1884.582,2480.00
1885.425,2535.00
1886.270,2941.00
1887.113,2438.00
1887.956,2817.00
1888.801,2773.00
1889.644,2551.00
1890.486,2330.00
1891.331,2612.00
1892.173,2742.00
1893.017,2803.00
1893.860,2991.00
1894.702,2981.00
1895.546,2740.00
1896.388,3412.00
1897.230,3046.00
1898.074,2627.00
1898.916,2539.00
1899.757,2517.00
1900.601,3365.00
1901.443,3004.00
1902.284,2999.00
1903.125,3218.00
1903.969,2938.00
1904.810,2958.00
1905.651,2817.00
1906.494,3022.00
1907.335,3152.00
1908.176,2820.00
1909.018,2784.00
1909.859,2690.00
1910.700,2588.00
1911.542,3237.00
1912.383,2793.00
1913.223,2377.00
1914.064,2881.00
1914.906,2989.00
1915.746,3055.00
1916.586,3178.00
1917.428,2766.00
1918.268,2766.00
1919.107,2634.00
1919.947,2510.00
1920.789,2656.00
1921.628,2948.00
1922.468,2713.00
1923.309,2576.00
1924.148,3053.00
1924.988,2800.00
1925.827,2713.00
1926.667,2651.00
1927.507,2793.00
1928.345,2574.00
1929.184,2892.00
1930.025,2578.00
1930.864,2995.00
1931.702,3023.00
1932.541,2628.00
1933.381,2869.00
1934.219,2897.00
1935.057,3010.00
1935.896,2471.00
1936.735,2733.00
1937.573,2627.00
1938.411,2510.00
1939.249,2896.00
1940.089,2622.00
1940.927,2995.00
1941.764,3035.00
1942.602,2677.00
1943.439,2621.00
1944.278,2692.00
1945.115,2659.00
1945.953,2462.00
1946.790,2834.00
1947.628,3095.00
1948.465,2876.00
1949.302,2903.00
1950.139,2860.00
1950.976,2593.00
1951.814,2895.00
1952.651,2784.00
1953.487,2554.00
1954.323,2965.00
1955.160,2678.00
1955.998,3151.00
1956.834,2713.00
1957.670,2800.00
1958.506,2983.00
1959.342,2808.00
1960.177,2799.00
1961.015,2858.00
1961.850,2788.00
1962.686,2783.00
1963.521,2792.00
1964.357,3014.00
1965.192,2484.00
1966.029,2884.00
1966.864,2663.00
1967.699,2957.00
1968.534,2796.00
1969.369,3004.00
1970.204,2717.00
1971.040,2763.00
1971.875,2650.00
1972.709,2761.00
1973.544,2600.00
1974.378,2619.00
1975.212,2863.00
1976.047,2661.00
1976.882,2611.00
1977.716,3149.00
1978.550,2454.00
1979.384,2683.00
1980.218,2730.00
1981.052,2670.00
1981.885,2766.00
1982.719,2741.00
1983.554,2882.00
1984.388,3037.00
1985.221,2820.00
1986.054,2957.00
1986.887,2762.00
1987.720,2592.00
1988.553,3055.00
1989.386,2829.00
1990.219,2915.00
1991.053,3029.00
1991.886,2637.00
1992.719,2930.00
1993.551,2303.00
1994.383,2882.00
1995.216,2666.00
1996.048,2455.00
1996.880,2948.00
1997.712,2634.00
1998.544,2757.00
1999.376,2825.00
2000.208,3022.00
2001.040,3164.00
2001.873,2588.00
2002.705,2563.00
2003.536,2774.00
2004.367,2813.00
2005.199,2781.00
2006.030,2649.00
2006.861,2567.00
2007.692,2756.00
2008.523,2614.00
2009.354,2815.00
2010.185,2578.00
2011.016,2926.00
2011.846,2989.00
2012.677,2696.00
2013.507,3075.00
2014.338,2957.00
2015.168,2717.00
2015.999,3278.00
2016.829,2693.00
2017.659,2982.00
2018.489,3255.00
2019.319,2591.00
2020.149,2932.00
2020.980,2794.00
2021.810,2552.00
2022.639,2631.00
2023.469,2606.00
2024.298,2445.00
2025.128,2337.00
2025.957,2404.00
2026.786,2223.00
2027.615,2397.00
2028.444,2623.00
2029.273,2770.00
2030.102,2341.00
2030.931,2590.00
2031.758,2863.00
2032.586,2559.00
2033.415,2585.00
2034.243,2231.00
2035.072,2033.00
2035.900,2491.00
2036.728,2298.00
2037.556,2379.00
2038.385,2402.00
2039.213,2170.00
2040.040,2191.00
2040.868,2161.00
2041.696,2215.00
2042.524,2224.00
2043.351,2441.00
2044.179,2230.00
2045.006,2018.00
