RamanScope Measure Spectrum Data V3.72

<< MEASURE CONDITION >>
Exposure Type,Aver
Exposure Time [sec],15
Exposure Count,4
Measure Time,2023/07/15 14:40:45
Data Name,""
Data Comment,""
Rayleigh Wave[nm],532.0

<< SAMPLE SPECTRUM >>
Wave[dcm-1],No128
146.591,410.75
147.626,428.25
148.664,586.50
149.699,611.50
150.737,696.00
151.772,773.00
152.809,839.75
153.846,895.25
154.881,989.50
155.918,1011.25
156.953,1093.25
157.989,1143.25
159.026,1180.00
160.060,1205.75
161.096,1236.50
162.130,1227.00
163.167,1218.25
164.200,1265.00
165.236,1287.00
166.272,1358.75
167.305,1315.50
168.341,1333.25
169.374,1429.25
170.409,1408.00
171.445,1462.00
172.477,1433.50
173.512,1476.25
174.545,1512.00
175.580,1596.00
176.614,1566.75
177.647,1580.50
178.681,1593.25
179.713,1604.50
180.747,1542.00
181.781,1584.00
182.813,1556.75
183.847,1581.75
184.878,1535.00
185.912,1543.00
186.945,1522.75
187.976,1546.00
189.010,1522.25
190.043,1575.75
191.073,1585.50
192.106,1638.00
193.137,1661.25
194.170,1649.75
195.202,1744.25
196.232,1712.25
197.265,1750.75
198.297,1814.25
199.327,1902.00
200.359,1904.75
201.388,1979.75
202.420,2073.25
203.452,2167.75
204.481,2237.50
205.512,2334.75
206.544,2424.25
207.573,2558.50
208.604,2648.50
209.635,2850.50
210.663,3002.50
211.694,3183.50
212.725,3398.25
213.753,3642.50
214.783,3874.25
215.813,4108.50
216.841,4253.50
217.871,4414.75
218.899,4564.25
219.929,4570.25
220.959,4480.50
221.986,4422.50
223.016,4277.00
224.045,4034.25
225.072,3875.50
226.101,3618.75
227.130,3402.50
228.157,3219.25
229.185,3065.50
230.214,2903.50
231.241,2819.00
232.269,2670.25
233.297,2592.00
234.323,2503.50
235.351,2421.75
236.379,2371.50
237.407,2316.00
238.433,2273.50
239.460,2285.50
240.488,2248.75
241.513,2231.00
242.540,2229.50
243.568,2164.50
244.592,2236.25
245.619,2224.25
246.646,2188.00
247.671,2184.25
248.697,2167.25
249.724,2224.75
250.748,2228.25
251.774,2168.00
252.801,2195.25
253.827,2236.00
254.850,2285.50
255.876,2267.75
256.902,2371.50
257.925,2315.75
258.951,2384.75
259.976,2450.50
260.999,2456.00
262.024,2504.75
263.049,2545.00
264.074,2594.50
265.097,2627.25
266.122,2705.75
267.146,2807.50
268.168,2860.75
269.193,2922.75
270.217,2979.75
271.241,3006.00
272.263,3134.25
273.287,3161.00
274.311,3235.25
275.332,3277.00
276.356,3358.75
277.379,3342.75
278.402,3360.25
279.424,3369.25
280.447,3363.25
281.470,3335.50
282.492,3323.75
283.513,3249.00
284.536,3230.25
285.558,3197.75
286.581,3070.50
287.601,3049.00
288.623,2962.75
289.645,2953.00
290.665,2831.25
291.687,2763.00
292.709,2681.50
293.730,2595.00
294.750,2531.75
295.771,2464.75
296.792,2443.50
297.813,2362.00
298.832,2255.75
299.853,2247.25
300.874,2216.00
301.895,2148.50
302.913,2083.50
303.934,2013.75
304.954,1977.25
305.975,1896.75
306.993,1863.25
308.013,1835.50
309.033,1815.75
310.052,1803.50
311.072,1753.75
312.090,1725.25
313.109,1695.50
314.129,1642.00
315.148,1640.25
316.165,1592.25
317.184,1611.00
318.203,1596.75
319.222,1561.25
320.238,1549.25
321.257,1575.00
322.275,1539.25
323.294,1482.75
324.312,1493.25
325.328,1445.00
326.346,1486.75
327.364,1437.25
328.382,1452.50
329.397,1425.00
330.415,1473.50
331.432,1448.25
332.450,1403.25
333.467,1396.50
334.482,1381.50
335.499,1385.25
336.516,1395.25
337.533,1424.25
338.547,1385.25
339.564,1459.75
340.580,1333.00
341.597,1399.00
342.613,1321.25
343.627,1381.25
344.643,1390.75
345.659,1396.00
346.675,1365.75
347.690,1395.00
348.704,1372.75
349.719,1364.00
350.735,1340.50
351.750,1369.00
352.765,1382.75
353.778,1361.00
354.793,1378.50
355.808,1383.75
356.822,1368.25
357.837,1413.75
358.851,1382.25
359.864,1354.75
360.878,1399.00
361.892,1418.50
362.906,1378.00
363.920,1400.25
364.932,1429.75
365.945,1397.50
366.959,1447.75
367.972,1432.50
368.986,1403.75
369.999,1468.00
371.010,1470.50
372.023,1494.50
373.036,1497.50
374.049,1448.25
375.061,1450.50
376.072,1500.50
377.084,1508.25
378.097,1532.25
379.109,1540.00
380.121,1538.25
381.133,1534.00
382.143,1584.75
383.155,1539.00
384.166,1564.75
385.178,1511.00
386.189,1580.50
387.201,1553.75
388.212,1593.00
389.221,1611.25
390.232,1592.50
391.243,1562.50
392.254,1551.00
393.264,1570.00
394.275,1550.75
395.283,1523.50
396.294,1506.50
397.304,1523.75
398.314,1513.00
399.324,1523.25
400.334,1463.25
401.344,1416.50
402.351,1444.50
403.361,1499.00
404.370,1463.00
405.380,1438.25
406.389,1440.00
407.398,1393.75
408.407,1397.75
409.414,1363.25
410.423,1405.25
411.431,1343.25
412.440,1306.50
413.448,1355.75
414.457,1341.00
415.465,1291.00
416.471,1309.75
417.479,1261.50
418.487,1258.00
419.495,1256.00
420.503,1266.00
421.510,1243.50
422.518,1269.75
423.525,1228.00
424.530,1221.25
425.537,1233.50
426.544,1254.50
427.551,1178.25
428.558,1168.50
429.565,1209.00
430.571,1211.50
431.578,1204.50
432.582,1226.75
433.588,1214.25
434.595,1186.75
435.601,1168.50
436.607,1198.50
437.612,1219.25
438.618,1227.25
439.624,1175.50
440.627,1206.75
441.633,1230.00
442.638,1169.00
443.643,1167.75
444.648,1176.00
445.653,1220.00
446.658,1131.75
447.663,1190.25
448.667,1237.00
449.672,1209.50
450.674,1195.75
451.678,1182.00
452.682,1179.75
453.687,1203.25
454.690,1152.50
455.694,1210.25
456.698,1221.25
457.702,1154.75
458.705,1203.00
459.709,1228.50
460.710,1202.75
461.713,1220.00
462.716,1213.75
463.719,1194.50
464.722,1198.50
465.725,1206.00
466.727,1235.50
467.730,1207.50
468.732,1252.25
469.735,1213.50
470.737,1245.50
471.737,1285.50
472.739,1305.75
473.741,1282.50
474.742,1244.50
475.744,1225.50
476.746,1263.50
477.747,1265.25
478.748,1241.75
479.750,1258.50
480.751,1314.50
481.752,1245.50
482.753,1247.75
483.751,1221.00
484.752,1266.00
485.753,1236.50
486.753,1275.00
487.753,1294.75
488.754,1277.50
489.754,1251.50
490.754,1291.75
491.754,1279.50
492.754,1225.00
493.753,1238.50
494.753,1204.50
495.752,1241.50
496.752,1279.50
497.749,1230.25
498.748,1199.00
499.747,1203.50
500.746,1191.75
501.745,1212.50
502.744,1232.75
503.742,1206.50
504.741,1178.50
505.739,1186.25
506.737,1202.50
507.735,1210.25
508.734,1171.25
509.732,1220.50
510.729,1171.25
511.727,1201.75
512.725,1197.25
513.720,1176.75
514.718,1159.75
515.715,1155.00
516.712,1166.75
517.709,1163.25
518.706,1197.50
519.703,1187.25
520.700,1178.75
521.696,1183.00
522.693,1157.00
523.689,1147.75
524.686,1187.00
525.682,1144.25
526.678,1192.75
527.674,1189.75
528.670,1155.75
529.666,1169.75
530.661,1216.00
531.657,971.75
532.652,1192.00
533.648,1180.25
534.641,1193.75
535.636,1197.25
536.631,1218.00
537.626,1223.50
538.621,1204.50
539.616,1217.75
540.610,1207.50
541.605,1138.25
542.599,1212.50
543.593,1204.00
544.587,1191.00
545.581,1196.25
546.575,1214.00
547.569,1207.00
548.563,1238.50
549.557,1205.50
550.550,1183.25
551.543,1187.25
552.537,1213.75
553.530,1192.50
554.523,1245.50
555.516,1222.25
556.509,1198.75
557.502,1232.00
558.494,1245.50
559.487,1232.50
560.479,1223.75
561.472,1204.00
562.464,1233.00
563.456,1262.25
564.448,1276.25
565.440,1288.50
566.432,1273.00
567.423,1266.75
568.415,1272.50
569.404,1285.00
570.396,1237.00
571.387,1241.50
572.378,1315.00
573.369,1310.50
574.360,1303.50
575.351,1358.75
576.341,1315.25
577.332,1275.75
578.323,1264.75
579.313,1308.25
580.303,1302.00
581.293,1332.00
582.283,1327.25
583.273,1279.00
584.263,1310.00
585.253,1344.50
586.243,1309.50
587.232,1313.00
588.222,1309.75
589.211,1355.75
590.200,1300.50
591.189,1328.75
592.178,1344.50
593.167,1309.00
594.156,1349.25
595.145,1303.50
596.133,1301.50
597.122,1239.75
598.110,1291.50
599.098,1253.00
600.086,1305.50
601.074,1267.25
602.062,1297.75
603.050,1279.25
604.038,1255.00
605.025,1254.75
606.013,1275.75
607.000,1277.25
607.987,1249.25
608.975,1266.25
609.962,1215.75
610.949,1227.75
611.936,1201.25
612.922,1216.00
613.909,1186.50
614.895,1175.75
615.882,1218.75
616.868,1170.00
617.854,1171.75
618.841,1177.50
619.826,1196.50
620.812,1194.75
621.798,1173.75
622.784,1200.00
623.769,1146.75
624.755,1180.25
625.740,1149.75
626.725,1182.50
627.711,1179.50
628.698,1137.75
629.683,1102.75
630.667,1119.25
631.652,1150.50
632.637,1180.50
633.621,1101.50
634.606,1148.75
635.590,1076.75
636.574,1143.25
637.558,1102.25
638.542,1081.75
639.526,1058.00
640.510,1096.00
641.493,1124.75
642.477,1118.25
643.460,1088.50
644.444,1086.25
645.427,1072.50
646.410,1099.75
647.393,1066.25
648.376,1065.75
649.359,1043.00
650.341,1046.50
651.324,1059.75
652.307,1078.50
653.289,1042.25
654.271,1054.00
655.253,1006.75
656.235,1012.75
657.217,1068.50
658.199,1025.75
659.181,1003.50
660.163,1019.75
661.144,1015.00
662.126,1016.25
663.107,1020.00
664.088,1071.00
665.069,961.25
666.050,983.75
667.033,986.25
668.014,992.25
668.995,982.50
669.975,1014.75
670.956,975.00
671.936,972.25
672.916,960.00
673.896,995.50
674.876,980.25
675.856,964.75
676.836,931.00
677.816,931.50
678.795,962.75
679.775,945.75
680.754,961.25
681.734,973.25
682.713,899.50
683.692,925.25
684.671,891.00
685.650,924.00
686.629,952.00
687.607,922.50
688.586,908.00
689.564,945.75
690.543,942.25
691.523,882.25
692.501,887.50
693.479,902.25
694.457,861.00
695.435,892.00
696.413,878.00
697.390,902.50
698.368,897.00
699.345,862.75
700.322,889.75
701.300,835.50
702.277,909.25
703.254,879.50
704.231,870.25
705.207,848.50
706.184,888.75
707.161,888.75
708.137,860.25
709.113,828.25
710.090,814.25
711.068,864.25
712.044,822.75
713.020,880.75
713.996,832.00
714.971,839.00
715.947,830.00
716.922,802.00
717.898,850.25
718.873,833.00
719.848,837.50
720.823,826.75
721.798,772.50
722.773,812.00
723.748,819.00
724.723,794.75
725.697,829.50
726.672,818.25
727.646,797.75
728.622,814.75
729.596,810.25
730.570,787.50
731.544,800.00
732.518,804.00
733.492,823.75
734.466,801.75
735.439,810.25
736.413,814.50
737.386,773.50
738.359,761.25
739.332,780.00
740.305,790.00
741.278,810.25
742.251,801.25
743.224,773.00
744.196,761.75
745.171,782.00
746.143,758.00
747.115,791.25
748.087,758.00
749.059,680.25
750.031,768.75
751.003,778.75
751.975,779.00
752.947,781.50
753.918,777.50
754.890,772.50
755.861,777.50
756.832,761.50
757.803,792.25
758.774,775.75
759.747,764.75
760.718,715.25
761.689,774.75
762.659,753.00
763.630,805.25
764.600,733.75
765.570,682.75
766.540,697.00
767.510,777.75
768.480,746.00
769.450,732.00
770.420,758.25
771.390,712.25
772.359,761.00
773.329,761.00
774.300,690.50
775.269,743.25
776.238,698.00
777.207,712.50
778.176,709.75
779.145,740.50
780.114,750.00
781.083,694.75
782.051,683.75
783.019,707.25
783.988,695.50
784.956,745.50
785.924,698.00
786.894,700.00
787.862,724.25
788.830,735.75
789.797,720.25
790.765,724.75
791.732,694.50
792.700,707.75
793.667,733.75
794.634,669.75
795.601,713.00
796.568,715.25
797.535,686.75
798.502,631.00
799.468,680.00
800.437,648.75
801.403,679.50
802.370,725.75
803.336,639.25
804.302,698.50
805.268,670.00
806.234,672.00
807.200,724.75
808.166,687.50
809.131,685.50
810.097,651.75
811.062,718.50
812.027,675.75
812.994,709.50
813.960,665.75
814.925,669.00
815.889,660.50
816.854,701.00
817.819,683.25
818.783,657.75
819.748,716.50
820.712,643.50
821.677,676.50
822.641,620.00
823.605,687.00
824.571,661.75
825.534,649.50
826.498,650.25
827.462,649.00
828.425,667.50
829.389,615.25
830.352,677.00
831.315,701.25
832.279,676.25
833.242,675.50
834.204,657.00
835.167,694.25
836.132,659.25
837.095,629.00
838.057,652.50
839.020,663.75
839.982,658.00
840.944,638.00
841.906,674.00
842.868,620.75
843.830,609.00
844.792,635.50
845.753,664.25
846.715,638.50
847.679,627.00
848.640,600.50
849.601,634.50
850.562,611.25
851.523,639.50
852.484,630.50
853.445,608.50
854.406,643.50
855.367,668.25
856.327,675.25
857.288,647.00
858.248,627.25
859.210,645.00
860.170,662.25
861.130,622.75
862.090,581.50
863.050,656.00
864.010,619.75
864.969,606.00
865.929,632.00
866.888,644.00
867.848,649.00
868.807,640.00
869.766,629.25
870.727,615.50
871.686,607.00
872.645,610.75
873.604,635.50
874.562,617.25
875.521,599.75
876.479,627.00
877.437,566.25
878.396,586.75
879.354,603.25
880.312,611.00
881.270,628.75
882.229,610.00
883.187,580.00
884.145,621.00
885.102,575.25
886.059,637.00
887.017,631.50
887.974,555.50
888.931,604.00
889.888,619.00
890.845,620.50
891.802,618.00
892.758,624.00
893.717,605.25
894.673,622.50
895.630,554.00
896.586,603.50
897.542,613.50
898.498,590.75
899.454,624.75
900.410,590.50
901.366,601.50
902.321,616.50
903.277,605.25
904.232,623.50
905.189,599.75
906.145,586.25
907.100,583.50
908.055,551.75
909.010,584.50
909.965,611.00
910.919,570.75
911.874,584.00
912.828,605.00
913.783,583.75
914.737,587.50
915.693,596.00
916.648,592.25
917.602,596.75
918.555,551.50
919.509,555.75
920.463,598.75
921.417,573.00
922.370,554.00
923.324,574.00
924.277,611.50
925.230,559.00
926.183,568.50
927.138,586.25
928.091,587.50
929.044,570.75
929.996,528.50
930.949,571.50
931.902,574.00
932.854,598.50
933.806,567.50
934.758,541.75
935.711,594.50
936.663,628.50
937.614,602.50
938.568,565.50
939.520,619.50
940.471,563.25
941.423,575.25
942.374,559.00
943.326,560.50
944.277,616.00
945.228,578.00
946.179,584.50
947.130,599.00
948.080,554.50
949.031,564.50
949.984,515.50
950.934,587.25
951.884,563.00
952.835,594.25
953.785,588.25
954.735,597.50
955.685,599.75
956.635,569.25
957.585,534.00
958.534,545.00
959.484,594.75
960.433,568.50
961.383,543.50
962.334,597.25
963.283,562.00
964.232,541.25
965.181,548.00
966.130,571.00
967.079,579.75
968.027,571.00
968.976,557.00
969.924,602.25
970.873,598.00
971.821,551.50
972.769,603.25
973.719,525.50
974.667,533.25
975.615,593.25
976.562,587.75
977.510,530.00
978.458,554.25
979.405,593.00
980.352,571.75
981.300,521.75
982.247,577.50
983.194,572.00
984.141,610.75
985.088,584.00
986.036,570.75
986.983,590.75
987.930,561.25
988.876,580.75
989.822,553.75
990.769,620.00
991.715,549.25
992.661,596.25
993.607,594.75
994.553,584.25
995.498,563.25
996.444,541.50
997.389,582.75
998.337,615.00
999.282,558.75
1000.227,567.00
1001.173,538.50
1002.118,591.00
1003.062,578.50
1004.007,556.75
1004.952,522.25
1005.897,564.00
1006.841,596.75
1007.786,543.50
1008.730,573.00
1009.674,562.00
1010.618,606.25
1011.564,584.75
1012.508,561.75
1013.452,579.50
1014.396,543.75
1015.339,555.00
1016.283,536.25
1017.226,545.00
1018.170,551.75
1019.113,521.00
1020.056,555.50
1020.999,582.00
1021.942,574.50
1022.885,583.25
1023.828,554.50
1024.770,566.50
1025.715,598.75
1026.657,505.50
1027.600,599.25
1028.542,593.50
1029.484,623.50
1030.426,581.00
1031.368,616.00
1032.310,592.00
1033.251,625.00
1034.193,540.25
1035.135,560.75
1036.076,566.25
1037.017,559.75
1037.959,565.00
1038.900,582.75
1039.843,558.00
1040.784,591.00
1041.725,577.00
1042.665,543.50
1043.606,606.50
1044.547,539.50
1045.487,588.00
1046.427,609.75
1047.368,584.50
1048.308,561.50
1049.248,533.50
1050.188,558.50
1051.128,587.75
1052.067,620.00
1053.007,612.50
1053.947,567.75
1054.886,570.00
1055.827,572.00
1056.766,570.25
1057.706,600.75
1058.645,583.75
1059.584,591.50
1060.522,617.50
1061.461,582.75
1062.400,557.25
1063.338,611.00
1064.277,593.75
1065.215,566.75
1066.154,571.50
1067.092,620.25
1068.030,581.75
1068.968,578.50
1069.906,623.50
1070.843,613.25
1071.781,601.00
1072.720,570.00
1073.658,564.75
1074.595,592.75
1075.533,581.00
1076.470,616.25
1077.407,605.50
1078.344,581.00
1079.281,603.75
1080.217,576.25
1081.154,581.25
1082.091,540.50
1083.027,611.75
1083.964,602.25
1084.900,620.75
1085.836,612.50
1086.772,623.75
1087.708,586.00
1088.644,642.25
1089.580,607.25
1090.515,622.25
1091.451,603.00
1092.388,598.75
1093.324,590.75
1094.259,546.25
1095.194,632.75
1096.129,584.75
1097.064,595.00
1097.999,575.50
1098.934,575.25
1099.869,570.75
1100.803,620.00
1101.738,582.25
1102.672,603.50
1103.607,589.25
1104.541,571.00
1105.475,599.50
1106.409,593.00
1107.343,578.75
1108.277,598.25
1109.210,569.50
1110.144,591.00
1111.078,609.75
1112.011,613.25
1112.944,592.25
1113.878,646.50
1114.811,605.25
1115.744,571.50
1116.678,618.25
1117.611,560.50
1118.544,610.25
1119.477,589.00
1120.409,610.50
1121.342,561.25
1122.274,561.25
1123.206,608.25
1124.138,577.25
1125.070,589.50
1126.002,615.75
1126.934,597.50
1127.866,629.00
1128.798,591.75
1129.729,588.50
1130.661,600.25
1131.592,549.50
1132.523,566.00
1133.454,603.25
1134.385,551.75
1135.317,587.75
1136.247,557.50
1137.178,628.25
1138.109,595.00
1139.039,564.00
1139.970,584.50
1140.900,571.50
1141.831,572.25
1142.761,600.50
1143.691,584.50
1144.621,580.50
1145.551,570.25
1146.480,571.75
1147.410,561.25
1148.340,615.75
1149.269,558.00
1150.199,604.25
1151.128,604.75
1152.057,576.75
1152.979,554.25
1153.898,577.50
1154.819,558.25
1155.739,581.75
1156.658,563.75
1157.579,574.00
1158.498,587.50
1159.419,557.25
1160.338,612.25
1161.256,586.50
1162.177,595.25
1163.095,595.25
1164.016,601.00
1164.934,592.50
1165.852,608.25
1166.772,586.00
1167.690,559.00
1168.610,563.00
1169.528,592.25
1170.446,573.25
1171.365,599.75
1172.283,570.25
1173.202,601.50
1174.120,585.00
1175.037,571.00
1175.956,571.75
1176.873,610.00
1177.792,596.25
1178.709,577.50
1179.626,561.75
1180.544,572.25
1181.461,555.00
1182.379,582.00
1183.296,579.00
1184.212,584.50
1185.130,568.25
1186.046,582.25
1186.962,609.50
1187.880,612.25
1188.796,539.50
1189.714,575.00
1190.629,625.75
1191.545,609.50
1192.462,569.75
1193.378,599.50
1194.295,640.25
1195.210,613.00
1196.125,583.50
1197.042,619.75
1197.957,608.00
1198.872,570.25
1199.788,590.75
1200.703,616.25
1201.619,609.75
1202.534,620.50
1203.448,627.00
1204.364,605.75
1205.278,598.00
1206.192,613.00
1207.108,618.25
1208.022,639.25
1208.938,613.25
1209.851,589.25
1210.765,652.50
1211.680,617.75
1212.594,605.25
1213.507,622.75
1214.422,661.25
1215.335,613.50
1216.248,608.75
1217.163,613.00
1218.076,626.00
1218.990,626.25
1219.903,647.25
1220.816,601.00
1221.730,662.50
1222.642,633.00
1223.554,656.75
1224.469,645.25
1225.380,664.50
1226.292,636.75
1227.206,693.50
1228.118,675.00
1229.032,634.75
1229.943,662.75
1230.855,686.25
1231.768,678.50
1232.679,661.50
1233.590,628.75
1234.503,658.75
1235.414,669.75
1236.325,661.50
1237.238,639.50
1238.149,650.75
1239.059,662.25
1239.972,664.00
1240.882,664.75
1241.793,687.00
1242.705,643.25
1243.615,640.75
1244.525,685.50
1245.437,673.75
1246.347,662.50
1247.259,694.75
1248.168,697.75
1249.078,713.25
1249.989,660.25
1250.899,671.25
1251.808,674.00
1252.719,699.50
1253.628,722.00
1254.537,709.00
1255.448,698.00
1256.357,715.75
1257.266,701.25
1258.176,695.75
1259.085,714.25
1259.993,697.25
1260.904,664.00
1261.812,694.50
1262.720,658.75
1263.630,726.75
1264.538,683.50
1265.446,693.50
1266.356,667.00
1267.263,723.00
1268.171,656.25
1269.080,679.50
1269.988,681.25
1270.895,729.50
1271.804,692.75
1272.711,722.50
1273.619,733.25
1274.527,729.75
1275.434,679.00
1276.341,717.25
1277.248,724.25
1278.156,689.00
1279.063,671.00
1279.969,716.00
1280.877,657.25
1281.783,669.25
1282.690,722.25
1283.598,691.75
1284.503,714.25
1285.409,689.00
1286.317,689.00
1287.223,699.25
1288.128,704.00
1289.036,670.00
1289.941,707.75
1290.846,693.75
1291.751,657.50
1292.658,691.50
1293.563,695.75
1294.468,690.75
1295.375,702.00
1296.280,692.00
1297.184,695.50
1298.091,667.00
1298.995,698.75
1299.900,661.75
1300.806,668.50
1301.710,643.25
1302.614,649.75
1303.518,726.75
1304.424,642.00
1305.327,668.00
1306.231,642.50
1307.137,624.25
1308.040,678.00
1308.943,628.50
1309.847,581.50
1310.752,653.50
1311.655,634.50
1312.558,645.25
1313.463,673.25
1314.366,605.00
1315.269,578.25
1316.171,647.50
1317.076,601.75
1317.978,643.25
1318.881,618.50
1319.785,632.75
1320.687,633.75
1321.589,622.25
1322.491,629.00
1323.395,631.25
1324.297,613.00
1325.198,573.75
1326.102,595.50
1327.004,608.50
1327.905,598.25
1328.806,611.00
1329.709,615.75
1330.611,610.25
1331.512,589.50
1332.413,569.25
1333.316,596.75
1334.216,597.00
1335.117,583.50
1336.020,552.50
1336.920,596.00
1337.821,584.25
1338.721,604.50
1339.623,547.75
1340.523,551.50
1341.423,484.50
1342.323,573.00
1343.225,552.75
1344.125,561.75
1345.025,520.00
1345.924,534.50
1346.826,527.75
1347.725,583.75
1348.624,547.00
1349.524,508.75
1350.425,568.00
1351.324,516.00
1352.223,483.00
1353.121,505.75
1354.022,537.50
1354.921,496.75
1355.819,506.50
1356.718,493.50
1357.618,514.75
1358.516,503.00
1359.415,507.50
1360.313,556.00
1361.213,492.50
1362.111,529.75
1363.008,456.50
1363.906,519.50
1364.806,502.75
1365.703,509.25
1366.601,442.25
1367.498,501.75
1368.397,508.25
1369.295,502.00
1370.192,484.50
1371.089,495.75
1371.987,472.25
1372.884,519.50
1373.781,476.75
1374.678,477.75
1375.574,478.25
1376.473,460.75
1377.369,471.00
1378.265,477.25
1379.161,457.75
1380.059,412.75
1380.955,437.75
1381.851,445.75
1382.747,418.25
1383.643,449.25
1384.540,467.00
1385.436,485.75
1386.331,434.75
1387.227,468.25
1388.124,441.00
1389.019,469.00
1389.914,440.00
1390.809,472.25
1391.704,405.00
1392.601,457.50
1393.495,403.50
1394.390,452.25
1395.285,426.00
1396.179,431.75
1397.075,438.50
1397.969,395.75
1398.864,427.00
1399.758,438.50
1400.652,405.00
1401.547,427.25
1402.441,391.25
1403.335,466.25
1404.229,424.50
1405.122,408.50
1406.017,414.50
1406.911,456.00
1407.804,398.25
1408.697,392.75
1409.590,422.75
1410.485,457.25
1411.378,410.25
1412.271,421.75
1413.163,431.00
1414.056,398.25
1414.949,436.75
1415.843,419.00
1416.735,463.00
1417.627,436.25
1418.520,407.75
1419.412,417.00
1420.306,373.00
1421.197,431.25
1422.089,397.00
1422.981,443.00
1423.873,412.50
1424.764,410.25
1425.657,419.25
1426.549,413.00
1427.440,388.75
1428.331,423.25
1429.222,406.00
1430.113,391.50
1431.006,408.50
1431.897,364.75
1432.787,381.75
1433.678,383.75
1434.568,393.50
1435.459,359.75
1436.351,394.00
1437.241,376.25
1438.131,404.75
1439.021,374.50
1439.911,426.00
1440.801,420.50
1441.693,371.50
1442.583,379.00
1443.472,335.75
1444.362,395.50
1445.251,418.50
1446.140,347.25
1447.030,379.75
1447.921,422.75
1448.810,373.75
1449.699,394.50
1450.588,388.00
1451.476,395.25
1452.365,429.00
1453.254,386.00
1454.144,341.50
1455.032,393.25
1455.921,338.25
1456.809,379.00
1457.697,376.00
1458.585,387.25
1459.473,359.75
1460.361,344.25
1461.251,352.75
1462.138,379.75
1463.026,390.25
1463.913,347.25
1464.801,379.25
1465.688,370.00
1466.575,349.25
1467.463,309.75
1468.351,323.25
1469.238,336.00
1470.125,341.50
1471.012,332.00
1471.899,358.00
1472.785,342.50
1473.672,346.75
1474.558,358.50
1475.446,374.50
1476.333,352.75
1477.219,372.75
1478.105,349.25
1478.991,360.25
1479.877,358.25
1480.762,342.00
1481.648,312.00
1482.534,345.50
1483.419,349.75
1484.307,358.75
1485.192,351.25
1486.077,330.50
1486.962,317.50
1487.847,345.75
1488.732,375.25
1489.617,331.25
1490.502,340.50
1491.387,350.25
1492.271,340.25
1493.156,322.00
1494.042,337.75
1494.927,301.75
1495.811,360.75
1496.695,327.75
1497.579,379.75
1498.463,362.50
1499.347,333.00
1500.231,325.00
1501.114,287.25
1501.998,379.25
1502.881,310.50
1503.765,354.75
1504.648,326.25
1505.533,315.25
1506.417,337.00
1507.300,314.50
1508.183,341.25
1509.066,366.50
1509.948,368.75
1510.831,358.00
1511.714,315.75
1512.596,336.75
1513.479,341.25
1514.361,359.00
1515.243,321.75
1516.125,339.00
1517.008,297.25
1517.890,285.50
1518.771,311.75
1519.655,339.00
1520.537,324.00
1521.419,353.75
1522.300,306.50
1523.182,299.25
1524.063,318.00
1524.944,355.00
1525.825,339.00
1526.707,302.75
1527.588,351.25
1528.468,324.50
1529.349,325.75
1530.230,318.50
1531.111,288.00
1531.991,359.50
1532.872,326.50
1533.752,320.25
1534.632,331.75
1535.513,314.75
1536.393,313.25
1537.273,297.50
1538.153,244.75
1539.032,296.00
1539.912,295.00
1540.792,342.50
1541.672,282.50
1542.551,311.00
1543.430,327.75
1544.310,300.00
1545.189,287.25
1546.068,336.25
1546.947,331.00
1547.826,272.75
1548.705,301.00
1549.584,349.25
1550.462,328.25
1551.341,303.25
1552.219,319.25
1553.098,290.25
1553.976,276.25
1554.854,321.25
1555.733,360.00
1556.611,309.00
1557.489,317.00
1558.367,318.25
1559.244,313.00
1560.122,324.75
1561.000,322.75
1561.877,302.50
1562.755,312.75
1563.632,297.75
1564.509,298.00
1565.386,327.00
1566.264,306.75
1567.141,320.25
1568.017,289.25
1568.894,287.75
1569.771,295.50
1570.648,311.75
1571.524,295.00
1572.401,304.25
1573.277,309.50
1574.153,333.75
1575.029,311.00
1575.906,324.75
1576.781,311.50
1577.657,331.50
1578.533,343.25
1579.409,344.50
1580.285,336.25
1581.160,241.25
1582.036,270.25
1582.911,335.00
1583.786,306.25
1584.662,326.00
1585.537,284.25
1586.412,282.75
1587.287,302.50
1588.160,245.00
1589.035,263.50
1589.909,276.25
1590.784,294.25
1591.658,305.50
1592.533,299.50
1593.407,274.25
1594.281,293.75
1595.155,297.00
1596.029,282.50
1596.903,344.25
1597.777,267.75
1598.651,277.00
1599.525,282.75
1600.398,282.50
1601.272,246.50
1602.144,269.00
1603.017,294.75
1603.890,299.25
1604.763,288.50
1605.636,282.50
1606.509,322.75
1607.382,320.25
1608.255,275.75
1609.128,322.75
1610.000,297.25
1610.873,322.25
1611.746,325.50
1612.616,285.00
1613.488,276.25
1614.361,316.00
1615.233,280.75
1616.105,281.50
1616.977,289.00
1617.849,276.75
1618.720,317.25
1619.592,293.75
1620.464,286.25
1621.333,255.50
1622.205,266.25
1623.076,271.25
1623.947,308.50
1624.818,318.50
1625.689,294.00
1626.560,319.00
1627.431,279.00
1628.302,307.75
1629.171,291.25
1630.042,261.25
1630.912,294.50
1631.782,304.50
1632.653,299.50
1633.523,270.00
1634.393,292.50
1635.263,315.25
1636.131,302.00
1637.001,336.75
1637.871,243.75
1638.741,281.00
1639.611,265.00
1640.480,255.50
1641.350,291.25
1642.219,311.25
1643.087,281.50
1643.956,272.50
1644.825,283.50
1645.694,248.00
1646.563,296.00
1647.432,258.50
1648.299,257.50
1649.167,247.50
1650.036,280.75
1650.904,278.25
1651.773,262.25
1652.641,265.25
1653.509,297.25
1654.376,289.25
1655.244,309.25
1656.112,282.25
1656.980,296.00
1657.847,284.75
1658.715,283.00
1659.581,316.25
1660.448,268.25
1661.316,246.00
1662.183,279.25
1663.051,287.50
1663.918,245.75
1664.783,263.25
1665.650,278.00
1666.517,290.75
1667.384,303.25
1668.251,294.00
1669.115,276.75
1669.982,287.75
1670.849,263.00
1671.715,268.00
1672.581,274.50
1673.446,259.25
1674.312,257.75
1675.178,247.25
1676.044,236.50
1676.910,277.50
1677.774,274.00
1678.639,197.50
1679.505,266.25
1680.370,278.50
1681.236,260.25
1682.099,265.50
1682.965,281.50
1683.830,258.00
1684.695,246.00
1685.560,273.25
1686.423,231.75
1687.288,254.00
1688.153,272.50
1689.017,267.50
1689.880,256.00
1690.745,267.75
1691.609,276.25
1692.473,268.50
1693.338,304.25
1694.200,279.25
1695.064,259.75
1695.928,272.50
1696.792,235.50
1697.654,266.25
1698.517,251.00
1699.381,245.50
1700.245,323.25
1701.106,291.25
1701.969,262.00
1702.833,270.00
1703.696,244.25
1704.557,248.50
1705.420,346.00
1706.283,255.25
1707.146,293.75
1708.007,285.25
1708.870,263.25
1709.732,257.25
1710.595,244.25
1711.455,242.75
1712.318,279.00
1713.180,226.00
1714.040,240.75
1714.902,252.25
1715.764,263.25
1716.626,245.50
1717.486,249.75
1718.348,273.25
1719.209,281.25
1720.071,243.25
1720.930,218.25
1721.792,260.00
1722.653,251.00
1723.512,223.25
1724.374,304.00
1725.234,288.75
1726.095,254.75
1726.954,248.50
1727.815,222.00
1728.676,238.00
1729.535,245.25
1730.395,234.75
1731.256,249.25
1732.114,247.50
1732.974,255.50
1733.834,253.75
1734.693,289.50
1735.553,232.75
1736.413,204.50
1737.272,243.25
1738.130,247.25
1738.990,275.25
1739.849,236.00
1740.707,289.50
1741.566,267.50
1742.426,254.25
1743.283,248.00
1744.142,261.50
1745.001,235.50
1745.858,258.50
1746.717,262.25
1747.576,240.75
1748.433,251.00
1749.292,294.75
1750.150,200.75
1751.007,269.25
1751.865,265.50
1752.723,253.50
1753.579,220.25
1754.438,273.00
1755.296,234.25
1756.152,231.25
1757.010,252.75
1757.865,239.25
1758.723,260.50
1759.581,250.00
1760.436,252.00
1761.294,268.50
1762.151,190.00
1763.006,282.50
1763.864,306.25
1764.721,235.50
1765.576,256.50
1766.433,251.25
1767.288,249.00
1768.144,238.25
1769.001,239.50
1769.856,221.00
1770.712,267.00
1771.568,266.25
1772.423,244.75
1773.279,226.50
1774.133,229.25
1774.989,287.50
1775.845,260.50
1776.699,260.00
1777.555,248.75
1778.409,264.25
1779.265,222.75
1780.120,253.75
1780.974,254.75
1781.829,230.75
1782.682,212.75
1783.538,219.75
1784.393,236.75
1785.246,230.00
1786.101,233.75
1786.954,294.25
1787.808,198.25
1788.661,242.25
1789.516,269.50
1790.370,254.25
1791.223,218.75
1792.077,235.50
1792.930,207.00
1793.784,225.50
1794.636,233.00
1795.490,260.25
1796.344,217.00
1797.196,237.50
1798.049,237.75
1798.901,247.25
1799.755,270.75
1800.606,253.00
1801.460,257.50
1802.311,216.00
1803.165,275.75
1804.018,231.25
1804.869,224.75
1805.722,225.50
1806.573,244.75
1807.426,226.00
1808.276,240.75
1809.129,266.00
1809.980,262.25
1810.832,237.75
1811.683,237.75
1812.535,264.00
1813.385,275.25
1814.237,220.25
1815.089,224.50
1815.940,223.25
1816.791,251.50
1817.641,263.50
1818.493,271.75
1819.343,239.75
1820.194,259.25
1821.044,202.50
1821.895,260.75
1822.745,267.75
1823.596,241.00
1824.445,262.50
1825.296,280.50
1826.145,260.75
1826.996,251.00
1827.845,267.25
1828.695,257.75
1829.544,269.25
1830.395,275.25
1831.243,235.00
1832.094,264.50
1832.942,269.00
1833.792,270.00
1834.640,267.75
1835.490,241.25
1836.338,195.50
1837.186,242.50
1838.036,304.75
1838.884,241.00
1839.733,279.25
1840.581,228.50
1841.430,251.75
1842.278,240.25
1843.127,237.75
1843.974,250.50
1844.823,251.25
1845.671,249.75
1846.519,209.00
1847.366,248.00
1848.213,246.25
1849.062,232.75
1849.909,248.25
1850.757,211.00
1851.604,230.50
1852.452,261.75
1853.298,251.50
1854.146,199.00
1854.993,229.75
1855.839,232.25
1856.687,237.25
1857.532,263.25
1858.380,223.75
1859.226,236.50
1860.073,261.75
1860.919,270.50
1861.765,266.00
1862.612,256.00
1863.457,260.75
1864.304,252.25
1865.150,234.50
1865.995,229.50
1866.842,253.50
1867.686,232.50
1868.533,203.50
1869.378,237.25
1870.223,266.25
1871.069,215.25
1871.914,239.25
1872.760,229.75
1873.604,232.50
1874.448,236.75
1875.294,258.25
1876.139,235.25
1876.984,205.00
1877.828,237.50
1878.672,242.00
1879.518,240.75
1880.361,255.00
1881.205,268.75
1882.050,239.25
1882.894,286.50
1883.739,191.75
1884.582,257.50
1885.425,255.25
1886.270,237.75
1887.113,204.50
1887.956,217.25
1888.801,268.25
1889.644,232.00
1890.486,274.00
1891.331,255.00
1892.173,210.75
1893.017,246.25
1893.860,260.75
1894.702,280.25
1895.546,244.50
1896.388,225.00
1897.230,246.00
1898.074,202.50
1898.916,217.00
1899.757,230.50
1900.601,270.75
1901.443,196.50
1902.284,227.75
1903.125,246.00
1903.969,227.00
1904.810,180.00
1905.651,250.50
1906.494,212.25
1907.335,244.25
1908.176,240.50
1909.018,216.50
1909.859,238.50
1910.700,223.00
1911.542,254.50
1912.383,214.50
1913.223,257.25
1914.064,227.25
1914.906,254.75
1915.746,216.50
1916.586,233.75
1917.428,240.75
1918.268,213.50
1919.107,242.75
1919.947,223.25
1920.789,252.00
1921.628,194.00
1922.468,233.25
1923.309,224.75
1924.148,237.00
1924.988,214.25
1925.827,192.25
1926.667,245.00
1927.507,228.50
1928.345,252.00
1929.184,228.50
1930.025,237.00
1930.864,204.50
1931.702,262.50
1932.541,190.50
1933.381,236.00
1934.219,241.25
1935.057,256.25
1935.896,244.75
1936.735,231.25
1937.573,195.00
1938.411,181.00
1939.249,253.25
1940.089,195.25
1940.927,242.75
1941.764,211.75
1942.602,237.25
1943.439,227.50
1944.278,216.00
1945.115,232.75
1945.953,257.75
1946.790,275.25
1947.628,283.25
1948.465,206.75
1949.302,257.25
1950.139,238.75
1950.976,260.75
1951.814,251.25
1952.651,246.25
1953.487,244.75
1954.323,201.25
1955.160,250.00
1955.998,238.50
1956.834,293.00
1957.670,248.75
1958.506,203.50
1959.342,224.50
1960.177,264.50
1961.015,233.25
1961.850,210.75
1962.686,213.75
1963.521,267.50
1964.357,213.25
1965.192,230.25
1966.029,242.75
1966.864,236.00
1967.699,210.50
1968.534,187.00
1969.369,240.25
1970.204,227.25
1971.040,227.25
1971.875,238.00
1972.709,258.50
1973.544,245.50
1974.378,221.25
1975.212,241.25
1976.047,278.50
1976.882,232.75
1977.716,242.25
1978.550,256.25
1979.384,226.75
1980.218,221.75
1981.052,248.75
1981.885,212.50
1982.719,283.00
1983.554,245.00
1984.388,256.00
1985.221,242.25
1986.054,217.75
1986.887,217.25
1987.720,234.25
1988.553,223.25
1989.386,228.25
1990.219,224.00
1991.053,287.00
1991.886,230.00
1992.719,235.00
1993.551,244.00
1994.383,217.50
1995.216,203.25
1996.048,253.75
1996.880,246.00
1997.712,253.50
1998.544,249.50
1999.376,251.25
2000.208,229.25
2000.208,229.25

Max Intensity Wave.,219.929
Max Intensity Data,4570.25
Min Intensity Wave.,1904.810
Min Intensity Data,180.00
FWHM Wave.,403.448
FWHM Value,0.86
Pressure Wave.,686.616
Pressure Value [GPa],-19.83203
G/D Ratio,0.49562
G/D Gband Wave.,1555.673
G/D Gband Intensity,360.21
G/D Dband Wave.,1303.497
G/D Dband Intensity,726.79

<< BACKGROUND SPECTRUM >>
Wave[dcm-1],No128
146.591,2273.00
147.626,2144.00
148.664,2036.00
149.699,2555.00
150.737,2273.00
151.772,2411.00
152.809,2405.00
153.846,2348.00
154.881,2407.00
155.918,2006.00
156.953,2287.00
157.989,2603.00
159.026,2441.00
160.060,2642.00
161.096,2869.00
162.130,2531.00
163.167,2595.00
164.200,2459.00
165.236,2653.00
166.272,2650.00
167.305,2294.00
168.341,2570.00
169.374,2759.00
170.409,2806.00
171.445,2705.00
172.477,2581.00
173.512,2421.00
174.545,2730.00
175.580,2841.00
176.614,3051.00
177.647,2830.00
178.681,3051.00
179.713,3328.00
180.747,2834.00
181.781,2718.00
182.813,2984.00
183.847,3062.00
184.878,2724.00
185.912,3001.00
186.945,3184.00
187.976,3084.00
189.010,2765.00
190.043,2860.00
191.073,2938.00
192.106,2720.00
193.137,3213.00
194.170,2595.00
195.202,2908.00
196.232,2732.00
197.265,3029.00
198.297,3102.00
199.327,2754.00
200.359,2968.00
201.388,3352.00
202.420,2902.00
203.452,3109.00
204.481,2696.00
205.512,3309.00
206.544,3104.00
207.573,3065.00
208.604,3454.00
209.635,3537.00
210.663,2982.00
211.694,3012.00
212.725,2886.00
213.753,2829.00
214.783,3414.00
215.813,3249.00
216.841,3000.00
217.871,3173.00
218.899,2887.00
219.929,3180.00
220.959,2914.00
221.986,3140.00
223.016,2762.00
224.045,3179.00
225.072,3153.00
226.101,3245.00
227.130,3268.00
228.157,2880.00
229.185,2363.00
230.214,3207.00
231.241,2830.00
232.269,2460.00
233.297,2677.00
234.323,3251.00
235.351,2838.00
236.379,3076.00
237.407,2788.00
238.433,2971.00
239.460,3102.00
240.488,3109.00
241.513,3229.00
242.540,3109.00
243.568,3251.00
244.592,3225.00
245.619,3218.00
246.646,2950.00
247.671,2974.00
248.697,2839.00
249.724,3030.00
250.748,3004.00
251.774,3049.00
252.801,3333.00
253.827,3147.00
254.850,3101.00
255.876,2729.00
256.902,3098.00
257.925,3010.00
258.951,2759.00
259.976,2766.00
260.999,3127.00
262.024,2816.00
263.049,3677.00
264.074,3127.00
265.097,3053.00
266.122,3107.00
267.146,3009.00
268.168,3219.00
269.193,2855.00
270.217,3235.00
271.241,2742.00
272.263,2894.00
273.287,3190.00
274.311,2770.00
275.332,3327.00
276.356,2837.00
277.379,3092.00
278.402,3129.00
279.424,2957.00
280.447,2914.00
281.470,2751.00
282.492,3088.00
283.513,2939.00
284.536,3179.00
285.558,3141.00
286.581,3179.00
287.601,2860.00
288.623,2827.00
289.645,3051.00
290.665,3126.00
291.687,3167.00
292.709,3149.00
293.730,3434.00
294.750,2955.00
295.771,2749.00
296.792,3059.00
297.813,2926.00
298.832,3088.00
299.853,2762.00
300.874,2982.00
301.895,2970.00
302.913,2973.00
303.934,3300.00
304.954,3028.00
305.975,3212.00
306.993,2764.00
308.013,3143.00
309.033,3020.00
310.052,2920.00
311.072,2885.00
312.090,3080.00
313.109,3263.00
314.129,3441.00
315.148,3020.00
316.165,3106.00
317.184,3265.00
318.203,2758.00
319.222,2767.00
320.238,3157.00
321.257,2816.00
322.275,2691.00
323.294,2980.00
324.312,3147.00
325.328,3318.00
326.346,3289.00
327.364,3274.00
328.382,3184.00
329.397,3158.00
330.415,3245.00
331.432,3223.00
332.450,3293.00
333.467,3493.00
334.482,2620.00
335.499,3358.00
336.516,2911.00
337.533,2547.00
338.547,2862.00
339.564,2789.00
340.580,3152.00
341.597,2967.00
342.613,3499.00
343.627,3005.00
344.643,3027.00
345.659,3101.00
346.675,3022.00
347.690,2887.00
348.704,3106.00
349.719,2894.00
350.735,2790.00
351.750,3196.00
352.765,3027.00
353.778,3005.00
354.793,3133.00
355.808,2857.00
356.822,3197.00
357.837,2639.00
358.851,3271.00
359.864,2994.00
360.878,2746.00
361.892,2975.00
362.906,3186.00
363.920,2623.00
364.932,3097.00
365.945,3129.00
366.959,2999.00
367.972,2973.00
368.986,2755.00
369.999,3387.00
371.010,2855.00
372.023,3346.00
373.036,2955.00
374.049,3406.00
375.061,3135.00
376.072,3002.00
377.084,2909.00
378.097,2691.00
379.109,3204.00
380.121,2983.00
381.133,2697.00
382.143,3118.00
383.155,2743.00
384.166,2897.00
385.178,3143.00
386.189,3194.00
387.201,2749.00
388.212,2902.00
389.221,2890.00
390.232,3011.00
391.243,2940.00
392.254,3062.00
393.264,2861.00
394.275,3244.00
395.283,3198.00
396.294,3673.00
397.304,3485.00
398.314,3130.00
399.324,3040.00
400.334,2693.00
401.344,3191.00
402.351,2702.00
403.361,3181.00
404.370,2964.00
405.380,2910.00
406.389,3347.00
407.398,3145.00
408.407,3078.00
409.414,3177.00
410.423,3293.00
411.431,2755.00
412.440,2703.00
413.448,3316.00
414.457,2850.00
415.465,2811.00
416.471,2879.00
417.479,3047.00
418.487,2857.00
419.495,3316.00
420.503,3142.00
421.510,2639.00
422.518,3150.00
423.525,3199.00
424.530,3428.00
425.537,2900.00
426.544,3239.00
427.551,2917.00
428.558,3618.00
429.565,3456.00
430.571,2884.00
431.578,2898.00
432.582,2886.00
433.588,2953.00
434.595,2632.00
435.601,3336.00
436.607,3269.00
437.612,2760.00
438.618,3315.00
439.624,2964.00
440.627,2940.00
441.633,3095.00
442.638,3612.00
443.643,3142.00
444.648,3044.00
445.653,3177.00
446.658,2950.00
447.663,3013.00
448.667,2869.00
449.672,2905.00
450.674,2966.00
451.678,2717.00
452.682,2887.00
453.687,2843.00
454.690,3654.00
455.694,3276.00
456.698,2542.00
457.702,2707.00
458.705,2818.00
459.709,2813.00
460.710,2896.00
461.713,3044.00
462.716,3058.00
463.719,3020.00
464.722,3227.00
465.725,3001.00
466.727,2868.00
467.730,3068.00
468.732,2780.00
469.735,3331.00
470.737,2946.00
471.737,2877.00
472.739,2877.00
473.741,2796.00
474.742,3095.00
475.744,3140.00
476.746,3046.00
477.747,2971.00
478.748,3228.00
479.750,2947.00
480.751,3008.00
481.752,3765.00
482.753,3139.00
483.751,3597.00
484.752,2643.00
485.753,2992.00
486.753,2886.00
487.753,2974.00
488.754,3423.00
489.754,2718.00
490.754,3284.00
491.754,3116.00
492.754,2741.00
493.753,3063.00
494.753,2960.00
495.752,3344.00
496.752,3021.00
497.749,2990.00
498.748,2883.00
499.747,3445.00
500.746,3121.00
501.745,2802.00
502.744,2753.00
503.742,3354.00
504.741,2970.00
505.739,2510.00
506.737,2896.00
507.735,3138.00
508.734,3404.00
509.732,3104.00
510.729,3377.00
511.727,2909.00
512.725,2909.00
513.720,2805.00
514.718,3288.00
515.715,2710.00
516.712,2658.00
517.709,2998.00
518.706,2898.00
519.703,3033.00
520.700,3189.00
521.696,3372.00
522.693,2956.00
523.689,2877.00
524.686,3154.00
525.682,2806.00
526.678,3464.00
527.674,2920.00
528.670,2615.00
529.666,3509.00
530.661,3453.00
531.657,3636.00
532.652,3164.00
533.648,3018.00
534.641,3195.00
535.636,3054.00
536.631,3084.00
537.626,3145.00
538.621,2748.00
539.616,2595.00
540.610,2524.00
541.605,3053.00
542.599,3066.00
543.593,2981.00
544.587,3915.00
545.581,2860.00
546.575,3038.00
547.569,3052.00
548.563,2658.00
549.557,2655.00
550.550,2757.00
551.543,2777.00
552.537,3188.00
553.530,2809.00
554.523,2747.00
555.516,3122.00
556.509,2978.00
557.502,2624.00
558.494,3195.00
559.487,2930.00
560.479,3221.00
561.472,3268.00
562.464,3140.00
563.456,3298.00
564.448,2960.00
565.440,3007.00
566.432,3392.00
567.423,2897.00
568.415,2897.00
569.404,3116.00
570.396,2858.00
571.387,3188.00
572.378,2995.00
573.369,3955.00
574.360,3688.00
575.351,2921.00
576.341,2861.00
577.332,2919.00
578.323,2751.00
579.313,2917.00
580.303,3270.00
581.293,3150.00
582.283,2994.00
583.273,3186.00
584.263,3051.00
585.253,3108.00
586.243,3217.00
587.232,2656.00
588.222,2997.00
589.211,3170.00
590.200,3096.00
591.189,2954.00
592.178,2960.00
593.167,3422.00
594.156,3241.00
595.145,2913.00
596.133,3457.00
597.122,3153.00
598.110,3209.00
599.098,3074.00
600.086,2999.00
601.074,3191.00
602.062,2830.00
603.050,2727.00
604.038,3121.00
605.025,2819.00
606.013,3178.00
607.000,3372.00
607.987,3010.00
608.975,3058.00
609.962,2795.00
610.949,3152.00
611.936,3273.00
612.922,3185.00
613.909,2725.00
614.895,3390.00
615.882,2812.00
616.868,3038.00
617.854,2787.00
618.841,3054.00
619.826,3088.00
620.812,2973.00
621.798,2820.00
622.784,3174.00
623.769,3120.00
624.755,2708.00
625.740,3074.00
626.725,2709.00
627.711,2860.00
628.698,3084.00
629.683,2853.00
630.667,3177.00
631.652,2759.00
632.637,2944.00
633.621,3176.00
634.606,2911.00
635.590,3151.00
636.574,2938.00
637.558,3081.00
638.542,3049.00
639.526,2875.00
640.510,2626.00
641.493,3020.00
642.477,2995.00
643.460,2711.00
644.444,3239.00
645.427,3289.00
646.410,2656.00
647.393,2958.00
648.376,3082.00
649.359,2923.00
650.341,3103.00
651.324,3088.00
652.307,3040.00
653.289,2944.00
654.271,2882.00
655.253,2918.00
656.235,3148.00
657.217,3221.00
658.199,2657.00
659.181,2764.00
660.163,2989.00
661.144,2868.00
662.126,2862.00
663.107,2799.00
664.088,4664.00
665.069,3275.00
666.050,2840.00
667.033,2740.00
668.014,3067.00
668.995,2584.00
669.975,2998.00
670.956,3000.00
671.936,3145.00
672.916,2975.00
673.896,3100.00
674.876,2905.00
675.856,2844.00
676.836,2799.00
677.816,2330.00
678.795,2817.00
679.775,2682.00
680.754,3013.00
681.734,3143.00
682.713,3184.00
683.692,2778.00
684.671,2653.00
685.650,2755.00
686.629,2847.00
687.607,2729.00
688.586,2796.00
689.564,2831.00
690.543,3218.00
691.523,2391.00
692.501,2843.00
693.479,2925.00
694.457,2830.00
695.435,2880.00
696.413,2679.00
697.390,2498.00
698.368,2683.00
699.345,3117.00
700.322,2921.00
701.300,3119.00
702.277,3032.00
703.254,3247.00
704.231,2582.00
705.207,2986.00
706.184,2767.00
707.161,2637.00
708.137,2839.00
709.113,2801.00
710.090,2817.00
711.068,2595.00
712.044,2639.00
713.020,2854.00
713.996,2619.00
714.971,2806.00
715.947,2862.00
716.922,2843.00
717.898,2740.00
718.873,2871.00
719.848,2728.00
720.823,2680.00
721.798,3022.00
722.773,2756.00
723.748,2522.00
724.723,3032.00
725.697,2828.00
726.672,2745.00
727.646,2520.00
728.622,3013.00
729.596,2604.00
730.570,2756.00
731.544,3067.00
732.518,3268.00
733.492,2814.00
734.466,2885.00
735.439,2972.00
736.413,3078.00
737.386,2480.00
738.359,2452.00
739.332,2539.00
740.305,2841.00
741.278,3296.00
742.251,2912.00
743.224,2729.00
744.196,2563.00
745.171,3147.00
746.143,3044.00
747.115,2748.00
748.087,2750.00
749.059,3159.00
750.031,2891.00
751.003,3696.00
751.975,3240.00
752.947,2697.00
753.918,3087.00
754.890,2583.00
755.861,2745.00
756.832,3044.00
757.803,2810.00
758.774,2835.00
759.747,2599.00
760.718,3239.00
761.689,2744.00
762.659,2588.00
763.630,3119.00
764.600,2566.00
765.570,3119.00
766.540,3156.00
767.510,2896.00
768.480,3031.00
769.450,2720.00
770.420,2819.00
771.390,2672.00
772.359,2749.00
773.329,2655.00
774.300,2532.00
775.269,2754.00
776.238,3024.00
777.207,3186.00
778.176,2534.00
779.145,2800.00
780.114,2656.00
781.083,2577.00
782.051,2765.00
783.019,2716.00
783.988,3089.00
784.956,2837.00
785.924,3011.00
786.894,2882.00
787.862,2697.00
788.830,3114.00
789.797,2626.00
790.765,2602.00
791.732,2785.00
792.700,2654.00
793.667,2589.00
794.634,2801.00
795.601,2741.00
796.568,2775.00
797.535,2857.00
798.502,3490.00
799.468,2910.00
800.437,2430.00
801.403,2667.00
802.370,3275.00
803.336,3033.00
804.302,2868.00
805.268,2469.00
806.234,2567.00
807.200,2699.00
808.166,2779.00
809.131,2561.00
810.097,3011.00
811.062,3618.00
812.027,3003.00
812.994,2562.00
813.960,2611.00
814.925,2938.00
815.889,2524.00
816.854,2990.00
817.819,2648.00
818.783,2746.00
819.748,3056.00
820.712,2752.00
821.677,2608.00
822.641,2733.00
823.605,2709.00
824.571,3137.00
825.534,2749.00
826.498,2693.00
827.462,2811.00
828.425,2610.00
829.389,3071.00
830.352,2807.00
831.315,2882.00
832.279,2483.00
833.242,2749.00
834.204,2642.00
835.167,2602.00
836.132,3065.00
837.095,2547.00
838.057,2682.00
839.020,2800.00
839.982,2836.00
840.944,2671.00
841.906,2607.00
842.868,2981.00
843.830,2564.00
844.792,3060.00
845.753,2682.00
846.715,2450.00
847.679,2606.00
848.640,2648.00
849.601,2724.00
850.562,3276.00
851.523,2716.00
852.484,2477.00
853.445,3004.00
854.406,2696.00
855.367,2704.00
856.327,3008.00
857.288,2494.00
858.248,2673.00
859.210,2681.00
860.170,2508.00
861.130,3033.00
862.090,2468.00
863.050,2591.00
864.010,2678.00
864.969,2920.00
865.929,2599.00
866.888,2512.00
867.848,2807.00
868.807,2648.00
869.766,2849.00
870.727,2730.00
871.686,2993.00
872.645,3014.00
873.604,3285.00
874.562,2750.00
875.521,2801.00
876.479,3343.00
877.437,2621.00
878.396,2594.00
879.354,3172.00
880.312,2610.00
881.270,2667.00
882.229,3138.00
883.187,2652.00
884.145,2656.00
885.102,2968.00
886.059,2819.00
887.017,2880.00
887.974,2997.00
888.931,3084.00
889.888,2500.00
890.845,2422.00
891.802,2348.00
892.758,2631.00
893.717,2440.00
894.673,2553.00
895.630,2657.00
896.586,2881.00
897.542,2679.00
898.498,2548.00
899.454,2855.00
900.410,2687.00
901.366,2670.00
902.321,3746.00
903.277,2684.00
904.232,2715.00
905.189,2494.00
906.145,2649.00
907.100,2224.00
908.055,2749.00
909.010,2930.00
909.965,2332.00
910.919,2822.00
911.874,2576.00
912.828,2767.00
913.783,2781.00
914.737,2349.00
915.693,2752.00
916.648,2889.00
917.602,2938.00
918.555,2822.00
919.509,2879.00
920.463,2772.00
921.417,2782.00
922.370,2604.00
923.324,2700.00
924.277,2658.00
925.230,2777.00
926.183,2401.00
927.138,2681.00
928.091,2941.00
929.044,2832.00
929.996,2711.00
930.949,2662.00
931.902,2862.00
932.854,2854.00
933.806,2617.00
934.758,2999.00
935.711,2993.00
936.663,2725.00
937.614,2781.00
938.568,2759.00
939.520,2374.00
940.471,2719.00
941.423,2762.00
942.374,2903.00
943.326,2767.00
944.277,2573.00
945.228,2834.00
946.179,2688.00
947.130,3030.00
948.080,2675.00
949.031,2578.00
949.984,2728.00
950.934,2701.00
951.884,2476.00
952.835,2683.00
953.785,2729.00
954.735,2585.00
955.685,2330.00
956.635,2636.00
957.585,2663.00
958.534,2662.00
959.484,2726.00
960.433,2621.00
961.383,2476.00
962.334,2934.00
963.283,2808.00
964.232,2876.00
965.181,2739.00
966.130,2784.00
967.079,2624.00
968.027,2713.00
968.976,2745.00
969.924,2579.00
970.873,2780.00
971.821,2757.00
972.769,2902.00
973.719,2895.00
974.667,2527.00
975.615,2709.00
976.562,2715.00
977.510,2453.00
978.458,2627.00
979.405,2818.00
980.352,2762.00
981.300,3011.00
982.247,2791.00
983.194,2527.00
984.141,2593.00
985.088,2732.00
986.036,2778.00
986.983,3006.00
987.930,3119.00
988.876,2350.00
989.822,2973.00
990.769,2516.00
991.715,2628.00
992.661,2431.00
993.607,2784.00
994.553,3259.00
995.498,2597.00
996.444,2321.00
997.389,2767.00
998.337,2489.00
999.282,2879.00
1000.227,2643.00
1001.173,2719.00
1002.118,2431.00
1003.062,2898.00
1004.007,2698.00
1004.952,3039.00
1005.897,2934.00
1006.841,2682.00
1007.786,2509.00
1008.730,2453.00
1009.674,3167.00
1010.618,2612.00
1011.564,2493.00
1012.508,2414.00
1013.452,2914.00
1014.396,2754.00
1015.339,2625.00
1016.283,2726.00
1017.226,2781.00
1018.170,2729.00
1019.113,2940.00
1020.056,2743.00
1020.999,2693.00
1021.942,2590.00
1022.885,2851.00
1023.828,3005.00
1024.770,2514.00
1025.715,2747.00
1026.657,2768.00
1027.600,2743.00
1028.542,2899.00
1029.484,2721.00
1030.426,2850.00
1031.368,2773.00
1032.310,2599.00
1033.251,2502.00
1034.193,2734.00
1035.135,2513.00
1036.076,2643.00
1037.017,2543.00
1037.959,2840.00
1038.900,2757.00
1039.843,2814.00
1040.784,2754.00
1041.725,2791.00
1042.665,2653.00
1043.606,2766.00
1044.547,2773.00
1045.487,2360.00
1046.427,2650.00
1047.368,2767.00
1048.308,2253.00
1049.248,2554.00
1050.188,2732.00
1051.128,2605.00
1052.067,2634.00
1053.007,2390.00
1053.947,2404.00
1054.886,2572.00
1055.827,2510.00
1056.766,2957.00
1057.706,2449.00
1058.645,2648.00
1059.584,2729.00
1060.522,2957.00
1061.461,2451.00
1062.400,2507.00
1063.338,2604.00
1064.277,2514.00
1065.215,2515.00
1066.154,2418.00
1067.092,2563.00
1068.030,2637.00
1068.968,2873.00
1069.906,2974.00
1070.843,2949.00
1071.781,2735.00
1072.720,2855.00
1073.658,2854.00
1074.595,2589.00
1075.533,2566.00
1076.470,2583.00
1077.407,2998.00
1078.344,2749.00
1079.281,2778.00
1080.217,2324.00
1081.154,2671.00
1082.091,2785.00
1083.027,2454.00
1083.964,2925.00
1084.900,2541.00
1085.836,2610.00
1086.772,2870.00
1087.708,2480.00
1088.644,2790.00
1089.580,2667.00
1090.515,2728.00
1091.451,2604.00
1092.388,2701.00
1093.324,2461.00
1094.259,3282.00
1095.194,2705.00
1096.129,2625.00
1097.064,2599.00
1097.999,2819.00
1098.934,2532.00
1099.869,2535.00
1100.803,2694.00
1101.738,2726.00
1102.672,2382.00
1103.607,2789.00
1104.541,2566.00
1105.475,2536.00
1106.409,2420.00
1107.343,2632.00
1108.277,2426.00
1109.210,2737.00
1110.144,2653.00
1111.078,2661.00
1112.011,2440.00
1112.944,2753.00
1113.878,2654.00
1114.811,2171.00
1115.744,2603.00
1116.678,2292.00
1117.611,2622.00
1118.544,2561.00
1119.477,2766.00
1120.409,2546.00
1121.342,3149.00
1122.274,2773.00
1123.206,3014.00
1124.138,2672.00
1125.070,2976.00
1126.002,2831.00
1126.934,2286.00
1127.866,2521.00
1128.798,2316.00
1129.729,2377.00
1130.661,2638.00
1131.592,2581.00
1132.523,2755.00
1133.454,2756.00
1134.385,2307.00
1135.317,2636.00
1136.247,2606.00
1137.178,2842.00
1138.109,2360.00
1139.039,2998.00
1139.970,2817.00
1140.900,2597.00
1141.831,2360.00
1142.761,2200.00
1143.691,3264.00
1144.621,2646.00
1145.551,2694.00
1146.480,2705.00
1147.410,2857.00
1148.340,2269.00
1149.269,2397.00
1150.199,2568.00
1151.128,3011.00
1152.057,2446.00
1152.979,2586.00
1153.898,2606.00
1154.819,2740.00
1155.739,2638.00
1156.658,2593.00
1157.579,2664.00
1158.498,2637.00
1159.419,2216.00
1160.338,2649.00
1161.256,2702.00
1162.177,2485.00
1163.095,2611.00
1164.016,2696.00
1164.934,2890.00
1165.852,2808.00
1166.772,2615.00
1167.690,2671.00
1168.610,2701.00
1169.528,2633.00
1170.446,2209.00
1171.365,2539.00
1172.283,2539.00
1173.202,2614.00
1174.120,2671.00
1175.037,2514.00
1175.956,2503.00
1176.873,2494.00
1177.792,2513.00
1178.709,3110.00
1179.626,2556.00
1180.544,2870.00
1181.461,2536.00
1182.379,2751.00
1183.296,2624.00
1184.212,2297.00
1185.130,2489.00
1186.046,2976.00
1186.962,2618.00
1187.880,2896.00
1188.796,2735.00
1189.714,2462.00
1190.629,2756.00
1191.545,2693.00
1192.462,2568.00
1193.378,2598.00
1194.295,2309.00
1195.210,2640.00
1196.125,2791.00
1197.042,2669.00
1197.957,2641.00
1198.872,2539.00
1199.788,2556.00
1200.703,2943.00
1201.619,2658.00
1202.534,2503.00
1203.448,2694.00
1204.364,2581.00
1205.278,2311.00
1206.192,2701.00
1207.108,3147.00
1208.022,2993.00
1208.938,2478.00
1209.851,2798.00
1210.765,2838.00
1211.680,2534.00
1212.594,2423.00
1213.507,2577.00
1214.422,2988.00
1215.335,2752.00
1216.248,2572.00
1217.163,2686.00
1218.076,3231.00
1218.990,2748.00
1219.903,2404.00
1220.816,2493.00
1221.730,2568.00
1222.642,2507.00
1223.554,2533.00
1224.469,2705.00
1225.380,2563.00
1226.292,2292.00
1227.206,2743.00
1228.118,2923.00
1229.032,2282.00
1229.943,2507.00
1230.855,2545.00
1231.768,2367.00
1232.679,2706.00
1233.590,2624.00
1234.503,2858.00
1235.414,2458.00
1236.325,2514.00
1237.238,2717.00
1238.149,2729.00
1239.059,2437.00
1239.972,2808.00
1240.882,2453.00
1241.793,2742.00
1242.705,2999.00
1243.615,2615.00
1244.525,2725.00
1245.437,2199.00
1246.347,2677.00
1247.259,2795.00
1248.168,3031.00
1249.078,2858.00
1249.989,2915.00
1250.899,2455.00
1251.808,2519.00
1252.719,2531.00
1253.628,2473.00
1254.537,3003.00
1255.448,2446.00
1256.357,2430.00
1257.266,2618.00
1258.176,2363.00
1259.085,2339.00
1259.993,2448.00
1260.904,2481.00
1261.812,2433.00
1262.720,3175.00
1263.630,2791.00
1264.538,2484.00
1265.446,2743.00
1266.356,2643.00
1267.263,2890.00
1268.171,2463.00
1269.080,2701.00
1269.988,2814.00
1270.895,2531.00
1271.804,2588.00
1272.711,2798.00
1273.619,2747.00
1274.527,2432.00
1275.434,2778.00
1276.341,2425.00
1277.248,2624.00
1278.156,2911.00
1279.063,2512.00
1279.969,2697.00
1280.877,3551.00
1281.783,2836.00
1282.690,2686.00
1283.598,2605.00
1284.503,2474.00
1285.409,2450.00
1286.317,3021.00
1287.223,3017.00
1288.128,2662.00
1289.036,2545.00
1289.941,2532.00
1290.846,2650.00
1291.751,2499.00
1292.658,2565.00
1293.563,3050.00
1294.468,2648.00
1295.375,2776.00
1296.280,2850.00
1297.184,3327.00
1298.091,2705.00
1298.995,2784.00
1299.900,3028.00
1300.806,2541.00
1301.710,2399.00
1302.614,2226.00
1303.518,2845.00
1304.424,2604.00
1305.327,2823.00
1306.231,2635.00
1307.137,2801.00
1308.040,2674.00
1308.943,2673.00
1309.847,2887.00
1310.752,2803.00
1311.655,2299.00
1312.558,2416.00
1313.463,2530.00
1314.366,2539.00
1315.269,2734.00
1316.171,2599.00
1317.076,2532.00
1317.978,2417.00
1318.881,2254.00
1319.785,2476.00
1320.687,2491.00
1321.589,2249.00
1322.491,2451.00
1323.395,2697.00
1324.297,3181.00
1325.198,2774.00
1326.102,2431.00
1327.004,2430.00
1327.905,3022.00
1328.806,2591.00
1329.709,2672.00
1330.611,2559.00
1331.512,2449.00
1332.413,3076.00
1333.316,2671.00
1334.216,2777.00
1335.117,2371.00
1336.020,2706.00
1336.920,2621.00
1337.821,2470.00
1338.721,2870.00
1339.623,2698.00
1340.523,2588.00
1341.423,2543.00
1342.323,2901.00
1343.225,2708.00
1344.125,2477.00
1345.025,2513.00
1345.924,2322.00
1346.826,2991.00
1347.725,3008.00
1348.624,2854.00
1349.524,2530.00
1350.425,2577.00
1351.324,2754.00
1352.223,2841.00
1353.121,2617.00
1354.022,2804.00
1354.921,3050.00
1355.819,2737.00
1356.718,2686.00
1357.618,2390.00
1358.516,2756.00
1359.415,3016.00
1360.313,2711.00
1361.213,2593.00
1362.111,2901.00
1363.008,3316.00
1363.906,2593.00
1364.806,2647.00
1365.703,2711.00
1366.601,2503.00
1367.498,2473.00
1368.397,2798.00
1369.295,2675.00
1370.192,2454.00
1371.089,2719.00
1371.987,2606.00
1372.884,2836.00
1373.781,2442.00
1374.678,2648.00
1375.574,2474.00
1376.473,2745.00
1377.369,2845.00
1378.265,2464.00
1379.161,2612.00
1380.059,2368.00
1380.955,2759.00
1381.851,2431.00
1382.747,2564.00
1383.643,2565.00
1384.540,2413.00
1385.436,2515.00
1386.331,2711.00
1387.227,2753.00
1388.124,2755.00
1389.019,2431.00
1389.914,2635.00
1390.809,2274.00
1391.704,3071.00
1392.601,2558.00
1393.495,2942.00
1394.390,2770.00
1395.285,2877.00
1396.179,2731.00
1397.075,2593.00
1397.969,2716.00
1398.864,2349.00
1399.758,2579.00
1400.652,2671.00
1401.547,2466.00
1402.441,2432.00
1403.335,2955.00
1404.229,2798.00
1405.122,2739.00
1406.017,2629.00
1406.911,2744.00
1407.804,3047.00
1408.697,2649.00
1409.590,2466.00
1410.485,2751.00
1411.378,2713.00
1412.271,2314.00
1413.163,2690.00
1414.056,2813.00
1414.949,2987.00
1415.843,2683.00
1416.735,2536.00
1417.627,2625.00
1418.520,2623.00
1419.412,2850.00
1420.306,2814.00
1421.197,2909.00
1422.089,2878.00
1422.981,3066.00
1423.873,2804.00
1424.764,2749.00
1425.657,2650.00
1426.549,2749.00
1427.440,2829.00
1428.331,2528.00
1429.222,2318.00
1430.113,2713.00
1431.006,2806.00
1431.897,2591.00
1432.787,2689.00
1433.678,2572.00
1434.568,2470.00
1435.459,2888.00
1436.351,2838.00
1437.241,2806.00
1438.131,2788.00
1439.021,2413.00
1439.911,2568.00
1440.801,2688.00
1441.693,2872.00
1442.583,2657.00
1443.472,2686.00
1444.362,2745.00
1445.251,2580.00
1446.140,2605.00
1447.030,2823.00
1447.921,2797.00
1448.810,2475.00
1449.699,2997.00
1450.588,2682.00
1451.476,2546.00
1452.365,2719.00
1453.254,2551.00
1454.144,2562.00
1455.032,2757.00
1455.921,2388.00
1456.809,2919.00
1457.697,2470.00
1458.585,2581.00
1459.473,2602.00
1460.361,2513.00
1461.251,2719.00
1462.138,2713.00
1463.026,2594.00
1463.913,2896.00
1464.801,2543.00
1465.688,2743.00
1466.575,2654.00
1467.463,3148.00
1468.351,2541.00
1469.238,2642.00
1470.125,2286.00
1471.012,2717.00
1471.899,2736.00
1472.785,2475.00
1473.672,2656.00
1474.558,2876.00
1475.446,2783.00
1476.333,2821.00
1477.219,2458.00
1478.105,2640.00
1478.991,2597.00
1479.877,2935.00
1480.762,2654.00
1481.648,2540.00
1482.534,2805.00
1483.419,2702.00
1484.307,2770.00
1485.192,2624.00
1486.077,2513.00
1486.962,2542.00
1487.847,2408.00
1488.732,2460.00
1489.617,2685.00
1490.502,2902.00
1491.387,2773.00
1492.271,2496.00
1493.156,2520.00
1494.042,2478.00
1494.927,2896.00
1495.811,2527.00
1496.695,2813.00
1497.579,2916.00
1498.463,2653.00
1499.347,2708.00
1500.231,2691.00
1501.114,2759.00
1501.998,2888.00
1502.881,2718.00
1503.765,2920.00
1504.648,3094.00
1505.533,2771.00
1506.417,2665.00
1507.300,2633.00
1508.183,2737.00
1509.066,2132.00
1509.948,2854.00
1510.831,2966.00
1511.714,2474.00
1512.596,2799.00
1513.479,2888.00
1514.361,2849.00
1515.243,2660.00
1516.125,2793.00
1517.008,2942.00
1517.890,2676.00
1518.771,2703.00
1519.655,2865.00
1520.537,2598.00
1521.419,2472.00
1522.300,2717.00
1523.182,2806.00
1524.063,2787.00
1524.944,2932.00
1525.825,2845.00
1526.707,2486.00
1527.588,2444.00
1528.468,2751.00
1529.349,2340.00
1530.230,2606.00
1531.111,2860.00
1531.991,2689.00
1532.872,2367.00
1533.752,2633.00
1534.632,2529.00
1535.513,2516.00
1536.393,2831.00
1537.273,3006.00
1538.153,3322.00
1539.032,2438.00
1539.912,2689.00
1540.792,2658.00
1541.672,2720.00
1542.551,2772.00
1543.430,3273.00
1544.310,2690.00
1545.189,2589.00
1546.068,3073.00
1546.947,2753.00
1547.826,2999.00
1548.705,2664.00
1549.584,2862.00
1550.462,2623.00
1551.341,2831.00
1552.219,2739.00
1553.098,2812.00
1553.976,2913.00
1554.854,3055.00
1555.733,2834.00
1556.611,2595.00
1557.489,2468.00
1558.367,2666.00
1559.244,2814.00
1560.122,2649.00
1561.000,2727.00
1561.877,2944.00
1562.755,2548.00
1563.632,2628.00
1564.509,2931.00
1565.386,3002.00
1566.264,2437.00
1567.141,2293.00
1568.017,2844.00
1568.894,2683.00
1569.771,2729.00
1570.648,2787.00
1571.524,2690.00
1572.401,2433.00
1573.277,2431.00
1574.153,2702.00
1575.029,2530.00
1575.906,3365.00
1576.781,2838.00
1577.657,2567.00
1578.533,2877.00
1579.409,2297.00
1580.285,2610.00
1581.160,3144.00
1582.036,2883.00
1582.911,2466.00
1583.786,3015.00
1584.662,2444.00
1585.537,2653.00
1586.412,2735.00
1587.287,2509.00
1588.160,2903.00
1589.035,2377.00
1589.909,2722.00
1590.784,2631.00
1591.658,2467.00
1592.533,2734.00
1593.407,2702.00
1594.281,2557.00
1595.155,3058.00
1596.029,2579.00
1596.903,2580.00
1597.777,2608.00
1598.651,2934.00
1599.525,2400.00
1600.398,2714.00
1601.272,2660.00
1602.144,3245.00
1603.017,2625.00
1603.890,2920.00
1604.763,2764.00
1605.636,2817.00
1606.509,2371.00
1607.382,2498.00
1608.255,2773.00
1609.128,2853.00
1610.000,2634.00
1610.873,2363.00
1611.746,2556.00
1612.616,2614.00
1613.488,2291.00
1614.361,2657.00
1615.233,2639.00
1616.105,2893.00
1616.977,2588.00
1617.849,2519.00
1618.720,2958.00
1619.592,2967.00
1620.464,2758.00
1621.333,3161.00
1622.205,2694.00
1623.076,2673.00
1623.947,2635.00
1624.818,2884.00
1625.689,2814.00
1626.560,2552.00
1627.431,2742.00
1628.302,3066.00
1629.171,2793.00
1630.042,2992.00
1630.912,3660.00
1631.782,3236.00
1632.653,2484.00
1633.523,2851.00
1634.393,2913.00
1635.263,2532.00
1636.131,2661.00
1637.001,2561.00
1637.871,2338.00
1638.741,2302.00
1639.611,2433.00
1640.480,2807.00
1641.350,2546.00
1642.219,2476.00
1643.087,2197.00
1643.956,3107.00
1644.825,2938.00
1645.694,2913.00
1646.563,2828.00
1647.432,2763.00
1648.299,2722.00
1649.167,2841.00
1650.036,2514.00
1650.904,2828.00
1651.773,2890.00
1652.641,2697.00
1653.509,2827.00
1654.376,2549.00
1655.244,2685.00
1656.112,2721.00
1656.980,2682.00
1657.847,2539.00
1658.715,2855.00
1659.581,2563.00
1660.448,2918.00
1661.316,2233.00
1662.183,2719.00
1663.051,2703.00
1663.918,2758.00
1664.783,2689.00
1665.650,2767.00
1666.517,2831.00
1667.384,2687.00
1668.251,2736.00
1669.115,2907.00
1669.982,2646.00
1670.849,2954.00
1671.715,2662.00
1672.581,2837.00
1673.446,2811.00
1674.312,2728.00
1675.178,3117.00
1676.044,2801.00
1676.910,2762.00
1677.774,2707.00
1678.639,2416.00
1679.505,2686.00
1680.370,2815.00
1681.236,3336.00
1682.099,2663.00
1682.965,2717.00
1683.830,2304.00
1684.695,2503.00
1685.560,2600.00
1686.423,2862.00
1687.288,2835.00
1688.153,2740.00
1689.017,2634.00
1689.880,2768.00
1690.745,2836.00
1691.609,2515.00
1692.473,2841.00
1693.338,2893.00
1694.200,2961.00
1695.064,2709.00
1695.928,2590.00
1696.792,2755.00
1697.654,3163.00
1698.517,2735.00
1699.381,2447.00
1700.245,2312.00
1701.106,2942.00
1701.969,2583.00
1702.833,2843.00
1703.696,2618.00
1704.557,2689.00
1705.420,2504.00
1706.283,2742.00
1707.146,2822.00
1708.007,2489.00
1708.870,2498.00
1709.732,2381.00
1710.595,2616.00
1711.455,2477.00
1712.318,2610.00
1713.180,2980.00
1714.040,2763.00
1714.902,2876.00
1715.764,2686.00
1716.626,2489.00
1717.486,2685.00
1718.348,2942.00
1719.209,5013.00
1720.071,2373.00
1720.930,2478.00
1721.792,2542.00
1722.653,2540.00
1723.512,2602.00
1724.374,2614.00
1725.234,2733.00
1726.095,2716.00
1726.954,2701.00
1727.815,2864.00
1728.676,2677.00
1729.535,2927.00
1730.395,2681.00
1731.256,2631.00
1732.114,2744.00
1732.974,2183.00
1733.834,3054.00
1734.693,2839.00
1735.553,2731.00
1736.413,3125.00
1737.272,2602.00
1738.130,2637.00
1738.990,2759.00
1739.849,2607.00
1740.707,3659.00
1741.566,2729.00
1742.426,2730.00
1743.283,3118.00
1744.142,2586.00
1745.001,2395.00
1745.858,2871.00
1746.717,2780.00
1747.576,2808.00
1748.433,2861.00
1749.292,3259.00
1750.150,3366.00
1751.007,2897.00
1751.865,2893.00
1752.723,2726.00
1753.579,2658.00
1754.438,2901.00
1755.296,2935.00
1756.152,2274.00
1757.010,2377.00
1757.865,2925.00
1758.723,2347.00
1759.581,3031.00
1760.436,2685.00
1761.294,3051.00
1762.151,2731.00
1763.006,2611.00
1763.864,2330.00
1764.721,2914.00
1765.576,2730.00
1766.433,2858.00
1767.288,2610.00
1768.144,2785.00
1769.001,2657.00
1769.856,2824.00
1770.712,2901.00
1771.568,2480.00
1772.423,2622.00
1773.279,2607.00
1774.133,2617.00
1774.989,3071.00
1775.845,3061.00
1776.699,2945.00
1777.555,2710.00
1778.409,3223.00
1779.265,2683.00
1780.120,2646.00
1780.974,2683.00
1781.829,2341.00
1782.682,2786.00
1783.538,2571.00
1784.393,2745.00
1785.246,2607.00
1786.101,2810.00
1786.954,2816.00
1787.808,2938.00
1788.661,2435.00
1789.516,2594.00
1790.370,2632.00
1791.223,2920.00
1792.077,2704.00
1792.930,2811.00
1793.784,2597.00
1794.636,2736.00
1795.490,2665.00
1796.344,2741.00
1797.196,2706.00
1798.049,2871.00
1798.901,2588.00
1799.755,2930.00
1800.606,2499.00
1801.460,3209.00
1802.311,3034.00
1803.165,3101.00
1804.018,3068.00
1804.869,2810.00
1805.722,3179.00
1806.573,2740.00
1807.426,2539.00
1808.276,2688.00
1809.129,2581.00
1809.980,2903.00
1810.832,2977.00
1811.683,2638.00
1812.535,3020.00
1813.385,2622.00
1814.237,3010.00
1815.089,2770.00
1815.940,2997.00
1816.791,2660.00
1817.641,2556.00
1818.493,2872.00
1819.343,2788.00
1820.194,2571.00
1821.044,2861.00
1821.895,2908.00
1822.745,2425.00
1823.596,2608.00
1824.445,3106.00
1825.296,2786.00
1826.145,2661.00
1826.996,2914.00
1827.845,2721.00
1828.695,2765.00
1829.544,2697.00
1830.395,2723.00
1831.243,2645.00
1832.094,2443.00
1832.942,3298.00
1833.792,2818.00
1834.640,2758.00
1835.490,2739.00
1836.338,2815.00
1837.186,2600.00
1838.036,2528.00
1838.884,2720.00
1839.733,3027.00
1840.581,2923.00
1841.430,2836.00
1842.278,3073.00
1843.127,2624.00
1843.974,2394.00
1844.823,3142.00
1845.671,2881.00
1846.519,2751.00
1847.366,2792.00
1848.213,2380.00
1849.062,2541.00
1849.909,2450.00
1850.757,3370.00
1851.604,2841.00
1852.452,2624.00
1853.298,2902.00
1854.146,2804.00
1854.993,2761.00
1855.839,3255.00
1856.687,2844.00
1857.532,2809.00
1858.380,2744.00
1859.226,2791.00
1860.073,2814.00
1860.919,2516.00
1861.765,2607.00
1862.612,2949.00
1863.457,2890.00
1864.304,2660.00
1865.150,2848.00
1865.995,2699.00
1866.842,2802.00
1867.686,2976.00
1868.533,2816.00
1869.378,2765.00
1870.223,2718.00
1871.069,2641.00
1871.914,2740.00
1872.760,2728.00
1873.604,2530.00
1874.448,2865.00
1875.294,2867.00
1876.139,2592.00
1876.984,2881.00
1877.828,2392.00
1878.672,2246.00
1879.518,2606.00
1880.361,2888.00
1881.205,2855.00
1882.050,2541.00
1882.894,3168.00
1883.739,2633.00
1884.582,2476.00
1885.425,2543.00
1886.270,2982.00
1887.113,2516.00
1887.956,2858.00
1888.801,2773.00
1889.644,2551.00
1890.486,2304.00
1891.331,2624.00
1892.173,2793.00
1893.017,2795.00
1893.860,2987.00
1894.702,2992.00
1895.546,2737.00
1896.388,3427.00
1897.230,3075.00
1898.074,2663.00
1898.916,2552.00
1899.757,2566.00
1900.601,3378.00
1901.443,3035.00
1902.284,3022.00
1903.125,3188.00
1903.969,2928.00
1904.810,3012.00
1905.651,2823.00
1906.494,3068.00
1907.335,3169.00
1908.176,2852.00
1909.018,2837.00
1909.859,2703.00
1910.700,2632.00
1911.542,3246.00
1912.383,2816.00
1913.223,2350.00
1914.064,2874.00
1914.906,2960.00
1915.746,3081.00
1916.586,3208.00
1917.428,2724.00
1918.268,2781.00
1919.107,2620.00
1919.947,2503.00
1920.789,2652.00
1921.628,3005.00
1922.468,2755.00
1923.309,2605.00
1924.148,3054.00
1924.988,2840.00
1925.827,2754.00
1926.667,2614.00
1927.507,2799.00
1928.345,2568.00
1929.184,2909.00
1930.025,2569.00
1930.864,2996.00
1931.702,2998.00
1932.541,2680.00
1933.381,2867.00
1934.219,2871.00
1935.057,3005.00
1935.896,2448.00
1936.735,2713.00
1937.573,2682.00
1938.411,2591.00
1939.249,2903.00
1940.089,2653.00
1940.927,2971.00
1941.764,3060.00
1942.602,2647.00
1943.439,2651.00
1944.278,2726.00
1945.115,2678.00
1945.953,2476.00
1946.790,2787.00
1947.628,3047.00
1948.465,2884.00
1949.302,2872.00
1950.139,2849.00
1950.976,2618.00
1951.814,2895.00
1952.651,2800.00
1953.487,2525.00
1954.323,3019.00
1955.160,2712.00
1955.998,3111.00
1956.834,2672.00
1957.670,2802.00
1958.506,2990.00
1959.342,2832.00
1960.177,2762.00
1961.015,2876.00
1961.850,2816.00
1962.686,2821.00
1963.521,2780.00
1964.357,3028.00
1965.192,2536.00
1966.029,2885.00
1966.864,2683.00
1967.699,2996.00
1968.534,2837.00
1969.369,3028.00
1970.204,2711.00
1971.040,2791.00
1971.875,2693.00
1972.709,2763.00
1973.544,2576.00
1974.378,2655.00
1975.212,2867.00
1976.047,2619.00
1976.882,2623.00
1977.716,3132.00
1978.550,2430.00
1979.384,2714.00
1980.218,2731.00
1981.052,2667.00
1981.885,2797.00
1982.719,2716.00
1983.554,2909.00
1984.388,3058.00
1985.221,2823.00
1986.054,3018.00
1986.887,2820.00
1987.720,2587.00
1988.553,3057.00
1989.386,2866.00
1990.219,2884.00
1991.053,3025.00
1991.886,2642.00
1992.719,2954.00
1993.551,2281.00
1994.383,2917.00
1995.216,2694.00
1996.048,2465.00
1996.880,2901.00
1997.712,2614.00
1998.544,2738.00
1999.376,2824.00
2000.208,3039.00
