RamanScope Measure Spectrum Data V3.72

<< MEASURE CONDITION >>
Exposure Type,Aver
Exposure Time [sec],15
Exposure Count,30
Measure Time,2023/07/05 09:23:39
Data Name,""
Data Comment,""
Rayleigh Wave[nm],532.0

<< SAMPLE SPECTRUM >>
Wave[dcm-1],No317
146.591,459.03
147.626,564.63
148.664,647.50
149.699,740.73
150.737,837.67
151.772,937.30
152.809,1063.37
153.846,1101.77
154.881,1224.20
155.918,1266.27
156.953,1369.07
157.989,1417.53
159.026,1472.17
160.060,1483.30
161.096,1504.93
162.130,1564.23
163.167,1595.73
164.200,1632.80
165.236,1661.43
166.272,1673.07
167.305,1704.07
168.341,1758.03
169.374,1775.70
170.409,1773.80
171.445,1816.83
172.477,1856.40
173.512,1878.17
174.545,1897.33
175.580,1968.80
176.614,2004.30
177.647,1982.37
178.681,1998.50
179.713,2016.67
180.747,2042.97
181.781,2030.23
182.813,2011.87
183.847,2023.77
184.878,2076.53
185.912,2058.97
186.945,2084.77
187.976,2117.37
189.010,2129.10
190.043,2109.97
191.073,2182.20
192.106,2222.63
193.137,2254.17
194.170,2292.03
195.202,2364.80
196.232,2374.63
197.265,2461.07
198.297,2529.73
199.327,2552.73
200.359,2658.13
201.388,2716.00
202.420,2807.70
203.452,2895.03
204.481,3043.50
205.512,3134.17
206.544,3287.60
207.573,3426.20
208.604,3600.50
209.635,3856.17
210.663,4056.67
211.694,4330.13
212.725,4601.53
213.753,4863.97
214.783,5150.17
215.813,5411.37
216.841,5632.43
217.871,5816.07
218.899,5920.53
219.929,5986.27
220.959,6000.53
221.986,5844.23
223.016,5713.93
224.045,5464.40
225.072,5223.37
226.101,4929.00
227.130,4612.47
228.157,4366.20
229.185,4159.90
230.214,3970.17
231.241,3835.37
232.269,3666.37
233.297,3506.97
234.323,3437.67
235.351,3355.60
236.379,3268.03
237.407,3227.53
238.433,3154.33
239.460,3089.07
240.488,3090.70
241.513,3084.03
242.540,3061.97
243.568,3049.70
244.592,3073.83
245.619,3082.10
246.646,3069.43
247.671,3094.67
248.697,3119.37
249.724,3075.10
250.748,3076.17
251.774,3124.70
252.801,3082.77
253.827,3177.43
254.850,3189.93
255.876,3211.20
256.902,3284.20
257.925,3320.10
258.951,3353.23
259.976,3421.13
260.999,3493.30
262.024,3530.13
263.049,3606.47
264.074,3687.63
265.097,3772.07
266.122,3826.70
267.146,3927.80
268.168,3986.17
269.193,4098.20
270.217,4189.77
271.241,4262.47
272.263,4337.90
273.287,4439.57
274.311,4514.90
275.332,4502.67
276.356,4626.07
277.379,4643.87
278.402,4629.30
279.424,4622.03
280.447,4599.33
281.470,4541.43
282.492,4534.03
283.513,4466.10
284.536,4371.47
285.558,4327.43
286.581,4178.07
287.601,4102.53
288.623,4035.10
289.645,3953.77
290.665,3851.27
291.687,3757.20
292.709,3649.30
293.730,3543.43
294.750,3485.73
295.771,3378.20
296.792,3296.90
297.813,3214.03
298.832,3135.97
299.853,3026.87
300.874,2894.97
301.895,2901.17
302.913,2823.80
303.934,2783.40
304.954,2651.93
305.975,2623.07
306.993,2593.83
308.013,2542.43
309.033,2463.83
310.052,2443.10
311.072,2382.93
312.090,2372.43
313.109,2346.37
314.129,2264.50
315.148,2284.13
316.165,2220.70
317.184,2221.57
318.203,2209.43
319.222,2131.47
320.238,2138.30
321.257,2173.57
322.275,2099.37
323.294,2053.73
324.312,2050.13
325.328,2067.23
326.346,2041.37
327.364,2083.63
328.382,2067.50
329.397,2043.83
330.415,2032.37
331.432,2015.03
332.450,2002.87
333.467,1966.33
334.482,2028.73
335.499,2007.70
336.516,2007.13
337.533,1981.30
338.547,1970.47
339.564,1985.03
340.580,2014.23
341.597,1963.77
342.613,1997.87
343.627,1931.80
344.643,1947.90
345.659,1952.57
346.675,1964.70
347.690,1927.80
348.704,1972.37
349.719,1933.70
350.735,1958.97
351.750,1968.00
352.765,1966.73
353.778,1968.53
354.793,1940.17
355.808,2004.30
356.822,1992.83
357.837,2031.23
358.851,2017.30
359.864,1993.77
360.878,2013.53
361.892,2005.57
362.906,2016.60
363.920,2082.13
364.932,2058.60
365.945,2026.90
366.959,2091.90
367.972,2121.00
368.986,2077.10
369.999,2105.60
371.010,2175.97
372.023,2137.07
373.036,2158.27
374.049,2159.93
375.061,2171.10
376.072,2222.37
377.084,2228.87
378.097,2216.50
379.109,2211.50
380.121,2235.50
381.133,2249.47
382.143,2303.40
383.155,2273.07
384.166,2289.77
385.178,2284.23
386.189,2285.87
387.201,2310.87
388.212,2309.50
389.221,2318.27
390.232,2333.47
391.243,2295.40
392.254,2257.43
393.264,2240.67
394.275,2258.17
395.283,2257.57
396.294,2241.50
397.304,2222.37
398.314,2200.10
399.324,2196.57
400.334,2219.20
401.344,2106.87
402.351,2089.23
403.361,2098.90
404.370,2096.30
405.380,2086.27
406.389,2039.37
407.398,2020.63
408.407,2011.13
409.414,2010.00
410.423,1964.93
411.431,1959.33
412.440,1926.07
413.448,1924.37
414.457,1867.13
415.465,1901.47
416.471,1877.37
417.479,1843.43
418.487,1856.47
419.495,1837.20
420.503,1794.53
421.510,1811.83
422.518,1768.70
423.525,1800.77
424.530,1748.13
425.537,1821.37
426.544,1740.37
427.551,1759.57
428.558,1743.93
429.565,1749.80
430.571,1717.77
431.578,1702.43
432.582,1754.70
433.588,1684.77
434.595,1737.37
435.601,1734.17
436.607,1657.37
437.612,1652.70
438.618,1706.27
439.624,1680.77
440.627,1705.97
441.633,1667.50
442.638,1648.27
443.643,1717.17
444.648,1712.43
445.653,1689.67
446.658,1677.47
447.663,1714.27
448.667,1699.77
449.672,1699.40
450.674,1689.57
451.678,1715.13
452.682,1712.17
453.687,1709.83
454.690,1736.67
455.694,1712.73
456.698,1708.87
457.702,1701.23
458.705,1691.83
459.709,1650.10
460.710,1748.00
461.713,1748.53
462.716,1693.47
463.719,1694.73
464.722,1737.83
465.725,1771.10
466.727,1768.97
467.730,1767.30
468.732,1731.27
469.735,1761.73
470.737,1780.03
471.737,1734.60
472.739,1763.13
473.741,1723.80
474.742,1805.20
475.744,1812.03
476.746,1766.20
477.747,1787.90
478.748,1790.93
479.750,1758.80
480.751,1784.10
481.752,1808.20
482.753,1758.90
483.751,1799.47
484.752,1775.37
485.753,1756.10
486.753,1770.07
487.753,1814.90
488.754,1763.83
489.754,1756.03
490.754,1762.40
491.754,1752.87
492.754,1814.13
493.753,1765.87
494.753,1764.13
495.752,1730.17
496.752,1776.67
497.749,1747.07
498.748,1789.70
499.747,1736.80
500.746,1717.23
501.745,1759.90
502.744,1744.57
503.742,1721.97
504.741,1734.63
505.739,1694.40
506.737,1732.70
507.735,1717.13
508.734,1736.73
509.732,1724.27
510.729,1719.10
511.727,1705.00
512.725,1692.50
513.720,1701.47
514.718,1740.57
515.715,1692.17
516.712,1633.80
517.709,1690.50
518.706,1710.30
519.703,1700.07
520.700,1645.07
521.696,1664.83
522.693,1679.87
523.689,1702.70
524.686,1674.43
525.682,1653.10
526.678,1694.33
527.674,1657.60
528.670,1701.73
529.666,1707.30
530.661,1659.53
531.657,2171.50
532.652,1672.90
533.648,1684.40
534.641,1725.77
535.636,1667.20
536.631,1702.93
537.626,1689.93
538.621,1654.53
539.616,1674.83
540.610,1703.70
541.605,1699.33
542.599,1725.33
543.593,1676.47
544.587,1729.93
545.581,1716.40
546.575,1713.57
547.569,1754.73
548.563,1745.43
549.557,1741.47
550.550,1750.37
551.543,1673.17
552.537,1770.73
553.530,1723.30
554.523,1748.20
555.516,1756.00
556.509,1747.60
557.502,1746.43
558.494,1747.87
559.487,1735.37
560.479,1787.57
561.472,1735.80
562.464,1775.83
563.456,1782.70
564.448,1764.50
565.440,1788.13
566.432,1782.97
567.423,1835.70
568.415,1827.07
569.404,1856.83
570.396,1823.30
571.387,1853.90
572.378,1867.43
573.369,1829.00
574.360,1885.57
575.351,1878.73
576.341,1901.63
577.332,1879.97
578.323,1892.57
579.313,1867.97
580.303,1878.97
581.293,1860.10
582.283,1837.00
583.273,1883.77
584.263,1870.80
585.253,1900.63
586.243,1929.23
587.232,1903.77
588.222,1878.47
589.211,1875.73
590.200,1915.50
591.189,1892.63
592.178,1887.50
593.167,1824.37
594.156,1824.73
595.145,1874.47
596.133,1849.53
597.122,1865.43
598.110,1802.20
599.098,1813.70
600.086,1773.30
601.074,1766.23
602.062,1795.67
603.050,1814.47
604.038,1813.27
605.025,1760.90
606.013,1752.30
607.000,1721.60
607.987,1768.27
608.975,1710.17
609.962,1733.70
610.949,1737.50
611.936,1677.47
612.922,1692.43
613.909,1668.63
614.895,1704.90
615.882,1633.93
616.868,1664.33
617.854,1645.27
618.841,1629.80
619.826,1617.07
620.812,1645.73
621.798,1629.90
622.784,1589.27
623.769,1597.30
624.755,1560.93
625.740,1599.63
626.725,1596.43
627.711,1628.53
628.698,1584.30
629.683,1534.67
630.667,1536.03
631.652,1539.43
632.637,1500.73
633.621,1559.93
634.606,1492.20
635.590,1554.30
636.574,1501.87
637.558,1510.17
638.542,1525.73
639.526,1487.57
640.510,1479.70
641.493,1477.40
642.477,1495.03
643.460,1475.23
644.444,1474.00
645.427,1484.50
646.410,1503.80
647.393,1423.87
648.376,1446.40
649.359,1434.60
650.341,1391.23
651.324,1391.17
652.307,1418.93
653.289,1416.13
654.271,1454.70
655.253,1394.77
656.235,1398.50
657.217,1375.03
658.199,1356.30
659.181,1376.37
660.163,1384.20
661.144,1379.43
662.126,1357.73
663.107,1392.13
664.088,1360.20
665.069,1373.23
666.050,1355.40
667.033,1351.77
668.014,1381.40
668.995,1387.73
669.975,1312.47
670.956,1332.00
671.936,1345.07
672.916,1375.67
673.896,1246.93
674.876,1373.90
675.856,1304.17
676.836,1310.20
677.816,1300.57
678.795,1275.73
679.775,1289.83
680.754,1268.87
681.734,1246.17
682.713,1256.00
683.692,1249.77
684.671,1285.83
685.650,1252.57
686.629,1238.90
687.607,1281.17
688.586,1249.37
689.564,1247.07
690.543,1288.03
691.523,1222.40
692.501,1271.60
693.479,1229.90
694.457,1238.13
695.435,1245.87
696.413,1220.30
697.390,1228.73
698.368,1215.67
699.345,1199.73
700.322,1195.37
701.300,1228.80
702.277,1172.63
703.254,1177.83
704.231,1196.03
705.207,1181.97
706.184,1181.60
707.161,1190.70
708.137,1194.67
709.113,1177.37
710.090,1166.13
711.068,1226.63
712.044,1160.73
713.020,1188.43
713.996,1147.30
714.971,1195.10
715.947,1200.23
716.922,1159.43
717.898,1168.80
718.873,1134.70
719.848,1186.03
720.823,1135.63
721.798,1189.10
722.773,1162.23
723.748,1163.30
724.723,1134.53
725.697,1138.23
726.672,1182.87
727.646,1133.83
728.622,1139.67
729.596,1122.03
730.570,1127.90
731.544,1167.10
732.518,1145.30
733.492,1120.87
734.466,1138.30
735.439,1080.73
736.413,1102.13
737.386,1108.93
738.359,1131.37
739.332,1104.10
740.305,1128.70
741.278,1113.87
742.251,1148.50
743.224,1135.33
744.196,1124.97
745.171,1097.80
746.143,1084.30
747.115,1085.53
748.087,1093.37
749.059,1132.10
750.031,1118.23
751.003,1066.90
751.975,1102.27
752.947,1115.50
753.918,1112.73
754.890,1093.90
755.861,1067.67
756.832,1115.57
757.803,1110.17
758.774,1111.23
759.747,1076.37
760.718,1101.23
761.689,1060.83
762.659,1079.13
763.630,1076.13
764.600,1070.20
765.570,1070.40
766.540,1090.03
767.510,1086.00
768.480,1086.37
769.450,1081.57
770.420,1063.10
771.390,1119.97
772.359,1038.73
773.329,1091.33
774.300,1075.93
775.269,1076.70
776.238,1061.40
777.207,1082.10
778.176,1041.70
779.145,1069.37
780.114,1043.03
781.083,1065.33
782.051,1046.20
783.019,1079.47
783.988,1060.30
784.956,1070.03
785.924,1051.10
786.894,1009.63
787.862,1028.83
788.830,1074.70
789.797,1035.57
790.765,1055.67
791.732,997.90
792.700,1045.80
793.667,1050.37
794.634,997.47
795.601,1051.83
796.568,1032.43
797.535,1017.27
798.502,994.17
799.468,1016.73
800.437,1042.13
801.403,1023.07
802.370,1008.70
803.336,1002.30
804.302,1013.37
805.268,1018.30
806.234,1016.77
807.200,990.77
808.166,989.00
809.131,1003.80
810.097,1009.07
811.062,971.10
812.027,1023.63
812.994,994.90
813.960,1018.40
814.925,1003.23
815.889,1024.67
816.854,1023.07
817.819,996.13
818.783,979.47
819.748,1019.03
820.712,978.30
821.677,1000.47
822.641,1010.87
823.605,976.97
824.571,969.40
825.534,974.93
826.498,974.13
827.462,1004.83
828.425,951.77
829.389,951.50
830.352,990.93
831.315,987.13
832.279,972.30
833.242,968.93
834.204,985.40
835.167,969.07
836.132,1001.23
837.095,971.57
838.057,963.00
839.020,998.13
839.982,957.97
840.944,930.33
841.906,962.80
842.868,951.43
843.830,900.77
844.792,1003.30
845.753,975.63
846.715,948.57
847.679,969.27
848.640,955.43
849.601,956.37
850.562,899.93
851.523,946.40
852.484,952.40
853.445,963.10
854.406,974.13
855.367,922.87
856.327,927.33
857.288,958.73
858.248,951.67
859.210,937.07
860.170,941.30
861.130,978.77
862.090,959.07
863.050,944.30
864.010,937.07
864.969,942.00
865.929,935.63
866.888,947.57
867.848,976.77
868.807,964.87
869.766,935.33
870.727,925.47
871.686,935.60
872.645,963.10
873.604,937.43
874.562,931.47
875.521,913.37
876.479,970.83
877.437,949.17
878.396,961.63
879.354,944.17
880.312,909.63
881.270,935.70
882.229,931.43
883.187,927.23
884.145,908.07
885.102,940.20
886.059,954.23
887.017,917.77
887.974,896.67
888.931,914.63
889.888,911.07
890.845,909.30
891.802,905.60
892.758,895.87
893.717,947.70
894.673,934.07
895.630,941.00
896.586,941.93
897.542,914.70
898.498,904.40
899.454,911.37
900.410,898.20
901.366,926.10
902.321,922.87
903.277,943.50
904.232,916.13
905.189,902.17
906.145,887.93
907.100,919.37
908.055,890.97
909.010,914.40
909.965,899.67
910.919,899.67
911.874,916.93
912.828,948.90
913.783,916.93
914.737,884.37
915.693,883.10
916.648,921.40
917.602,912.53
918.555,917.70
919.509,912.33
920.463,921.80
921.417,898.13
922.370,887.80
923.324,901.63
924.277,870.60
925.230,896.43
926.183,897.57
927.138,940.50
928.091,876.90
929.044,923.80
929.996,889.97
930.949,884.53
931.902,906.03
932.854,889.17
933.806,903.60
934.758,909.90
935.711,903.10
936.663,882.03
937.614,902.37
938.568,910.20
939.520,893.13
940.471,882.97
941.423,891.40
942.374,918.70
943.326,897.90
944.277,895.53
945.228,911.77
946.179,863.23
947.130,891.77
948.080,892.50
949.031,906.33
949.984,898.87
950.934,891.73
951.884,892.77
952.835,877.13
953.785,894.43
954.735,874.17
955.685,908.57
956.635,887.73
957.585,876.10
958.534,891.40
959.484,904.57
960.433,878.93
961.383,892.63
962.334,889.77
963.283,905.00
964.232,876.07
965.181,854.37
966.130,854.70
967.079,854.63
968.027,875.63
968.976,905.00
969.924,904.07
970.873,881.60
971.821,868.30
972.769,899.07
973.719,892.87
974.667,895.70
975.615,903.57
976.562,910.13
977.510,869.53
978.458,879.67
979.405,925.17
980.352,893.20
981.300,870.30
982.247,888.50
983.194,924.10
984.141,912.50
985.088,884.67
986.036,912.40
986.983,860.10
987.930,880.60
988.876,878.83
989.822,892.53
990.769,900.30
991.715,888.27
992.661,894.80
993.607,934.50
994.553,887.67
995.498,916.90
996.444,891.50
997.389,919.80
998.337,934.80
999.282,906.80
1000.227,899.73
1001.173,910.20
1002.118,928.27
1003.062,878.03
1004.007,900.73
1004.952,947.03
1005.897,919.87
1006.841,888.37
1007.786,887.67
1008.730,897.67
1009.674,932.70
1010.618,896.43
1011.564,918.27
1012.508,908.07
1013.452,884.17
1014.396,943.30
1015.339,922.40
1016.283,907.77
1017.226,907.07
1018.170,907.87
1019.113,894.47
1020.056,909.90
1020.999,905.20
1021.942,934.13
1022.885,879.90
1023.828,909.60
1024.770,912.60
1025.715,920.77
1026.657,875.50
1027.600,910.13
1028.542,912.73
1029.484,970.30
1030.426,874.03
1031.368,924.67
1032.310,900.37
1033.251,910.67
1034.193,925.37
1035.135,903.77
1036.076,913.40
1037.017,898.80
1037.959,896.07
1038.900,896.80
1039.843,898.30
1040.784,905.67
1041.725,940.20
1042.665,936.37
1043.606,912.63
1044.547,934.40
1045.487,937.23
1046.427,938.33
1047.368,912.60
1048.308,932.57
1049.248,920.90
1050.188,915.50
1051.128,964.57
1052.067,920.17
1053.007,903.53
1053.947,911.13
1054.886,927.90
1055.827,930.83
1056.766,917.53
1057.706,932.67
1058.645,944.20
1059.584,899.20
1060.522,973.80
1061.461,923.87
1062.400,912.13
1063.338,955.43
1064.277,915.87
1065.215,922.93
1066.154,950.00
1067.092,946.57
1068.030,952.13
1068.968,923.57
1069.906,941.37
1070.843,959.80
1071.781,929.27
1072.720,948.80
1073.658,955.70
1074.595,952.70
1075.533,967.70
1076.470,954.50
1077.407,925.10
1078.344,938.13
1079.281,969.60
1080.217,955.17
1081.154,962.33
1082.091,984.80
1083.027,915.50
1083.964,945.47
1084.900,997.40
1085.836,965.70
1086.772,929.90
1087.708,890.73
1088.644,986.03
1089.580,946.97
1090.515,929.77
1091.451,983.17
1092.388,985.60
1093.324,943.87
1094.259,929.90
1095.194,942.27
1096.129,922.07
1097.064,946.93
1097.999,906.50
1098.934,961.70
1099.869,925.03
1100.803,949.60
1101.738,946.50
1102.672,968.97
1103.607,960.03
1104.541,950.50
1105.475,941.77
1106.409,931.53
1107.343,916.17
1108.277,924.43
1109.210,937.90
1110.144,931.13
1111.078,932.63
1112.011,955.60
1112.944,970.63
1113.878,953.33
1114.811,958.97
1115.744,945.30
1116.678,940.53
1117.611,1006.53
1118.544,947.70
1119.477,940.47
1120.409,938.87
1121.342,918.13
1122.274,954.10
1123.206,884.03
1124.138,909.07
1125.070,943.87
1126.002,934.33
1126.934,905.23
1127.866,918.30
1128.798,913.77
1129.729,908.83
1130.661,940.80
1131.592,947.80
1132.523,914.07
1133.454,913.80
1134.385,909.97
1135.317,925.67
1136.247,978.77
1137.178,954.77
1138.109,924.10
1139.039,938.53
1139.970,912.37
1140.900,909.43
1141.831,922.57
1142.761,926.63
1143.691,927.03
1144.621,881.77
1145.551,894.27
1146.480,940.73
1147.410,942.50
1148.340,909.47
1149.269,915.13
1150.199,921.67
1151.128,958.03
1152.057,928.77
1152.979,941.70
1153.898,947.77
1154.819,937.57
1155.739,915.03
1156.658,930.03
1157.579,933.73
1158.498,929.90
1159.419,916.47
1160.338,897.83
1161.256,934.47
1162.177,932.93
1163.095,947.20
1164.016,897.90
1164.934,924.57
1165.852,876.43
1166.772,920.47
1167.690,942.47
1168.610,916.77
1169.528,922.33
1170.446,927.43
1171.365,941.57
1172.283,926.40
1173.202,966.23
1174.120,912.00
1175.037,937.50
1175.956,923.87
1176.873,938.57
1177.792,976.53
1178.709,961.30
1179.626,949.13
1180.544,933.07
1181.461,939.60
1182.379,934.73
1183.296,973.10
1184.212,940.93
1185.130,959.47
1186.046,947.57
1186.962,937.70
1187.880,929.50
1188.796,948.60
1189.714,915.50
1190.629,953.17
1191.545,955.90
1192.462,937.10
1193.378,971.27
1194.295,928.27
1195.210,958.90
1196.125,947.37
1197.042,981.47
1197.957,975.07
1198.872,991.23
1199.788,963.70
1200.703,962.80
1201.619,941.93
1202.534,956.70
1203.448,954.07
1204.364,1011.27
1205.278,985.17
1206.192,970.50
1207.108,1004.93
1208.022,992.03
1208.938,986.40
1209.851,981.17
1210.765,955.40
1211.680,983.93
1212.594,1007.93
1213.507,998.83
1214.422,1008.03
1215.335,993.37
1216.248,1002.90
1217.163,1003.97
1218.076,982.73
1218.990,1019.80
1219.903,1008.50
1220.816,1020.73
1221.730,1030.83
1222.642,1043.33
1223.554,1034.07
1224.469,1035.83
1225.380,1010.43
1226.292,1031.33
1227.206,1004.83
1228.118,998.73
1229.032,1039.30
1229.943,1002.83
1230.855,1032.57
1231.768,1040.17
1232.679,994.53
1233.590,1039.10
1234.503,1056.10
1235.414,1049.07
1236.325,1039.60
1237.238,1058.80
1238.149,1068.57
1239.059,1044.17
1239.972,1078.23
1240.882,1036.83
1241.793,1054.97
1242.705,1065.73
1243.615,1068.70
1244.525,1077.13
1245.437,1072.73
1246.347,1063.03
1247.259,1097.97
1248.168,1100.23
1249.078,1071.10
1249.989,1062.67
1250.899,1084.57
1251.808,1072.53
1252.719,1117.63
1253.628,1111.13
1254.537,1117.30
1255.448,1047.23
1256.357,1072.50
1257.266,1080.27
1258.176,1064.17
1259.085,1064.57
1259.993,1113.33
1260.904,1065.93
1261.812,1102.40
1262.720,1097.03
1263.630,1068.50
1264.538,1098.10
1265.446,1095.83
1266.356,1085.20
1267.263,1087.77
1268.171,1095.17
1269.080,1077.37
1269.988,1071.40
1270.895,1069.40
1271.804,1083.80
1272.711,1058.53
1273.619,1068.37
1274.527,1089.07
1275.434,1096.97
1276.341,1092.17
1277.248,1072.17
1278.156,1068.00
1279.063,1111.87
1279.969,1084.97
1280.877,1096.23
1281.783,1095.30
1282.690,1077.70
1283.598,1083.23
1284.503,1078.43
1285.409,1069.00
1286.317,1084.67
1287.223,1074.80
1288.128,1071.10
1289.036,1047.53
1289.941,1069.57
1290.846,1073.60
1291.751,1086.23
1292.658,1047.03
1293.563,1093.60
1294.468,1070.30
1295.375,1085.17
1296.280,1062.63
1297.184,1041.90
1298.091,1053.00
1298.995,1032.13
1299.900,1065.67
1300.806,1029.73
1301.710,1045.93
1302.614,1039.30
1303.518,1013.17
1304.424,1038.63
1305.327,1029.40
1306.231,1004.93
1307.137,1023.07
1308.040,1030.80
1308.943,1000.60
1309.847,1007.60
1310.752,978.23
1311.655,1011.87
1312.558,981.50
1313.463,990.83
1314.366,1026.50
1315.269,936.33
1316.171,962.83
1317.076,965.53
1317.978,944.10
1318.881,948.40
1319.785,930.70
1320.687,934.83
1321.589,960.47
1322.491,934.17
1323.395,933.43
1324.297,978.20
1325.198,936.47
1326.102,966.33
1327.004,907.23
1327.905,958.27
1328.806,912.07
1329.709,933.83
1330.611,918.87
1331.512,949.13
1332.413,898.77
1333.316,904.77
1334.216,951.60
1335.117,900.87
1336.020,889.87
1336.920,890.83
1337.821,868.47
1338.721,877.43
1339.623,886.03
1340.523,863.57
1341.423,879.03
1342.323,896.47
1343.225,863.73
1344.125,850.63
1345.025,847.90
1345.924,821.03
1346.826,831.43
1347.725,853.70
1348.624,845.30
1349.524,832.00
1350.425,828.03
1351.324,841.43
1352.223,821.90
1353.121,852.83
1354.022,818.57
1354.921,824.40
1355.819,805.73
1356.718,821.17
1357.618,800.73
1358.516,796.40
1359.415,821.53
1360.313,818.20
1361.213,809.10
1362.111,751.57
1363.008,772.43
1363.906,800.67
1364.806,784.30
1365.703,785.90
1366.601,784.43
1367.498,773.07
1368.397,787.07
1369.295,811.27
1370.192,803.83
1371.089,797.10
1371.987,801.33
1372.884,730.27
1373.781,770.93
1374.678,796.30
1375.574,788.90
1376.473,784.90
1377.369,739.30
1378.265,767.57
1379.161,739.27
1380.059,763.50
1380.955,736.77
1381.851,738.53
1382.747,758.30
1383.643,715.13
1384.540,745.43
1385.436,738.20
1386.331,741.07
1387.227,742.47
1388.124,741.83
1389.019,717.57
1389.914,741.87
1390.809,730.43
1391.704,702.83
1392.601,727.17
1393.495,749.07
1394.390,740.03
1395.285,694.17
1396.179,718.87
1397.075,720.60
1397.969,727.20
1398.864,722.17
1399.758,723.70
1400.652,685.70
1401.547,689.70
1402.441,715.93
1403.335,719.33
1404.229,717.50
1405.122,709.10
1406.017,705.60
1406.911,683.07
1407.804,693.97
1408.697,679.13
1409.590,707.00
1410.485,694.53
1411.378,679.83
1412.271,706.07
1413.163,691.10
1414.056,677.00
1414.949,701.57
1415.843,675.17
1416.735,694.83
1417.627,693.33
1418.520,681.70
1419.412,666.90
1420.306,701.13
1421.197,668.40
1422.089,677.60
1422.981,690.43
1423.873,702.97
1424.764,661.20
1425.657,687.70
1426.549,660.00
1427.440,683.90
1428.331,668.23
1429.222,670.87
1430.113,667.80
1431.006,672.83
1431.897,668.00
1432.787,667.93
1433.678,673.07
1434.568,689.67
1435.459,694.30
1436.351,668.07
1437.241,664.23
1438.131,675.20
1439.021,671.03
1439.911,675.43
1440.801,668.63
1441.693,657.00
1442.583,667.90
1443.472,665.57
1444.362,656.60
1445.251,695.00
1446.140,631.67
1447.030,679.13
1447.921,646.23
1448.810,648.80
1449.699,654.37
1450.588,662.53
1451.476,644.60
1452.365,626.90
1453.254,654.30
1454.144,619.47
1455.032,635.43
1455.921,621.97
1456.809,593.47
1457.697,637.40
1458.585,634.77
1459.473,654.70
1460.361,614.73
1461.251,644.87
1462.138,627.00
1463.026,609.37
1463.913,608.67
1464.801,625.50
1465.688,628.53
1466.575,666.73
1467.463,646.30
1468.351,637.87
1469.238,646.87
1470.125,633.00
1471.012,619.47
1471.899,654.77
1472.785,602.87
1473.672,596.13
1474.558,621.33
1475.446,613.23
1476.333,641.27
1477.219,589.70
1478.105,630.07
1478.991,640.33
1479.877,599.70
1480.762,637.37
1481.648,599.90
1482.534,601.43
1483.419,638.30
1484.307,643.43
1485.192,626.53
1486.077,599.70
1486.962,579.93
1487.847,598.53
1488.732,586.63
1489.617,588.03
1490.502,619.47
1491.387,610.43
1492.271,598.17
1493.156,629.20
1494.042,594.40
1494.927,607.30
1495.811,596.47
1496.695,603.53
1497.579,581.53
1498.463,634.80
1499.347,633.70
1500.231,594.80
1501.114,612.07
1501.998,573.40
1502.881,601.17
1503.765,587.70
1504.648,609.50
1505.533,601.80
1506.417,618.00
1507.300,607.17
1508.183,606.57
1509.066,572.93
1509.948,617.50
1510.831,592.87
1511.714,592.57
1512.596,598.50
1513.479,591.63
1514.361,618.27
1515.243,593.43
1516.125,584.63
1517.008,567.57
1517.890,572.10
1518.771,557.30
1519.655,601.37
1520.537,582.37
1521.419,582.13
1522.300,624.50
1523.182,569.70
1524.063,555.73
1524.944,587.40
1525.825,583.80
1526.707,557.70
1527.588,576.73
1528.468,575.80
1529.349,597.33
1530.230,583.77
1531.111,571.20
1531.991,590.37
1532.872,543.03
1533.752,558.23
1534.632,588.33
1535.513,589.47
1536.393,593.50
1537.273,591.03
1538.153,533.83
1539.032,532.73
1539.912,555.00
1540.792,562.07
1541.672,544.90
1542.551,567.57
1543.430,555.40
1544.310,556.27
1545.189,550.87
1546.068,557.33
1546.947,596.60
1547.826,561.60
1548.705,562.17
1549.584,568.93
1550.462,553.73
1551.341,573.83
1552.219,564.83
1553.098,554.20
1553.976,561.33
1554.854,578.47
1555.733,600.17
1556.611,566.27
1557.489,570.07
1558.367,526.87
1559.244,532.17
1560.122,564.10
1561.000,536.60
1561.877,570.03
1562.755,533.37
1563.632,564.57
1564.509,545.87
1565.386,546.97
1566.264,547.30
1567.141,564.87
1568.017,579.50
1568.894,544.23
1569.771,572.60
1570.648,559.53
1571.524,578.50
1572.401,550.07
1573.277,542.50
1574.153,573.87
1575.029,562.07
1575.906,532.57
1576.781,582.33
1577.657,559.37
1578.533,559.70
1579.409,534.00
1580.285,568.17
1581.160,566.47
1582.036,581.03
1582.911,538.37
1583.786,564.83
1584.662,539.93
1585.537,571.73
1586.412,588.37
1587.287,533.30
1588.160,568.23
1589.035,556.70
1589.909,554.00
1590.784,555.13
1591.658,517.43
1592.533,619.13
1593.407,542.43
1594.281,547.90
1595.155,598.83
1596.029,530.37
1596.903,558.70
1597.777,525.67
1598.651,533.03
1599.525,553.07
1600.398,530.83
1601.272,573.30
1602.144,583.10
1603.017,542.10
1603.890,550.40
1604.763,547.27
1605.636,568.00
1606.509,529.73
1607.382,545.40
1608.255,551.03
1609.128,533.37
1610.000,557.43
1610.873,543.47
1611.746,560.90
1612.616,543.83
1613.488,541.83
1614.361,552.97
1615.233,557.67
1616.105,559.80
1616.977,528.87
1617.849,557.50
1618.720,535.83
1619.592,522.87
1620.464,525.20
1621.333,581.57
1622.205,550.50
1623.076,561.57
1623.947,566.33
1624.818,553.87
1625.689,564.50
1626.560,539.00
1627.431,542.27
1628.302,523.43
1629.171,544.80
1630.042,582.77
1630.912,250.20
1631.782,576.83
1632.653,535.30
1633.523,502.83
1634.393,537.60
1635.263,551.33
1636.131,503.47
1637.001,535.13
1637.871,538.33
1638.741,542.20
1639.611,535.23
1640.480,527.77
1641.350,542.60
1642.219,542.17
1643.087,540.20
1643.956,526.10
1644.825,547.60
1645.694,555.93
1646.563,544.23
1647.432,551.57
1648.299,529.80
1649.167,564.50
1650.036,542.20
1650.904,558.20
1651.773,557.33
1652.641,562.27
1653.509,534.77
1654.376,525.97
1655.244,529.97
1656.112,513.23
1656.980,535.83
1657.847,547.77
1658.715,546.57
1659.581,518.17
1660.448,520.03
1661.316,538.27
1662.183,529.47
1663.051,543.30
1663.918,536.83
1664.783,528.20
1665.650,520.47
1666.517,512.10
1667.384,544.13
1668.251,532.83
1669.115,529.93
1669.982,544.07
1670.849,565.60
1671.715,513.60
1672.581,571.60
1673.446,494.33
1674.312,524.27
1675.178,544.30
1676.044,518.30
1676.910,544.77
1677.774,546.47
1678.639,525.93
1679.505,525.27
1680.370,529.97
1681.236,536.90
1682.099,530.97
1682.965,511.03
1683.830,513.97
1684.695,522.60
1685.560,501.80
1686.423,522.23
1687.288,535.87
1688.153,521.63
1689.017,562.90
1689.880,519.90
1690.745,542.50
1691.609,503.17
1692.473,511.63
1693.338,524.83
1694.200,541.10
1695.064,542.70
1695.928,521.57
1696.792,516.93
1697.654,547.27
1698.517,529.53
1699.381,554.87
1700.245,530.47
1701.106,472.60
1701.969,488.97
1702.833,544.43
1703.696,515.57
1704.557,530.87
1705.420,515.00
1706.283,525.50
1707.146,495.67
1708.007,546.90
1708.870,525.63
1709.732,524.37
1710.595,547.93
1711.455,518.27
1712.318,494.80
1713.180,553.63
1714.040,561.10
1714.902,510.77
1715.764,507.93
1716.626,525.53
1717.486,494.27
1718.348,527.93
1719.209,942.93
1720.071,458.80
1720.930,533.47
1721.792,482.27
1722.653,505.73
1723.512,507.90
1724.374,510.57
1725.234,544.03
1726.095,487.77
1726.954,545.43
1727.815,507.00
1728.676,504.03
1729.535,555.60
1730.395,535.43
1731.256,516.80
1732.114,538.07
1732.974,500.77
1733.834,512.00
1734.693,531.77
1735.553,495.93
1736.413,530.57
1737.272,531.77
1738.130,489.27
1738.990,497.83
1739.849,472.90
1740.707,514.73
1741.566,520.70
1742.426,498.77
1743.283,540.13
1744.142,515.97
1745.001,508.87
1745.858,528.70
1746.717,514.60
1747.576,531.50
1748.433,515.93
1749.292,490.40
1750.150,491.67
1751.007,497.80
1751.865,539.50
1752.723,486.73
1753.579,499.00
1754.438,525.80
1755.296,532.33
1756.152,508.57
1757.010,507.60
1757.865,504.10
1758.723,520.07
1759.581,498.07
1760.436,498.67
1761.294,535.17
1762.151,502.73
1763.006,485.63
1763.864,534.93
1764.721,511.67
1765.576,480.93
1766.433,480.40
1767.288,550.97
1768.144,509.33
1769.001,526.77
1769.856,513.23
1770.712,528.93
1771.568,511.17
1772.423,500.57
1773.279,503.10
1774.133,548.43
1774.989,536.30
1775.845,521.10
1776.699,531.37
1777.555,523.33
1778.409,521.90
1779.265,556.80
1780.120,517.80
1780.974,515.90
1781.829,513.00
1782.682,536.97
1783.538,498.43
1784.393,491.57
1785.246,516.70
1786.101,508.30
1786.954,512.10
1787.808,513.37
1788.661,498.67
1789.516,519.37
1790.370,478.87
1791.223,533.90
1792.077,505.63
1792.930,473.37
1793.784,530.47
1794.636,511.33
1795.490,513.60
1796.344,508.10
1797.196,492.70
1798.049,516.03
1798.901,506.50
1799.755,502.07
1800.606,480.43
1801.460,491.97
1802.311,525.90
1803.165,489.30
1804.018,541.20
1804.869,484.40
1805.722,527.93
1806.573,514.30
1807.426,478.23
1808.276,514.57
1809.129,504.13
1809.980,474.37
1810.832,506.67
1811.683,521.47
1812.535,532.67
1813.385,465.43
1814.237,519.83
1815.089,492.00
1815.940,548.17
1816.791,479.03
1817.641,515.23
1818.493,492.00
1819.343,489.53
1820.194,519.60
1821.044,489.00
1821.895,506.63
1822.745,489.63
1823.596,519.23
1824.445,512.93
1825.296,510.30
1826.145,545.23
1826.996,496.80
1827.845,505.33
1828.695,523.33
1829.544,500.90
1830.395,494.87
1831.243,530.30
1832.094,482.57
1832.942,532.47
1833.792,502.30
1834.640,491.67
1835.490,543.37
1836.338,468.83
1837.186,507.50
1838.036,517.27
1838.884,474.60
1839.733,485.23
1840.581,513.20
1841.430,497.00
1842.278,532.43
1843.127,527.70
1843.974,493.30
1844.823,501.53
1845.671,469.97
1846.519,509.87
1847.366,517.77
1848.213,492.23
1849.062,520.33
1849.909,500.30
1850.757,472.67
1851.604,503.07
1852.452,463.53
1853.298,464.30
1854.146,487.87
1854.993,510.17
1855.839,517.30
1856.687,534.30
1857.532,457.00
1858.380,515.20
1859.226,507.43
1860.073,517.87
1860.919,491.77
1861.765,481.50
1862.612,471.07
1863.457,493.27
1864.304,499.13
1865.150,514.10
1865.995,490.60
1866.842,484.57
1867.686,525.03
1868.533,541.10
1869.378,502.93
1870.223,538.43
1871.069,525.13
1871.914,456.33
1872.760,486.70
1873.604,476.07
1874.448,478.43
1875.294,500.03
1876.139,507.77
1876.984,483.47
1877.828,485.67
1878.672,480.23
1879.518,458.87
1880.361,499.10
1881.205,493.63
1882.050,492.30
1882.894,482.07
1883.739,511.70
1884.582,524.97
1885.425,459.80
1886.270,533.40
1887.113,507.90
1887.956,519.10
1888.801,527.03
1889.644,521.67
1890.486,507.70
1891.331,497.80
1892.173,491.73
1893.017,505.83
1893.860,499.17
1894.702,511.67
1895.546,495.73
1896.388,485.60
1897.230,488.90
1898.074,526.67
1898.916,480.87
1899.757,493.27
1900.601,508.40
1901.443,508.90
1902.284,504.77
1903.125,533.57
1903.969,487.97
1904.810,511.40
1905.651,481.40
1906.494,497.57
1907.335,463.60
1908.176,491.57
1909.018,460.80
1909.859,449.63
1910.700,507.57
1911.542,509.77
1912.383,499.50
1913.223,516.83
1914.064,508.73
1914.906,483.40
1915.746,490.77
1916.586,503.07
1917.428,537.60
1918.268,518.73
1919.107,486.00
1919.947,459.40
1920.789,489.87
1921.628,507.13
1922.468,514.57
1923.309,490.50
1924.148,523.77
1924.988,501.27
1925.827,548.10
1926.667,515.43
1927.507,499.50
1928.345,496.77
1929.184,502.47
1930.025,485.97
1930.864,471.67
1931.702,508.30
1932.541,522.80
1933.381,520.17
1934.219,504.87
1935.057,504.80
1935.896,519.57
1936.735,499.90
1937.573,507.13
1938.411,509.90
1939.249,513.63
1940.089,490.67
1940.927,464.37
1941.764,499.03
1942.602,513.73
1943.439,501.80
1944.278,501.80
1945.115,501.77
1945.953,494.60
1946.790,507.23
1947.628,493.80
1948.465,502.10
1949.302,498.53
1950.139,515.87
1950.976,524.60
1951.814,508.60
1952.651,534.50
1953.487,498.07
1954.323,527.63
1955.160,507.17
1955.998,532.93
1956.834,501.47
1957.670,486.33
1958.506,509.67
1959.342,478.30
1960.177,509.50
1961.015,519.27
1961.850,505.73
1962.686,515.20
1963.521,550.13
1964.357,503.80
1965.192,482.67
1966.029,507.63
1966.864,476.67
1967.699,526.97
1968.534,463.30
1969.369,493.23
1970.204,496.03
1971.040,527.63
1971.875,489.77
1972.709,512.03
1973.544,510.60
1974.378,497.37
1975.212,505.00
1976.047,508.03
1976.882,519.77
1977.716,501.67
1978.550,496.23
1979.384,518.37
1980.218,506.50
1981.052,516.40
1981.885,463.43
1982.719,500.97
1983.554,455.40
1984.388,499.03
1985.221,460.70
1986.054,485.80
1986.887,491.73
1987.720,528.70
1988.553,510.10
1989.386,521.10
1990.219,468.80
1991.053,483.60
1991.886,504.67
1992.719,511.97
1993.551,519.37
1994.383,488.13
1995.216,489.73
1996.048,466.77
1996.880,497.37
1997.712,517.77
1998.544,493.03
1999.376,496.47
2000.208,508.67
2001.040,483.73
2001.873,506.73
2002.705,516.10
2003.536,503.10
2004.367,534.27
2005.199,500.20
2006.030,482.00
2006.861,537.00
2007.692,471.00
2008.523,514.77
2009.354,555.03
2010.185,508.97
2011.016,492.43
2011.846,513.83
2012.677,480.90
2013.507,492.67
2014.338,487.73
2015.168,502.17
2015.999,517.73
2016.829,512.63
2017.659,547.40
2018.489,532.70
2019.319,511.20
2020.149,532.00
2020.980,531.90
2021.810,506.87
2022.639,530.67
2023.469,503.00
2024.298,487.37
2025.128,498.00
2025.957,511.80
2026.786,526.77
2027.615,547.73
2028.444,527.93
2029.273,505.60
2030.102,513.30
2030.931,519.50
2031.758,498.50
2032.586,540.53
2033.415,508.80
2034.243,515.77
2035.072,532.60
2035.900,548.17
2036.728,519.03
2037.556,538.90
2038.385,533.83
2039.213,515.33
2040.040,553.10
2040.868,524.23
2041.696,511.37
2042.524,542.97
2043.351,530.37
2044.179,512.63
2045.006,539.53
2045.006,539.53

Max Intensity Wave.,220.959
Max Intensity Data,6000.53
Min Intensity Wave.,1630.912
Min Intensity Data,250.20
FWHM Wave.,388.011
FWHM Value,25.18
Pressure Wave.,690.430
Pressure Value [GPa],-9.69327
G/D Ratio,0.59208
G/D Gband Wave.,1592.594
G/D Gband Intensity,619.57
G/D Dband Wave.,1301.899
G/D Dband Intensity,1046.43

<< BACKGROUND SPECTRUM >>
Wave[dcm-1],No317
146.591,2278.00
147.626,2100.00
148.664,2061.00
149.699,2543.00
150.737,2268.00
151.772,2412.00
152.809,2396.00
153.846,2338.00
154.881,2402.00
155.918,1996.00
156.953,2289.00
157.989,2613.00
159.026,2461.00
160.060,2681.00
161.096,2897.00
162.130,2526.00
163.167,2594.00
164.200,2474.00
165.236,2671.00
166.272,2722.00
167.305,2300.00
168.341,2548.00
169.374,2789.00
170.409,2842.00
171.445,2745.00
172.477,2540.00
173.512,2425.00
174.545,2711.00
175.580,2836.00
176.614,3018.00
177.647,2820.00
178.681,3071.00
179.713,3363.00
180.747,2821.00
181.781,2736.00
182.813,3037.00
183.847,3131.00
184.878,2710.00
185.912,3007.00
186.945,3161.00
187.976,3071.00
189.010,2746.00
190.043,2900.00
191.073,2943.00
192.106,2751.00
193.137,3199.00
194.170,2576.00
195.202,2929.00
196.232,2738.00
197.265,2994.00
198.297,3066.00
199.327,2824.00
200.359,2962.00
201.388,3361.00
202.420,2929.00
203.452,3133.00
204.481,2693.00
205.512,3353.00
206.544,3099.00
207.573,3098.00
208.604,3435.00
209.635,3531.00
210.663,2995.00
211.694,2979.00
212.725,2833.00
213.753,2815.00
214.783,3406.00
215.813,3262.00
216.841,3027.00
217.871,3182.00
218.899,2958.00
219.929,3172.00
220.959,2884.00
221.986,3195.00
223.016,2773.00
224.045,3165.00
225.072,3116.00
226.101,3220.00
227.130,3299.00
228.157,2866.00
229.185,2378.00
230.214,3233.00
231.241,2832.00
232.269,2486.00
233.297,2736.00
234.323,3264.00
235.351,2842.00
236.379,3144.00
237.407,2784.00
238.433,2964.00
239.460,3160.00
240.488,3137.00
241.513,3225.00
242.540,3136.00
243.568,3216.00
244.592,3228.00
245.619,3211.00
246.646,2955.00
247.671,2952.00
248.697,2777.00
249.724,3057.00
250.748,3063.00
251.774,3018.00
252.801,3357.00
253.827,3126.00
254.850,3103.00
255.876,2703.00
256.902,3145.00
257.925,2982.00
258.951,2772.00
259.976,2806.00
260.999,3103.00
262.024,2835.00
263.049,3681.00
264.074,3140.00
265.097,3048.00
266.122,3115.00
267.146,3070.00
268.168,3271.00
269.193,2872.00
270.217,3245.00
271.241,2743.00
272.263,2920.00
273.287,3198.00
274.311,2777.00
275.332,3366.00
276.356,2870.00
277.379,3104.00
278.402,3144.00
279.424,2963.00
280.447,2916.00
281.470,2768.00
282.492,3097.00
283.513,2929.00
284.536,3199.00
285.558,3160.00
286.581,3193.00
287.601,2903.00
288.623,2826.00
289.645,3074.00
290.665,3140.00
291.687,3146.00
292.709,3143.00
293.730,3432.00
294.750,2889.00
295.771,2777.00
296.792,3088.00
297.813,2938.00
298.832,3040.00
299.853,2774.00
300.874,3063.00
301.895,2961.00
302.913,2993.00
303.934,3252.00
304.954,3109.00
305.975,3246.00
306.993,2747.00
308.013,3135.00
309.033,3072.00
310.052,2943.00
311.072,2948.00
312.090,3070.00
313.109,3287.00
314.129,3465.00
315.148,3019.00
316.165,3112.00
317.184,3280.00
318.203,2767.00
319.222,2811.00
320.238,3158.00
321.257,2797.00
322.275,2740.00
323.294,3059.00
324.312,3206.00
325.328,3293.00
326.346,3339.00
327.364,3220.00
328.382,3163.00
329.397,3140.00
330.415,3246.00
331.432,3246.00
332.450,3288.00
333.467,3522.00
334.482,2573.00
335.499,3356.00
336.516,2877.00
337.533,2600.00
338.547,2872.00
339.564,2859.00
340.580,3076.00
341.597,2975.00
342.613,3404.00
343.627,3028.00
344.643,3055.00
345.659,3145.00
346.675,3010.00
347.690,2944.00
348.704,3097.00
349.719,2947.00
350.735,2782.00
351.750,3213.00
352.765,3048.00
353.778,3018.00
354.793,3214.00
355.808,2841.00
356.822,3215.00
357.837,2645.00
358.851,3284.00
359.864,2997.00
360.878,2762.00
361.892,3002.00
362.906,3230.00
363.920,2581.00
364.932,3122.00
365.945,3145.00
366.959,3021.00
367.972,2921.00
368.986,2762.00
369.999,3405.00
371.010,2827.00
372.023,3375.00
373.036,2962.00
374.049,3417.00
375.061,3119.00
376.072,2995.00
377.084,2875.00
378.097,2756.00
379.109,3254.00
380.121,3046.00
381.133,2702.00
382.143,3138.00
383.155,2740.00
384.166,2905.00
385.178,3128.00
386.189,3237.00
387.201,2732.00
388.212,2929.00
389.221,2943.00
390.232,3017.00
391.243,2939.00
392.254,3065.00
393.264,2883.00
394.275,3262.00
395.283,3203.00
396.294,3639.00
397.304,3502.00
398.314,3122.00
399.324,3057.00
400.334,2634.00
401.344,3206.00
402.351,2713.00
403.361,3245.00
404.370,2967.00
405.380,2908.00
406.389,3360.00
407.398,3142.00
408.407,3115.00
409.414,3150.00
410.423,3341.00
411.431,2769.00
412.440,2685.00
413.448,3351.00
414.457,2909.00
415.465,2819.00
416.471,2899.00
417.479,3047.00
418.487,2811.00
419.495,3318.00
420.503,3147.00
421.510,2627.00
422.518,3207.00
423.525,3182.00
424.530,3437.00
425.537,2862.00
426.544,3275.00
427.551,2871.00
428.558,3608.00
429.565,3439.00
430.571,2920.00
431.578,2943.00
432.582,2858.00
433.588,2988.00
434.595,2618.00
435.601,3292.00
436.607,3310.00
437.612,2820.00
438.618,3356.00
439.624,2988.00
440.627,2956.00
441.633,3168.00
442.638,3660.00
443.643,3096.00
444.648,3017.00
445.653,3204.00
446.658,2920.00
447.663,3025.00
448.667,2881.00
449.672,2910.00
450.674,2996.00
451.678,2717.00
452.682,2882.00
453.687,2847.00
454.690,3577.00
455.694,3293.00
456.698,2595.00
457.702,2688.00
458.705,2822.00
459.709,2886.00
460.710,2871.00
461.713,3035.00
462.716,3121.00
463.719,3060.00
464.722,3216.00
465.725,2950.00
466.727,2847.00
467.730,3043.00
468.732,2817.00
469.735,3297.00
470.737,2908.00
471.737,2934.00
472.739,2923.00
473.741,2882.00
474.742,3059.00
475.744,3088.00
476.746,3076.00
477.747,2974.00
478.748,3180.00
479.750,2974.00
480.751,3032.00
481.752,3744.00
482.753,3125.00
483.751,3553.00
484.752,2653.00
485.753,3013.00
486.753,2901.00
487.753,2983.00
488.754,3458.00
489.754,2730.00
490.754,3330.00
491.754,3154.00
492.754,2670.00
493.753,3036.00
494.753,2924.00
495.752,3373.00
496.752,3033.00
497.749,3004.00
498.748,2844.00
499.747,3425.00
500.746,3123.00
501.745,2763.00
502.744,2772.00
503.742,3348.00
504.741,2958.00
505.739,2515.00
506.737,2903.00
507.735,3144.00
508.734,3373.00
509.732,3153.00
510.729,3338.00
511.727,2899.00
512.725,2921.00
513.720,2811.00
514.718,3234.00
515.715,2692.00
516.712,2694.00
517.709,2991.00
518.706,2895.00
519.703,3049.00
520.700,3245.00
521.696,3385.00
522.693,2934.00
523.689,2842.00
524.686,3191.00
525.682,2838.00
526.678,3458.00
527.674,2936.00
528.670,2585.00
529.666,3499.00
530.661,3520.00
531.657,3169.00
532.652,3184.00
533.648,3022.00
534.641,3207.00
535.636,3077.00
536.631,3110.00
537.626,3189.00
538.621,2809.00
539.616,2639.00
540.610,2518.00
541.605,3028.00
542.599,3047.00
543.593,3030.00
544.587,3902.00
545.581,2857.00
546.575,3060.00
547.569,3011.00
548.563,2672.00
549.557,2656.00
550.550,2762.00
551.543,2817.00
552.537,3135.00
553.530,2788.00
554.523,2789.00
555.516,3124.00
556.509,2970.00
557.502,2658.00
558.494,3217.00
559.487,2962.00
560.479,3176.00
561.472,3300.00
562.464,3144.00
563.456,3306.00
564.448,2980.00
565.440,3021.00
566.432,3425.00
567.423,2872.00
568.415,2896.00
569.404,3088.00
570.396,2838.00
571.387,3123.00
572.378,3016.00
573.369,3989.00
574.360,3660.00
575.351,2961.00
576.341,2839.00
577.332,2880.00
578.323,2690.00
579.313,2909.00
580.303,3279.00
581.293,3179.00
582.283,3040.00
583.273,3145.00
584.263,3042.00
585.253,3107.00
586.243,3146.00
587.232,2669.00
588.222,3002.00
589.211,3197.00
590.200,3047.00
591.189,2940.00
592.178,2962.00
593.167,3460.00
594.156,3311.00
595.145,2899.00
596.133,3460.00
597.122,3100.00
598.110,3245.00
599.098,3067.00
600.086,3042.00
601.074,3221.00
602.062,2844.00
603.050,2731.00
604.038,3079.00
605.025,2800.00
606.013,3239.00
607.000,3416.00
607.987,3026.00
608.975,3086.00
609.962,2776.00
610.949,3115.00
611.936,3292.00
612.922,3185.00
613.909,2725.00
614.895,3332.00
615.882,2874.00
616.868,3020.00
617.854,2771.00
618.841,3042.00
619.826,3132.00
620.812,2980.00
621.798,2801.00
622.784,3218.00
623.769,3116.00
624.755,2748.00
625.740,3048.00
626.725,2727.00
627.711,2824.00
628.698,3080.00
629.683,2852.00
630.667,3196.00
631.652,2779.00
632.637,3001.00
633.621,3161.00
634.606,2960.00
635.590,3085.00
636.574,2970.00
637.558,3082.00
638.542,3027.00
639.526,2861.00
640.510,2659.00
641.493,3064.00
642.477,2977.00
643.460,2714.00
644.444,3231.00
645.427,3218.00
646.410,2636.00
647.393,2994.00
648.376,3073.00
649.359,2927.00
650.341,3133.00
651.324,3133.00
652.307,3052.00
653.289,2962.00
654.271,2842.00
655.253,2919.00
656.235,3134.00
657.217,3276.00
658.199,2681.00
659.181,2777.00
660.163,3010.00
661.144,2888.00
662.126,2908.00
663.107,2770.00
664.088,6246.00
665.069,3244.00
666.050,2825.00
667.033,2728.00
668.014,3029.00
668.995,2577.00
669.975,3037.00
670.956,3002.00
671.936,3128.00
672.916,2923.00
673.896,3178.00
674.876,2886.00
675.856,2885.00
676.836,2753.00
677.816,2319.00
678.795,2864.00
679.775,2705.00
680.754,3070.00
681.734,3203.00
682.713,3183.00
683.692,2812.00
684.671,2646.00
685.650,2776.00
686.629,2895.00
687.607,2735.00
688.586,2793.00
689.564,2864.00
690.543,3217.00
691.523,2414.00
692.501,2810.00
693.479,2963.00
694.457,2800.00
695.435,2863.00
696.413,2692.00
697.390,2516.00
698.368,2690.00
699.345,3117.00
700.322,2958.00
701.300,3064.00
702.277,3081.00
703.254,3293.00
704.231,2586.00
705.207,2992.00
706.184,2809.00
707.161,2674.00
708.137,2839.00
709.113,2824.00
710.090,2829.00
711.068,2571.00
712.044,2644.00
713.020,2887.00
713.996,2668.00
714.971,2806.00
715.947,2842.00
716.922,2837.00
717.898,2758.00
718.873,2925.00
719.848,2705.00
720.823,2733.00
721.798,2962.00
722.773,2768.00
723.748,2535.00
724.723,3043.00
725.697,2847.00
726.672,2741.00
727.646,2537.00
728.622,3010.00
729.596,2626.00
730.570,2759.00
731.544,3059.00
732.518,3266.00
733.492,2844.00
734.466,2877.00
735.439,3054.00
736.413,3155.00
737.386,2485.00
738.359,2429.00
739.332,2558.00
740.305,2848.00
741.278,3307.00
742.251,2899.00
743.224,2734.00
744.196,2541.00
745.171,3157.00
746.143,3047.00
747.115,2802.00
748.087,2745.00
749.059,3067.00
750.031,2898.00
751.003,3743.00
751.975,3269.00
752.947,2687.00
753.918,3078.00
754.890,2601.00
755.861,2803.00
756.832,3015.00
757.803,2850.00
758.774,2821.00
759.747,2638.00
760.718,3190.00
761.689,2763.00
762.659,2612.00
763.630,3163.00
764.600,2564.00
765.570,3072.00
766.540,3123.00
767.510,2937.00
768.480,3046.00
769.450,2725.00
770.420,2841.00
771.390,2603.00
772.359,2795.00
773.329,2653.00
774.300,2514.00
775.269,2743.00
776.238,2995.00
777.207,3138.00
778.176,2526.00
779.145,2789.00
780.114,2702.00
781.083,2574.00
782.051,2764.00
783.019,2668.00
783.988,3083.00
784.956,2821.00
785.924,2984.00
786.894,2900.00
787.862,2729.00
788.830,3119.00
789.797,2639.00
790.765,2597.00
791.732,2801.00
792.700,2646.00
793.667,2595.00
794.634,2795.00
795.601,2726.00
796.568,2787.00
797.535,2853.00
798.502,3467.00
799.468,2919.00
800.437,2389.00
801.403,2658.00
802.370,3282.00
803.336,3003.00
804.302,2871.00
805.268,2447.00
806.234,2556.00
807.200,2768.00
808.166,2807.00
809.131,2578.00
810.097,2979.00
811.062,3696.00
812.027,2996.00
812.994,2619.00
813.960,2596.00
814.925,2942.00
815.889,2493.00
816.854,2997.00
817.819,2646.00
818.783,2737.00
819.748,3068.00
820.712,2758.00
821.677,2667.00
822.641,2688.00
823.605,2718.00
824.571,3145.00
825.534,2753.00
826.498,2687.00
827.462,2789.00
828.425,2653.00
829.389,3091.00
830.352,2830.00
831.315,2906.00
832.279,2519.00
833.242,2775.00
834.204,2646.00
835.167,2652.00
836.132,3032.00
837.095,2538.00
838.057,2715.00
839.020,2789.00
839.982,2860.00
840.944,2721.00
841.906,2644.00
842.868,2986.00
843.830,2606.00
844.792,3009.00
845.753,2666.00
846.715,2457.00
847.679,2604.00
848.640,2640.00
849.601,2747.00
850.562,3300.00
851.523,2718.00
852.484,2477.00
853.445,2980.00
854.406,2695.00
855.367,2748.00
856.327,3060.00
857.288,2499.00
858.248,2685.00
859.210,2715.00
860.170,2532.00
861.130,2984.00
862.090,2415.00
863.050,2622.00
864.010,2687.00
864.969,2893.00
865.929,2609.00
866.888,2522.00
867.848,2804.00
868.807,2643.00
869.766,2855.00
870.727,2742.00
871.686,3000.00
872.645,2972.00
873.604,3294.00
874.562,2763.00
875.521,2817.00
876.479,3324.00
877.437,2572.00
878.396,2573.00
879.354,3171.00
880.312,2627.00
881.270,2661.00
882.229,3101.00
883.187,2623.00
884.145,2690.00
885.102,2918.00
886.059,2807.00
887.017,2903.00
887.974,2978.00
888.931,3081.00
889.888,2537.00
890.845,2451.00
891.802,2362.00
892.758,2669.00
893.717,2407.00
894.673,2555.00
895.630,2618.00
896.586,2876.00
897.542,2682.00
898.498,2538.00
899.454,2862.00
900.410,2697.00
901.366,2661.00
902.321,2608.00
903.277,2693.00
904.232,2745.00
905.189,2498.00
906.145,2691.00
907.100,2217.00
908.055,2731.00
909.010,2914.00
909.965,2349.00
910.919,2807.00
911.874,2567.00
912.828,2731.00
913.783,2765.00
914.737,2379.00
915.693,2782.00
916.648,2907.00
917.602,2939.00
918.555,2782.00
919.509,2834.00
920.463,2728.00
921.417,2767.00
922.370,2599.00
923.324,2677.00
924.277,2701.00
925.230,2769.00
926.183,2430.00
927.138,2659.00
928.091,2971.00
929.044,2799.00
929.996,2671.00
930.949,2669.00
931.902,2823.00
932.854,2850.00
933.806,2587.00
934.758,2963.00
935.711,2986.00
936.663,2803.00
937.614,2789.00
938.568,2742.00
939.520,2402.00
940.471,2737.00
941.423,2786.00
942.374,2871.00
943.326,2752.00
944.277,2597.00
945.228,2831.00
946.179,2736.00
947.130,3039.00
948.080,2669.00
949.031,2566.00
949.984,2678.00
950.934,2701.00
951.884,2478.00
952.835,2734.00
953.785,2765.00
954.735,2632.00
955.685,2334.00
956.635,2636.00
957.585,2668.00
958.534,2634.00
959.484,2729.00
960.433,2628.00
961.383,2468.00
962.334,2972.00
963.283,2769.00
964.232,2878.00
965.181,2761.00
966.130,2829.00
967.079,2657.00
968.027,2743.00
968.976,2733.00
969.924,2606.00
970.873,2819.00
971.821,2775.00
972.769,2919.00
973.719,2854.00
974.667,2477.00
975.615,2710.00
976.562,2703.00
977.510,2431.00
978.458,2625.00
979.405,2798.00
980.352,2768.00
981.300,2982.00
982.247,2799.00
983.194,2506.00
984.141,2617.00
985.088,2744.00
986.036,2765.00
986.983,3047.00
987.930,3153.00
988.876,2391.00
989.822,2957.00
990.769,2555.00
991.715,2615.00
992.661,2435.00
993.607,2754.00
994.553,3287.00
995.498,2575.00
996.444,2286.00
997.389,2758.00
998.337,2493.00
999.282,2855.00
1000.227,2662.00
1001.173,2713.00
1002.118,2429.00
1003.062,2927.00
1004.007,2686.00
1004.952,2944.00
1005.897,2927.00
1006.841,2707.00
1007.786,2466.00
1008.730,2440.00
1009.674,3133.00
1010.618,2670.00
1011.564,2510.00
1012.508,2393.00
1013.452,2960.00
1014.396,2678.00
1015.339,2597.00
1016.283,2688.00
1017.226,2739.00
1018.170,2705.00
1019.113,2904.00
1020.056,2734.00
1020.999,2720.00
1021.942,2582.00
1022.885,2886.00
1023.828,2993.00
1024.770,2500.00
1025.715,2736.00
1026.657,2721.00
1027.600,2753.00
1028.542,2911.00
1029.484,2685.00
1030.426,2885.00
1031.368,2762.00
1032.310,2586.00
1033.251,2535.00
1034.193,2679.00
1035.135,2511.00
1036.076,2629.00
1037.017,2560.00
1037.959,2850.00
1038.900,2795.00
1039.843,2827.00
1040.784,2758.00
1041.725,2789.00
1042.665,2600.00
1043.606,2759.00
1044.547,2738.00
1045.487,2361.00
1046.427,2662.00
1047.368,2776.00
1048.308,2230.00
1049.248,2513.00
1050.188,2706.00
1051.128,2572.00
1052.067,2661.00
1053.007,2428.00
1053.947,2414.00
1054.886,2572.00
1055.827,2481.00
1056.766,2906.00
1057.706,2460.00
1058.645,2661.00
1059.584,2768.00
1060.522,2935.00
1061.461,2468.00
1062.400,2496.00
1063.338,2623.00
1064.277,2525.00
1065.215,2534.00
1066.154,2392.00
1067.092,2585.00
1068.030,2623.00
1068.968,2878.00
1069.906,2996.00
1070.843,2936.00
1071.781,2751.00
1072.720,2802.00
1073.658,2817.00
1074.595,2600.00
1075.533,2532.00
1076.470,2574.00
1077.407,2993.00
1078.344,2775.00
1079.281,2788.00
1080.217,2308.00
1081.154,2668.00
1082.091,2702.00
1083.027,2479.00
1083.964,2928.00
1084.900,2513.00
1085.836,2592.00
1086.772,2900.00
1087.708,2523.00
1088.644,2781.00
1089.580,2699.00
1090.515,2765.00
1091.451,2573.00
1092.388,2674.00
1093.324,2458.00
1094.259,3258.00
1095.194,2766.00
1096.129,2639.00
1097.064,2588.00
1097.999,2865.00
1098.934,2528.00
1099.869,2565.00
1100.803,2723.00
1101.738,2720.00
1102.672,2366.00
1103.607,2804.00
1104.541,2547.00
1105.475,2543.00
1106.409,2440.00
1107.343,2636.00
1108.277,2453.00
1109.210,2715.00
1110.144,2683.00
1111.078,2689.00
1112.011,2441.00
1112.944,2735.00
1113.878,2719.00
1114.811,2171.00
1115.744,2582.00
1116.678,2302.00
1117.611,2502.00
1118.544,2587.00
1119.477,2738.00
1120.409,2553.00
1121.342,3149.00
1122.274,2725.00
1123.206,4307.00
1124.138,2693.00
1125.070,2950.00
1126.002,2826.00
1126.934,2314.00
1127.866,2578.00
1128.798,2346.00
1129.729,2393.00
1130.661,2637.00
1131.592,2560.00
1132.523,2741.00
1133.454,2777.00
1134.385,2314.00
1135.317,2667.00
1136.247,2581.00
1137.178,2842.00
1138.109,2375.00
1139.039,2988.00
1139.970,2839.00
1140.900,2586.00
1141.831,2344.00
1142.761,2234.00
1143.691,2752.00
1144.621,2682.00
1145.551,2720.00
1146.480,2672.00
1147.410,2828.00
1148.340,2321.00
1149.269,2377.00
1150.199,2581.00
1151.128,3008.00
1152.057,2448.00
1152.979,2555.00
1153.898,2602.00
1154.819,2723.00
1155.739,2633.00
1156.658,2548.00
1157.579,2662.00
1158.498,2629.00
1159.419,2194.00
1160.338,2699.00
1161.256,2689.00
1162.177,2477.00
1163.095,2607.00
1164.016,2732.00
1164.934,2894.00
1165.852,2870.00
1166.772,2623.00
1167.690,2619.00
1168.610,2709.00
1169.528,2656.00
1170.446,2196.00
1171.365,2547.00
1172.283,2518.00
1173.202,2602.00
1174.120,2692.00
1175.037,2493.00
1175.956,2470.00
1176.873,2505.00
1177.792,2501.00
1178.709,3076.00
1179.626,2522.00
1180.544,2852.00
1181.461,2506.00
1182.379,2719.00
1183.296,2600.00
1184.212,2272.00
1185.130,2469.00
1186.046,2960.00
1186.962,2639.00
1187.880,2924.00
1188.796,2673.00
1189.714,2463.00
1190.629,2772.00
1191.545,2691.00
1192.462,2584.00
1193.378,2591.00
1194.295,2379.00
1195.210,2653.00
1196.125,2786.00
1197.042,2692.00
1197.957,2615.00
1198.872,2483.00
1199.788,2546.00
1200.703,2957.00
1201.619,2668.00
1202.534,2511.00
1203.448,2726.00
1204.364,2521.00
1205.278,2287.00
1206.192,2689.00
1207.108,3106.00
1208.022,2993.00
1208.938,2478.00
1209.851,2778.00
1210.765,2894.00
1211.680,2528.00
1212.594,2394.00
1213.507,2561.00
1214.422,3008.00
1215.335,2757.00
1216.248,2557.00
1217.163,2640.00
1218.076,3235.00
1218.990,2728.00
1219.903,2415.00
1220.816,2447.00
1221.730,2580.00
1222.642,2462.00
1223.554,2529.00
1224.469,2687.00
1225.380,2582.00
1226.292,2296.00
1227.206,2785.00
1228.118,2974.00
1229.032,2246.00
1229.943,2540.00
1230.855,2576.00
1231.768,2375.00
1232.679,2757.00
1233.590,2597.00
1234.503,2836.00
1235.414,2484.00
1236.325,2519.00
1237.238,2687.00
1238.149,2706.00
1239.059,2461.00
1239.972,2780.00
1240.882,2466.00
1241.793,2754.00
1242.705,2968.00
1243.615,2570.00
1244.525,2697.00
1245.437,2197.00
1246.347,2692.00
1247.259,2757.00
1248.168,3028.00
1249.078,2871.00
1249.989,2907.00
1250.899,2437.00
1251.808,2502.00
1252.719,2536.00
1253.628,2470.00
1254.537,2978.00
1255.448,2490.00
1256.357,2468.00
1257.266,2653.00
1258.176,2389.00
1259.085,2372.00
1259.993,2413.00
1260.904,2488.00
1261.812,2442.00
1262.720,3230.00
1263.630,2817.00
1264.538,2459.00
1265.446,2713.00
1266.356,2628.00
1267.263,2909.00
1268.171,2427.00
1269.080,2711.00
1269.988,2827.00
1270.895,2552.00
1271.804,2595.00
1272.711,2839.00
1273.619,2794.00
1274.527,2450.00
1275.434,2732.00
1276.341,2439.00
1277.248,2679.00
1278.156,2925.00
1279.063,2476.00
1279.969,2729.00
1280.877,3503.00
1281.783,2827.00
1282.690,2687.00
1283.598,2600.00
1284.503,2494.00
1285.409,2474.00
1286.317,2994.00
1287.223,3018.00
1288.128,2688.00
1289.036,2549.00
1289.941,2576.00
1290.846,2636.00
1291.751,2441.00
1292.658,2544.00
1293.563,3035.00
1294.468,2637.00
1295.375,2756.00
1296.280,2858.00
1297.184,3344.00
1298.091,2707.00
1298.995,2794.00
1299.900,2988.00
1300.806,2541.00
1301.710,2377.00
1302.614,2202.00
1303.518,2889.00
1304.424,2561.00
1305.327,2810.00
1306.231,2626.00
1307.137,2764.00
1308.040,2663.00
1308.943,2663.00
1309.847,2833.00
1310.752,2836.00
1311.655,2273.00
1312.558,2422.00
1313.463,2563.00
1314.366,2471.00
1315.269,2729.00
1316.171,2627.00
1317.076,2529.00
1317.978,2450.00
1318.881,2254.00
1319.785,2518.00
1320.687,2510.00
1321.589,2227.00
1322.491,2485.00
1323.395,2712.00
1324.297,3161.00
1325.198,2756.00
1326.102,2410.00
1327.004,2475.00
1327.905,2989.00
1328.806,2615.00
1329.709,2672.00
1330.611,2561.00
1331.512,2419.00
1332.413,3098.00
1333.316,2686.00
1334.216,2765.00
1335.117,2363.00
1336.020,2666.00
1336.920,2637.00
1337.821,2509.00
1338.721,2906.00
1339.623,2675.00
1340.523,2616.00
1341.423,2495.00
1342.323,2874.00
1343.225,2713.00
1344.125,2475.00
1345.025,2516.00
1345.924,2334.00
1346.826,2989.00
1347.725,3039.00
1348.624,2863.00
1349.524,2501.00
1350.425,2597.00
1351.324,2723.00
1352.223,2810.00
1353.121,2599.00
1354.022,2839.00
1354.921,3015.00
1355.819,2766.00
1356.718,2681.00
1357.618,2399.00
1358.516,2759.00
1359.415,2999.00
1360.313,2713.00
1361.213,2578.00
1362.111,2959.00
1363.008,3294.00
1363.906,2610.00
1364.806,2650.00
1365.703,2736.00
1366.601,2462.00
1367.498,2473.00
1368.397,2813.00
1369.295,2664.00
1370.192,2445.00
1371.089,2697.00
1371.987,2598.00
1372.884,2919.00
1373.781,2429.00
1374.678,2603.00
1375.574,2435.00
1376.473,2725.00
1377.369,2883.00
1378.265,2466.00
1379.161,2607.00
1380.059,2339.00
1380.955,2770.00
1381.851,2411.00
1382.747,2505.00
1383.643,2607.00
1384.540,2439.00
1385.436,2532.00
1386.331,2694.00
1387.227,2782.00
1388.124,2735.00
1389.019,2459.00
1389.914,2592.00
1390.809,2277.00
1391.704,3072.00
1392.601,2550.00
1393.495,2887.00
1394.390,2785.00
1395.285,2910.00
1396.179,2713.00
1397.075,2597.00
1397.969,2686.00
1398.864,2311.00
1399.758,2573.00
1400.652,2679.00
1401.547,2475.00
1402.441,2405.00
1403.335,2958.00
1404.229,2663.00
1405.122,2715.00
1406.017,2618.00
1406.911,2803.00
1407.804,3048.00
1408.697,2631.00
1409.590,2450.00
1410.485,2824.00
1411.378,2711.00
1412.271,2333.00
1413.163,2698.00
1414.056,2792.00
1414.949,3000.00
1415.843,2694.00
1416.735,2578.00
1417.627,2637.00
1418.520,2616.00
1419.412,2868.00
1420.306,2796.00
1421.197,2924.00
1422.089,2854.00
1422.981,3080.00
1423.873,2792.00
1424.764,2764.00
1425.657,2661.00
1426.549,2796.00
1427.440,2828.00
1428.331,2548.00
1429.222,2340.00
1430.113,2687.00
1431.006,2816.00
1431.897,2553.00
1432.787,2660.00
1433.678,2560.00
1434.568,2443.00
1435.459,2849.00
1436.351,2807.00
1437.241,2788.00
1438.131,2788.00
1439.021,2402.00
1439.911,2602.00
1440.801,2703.00
1441.693,2865.00
1442.583,2653.00
1443.472,2636.00
1444.362,2752.00
1445.251,2554.00
1446.140,2579.00
1447.030,2807.00
1447.921,2848.00
1448.810,2472.00
1449.699,3000.00
1450.588,2655.00
1451.476,2555.00
1452.365,2768.00
1453.254,2544.00
1454.144,2553.00
1455.032,2795.00
1455.921,2399.00
1456.809,2981.00
1457.697,2449.00
1458.585,2591.00
1459.473,2574.00
1460.361,2498.00
1461.251,2710.00
1462.138,2719.00
1463.026,2638.00
1463.913,2908.00
1464.801,2565.00
1465.688,2741.00
1466.575,2631.00
1467.463,3080.00
1468.351,2509.00
1469.238,2603.00
1470.125,2255.00
1471.012,2702.00
1471.899,2704.00
1472.785,2495.00
1473.672,2682.00
1474.558,2875.00
1475.446,2796.00
1476.333,2788.00
1477.219,2487.00
1478.105,2616.00
1478.991,2582.00
1479.877,2953.00
1480.762,2624.00
1481.648,2531.00
1482.534,2792.00
1483.419,2689.00
1484.307,2751.00
1485.192,2617.00
1486.077,2514.00
1486.962,2553.00
1487.847,2415.00
1488.732,2514.00
1489.617,2678.00
1490.502,2909.00
1491.387,2774.00
1492.271,2502.00
1493.156,2472.00
1494.042,2465.00
1494.927,2850.00
1495.811,2569.00
1496.695,2797.00
1497.579,2953.00
1498.463,2622.00
1499.347,2673.00
1500.231,2698.00
1501.114,2715.00
1501.998,2939.00
1502.881,2693.00
1503.765,2955.00
1504.648,3036.00
1505.533,2767.00
1506.417,2647.00
1507.300,2610.00
1508.183,2718.00
1509.066,2165.00
1509.948,2870.00
1510.831,2999.00
1511.714,2436.00
1512.596,2788.00
1513.479,2894.00
1514.361,2833.00
1515.243,2691.00
1516.125,2824.00
1517.008,2936.00
1517.890,2629.00
1518.771,2714.00
1519.655,2862.00
1520.537,2612.00
1521.419,2500.00
1522.300,2663.00
1523.182,2812.00
1524.063,2824.00
1524.944,2937.00
1525.825,2848.00
1526.707,2507.00
1527.588,2449.00
1528.468,2740.00
1529.349,2322.00
1530.230,2576.00
1531.111,2854.00
1531.991,2699.00
1532.872,2408.00
1533.752,2645.00
1534.632,2512.00
1535.513,2525.00
1536.393,2795.00
1537.273,2952.00
1538.153,3342.00
1539.032,2452.00
1539.912,2662.00
1540.792,2687.00
1541.672,2689.00
1542.551,2777.00
1543.430,3280.00
1544.310,2705.00
1545.189,2578.00
1546.068,3095.00
1546.947,2759.00
1547.826,2993.00
1548.705,2675.00
1549.584,2889.00
1550.462,2642.00
1551.341,2818.00
1552.219,2726.00
1553.098,2831.00
1553.976,2886.00
1554.854,3069.00
1555.733,2833.00
1556.611,2593.00
1557.489,2463.00
1558.367,2705.00
1559.244,2862.00
1560.122,2658.00
1561.000,2762.00
1561.877,2967.00
1562.755,2574.00
1563.632,2628.00
1564.509,2949.00
1565.386,3045.00
1566.264,2450.00
1567.141,2304.00
1568.017,2797.00
1568.894,2666.00
1569.771,2714.00
1570.648,2789.00
1571.524,2676.00
1572.401,2439.00
1573.277,2472.00
1574.153,2701.00
1575.029,2531.00
1575.906,3409.00
1576.781,2811.00
1577.657,2617.00
1578.533,2907.00
1579.409,2339.00
1580.285,2635.00
1581.160,3078.00
1582.036,2810.00
1582.911,2522.00
1583.786,2994.00
1584.662,2503.00
1585.537,2613.00
1586.412,2676.00
1587.287,2533.00
1588.160,2836.00
1589.035,2319.00
1589.909,2683.00
1590.784,2637.00
1591.658,2510.00
1592.533,2665.00
1593.407,2698.00
1594.281,2566.00
1595.155,3030.00
1596.029,2612.00
1596.903,2610.00
1597.777,2616.00
1598.651,2940.00
1599.525,2380.00
1600.398,2724.00
1601.272,2608.00
1602.144,3184.00
1603.017,2625.00
1603.890,2913.00
1604.763,2773.00
1605.636,2804.00
1606.509,2405.00
1607.382,2511.00
1608.255,2747.00
1609.128,2907.00
1610.000,2632.00
1610.873,2371.00
1611.746,2551.00
1612.616,2618.00
1613.488,2262.00
1614.361,2669.00
1615.233,2615.00
1616.105,2879.00
1616.977,2616.00
1617.849,2500.00
1618.720,2994.00
1619.592,3003.00
1620.464,2783.00
1621.333,3085.00
1622.205,2672.00
1623.076,2636.00
1623.947,2634.00
1624.818,2914.00
1625.689,2774.00
1626.560,2592.00
1627.431,2729.00
1628.302,3076.00
1629.171,2808.00
1630.042,2961.00
1630.912,3628.00
1631.782,3219.00
1632.653,2505.00
1633.523,2868.00
1634.393,2914.00
1635.263,2548.00
1636.131,2690.00
1637.001,2606.00
1637.871,2312.00
1638.741,2321.00
1639.611,2425.00
1640.480,2813.00
1641.350,2533.00
1642.219,2509.00
1643.087,2187.00
1643.956,3118.00
1644.825,2918.00
1645.694,2866.00
1646.563,2839.00
1647.432,2711.00
1648.299,2709.00
1649.167,2789.00
1650.036,2488.00
1650.904,2870.00
1651.773,2883.00
1652.641,2671.00
1653.509,2886.00
1654.376,2561.00
1655.244,2736.00
1656.112,2747.00
1656.980,2706.00
1657.847,2529.00
1658.715,2838.00
1659.581,2601.00
1660.448,2931.00
1661.316,2192.00
1662.183,2719.00
1663.051,2721.00
1663.918,2706.00
1664.783,2699.00
1665.650,2792.00
1666.517,2863.00
1667.384,2682.00
1668.251,2712.00
1669.115,2895.00
1669.982,2636.00
1670.849,2930.00
1671.715,2680.00
1672.581,2793.00
1673.446,2830.00
1674.312,2708.00
1675.178,3060.00
1676.044,2788.00
1676.910,2759.00
1677.774,2712.00
1678.639,2345.00
1679.505,2681.00
1680.370,2813.00
1681.236,3319.00
1682.099,2629.00
1682.965,2738.00
1683.830,2307.00
1684.695,2515.00
1685.560,2639.00
1686.423,2835.00
1687.288,2804.00
1688.153,2727.00
1689.017,2586.00
1689.880,2767.00
1690.745,2827.00
1691.609,2549.00
1692.473,2862.00
1693.338,2916.00
1694.200,2935.00
1695.064,2679.00
1695.928,2603.00
1696.792,2704.00
1697.654,3164.00
1698.517,2715.00
1699.381,2411.00
1700.245,2342.00
1701.106,3037.00
1701.969,2617.00
1702.833,2818.00
1703.696,2611.00
1704.557,2640.00
1705.420,2570.00
1706.283,2719.00
1707.146,2856.00
1708.007,2474.00
1708.870,2488.00
1709.732,2372.00
1710.595,2551.00
1711.455,2460.00
1712.318,2632.00
1713.180,2925.00
1714.040,2705.00
1714.902,2879.00
1715.764,2717.00
1716.626,2477.00
1717.486,2683.00
1718.348,2946.00
1719.209,3962.00
1720.071,2411.00
1720.930,2430.00
1721.792,2579.00
1722.653,2565.00
1723.512,2596.00
1724.374,2650.00
1725.234,2705.00
1726.095,2747.00
1726.954,2667.00
1727.815,2833.00
1728.676,2708.00
1729.535,2882.00
1730.395,2650.00
1731.256,2611.00
1732.114,2722.00
1732.974,2193.00
1733.834,3064.00
1734.693,2844.00
1735.553,2731.00
1736.413,3104.00
1737.272,2570.00
1738.130,2657.00
1738.990,2804.00
1739.849,2635.00
1740.707,3688.00
1741.566,2728.00
1742.426,2766.00
1743.283,3080.00
1744.142,2582.00
1745.001,2365.00
1745.858,2845.00
1746.717,2752.00
1747.576,2785.00
1748.433,2849.00
1749.292,3294.00
1750.150,3346.00
1751.007,2900.00
1751.865,2887.00
1752.723,2746.00
1753.579,2633.00
1754.438,2917.00
1755.296,2897.00
1756.152,2282.00
1757.010,2393.00
1757.865,2902.00
1758.723,2359.00
1759.581,3035.00
1760.436,2677.00
1761.294,3047.00
1762.151,2696.00
1763.006,2650.00
1763.864,2326.00
1764.721,2903.00
1765.576,2767.00
1766.433,2880.00
1767.288,2565.00
1768.144,2752.00
1769.001,2642.00
1769.856,2787.00
1770.712,2905.00
1771.568,2495.00
1772.423,2628.00
1773.279,2625.00
1774.133,2566.00
1774.989,3074.00
1775.845,3087.00
1776.699,2940.00
1777.555,2675.00
1778.409,3229.00
1779.265,2609.00
1780.120,2663.00
1780.974,2685.00
1781.829,2315.00
1782.682,2735.00
1783.538,2530.00
1784.393,2778.00
1785.246,2594.00
1786.101,2806.00
1786.954,2838.00
1787.808,2917.00
1788.661,2432.00
1789.516,2621.00
1790.370,2668.00
1791.223,2864.00
1792.077,2715.00
1792.930,2824.00
1793.784,2559.00
1794.636,2725.00
1795.490,2665.00
1796.344,2734.00
1797.196,2713.00
1798.049,2874.00
1798.901,2602.00
1799.755,2943.00
1800.606,2536.00
1801.460,3254.00
1802.311,2989.00
1803.165,3132.00
1804.018,3026.00
1804.869,2816.00
1805.722,3149.00
1806.573,2739.00
1807.426,2569.00
1808.276,2700.00
1809.129,2617.00
1809.980,2946.00
1810.832,3006.00
1811.683,2614.00
1812.535,3017.00
1813.385,2674.00
1814.237,2989.00
1815.089,2761.00
1815.940,2944.00
1816.791,2687.00
1817.641,2572.00
1818.493,2882.00
1819.343,2806.00
1820.194,2573.00
1821.044,2830.00
1821.895,2937.00
1822.745,2456.00
1823.596,2588.00
1824.445,3110.00
1825.296,2821.00
1826.145,2643.00
1826.996,2916.00
1827.845,2761.00
1828.695,2757.00
1829.544,2703.00
1830.395,2767.00
1831.243,2616.00
1832.094,2486.00
1832.942,3294.00
1833.792,2842.00
1834.640,2795.00
1835.490,2704.00
1836.338,2816.00
1837.186,2612.00
1838.036,2576.00
1838.884,2743.00
1839.733,3061.00
1840.581,2885.00
1841.430,2853.00
1842.278,3028.00
1843.127,2587.00
1843.974,2410.00
1844.823,3151.00
1845.671,2910.00
1846.519,2728.00
1847.366,2767.00
1848.213,2381.00
1849.062,2522.00
1849.909,2461.00
1850.757,3401.00
1851.604,2834.00
1852.452,2682.00
1853.298,2940.00
1854.146,2791.00
1854.993,2755.00
1855.839,3216.00
1856.687,2824.00
1857.532,2892.00
1858.380,2731.00
1859.226,2791.00
1860.073,2828.00
1860.919,2569.00
1861.765,2633.00
1862.612,2998.00
1863.457,2954.00
1864.304,2685.00
1865.150,2839.00
1865.995,2706.00
1866.842,2864.00
1867.686,2952.00
1868.533,2782.00
1869.378,2786.00
1870.223,2721.00
1871.069,2600.00
1871.914,2788.00
1872.760,2724.00
1873.604,2553.00
1874.448,2899.00
1875.294,2916.00
1876.139,2589.00
1876.984,2872.00
1877.828,2411.00
1878.672,2262.00
1879.518,2640.00
1880.361,2915.00
1881.205,2885.00
1882.050,2550.00
1882.894,3241.00
1883.739,2592.00
1884.582,2475.00
1885.425,2587.00
1886.270,2960.00
1887.113,2486.00
1887.956,2816.00
1888.801,2763.00
1889.644,2527.00
1890.486,2329.00
1891.331,2665.00
1892.173,2784.00
1893.017,2802.00
1893.860,3026.00
1894.702,3026.00
1895.546,2758.00
1896.388,3441.00
1897.230,3108.00
1898.074,2609.00
1898.916,2545.00
1899.757,2573.00
1900.601,3398.00
1901.443,3025.00
1902.284,3035.00
1903.125,3179.00
1903.969,2947.00
1904.810,2948.00
1905.651,2851.00
1906.494,3055.00
1907.335,3219.00
1908.176,2866.00
1909.018,2872.00
1909.859,2747.00
1910.700,2594.00
1911.542,3262.00
1912.383,2813.00
1913.223,2365.00
1914.064,2863.00
1914.906,3020.00
1915.746,3084.00
1916.586,3202.00
1917.428,2690.00
1918.268,2763.00
1919.107,2652.00
1919.947,2548.00
1920.789,2677.00
1921.628,2965.00
1922.468,2710.00
1923.309,2601.00
1924.148,3033.00
1924.988,2822.00
1925.827,2682.00
1926.667,2617.00
1927.507,2794.00
1928.345,2578.00
1929.184,2908.00
1930.025,2585.00
1930.864,3026.00
1931.702,3041.00
1932.541,2628.00
1933.381,2864.00
1934.219,2899.00
1935.057,3036.00
1935.896,2435.00
1936.735,2708.00
1937.573,2645.00
1938.411,2538.00
1939.249,2908.00
1940.089,2638.00
1940.927,3033.00
1941.764,3034.00
1942.602,2656.00
1943.439,2640.00
1944.278,2712.00
1945.115,2670.00
1945.953,2493.00
1946.790,2809.00
1947.628,3096.00
1948.465,2856.00
1949.302,2888.00
1950.139,2879.00
1950.976,2598.00
1951.814,2909.00
1952.651,2789.00
1953.487,2553.00
1954.323,2986.00
1955.160,2729.00
1955.998,3086.00
1956.834,2738.00
1957.670,2834.00
1958.506,2972.00
1959.342,2871.00
1960.177,2789.00
1961.015,2881.00
1961.850,2789.00
1962.686,2788.00
1963.521,2754.00
1964.357,3030.00
1965.192,2555.00
1966.029,2895.00
1966.864,2704.00
1967.699,2957.00
1968.534,2824.00
1969.369,3039.00
1970.204,2730.00
1971.040,2768.00
1971.875,2698.00
1972.709,2784.00
1973.544,2578.00
1974.378,2652.00
1975.212,2849.00
1976.047,2644.00
1976.882,2605.00
1977.716,3144.00
1978.550,2465.00
1979.384,2694.00
1980.218,2724.00
1981.052,2679.00
1981.885,2816.00
1982.719,2758.00
1983.554,2952.00
1984.388,3065.00
1985.221,2875.00
1986.054,3028.00
1986.887,2821.00
1987.720,2584.00
1988.553,3066.00
1989.386,2818.00
1990.219,2936.00
1991.053,3091.00
1991.886,2637.00
1992.719,2961.00
1993.551,2268.00
1994.383,2928.00
1995.216,2698.00
1996.048,2518.00
1996.880,2927.00
1997.712,2636.00
1998.544,2785.00
1999.376,2837.00
2000.208,3041.00
2001.040,3218.00
2001.873,2593.00
2002.705,2574.00
2003.536,2815.00
2004.367,2786.00
2005.199,2808.00
2006.030,2671.00
2006.861,2537.00
2007.692,2806.00
2008.523,2612.00
2009.354,2760.00
2010.185,2567.00
2011.016,2923.00
2011.846,2964.00
2012.677,2729.00
2013.507,3117.00
2014.338,3015.00
2015.168,2698.00
2015.999,3284.00
2016.829,2706.00
2017.659,2954.00
2018.489,3263.00
2019.319,2584.00
2020.149,2916.00
2020.980,2773.00
2021.810,2585.00
2022.639,2622.00
2023.469,2660.00
2024.298,2493.00
2025.128,2399.00
2025.957,2399.00
2026.786,2209.00
2027.615,2393.00
2028.444,2602.00
2029.273,2798.00
2030.102,2382.00
2030.931,2618.00
2031.758,2918.00
2032.586,2533.00
2033.415,2628.00
2034.243,2256.00
2035.072,2037.00
2035.900,2489.00
2036.728,2335.00
2037.556,2364.00
2038.385,2384.00
2039.213,2211.00
2040.040,2163.00
2040.868,2163.00
2041.696,2233.00
2042.524,2221.00
2043.351,2418.00
2044.179,2230.00
2045.006,1991.00
