RamanScope Measure Spectrum Data V3.72

<< MEASURE CONDITION >>
Exposure Type,Aver
Exposure Time [sec],15
Exposure Count,30
Measure Time,2023/07/04 15:33:27
Data Name,""
Data Comment,""
Rayleigh Wave[nm],532.0

<< SAMPLE SPECTRUM >>
Wave[dcm-1],No267
146.591,488.90
147.626,569.07
148.664,647.83
149.699,811.10
150.737,930.97
151.772,1067.57
152.809,1212.60
153.846,1339.23
154.881,1452.33
155.918,1557.23
156.953,1615.77
157.989,1733.37
159.026,1795.07
160.060,1851.77
161.096,1916.67
162.130,1958.43
163.167,1971.43
164.200,2060.80
165.236,2098.13
166.272,2151.10
167.305,2196.50
168.341,2196.70
169.374,2185.17
170.409,2246.97
171.445,2279.60
172.477,2275.73
173.512,2340.57
174.545,2352.37
175.580,2309.37
176.614,2360.47
177.647,2367.53
178.681,2460.30
179.713,2409.50
180.747,2456.00
181.781,2431.07
182.813,2462.93
183.847,2459.97
184.878,2501.07
185.912,2494.43
186.945,2466.50
187.976,2477.97
189.010,2536.93
190.043,2525.50
191.073,2550.50
192.106,2560.10
193.137,2592.00
194.170,2548.87
195.202,2604.47
196.232,2657.10
197.265,2668.80
198.297,2683.67
199.327,2725.80
200.359,2769.50
201.388,2718.43
202.420,2806.00
203.452,2816.10
204.481,2826.67
205.512,2876.83
206.544,2895.43
207.573,2904.53
208.604,2899.03
209.635,3015.60
210.663,3037.07
211.694,3106.13
212.725,3171.43
213.753,3274.23
214.783,3347.93
215.813,3466.60
216.841,3667.87
217.871,3711.63
218.899,3949.07
219.929,4152.40
220.959,4451.50
221.986,4715.23
223.016,5028.67
224.045,5269.23
225.072,5498.97
226.101,5663.83
227.130,5777.33
228.157,5649.10
229.185,5485.53
230.214,5205.47
231.241,4917.80
232.269,4600.43
233.297,4280.27
234.323,4056.03
235.351,3842.10
236.379,3709.87
237.407,3631.50
238.433,3513.40
239.460,3397.23
240.488,3382.50
241.513,3339.27
242.540,3355.10
243.568,3343.53
244.592,3320.20
245.619,3296.57
246.646,3345.83
247.671,3354.23
248.697,3369.77
249.724,3380.33
250.748,3421.20
251.774,3422.53
252.801,3348.73
253.827,3327.97
254.850,3290.60
255.876,3243.13
256.902,3250.50
257.925,3272.17
258.951,3236.07
259.976,3263.00
260.999,3248.33
262.024,3334.73
263.049,3318.70
264.074,3278.73
265.097,3315.37
266.122,3399.20
267.146,3415.00
268.168,3438.93
269.193,3432.53
270.217,3446.47
271.241,3532.37
272.263,3608.10
273.287,3621.03
274.311,3683.80
275.332,3782.57
276.356,3873.37
277.379,4018.80
278.402,4044.23
279.424,4176.67
280.447,4291.73
281.470,4442.50
282.492,4578.90
283.513,4712.97
284.536,4786.63
285.558,4874.77
286.581,5011.70
287.601,5027.03
288.623,5017.27
289.645,5022.23
290.665,4960.80
291.687,4924.13
292.709,4842.37
293.730,4753.93
294.750,4651.33
295.771,4531.10
296.792,4412.30
297.813,4303.03
298.832,4206.73
299.853,4105.10
300.874,3941.60
301.895,3889.90
302.913,3785.83
303.934,3683.43
304.954,3569.57
305.975,3446.10
306.993,3326.47
308.013,3256.00
309.033,3206.47
310.052,3127.57
311.072,3085.90
312.090,3003.03
313.109,3003.00
314.129,2894.90
315.148,2888.00
316.165,2835.80
317.184,2799.97
318.203,2807.17
319.222,2739.27
320.238,2702.70
321.257,2628.40
322.275,2629.23
323.294,2655.93
324.312,2593.87
325.328,2560.40
326.346,2578.27
327.364,2515.77
328.382,2557.43
329.397,2544.30
330.415,2512.60
331.432,2440.67
332.450,2517.23
333.467,2486.20
334.482,2502.87
335.499,2410.47
336.516,2436.10
337.533,2455.90
338.547,2448.07
339.564,2463.93
340.580,2413.43
341.597,2424.80
342.613,2397.70
343.627,2387.47
344.643,2394.80
345.659,2345.67
346.675,2365.33
347.690,2368.70
348.704,2412.60
349.719,2414.73
350.735,2377.43
351.750,2318.47
352.765,2341.37
353.778,2342.47
354.793,2384.63
355.808,2351.37
356.822,2384.53
357.837,2339.67
358.851,2335.83
359.864,2371.60
360.878,2390.80
361.892,2354.93
362.906,2395.17
363.920,2404.47
364.932,2369.80
365.945,2386.93
366.959,2388.00
367.972,2403.90
368.986,2431.00
369.999,2422.87
371.010,2484.63
372.023,2485.07
373.036,2447.43
374.049,2501.57
375.061,2511.40
376.072,2532.80
377.084,2554.30
378.097,2554.57
379.109,2565.33
380.121,2624.60
381.133,2654.87
382.143,2706.93
383.155,2665.20
384.166,2727.03
385.178,2819.20
386.189,2806.73
387.201,2819.97
388.212,2854.23
389.221,2923.33
390.232,2966.83
391.243,2997.70
392.254,3006.20
393.264,3041.13
394.275,3060.50
395.283,3103.67
396.294,3151.23
397.304,3100.23
398.314,3122.10
399.324,3138.07
400.334,3135.63
401.344,3133.97
402.351,3179.17
403.361,3118.67
404.370,3056.37
405.380,3050.83
406.389,3027.87
407.398,3003.97
408.407,2989.70
409.414,2919.10
410.423,2890.83
411.431,2899.43
412.440,2823.87
413.448,2747.47
414.457,2737.83
415.465,2735.63
416.471,2679.70
417.479,2644.43
418.487,2595.30
419.495,2576.00
420.503,2540.90
421.510,2547.07
422.518,2509.90
423.525,2516.47
424.530,2472.40
425.537,2447.40
426.544,2443.43
427.551,2415.97
428.558,2357.80
429.565,2383.40
430.571,2407.13
431.578,2386.87
432.582,2391.43
433.588,2364.30
434.595,2353.30
435.601,2348.00
436.607,2297.60
437.612,2329.17
438.618,2286.53
439.624,2310.30
440.627,2276.47
441.633,2330.43
442.638,2293.20
443.643,2273.17
444.648,2297.43
445.653,2277.63
446.658,2310.63
447.663,2305.47
448.667,2336.63
449.672,2282.97
450.674,2280.00
451.678,2276.87
452.682,2332.40
453.687,2311.93
454.690,2323.27
455.694,2295.93
456.698,2282.13
457.702,2288.90
458.705,2300.10
459.709,2292.57
460.710,2266.50
461.713,2275.03
462.716,2319.20
463.719,2322.30
464.722,2326.87
465.725,2333.93
466.727,2331.53
467.730,2358.07
468.732,2316.37
469.735,2369.10
470.737,2331.77
471.737,2369.73
472.739,2318.17
473.741,2361.87
474.742,2357.03
475.744,2346.63
476.746,2407.20
477.747,2372.50
478.748,2409.70
479.750,2455.40
480.751,2415.57
481.752,2413.23
482.753,2422.17
483.751,2330.67
484.752,2384.07
485.753,2428.33
486.753,2389.63
487.753,2407.53
488.754,2450.83
489.754,2409.77
490.754,2365.67
491.754,2386.77
492.754,2427.30
493.753,2411.77
494.753,2427.60
495.752,2440.80
496.752,2410.90
497.749,2350.90
498.748,2386.13
499.747,2409.93
500.746,2396.00
501.745,2337.13
502.744,2378.10
503.742,2354.90
504.741,2319.80
505.739,2312.27
506.737,2323.93
507.735,2291.17
508.734,2280.13
509.732,2324.27
510.729,2309.03
511.727,2263.23
512.725,2274.00
513.720,2273.93
514.718,2268.00
515.715,2287.60
516.712,2229.63
517.709,2275.57
518.706,2248.03
519.703,2273.43
520.700,2254.90
521.696,2241.80
522.693,2206.80
523.689,2212.90
524.686,2234.60
525.682,2249.53
526.678,2235.57
527.674,2188.83
528.670,2239.37
529.666,2277.70
530.661,2236.70
531.657,2272.10
532.652,2262.87
533.648,2258.37
534.641,2337.17
535.636,2281.83
536.631,2315.27
537.626,2268.37
538.621,2324.63
539.616,2317.87
540.610,2339.57
541.605,2320.20
542.599,2315.77
543.593,2345.40
544.587,2338.83
545.581,2376.13
546.575,2379.60
547.569,2374.50
548.563,2398.90
549.557,2368.00
550.550,2350.77
551.543,2408.80
552.537,2388.70
553.530,2424.20
554.523,2386.50
555.516,2479.27
556.509,2418.57
557.502,2441.17
558.494,2421.03
559.487,2424.47
560.479,2419.33
561.472,2436.77
562.464,2388.23
563.456,2408.30
564.448,2435.03
565.440,2468.47
566.432,2442.23
567.423,2486.53
568.415,2385.20
569.404,2483.27
570.396,2430.13
571.387,2445.67
572.378,2513.70
573.369,2517.90
574.360,2499.27
575.351,2502.27
576.341,2510.23
577.332,2568.17
578.323,2560.67
579.313,2562.00
580.303,2571.03
581.293,2612.63
582.283,2624.43
583.273,2637.07
584.263,2616.23
585.253,2653.30
586.243,2624.03
587.232,2651.00
588.222,2663.40
589.211,2688.20
590.200,2663.00
591.189,2727.37
592.178,2744.67
593.167,2733.67
594.156,2714.70
595.145,2744.47
596.133,2724.27
597.122,2732.13
598.110,2751.30
599.098,2758.53
600.086,2714.47
601.074,2719.93
602.062,2697.37
603.050,2741.93
604.038,2643.87
605.025,2707.40
606.013,2663.83
607.000,2682.77
607.987,2603.07
608.975,2626.73
609.962,2584.47
610.949,2575.17
611.936,2598.93
612.922,2518.33
613.909,2574.37
614.895,2575.13
615.882,2553.30
616.868,2544.97
617.854,2527.67
618.841,2539.13
619.826,2496.23
620.812,2501.60
621.798,2452.67
622.784,2443.93
623.769,2498.93
624.755,2457.53
625.740,2437.73
626.725,2429.43
627.711,2415.53
628.698,2434.27
629.683,2407.23
630.667,2412.57
631.652,2342.90
632.637,2352.17
633.621,2324.03
634.606,2262.17
635.590,2320.60
636.574,2263.97
637.558,2265.37
638.542,2232.37
639.526,2258.63
640.510,2250.60
641.493,2169.93
642.477,2183.63
643.460,2175.13
644.444,2178.10
645.427,2171.90
646.410,2163.93
647.393,2105.57
648.376,2140.30
649.359,2109.20
650.341,2125.37
651.324,2080.67
652.307,2112.47
653.289,2094.90
654.271,2090.03
655.253,2088.10
656.235,2041.13
657.217,2056.13
658.199,2030.00
659.181,2055.97
660.163,2035.47
661.144,2005.90
662.126,2008.73
663.107,1973.77
664.088,1990.27
665.069,1976.00
666.050,1961.83
667.033,1986.70
668.014,1937.33
668.995,1930.20
669.975,1953.00
670.956,1922.27
671.936,1906.10
672.916,1913.83
673.896,1966.47
674.876,1926.87
675.856,1897.57
676.836,1911.20
677.816,1888.37
678.795,1872.60
679.775,1886.90
680.754,1848.23
681.734,1858.80
682.713,1851.43
683.692,1857.87
684.671,1815.93
685.650,1797.60
686.629,1837.00
687.607,1815.23
688.586,1782.00
689.564,1795.00
690.543,1784.20
691.523,1774.43
692.501,1771.33
693.479,1751.27
694.457,1760.50
695.435,1728.53
696.413,1767.23
697.390,1743.80
698.368,1694.67
699.345,1694.97
700.322,1716.97
701.300,1656.73
702.277,1710.33
703.254,1711.57
704.231,1660.17
705.207,1701.97
706.184,1642.50
707.161,1678.20
708.137,1655.17
709.113,1640.50
710.090,1617.73
711.068,1637.23
712.044,1621.73
713.020,1653.20
713.996,1639.97
714.971,1582.60
715.947,1612.90
716.922,1607.90
717.898,1597.07
718.873,1599.20
719.848,1613.17
720.823,1582.83
721.798,1570.60
722.773,1605.63
723.748,1566.60
724.723,1562.50
725.697,1575.63
726.672,1549.07
727.646,1534.80
728.622,1563.13
729.596,1558.30
730.570,1528.30
731.544,1494.60
732.518,1532.47
733.492,1546.40
734.466,1545.47
735.439,1506.17
736.413,1484.87
737.386,1476.60
738.359,1527.80
739.332,1514.93
740.305,1483.97
741.278,1458.43
742.251,1463.47
743.224,1499.23
744.196,1498.67
745.171,1456.83
746.143,1406.43
747.115,1476.50
748.087,1439.77
749.059,1463.13
750.031,1432.73
751.003,1421.37
751.975,1416.60
752.947,1451.00
753.918,1447.73
754.890,1430.10
755.861,1392.27
756.832,1455.53
757.803,1415.23
758.774,1438.53
759.747,1417.63
760.718,1440.83
761.689,1411.33
762.659,1407.43
763.630,1420.10
764.600,1420.23
765.570,1413.33
766.540,1404.10
767.510,1375.00
768.480,1390.27
769.450,1415.40
770.420,1374.70
771.390,1384.10
772.359,1364.10
773.329,1395.23
774.300,1371.97
775.269,1395.47
776.238,1386.37
777.207,1376.90
778.176,1328.47
779.145,1337.87
780.114,1375.90
781.083,1371.53
782.051,1341.50
783.019,1353.50
783.988,1361.37
784.956,1362.80
785.924,1321.63
786.894,1323.47
787.862,1358.63
788.830,1349.80
789.797,1350.40
790.765,1326.53
791.732,1309.00
792.700,1279.93
793.667,1306.87
794.634,1333.63
795.601,1324.63
796.568,1336.57
797.535,1327.07
798.502,1330.27
799.468,1272.77
800.437,1293.63
801.403,1319.43
802.370,1260.23
803.336,1295.50
804.302,1299.47
805.268,1301.77
806.234,1255.47
807.200,1294.57
808.166,1224.53
809.131,1266.87
810.097,1261.87
811.062,1202.87
812.027,1248.23
812.994,1253.07
813.960,1240.87
814.925,1219.30
815.889,1227.53
816.854,1250.47
817.819,1236.37
818.783,1256.63
819.748,1223.10
820.712,1214.87
821.677,1225.50
822.641,1170.10
823.605,1213.23
824.571,1214.67
825.534,1189.73
826.498,1233.47
827.462,1179.57
828.425,1232.53
829.389,1240.50
830.352,1180.83
831.315,1214.43
832.279,1185.23
833.242,1195.37
834.204,1203.63
835.167,1215.83
836.132,1190.80
837.095,1199.30
838.057,1169.77
839.020,1195.83
839.982,1158.37
840.944,1165.50
841.906,1156.00
842.868,1168.07
843.830,1191.47
844.792,1177.87
845.753,1171.83
846.715,1186.37
847.679,1194.57
848.640,1162.43
849.601,1173.37
850.562,1191.77
851.523,1159.40
852.484,1178.30
853.445,1190.47
854.406,1174.03
855.367,1155.00
856.327,1154.43
857.288,1175.07
858.248,1179.23
859.210,1149.47
860.170,1171.20
861.130,1172.73
862.090,1150.50
863.050,1147.10
864.010,1148.97
864.969,1175.07
865.929,1147.70
866.888,1169.97
867.848,1174.40
868.807,1121.77
869.766,1148.60
870.727,1197.83
871.686,1126.13
872.645,1153.77
873.604,1163.47
874.562,1151.70
875.521,1170.43
876.479,1101.37
877.437,1135.57
878.396,1131.33
879.354,1175.23
880.312,1115.07
881.270,1185.53
882.229,1107.67
883.187,1160.20
884.145,1139.87
885.102,1168.07
886.059,1142.63
887.017,1133.50
887.974,1149.57
888.931,1105.17
889.888,1161.60
890.845,1144.13
891.802,1152.43
892.758,1108.70
893.717,1131.47
894.673,1155.07
895.630,1153.23
896.586,1148.97
897.542,1127.13
898.498,1163.13
899.454,1141.13
900.410,1144.63
901.366,1127.90
902.321,1159.73
903.277,1173.27
904.232,1137.30
905.189,1139.20
906.145,1148.60
907.100,1188.63
908.055,1167.20
909.010,1154.73
909.965,1143.33
910.919,1171.37
911.874,1144.90
912.828,1129.83
913.783,1140.83
914.737,1154.90
915.693,1160.40
916.648,1178.73
917.602,1176.17
918.555,1165.27
919.509,1173.70
920.463,1183.40
921.417,1206.93
922.370,1181.23
923.324,1182.60
924.277,1163.37
925.230,1183.33
926.183,1159.20
927.138,1231.10
928.091,1196.90
929.044,1198.20
929.996,1208.37
930.949,1214.47
931.902,1183.93
932.854,1191.57
933.806,1177.40
934.758,1230.03
935.711,1175.27
936.663,1209.90
937.614,1186.00
938.568,1210.43
939.520,1205.83
940.471,1231.93
941.423,1172.80
942.374,1232.97
943.326,1224.37
944.277,1250.07
945.228,1218.17
946.179,1229.93
947.130,1215.87
948.080,1218.20
949.031,1217.27
949.984,1243.67
950.934,1241.10
951.884,1214.77
952.835,1201.13
953.785,1166.00
954.735,1200.43
955.685,1221.60
956.635,1238.57
957.585,1273.70
958.534,1228.97
959.484,1230.37
960.433,1221.40
961.383,1189.23
962.334,1175.07
963.283,1217.50
964.232,1256.10
965.181,1210.87
966.130,1201.87
967.079,1200.00
968.027,1200.40
968.976,1219.03
969.924,1220.53
970.873,1194.93
971.821,1272.70
972.769,1195.67
973.719,1223.80
974.667,1223.33
975.615,1240.43
976.562,1209.47
977.510,1242.47
978.458,1236.13
979.405,1270.00
980.352,1275.43
981.300,1249.23
982.247,1213.57
983.194,1217.73
984.141,1255.50
985.088,1231.60
986.036,1222.87
986.983,1226.93
987.930,1255.10
988.876,1262.67
989.822,1268.20
990.769,1245.30
991.715,1269.67
992.661,1282.90
993.607,1252.03
994.553,1252.67
995.498,1269.20
996.444,1277.23
997.389,1286.87
998.337,1217.33
999.282,1284.07
1000.227,1243.27
1001.173,1292.13
1002.118,1280.00
1003.062,1283.07
1004.007,1277.70
1004.952,1260.23
1005.897,1292.70
1006.841,1267.03
1007.786,1266.93
1008.730,1287.37
1009.674,1267.77
1010.618,1264.13
1011.564,1283.80
1012.508,1320.77
1013.452,1283.13
1014.396,1344.70
1015.339,1312.37
1016.283,1311.97
1017.226,1306.00
1018.170,1312.97
1019.113,1327.43
1020.056,1354.03
1020.999,1308.37
1021.942,1306.57
1022.885,1362.23
1023.828,1311.23
1024.770,1362.10
1025.715,1328.37
1026.657,1322.70
1027.600,1381.60
1028.542,1346.87
1029.484,1349.00
1030.426,1359.43
1031.368,1348.20
1032.310,1391.03
1033.251,1373.47
1034.193,1376.47
1035.135,1369.17
1036.076,1366.03
1037.017,1404.13
1037.959,1353.80
1038.900,1368.73
1039.843,1408.10
1040.784,1341.87
1041.725,1380.83
1042.665,1423.07
1043.606,1430.43
1044.547,1415.00
1045.487,1438.37
1046.427,1454.40
1047.368,1433.30
1048.308,1399.67
1049.248,1439.30
1050.188,1392.20
1051.128,1483.80
1052.067,1418.17
1053.007,1459.60
1053.947,1425.90
1054.886,1456.83
1055.827,1452.50
1056.766,1477.63
1057.706,1477.30
1058.645,1452.13
1059.584,1470.73
1060.522,1467.37
1061.461,1498.40
1062.400,1497.47
1063.338,1517.80
1064.277,1506.40
1065.215,1522.70
1066.154,1505.07
1067.092,1499.70
1068.030,1541.37
1068.968,1510.90
1069.906,1534.77
1070.843,1531.60
1071.781,1560.37
1072.720,1554.80
1073.658,1530.53
1074.595,1570.50
1075.533,1570.30
1076.470,1587.73
1077.407,1557.80
1078.344,1591.27
1079.281,1608.03
1080.217,1597.37
1081.154,1582.37
1082.091,1608.10
1083.027,1604.37
1083.964,1609.87
1084.900,1616.90
1085.836,1617.30
1086.772,1589.80
1087.708,1607.70
1088.644,1632.00
1089.580,1577.93
1090.515,1634.00
1091.451,1651.43
1092.388,1612.63
1093.324,1629.30
1094.259,1589.97
1095.194,1597.47
1096.129,1626.83
1097.064,1607.43
1097.999,1595.23
1098.934,1626.20
1099.869,1612.97
1100.803,1632.57
1101.738,1615.93
1102.672,1594.27
1103.607,1584.60
1104.541,1583.97
1105.475,1601.23
1106.409,1591.37
1107.343,1596.03
1108.277,1588.33
1109.210,1537.93
1110.144,1550.30
1111.078,1567.70
1112.011,1531.93
1112.944,1571.63
1113.878,1563.03
1114.811,1505.23
1115.744,1534.67
1116.678,1495.53
1117.611,1513.53
1118.544,1508.40
1119.477,1508.03
1120.409,1480.70
1121.342,1490.63
1122.274,1481.90
1123.206,1459.33
1124.138,1443.47
1125.070,1421.03
1126.002,1452.40
1126.934,1417.47
1127.866,1429.53
1128.798,1412.90
1129.729,1418.90
1130.661,1421.63
1131.592,1462.83
1132.523,1433.10
1133.454,1369.87
1134.385,1406.53
1135.317,1416.77
1136.247,1403.90
1137.178,1376.50
1138.109,1391.53
1139.039,1369.30
1139.970,1349.37
1140.900,1372.13
1141.831,1353.10
1142.761,1320.33
1143.691,1373.57
1144.621,1342.00
1145.551,1297.30
1146.480,1387.57
1147.410,1323.93
1148.340,1333.80
1149.269,1321.37
1150.199,1328.07
1151.128,1309.53
1152.057,1275.93
1152.979,1306.97
1153.898,1356.03
1154.819,1310.57
1155.739,1311.80
1156.658,1278.17
1157.579,1278.37
1158.498,1302.03
1159.419,1334.47
1160.338,1297.93
1161.256,1290.03
1162.177,1296.50
1163.095,1302.43
1164.016,1271.57
1164.934,1275.93
1165.852,1265.70
1166.772,1278.60
1167.690,1288.40
1168.610,1247.87
1169.528,1287.90
1170.446,1286.67
1171.365,1264.40
1172.283,1264.73
1173.202,1250.40
1174.120,1269.40
1175.037,1259.13
1175.956,1236.83
1176.873,1221.37
1177.792,1250.03
1178.709,1234.50
1179.626,1218.40
1180.544,1265.67
1181.461,1254.87
1182.379,1216.53
1183.296,1249.67
1184.212,1255.43
1185.130,1236.43
1186.046,1278.43
1186.962,1254.00
1187.880,1220.03
1188.796,1216.60
1189.714,1243.60
1190.629,1267.97
1191.545,1217.87
1192.462,1222.77
1193.378,1257.90
1194.295,1247.20
1195.210,1236.03
1196.125,1248.90
1197.042,1200.00
1197.957,1257.43
1198.872,1226.00
1199.788,1261.37
1200.703,1239.00
1201.619,1261.43
1202.534,1271.43
1203.448,1257.07
1204.364,1275.77
1205.278,1279.63
1206.192,1233.80
1207.108,1286.40
1208.022,1249.40
1208.938,1259.83
1209.851,1252.00
1210.765,1210.83
1211.680,1294.90
1212.594,1258.33
1213.507,1253.47
1214.422,1256.43
1215.335,1276.77
1216.248,1291.83
1217.163,1300.17
1218.076,1317.13
1218.990,1303.67
1219.903,1266.70
1220.816,1266.57
1221.730,1298.47
1222.642,1318.40
1223.554,1328.97
1224.469,1333.23
1225.380,1308.03
1226.292,1319.97
1227.206,1314.93
1228.118,1339.87
1229.032,1325.43
1229.943,1344.67
1230.855,1298.53
1231.768,1365.80
1232.679,1357.33
1233.590,1359.77
1234.503,1333.90
1235.414,1350.40
1236.325,1360.50
1237.238,1389.20
1238.149,1359.23
1239.059,1416.73
1239.972,1412.77
1240.882,1354.37
1241.793,1425.40
1242.705,1419.20
1243.615,1434.67
1244.525,1403.67
1245.437,1431.53
1246.347,1431.43
1247.259,1442.70
1248.168,1484.70
1249.078,1436.33
1249.989,1516.30
1250.899,1445.77
1251.808,1445.37
1252.719,1468.83
1253.628,1488.70
1254.537,1483.10
1255.448,1512.43
1256.357,1499.87
1257.266,1486.53
1258.176,1512.50
1259.085,1517.57
1259.993,1509.73
1260.904,1533.73
1261.812,1507.23
1262.720,1527.43
1263.630,1550.50
1264.538,1558.23
1265.446,1543.83
1266.356,1570.57
1267.263,1547.17
1268.171,1577.97
1269.080,1609.07
1269.988,1594.87
1270.895,1640.13
1271.804,1597.60
1272.711,1595.03
1273.619,1609.17
1274.527,1585.37
1275.434,1639.33
1276.341,1592.80
1277.248,1643.73
1278.156,1599.30
1279.063,1639.40
1279.969,1627.87
1280.877,1641.80
1281.783,1629.30
1282.690,1608.33
1283.598,1659.27
1284.503,1610.60
1285.409,1626.57
1286.317,1668.17
1287.223,1633.30
1288.128,1621.53
1289.036,1673.13
1289.941,1658.27
1290.846,1647.63
1291.751,1654.53
1292.658,1641.87
1293.563,1613.70
1294.468,1642.87
1295.375,1615.03
1296.280,1633.40
1297.184,1595.97
1298.091,1633.23
1298.995,1634.20
1299.900,1584.70
1300.806,1625.13
1301.710,1585.13
1302.614,1617.63
1303.518,1620.33
1304.424,1583.63
1305.327,1625.37
1306.231,1571.87
1307.137,1614.03
1308.040,1585.47
1308.943,1603.10
1309.847,1553.80
1310.752,1566.60
1311.655,1539.50
1312.558,1550.60
1313.463,1492.30
1314.366,1522.17
1315.269,1452.13
1316.171,1500.33
1317.076,1489.37
1317.978,1499.43
1318.881,1475.93
1319.785,1480.80
1320.687,1441.40
1321.589,1434.60
1322.491,1459.57
1323.395,1432.60
1324.297,1429.33
1325.198,1426.60
1326.102,1437.33
1327.004,1427.70
1327.905,1403.90
1328.806,1401.53
1329.709,1404.67
1330.611,1429.50
1331.512,1406.23
1332.413,1378.67
1333.316,1354.70
1334.216,1361.27
1335.117,1323.60
1336.020,1349.93
1336.920,1317.17
1337.821,1356.53
1338.721,1299.73
1339.623,1324.33
1340.523,1307.30
1341.423,1285.40
1342.323,1284.00
1343.225,1240.77
1344.125,1263.40
1345.025,1220.10
1345.924,1243.03
1346.826,1236.20
1347.725,1167.10
1348.624,1213.50
1349.524,1225.77
1350.425,1247.20
1351.324,1213.17
1352.223,1205.10
1353.121,1216.83
1354.022,1199.13
1354.921,1206.90
1355.819,1142.93
1356.718,1155.20
1357.618,1153.90
1358.516,1163.27
1359.415,1148.70
1360.313,1140.30
1361.213,1144.33
1362.111,1087.70
1363.008,1103.47
1363.906,1120.53
1364.806,1136.83
1365.703,1107.77
1366.601,1086.33
1367.498,1099.53
1368.397,1101.53
1369.295,1081.13
1370.192,1086.90
1371.089,1082.97
1371.987,1091.63
1372.884,1083.17
1373.781,1098.47
1374.678,1094.67
1375.574,1078.93
1376.473,1064.60
1377.369,1026.23
1378.265,1057.73
1379.161,1037.60
1380.059,1040.40
1380.955,1012.33
1381.851,1039.77
1382.747,1014.90
1383.643,1024.00
1384.540,1036.80
1385.436,1034.30
1386.331,998.80
1387.227,1042.97
1388.124,1016.47
1389.019,1010.27
1389.914,996.50
1390.809,986.87
1391.704,1014.27
1392.601,988.27
1393.495,1035.63
1394.390,964.97
1395.285,987.10
1396.179,979.70
1397.075,959.10
1397.969,984.43
1398.864,993.70
1399.758,971.40
1400.652,1007.97
1401.547,988.97
1402.441,951.13
1403.335,984.10
1404.229,992.07
1405.122,955.97
1406.017,943.77
1406.911,987.13
1407.804,968.40
1408.697,959.90
1409.590,924.90
1410.485,958.07
1411.378,957.10
1412.271,944.33
1413.163,986.80
1414.056,999.50
1414.949,979.53
1415.843,956.83
1416.735,1008.67
1417.627,918.30
1418.520,937.60
1419.412,924.10
1420.306,941.87
1421.197,947.77
1422.089,917.23
1422.981,933.23
1423.873,937.73
1424.764,922.97
1425.657,920.33
1426.549,893.07
1427.440,918.73
1428.331,967.57
1429.222,948.13
1430.113,901.93
1431.006,908.73
1431.897,868.43
1432.787,873.00
1433.678,905.77
1434.568,873.43
1435.459,908.87
1436.351,870.73
1437.241,920.97
1438.131,892.03
1439.021,864.73
1439.911,892.47
1440.801,894.17
1441.693,882.83
1442.583,883.53
1443.472,879.07
1444.362,874.67
1445.251,834.90
1446.140,853.80
1447.030,884.97
1447.921,800.03
1448.810,855.93
1449.699,858.70
1450.588,823.53
1451.476,824.60
1452.365,815.57
1453.254,853.87
1454.144,821.97
1455.032,846.30
1455.921,820.97
1456.809,811.27
1457.697,848.30
1458.585,831.83
1459.473,855.77
1460.361,837.13
1461.251,783.77
1462.138,828.37
1463.026,833.70
1463.913,797.47
1464.801,790.43
1465.688,849.97
1466.575,781.87
1467.463,769.47
1468.351,818.43
1469.238,816.43
1470.125,795.97
1471.012,781.63
1471.899,815.80
1472.785,760.97
1473.672,774.83
1474.558,798.97
1475.446,768.10
1476.333,783.20
1477.219,766.73
1478.105,763.27
1478.991,796.27
1479.877,761.03
1480.762,775.10
1481.648,749.30
1482.534,762.23
1483.419,778.07
1484.307,776.07
1485.192,803.67
1486.077,746.87
1486.962,768.10
1487.847,782.57
1488.732,743.47
1489.617,750.23
1490.502,806.80
1491.387,741.83
1492.271,761.73
1493.156,762.77
1494.042,763.57
1494.927,734.17
1495.811,733.53
1496.695,744.47
1497.579,745.07
1498.463,716.00
1499.347,734.13
1500.231,744.80
1501.114,738.27
1501.998,720.50
1502.881,719.77
1503.765,725.50
1504.648,718.80
1505.533,714.03
1506.417,740.90
1507.300,707.13
1508.183,720.97
1509.066,743.40
1509.948,744.23
1510.831,723.90
1511.714,711.03
1512.596,722.83
1513.479,715.53
1514.361,677.97
1515.243,724.47
1516.125,700.37
1517.008,706.07
1517.890,727.47
1518.771,693.37
1519.655,716.67
1520.537,699.20
1521.419,723.77
1522.300,682.00
1523.182,701.13
1524.063,692.73
1524.944,694.37
1525.825,705.83
1526.707,723.27
1527.588,684.80
1528.468,709.87
1529.349,684.53
1530.230,708.83
1531.111,696.07
1531.991,659.97
1532.872,660.33
1533.752,688.97
1534.632,696.27
1535.513,657.33
1536.393,647.40
1537.273,676.47
1538.153,669.90
1539.032,672.53
1539.912,647.73
1540.792,670.47
1541.672,690.93
1542.551,650.80
1543.430,729.97
1544.310,648.40
1545.189,672.33
1546.068,681.10
1546.947,701.77
1547.826,676.77
1548.705,674.37
1549.584,692.57
1550.462,675.43
1551.341,689.03
1552.219,657.07
1553.098,683.23
1553.976,634.87
1554.854,673.00
1555.733,665.53
1556.611,666.80
1557.489,631.73
1558.367,651.07
1559.244,665.80
1560.122,649.63
1561.000,636.87
1561.877,627.33
1562.755,646.50
1563.632,651.00
1564.509,662.07
1565.386,665.20
1566.264,646.40
1567.141,681.53
1568.017,646.90
1568.894,656.37
1569.771,649.30
1570.648,674.60
1571.524,632.73
1572.401,641.20
1573.277,671.30
1574.153,619.67
1575.029,641.43
1575.906,669.10
1576.781,676.27
1577.657,634.10
1578.533,638.77
1579.409,689.93
1580.285,610.03
1581.160,619.43
1582.036,614.10
1582.911,608.90
1583.786,633.23
1584.662,628.00
1585.537,640.70
1586.412,653.97
1587.287,618.13
1588.160,622.63
1589.035,639.63
1589.909,622.83
1590.784,608.60
1591.658,651.80
1592.533,636.63
1593.407,594.73
1594.281,662.27
1595.155,653.93
1596.029,615.00
1596.903,619.90
1597.777,644.23
1598.651,632.33
1599.525,624.60
1600.398,642.67
1601.272,608.27
1602.144,618.17
1603.017,628.30
1603.890,600.90
1604.763,614.13
1605.636,596.33
1606.509,646.30
1607.382,625.03
1608.255,613.37
1609.128,604.03
1610.000,606.80
1610.873,599.60
1611.746,566.73
1612.616,602.60
1613.488,614.13
1614.361,621.63
1615.233,577.27
1616.105,585.13
1616.977,589.17
1617.849,610.93
1618.720,605.03
1619.592,623.13
1620.464,606.87
1621.333,605.83
1622.205,571.53
1623.076,609.00
1623.947,642.13
1624.818,658.83
1625.689,589.77
1626.560,604.00
1627.431,634.77
1628.302,572.47
1629.171,608.90
1630.042,640.67
1630.912,606.90
1631.782,586.57
1632.653,613.53
1633.523,615.83
1634.393,644.70
1635.263,590.73
1636.131,552.40
1637.001,601.03
1637.871,581.20
1638.741,579.37
1639.611,594.90
1640.480,584.63
1641.350,571.63
1642.219,602.83
1643.087,594.80
1643.956,567.50
1644.825,568.70
1645.694,590.80
1646.563,592.87
1647.432,572.40
1648.299,555.53
1649.167,582.57
1650.036,581.40
1650.904,579.10
1651.773,578.23
1652.641,584.77
1653.509,588.67
1654.376,586.17
1655.244,555.40
1656.112,630.57
1656.980,576.50
1657.847,563.60
1658.715,587.07
1659.581,592.30
1660.448,552.90
1661.316,580.30
1662.183,564.67
1663.051,567.20
1663.918,575.40
1664.783,594.87
1665.650,586.83
1666.517,578.03
1667.384,573.67
1668.251,558.03
1669.115,581.23
1669.982,527.47
1670.849,587.80
1671.715,588.10
1672.581,586.23
1673.446,568.30
1674.312,557.53
1675.178,590.57
1676.044,563.07
1676.910,536.67
1677.774,571.60
1678.639,560.77
1679.505,586.60
1680.370,583.73
1681.236,566.07
1682.099,551.90
1682.965,610.70
1683.830,546.20
1684.695,543.17
1685.560,562.70
1686.423,560.20
1687.288,566.73
1688.153,555.53
1689.017,567.20
1689.880,567.23
1690.745,571.30
1691.609,580.73
1692.473,587.37
1693.338,570.27
1694.200,537.37
1695.064,578.47
1695.928,540.93
1696.792,551.13
1697.654,568.60
1698.517,537.87
1699.381,583.27
1700.245,558.23
1701.106,588.53
1701.969,501.13
1702.833,557.23
1703.696,561.43
1704.557,553.70
1705.420,518.83
1706.283,559.07
1707.146,564.07
1708.007,536.03
1708.870,547.93
1709.732,534.07
1710.595,544.23
1711.455,560.10
1712.318,569.83
1713.180,563.77
1714.040,558.73
1714.902,513.70
1715.764,574.07
1716.626,540.80
1717.486,562.63
1718.348,540.60
1719.209,439.60
1720.071,553.03
1720.930,531.13
1721.792,549.63
1722.653,531.43
1723.512,552.00
1724.374,488.27
1725.234,553.67
1726.095,538.57
1726.954,532.43
1727.815,520.20
1728.676,525.50
1729.535,547.07
1730.395,551.40
1731.256,540.77
1732.114,555.17
1732.974,529.97
1733.834,537.60
1734.693,543.20
1735.553,512.43
1736.413,530.03
1737.272,542.73
1738.130,492.30
1738.990,524.33
1739.849,498.27
1740.707,534.90
1741.566,530.37
1742.426,559.20
1743.283,521.53
1744.142,530.67
1745.001,538.47
1745.858,530.93
1746.717,559.47
1747.576,563.63
1748.433,550.10
1749.292,601.00
1750.150,553.53
1751.007,551.77
1751.865,531.80
1752.723,504.63
1753.579,569.33
1754.438,522.97
1755.296,535.57
1756.152,515.47
1757.010,500.20
1757.865,534.00
1758.723,512.60
1759.581,531.63
1760.436,522.60
1761.294,558.60
1762.151,556.07
1763.006,524.43
1763.864,539.20
1764.721,522.80
1765.576,517.83
1766.433,524.40
1767.288,535.93
1768.144,568.57
1769.001,516.30
1769.856,511.23
1770.712,546.23
1771.568,526.37
1772.423,517.13
1773.279,534.50
1774.133,492.73
1774.989,533.73
1775.845,554.53
1776.699,540.83
1777.555,522.53
1778.409,538.47
1779.265,495.83
1780.120,551.07
1780.974,534.50
1781.829,507.57
1782.682,518.93
1783.538,533.97
1784.393,530.07
1785.246,533.47
1786.101,511.23
1786.954,516.23
1787.808,502.60
1788.661,487.37
1789.516,553.20
1790.370,520.23
1791.223,539.73
1792.077,526.57
1792.930,490.27
1793.784,532.40
1794.636,525.80
1795.490,493.20
1796.344,542.13
1797.196,527.27
1798.049,520.37
1798.901,523.07
1799.755,529.47
1800.606,495.60
1801.460,496.73
1802.311,511.23
1803.165,536.30
1804.018,523.40
1804.869,512.60
1805.722,576.43
1806.573,499.27
1807.426,508.03
1808.276,530.07
1809.129,556.47
1809.980,508.07
1810.832,523.20
1811.683,526.77
1812.535,532.47
1813.385,496.70
1814.237,538.77
1815.089,512.53
1815.940,517.97
1816.791,539.17
1817.641,497.60
1818.493,521.70
1819.343,497.13
1820.194,486.93
1821.044,495.37
1821.895,509.87
1822.745,483.60
1823.596,528.07
1824.445,528.37
1825.296,502.53
1826.145,498.47
1826.996,524.80
1827.845,552.20
1828.695,500.37
1829.544,554.13
1830.395,542.27
1831.243,516.30
1832.094,510.73
1832.942,508.77
1833.792,506.83
1834.640,509.83
1835.490,488.93
1836.338,494.17
1837.186,503.33
1838.036,510.77
1838.884,505.63
1839.733,515.30
1840.581,482.17
1841.430,501.63
1842.278,497.73
1843.127,505.17
1843.974,514.17
1844.823,493.40
1845.671,475.53
1846.519,528.23
1847.366,495.60
1848.213,503.13
1849.062,509.50
1849.909,498.90
1850.757,540.00
1851.604,484.57
1852.452,519.07
1853.298,499.73
1854.146,519.60
1854.993,502.90
1855.839,516.50
1856.687,514.20
1857.532,521.47
1858.380,489.10
1859.226,484.70
1860.073,485.43
1860.919,480.73
1861.765,491.07
1862.612,489.20
1863.457,492.07
1864.304,525.57
1865.150,477.30
1865.995,480.07
1866.842,453.17
1867.686,484.60
1868.533,490.73
1869.378,522.50
1870.223,475.90
1871.069,499.23
1871.914,486.63
1872.760,502.53
1873.604,492.57
1874.448,485.03
1875.294,451.33
1876.139,517.20
1876.984,503.07
1877.828,491.47
1878.672,528.87
1879.518,474.30
1880.361,500.63
1881.205,506.17
1882.050,476.37
1882.894,483.50
1883.739,502.83
1884.582,518.37
1885.425,481.33
1886.270,528.27
1887.113,496.10
1887.956,523.57
1888.801,495.80
1889.644,505.23
1890.486,492.80
1891.331,487.30
1892.173,487.27
1893.017,472.63
1893.860,491.37
1894.702,513.03
1895.546,468.13
1896.388,453.17
1897.230,448.43
1898.074,488.53
1898.916,495.30
1899.757,512.63
1900.601,489.50
1901.443,479.27
1902.284,499.80
1903.125,532.93
1903.969,526.03
1904.810,489.97
1905.651,512.23
1906.494,499.90
1907.335,467.37
1908.176,521.33
1909.018,489.93
1909.859,457.17
1910.700,476.63
1911.542,488.60
1912.383,493.93
1913.223,474.37
1914.064,505.10
1914.906,502.70
1915.746,492.80
1916.586,484.23
1917.428,474.60
1918.268,506.37
1919.107,463.43
1919.947,440.23
1920.789,475.80
1921.628,508.27
1922.468,490.63
1923.309,478.20
1924.148,483.93
1924.988,481.40
1925.827,492.83
1926.667,500.30
1927.507,496.17
1928.345,482.93
1929.184,482.70
1930.025,448.97
1930.864,498.97
1931.702,522.80
1932.541,470.90
1933.381,508.70
1934.219,469.97
1935.057,520.47
1935.896,477.20
1936.735,499.70
1937.573,457.77
1938.411,498.73
1939.249,507.67
1940.089,482.80
1940.927,500.03
1941.764,426.93
1942.602,485.93
1943.439,481.53
1944.278,498.13
1945.115,499.73
1945.953,497.87
1946.790,471.97
1947.628,461.83
1948.465,470.50
1949.302,509.83
1950.139,510.93
1950.976,456.07
1951.814,450.93
1952.651,485.67
1953.487,480.97
1954.323,448.97
1955.160,481.77
1955.998,478.50
1956.834,470.23
1957.670,435.73
1958.506,482.40
1959.342,499.63
1960.177,463.73
1961.015,472.60
1961.850,485.87
1962.686,448.27
1963.521,460.67
1964.357,459.73
1965.192,492.93
1966.029,490.27
1966.864,491.93
1967.699,457.37
1968.534,499.57
1969.369,448.97
1970.204,454.33
1971.040,463.03
1971.875,476.77
1972.709,476.27
1973.544,498.30
1974.378,461.00
1975.212,427.10
1976.047,469.40
1976.882,466.77
1977.716,467.67
1978.550,496.40
1979.384,464.17
1980.218,501.43
1981.052,430.80
1981.885,450.03
1982.719,444.10
1983.554,513.13
1984.388,468.50
1985.221,486.70
1986.054,477.47
1986.887,446.43
1987.720,480.97
1988.553,487.97
1989.386,496.47
1990.219,481.40
1991.053,484.17
1991.886,482.90
1992.719,464.83
1993.551,490.37
1994.383,495.27
1995.216,498.70
1996.048,477.27
1996.880,496.07
1997.712,476.07
1998.544,437.93
1999.376,486.73
2000.208,521.43
2001.040,478.03
2001.873,499.40
2002.705,457.47
2003.536,443.47
2004.367,456.13
2005.199,487.17
2006.030,467.17
2006.861,453.07
2007.692,480.47
2008.523,440.47
2009.354,500.77
2010.185,463.07
2011.016,432.93
2011.846,425.20
2012.677,465.03
2013.507,478.63
2014.338,515.90
2015.168,474.63
2015.999,505.00
2016.829,455.43
2017.659,482.50
2018.489,459.67
2019.319,430.30
2020.149,450.57
2020.980,465.43
2021.810,492.47
2022.639,456.37
2023.469,439.43
2024.298,464.80
2025.128,448.37
2025.957,476.60
2026.786,493.63
2027.615,472.23
2028.444,432.60
2029.273,468.97
2030.102,449.53
2030.931,461.33
2031.758,492.77
2032.586,487.73
2033.415,460.83
2034.243,444.53
2035.072,483.43
2035.900,455.33
2036.728,467.67
2037.556,516.07
2038.385,460.63
2039.213,505.27
2040.040,514.97
2040.868,496.07
2041.696,482.03
2042.524,450.03
2043.351,469.37
2044.179,498.07
2045.006,454.50
2045.006,454.50

Max Intensity Wave.,227.130
Max Intensity Data,5777.33
Min Intensity Wave.,2011.846
Min Intensity Data,425.20
FWHM Wave.,402.226
FWHM Value,1.75
Pressure Wave.,686.770
Pressure Value [GPa],-19.42747
G/D Ratio,0.44906
G/D Gband Wave.,1543.424
G/D Gband Intensity,729.97
G/D Dband Wave.,1305.272
G/D Dband Intensity,1625.55

<< BACKGROUND SPECTRUM >>
Wave[dcm-1],No267
146.591,2224.00
147.626,2091.00
148.664,2073.00
149.699,2501.00
150.737,2229.00
151.772,2376.00
152.809,2354.00
153.846,2258.00
154.881,2355.00
155.918,1943.00
156.953,2285.00
157.989,2560.00
159.026,2440.00
160.060,2634.00
161.096,2838.00
162.130,2483.00
163.167,2585.00
164.200,2420.00
165.236,2625.00
166.272,2636.00
167.305,2223.00
168.341,2519.00
169.374,2769.00
170.409,2758.00
171.445,2696.00
172.477,2522.00
173.512,2358.00
174.545,2654.00
175.580,2896.00
176.614,3040.00
177.647,2809.00
178.681,2977.00
179.713,3333.00
180.747,2777.00
181.781,2713.00
182.813,2947.00
183.847,3058.00
184.878,2662.00
185.912,2938.00
186.945,3119.00
187.976,3034.00
189.010,2660.00
190.043,2812.00
191.073,2884.00
192.106,2707.00
193.137,3124.00
194.170,2564.00
195.202,2889.00
196.232,2649.00
197.265,2939.00
198.297,3024.00
199.327,2716.00
200.359,2878.00
201.388,3307.00
202.420,2831.00
203.452,3032.00
204.481,2645.00
205.512,3245.00
206.544,3022.00
207.573,3015.00
208.604,3377.00
209.635,3455.00
210.663,2930.00
211.694,2948.00
212.725,2807.00
213.753,2759.00
214.783,3347.00
215.813,3228.00
216.841,2916.00
217.871,3159.00
218.899,2875.00
219.929,3127.00
220.959,2857.00
221.986,3133.00
223.016,2715.00
224.045,3126.00
225.072,3118.00
226.101,3202.00
227.130,3186.00
228.157,2798.00
229.185,2309.00
230.214,3160.00
231.241,2792.00
232.269,2444.00
233.297,2684.00
234.323,3198.00
235.351,2816.00
236.379,3085.00
237.407,2733.00
238.433,2876.00
239.460,3093.00
240.488,3077.00
241.513,3191.00
242.540,3066.00
243.568,3125.00
244.592,3175.00
245.619,3206.00
246.646,2899.00
247.671,2937.00
248.697,2778.00
249.724,2986.00
250.748,2960.00
251.774,2947.00
252.801,3279.00
253.827,3089.00
254.850,3045.00
255.876,2684.00
256.902,3118.00
257.925,2954.00
258.951,2735.00
259.976,2747.00
260.999,3077.00
262.024,2729.00
263.049,3593.00
264.074,3110.00
265.097,2999.00
266.122,2991.00
267.146,2990.00
268.168,3158.00
269.193,2817.00
270.217,3190.00
271.241,2671.00
272.263,2817.00
273.287,3160.00
274.311,2778.00
275.332,3236.00
276.356,2819.00
277.379,3046.00
278.402,3124.00
279.424,2921.00
280.447,2868.00
281.470,2683.00
282.492,3048.00
283.513,2853.00
284.536,3131.00
285.558,3112.00
286.581,3043.00
287.601,2801.00
288.623,2806.00
289.645,3042.00
290.665,3105.00
291.687,3098.00
292.709,3103.00
293.730,3356.00
294.750,2840.00
295.771,2710.00
296.792,3024.00
297.813,2898.00
298.832,3001.00
299.853,2685.00
300.874,2949.00
301.895,2881.00
302.913,2932.00
303.934,3198.00
304.954,2991.00
305.975,3183.00
306.993,2742.00
308.013,3124.00
309.033,3017.00
310.052,2910.00
311.072,2859.00
312.090,3029.00
313.109,3220.00
314.129,3414.00
315.148,2980.00
316.165,3026.00
317.184,3211.00
318.203,2704.00
319.222,2729.00
320.238,3100.00
321.257,2829.00
322.275,2686.00
323.294,2921.00
324.312,3135.00
325.328,3252.00
326.346,3235.00
327.364,3229.00
328.382,3111.00
329.397,3090.00
330.415,3201.00
331.432,3235.00
332.450,3195.00
333.467,3422.00
334.482,2537.00
335.499,3362.00
336.516,2854.00
337.533,2535.00
338.547,2805.00
339.564,2811.00
340.580,3080.00
341.597,2916.00
342.613,3387.00
343.627,2963.00
344.643,3002.00
345.659,3136.00
346.675,2969.00
347.690,2875.00
348.704,3022.00
349.719,2829.00
350.735,2728.00
351.750,3214.00
352.765,3015.00
353.778,2984.00
354.793,3123.00
355.808,2829.00
356.822,3148.00
357.837,2651.00
358.851,3264.00
359.864,2946.00
360.878,2698.00
361.892,2957.00
362.906,3122.00
363.920,2556.00
364.932,3093.00
365.945,3073.00
366.959,2991.00
367.972,2897.00
368.986,2693.00
369.999,3346.00
371.010,2774.00
372.023,3287.00
373.036,2930.00
374.049,3335.00
375.061,3057.00
376.072,2985.00
377.084,2842.00
378.097,2713.00
379.109,3190.00
380.121,2990.00
381.133,2667.00
382.143,3081.00
383.155,2722.00
384.166,2868.00
385.178,3028.00
386.189,3187.00
387.201,2738.00
388.212,2909.00
389.221,2884.00
390.232,2980.00
391.243,2903.00
392.254,3016.00
393.264,2806.00
394.275,3201.00
395.283,3145.00
396.294,3559.00
397.304,3477.00
398.314,3092.00
399.324,3019.00
400.334,2659.00
401.344,3142.00
402.351,2618.00
403.361,3181.00
404.370,2967.00
405.380,2899.00
406.389,3341.00
407.398,3113.00
408.407,3062.00
409.414,3138.00
410.423,3302.00
411.431,2714.00
412.440,2655.00
413.448,3332.00
414.457,2829.00
415.465,2764.00
416.471,2856.00
417.479,2994.00
418.487,2809.00
419.495,3286.00
420.503,3096.00
421.510,2593.00
422.518,3136.00
423.525,3127.00
424.530,3365.00
425.537,2880.00
426.544,3202.00
427.551,2852.00
428.558,3594.00
429.565,3390.00
430.571,2836.00
431.578,2868.00
432.582,2828.00
433.588,2913.00
434.595,2593.00
435.601,3261.00
436.607,3256.00
437.612,2741.00
438.618,3350.00
439.624,2922.00
440.627,2950.00
441.633,3077.00
442.638,3587.00
443.643,3112.00
444.648,2988.00
445.653,3172.00
446.658,2858.00
447.663,2991.00
448.667,2808.00
449.672,2888.00
450.674,2960.00
451.678,2717.00
452.682,2831.00
453.687,2801.00
454.690,3544.00
455.694,3232.00
456.698,2558.00
457.702,2651.00
458.705,2778.00
459.709,2780.00
460.710,2877.00
461.713,3041.00
462.716,3050.00
463.719,2980.00
464.722,3144.00
465.725,2919.00
466.727,2802.00
467.730,2988.00
468.732,2768.00
469.735,3225.00
470.737,2871.00
471.737,2841.00
472.739,2909.00
473.741,2784.00
474.742,3054.00
475.744,3074.00
476.746,2974.00
477.747,2942.00
478.748,3128.00
479.750,2841.00
480.751,2961.00
481.752,3665.00
482.753,3037.00
483.751,3600.00
484.752,2626.00
485.753,2915.00
486.753,2858.00
487.753,2971.00
488.754,3368.00
489.754,2693.00
490.754,3327.00
491.754,3117.00
492.754,2658.00
493.753,2984.00
494.753,2871.00
495.752,3274.00
496.752,2994.00
497.749,2989.00
498.748,2841.00
499.747,3339.00
500.746,3048.00
501.745,2764.00
502.744,2714.00
503.742,3287.00
504.741,2942.00
505.739,2484.00
506.737,2881.00
507.735,3120.00
508.734,3375.00
509.732,3116.00
510.729,3300.00
511.727,2882.00
512.725,2884.00
513.720,2763.00
514.718,3232.00
515.715,2636.00
516.712,2633.00
517.709,2945.00
518.706,2871.00
519.703,2993.00
520.700,3172.00
521.696,3318.00
522.693,2907.00
523.689,2846.00
524.686,3142.00
525.682,2764.00
526.678,3453.00
527.674,2935.00
528.670,2576.00
529.666,3452.00
530.661,3476.00
531.657,3098.00
532.652,3119.00
533.648,2984.00
534.641,3141.00
535.636,3024.00
536.631,3065.00
537.626,3174.00
538.621,2700.00
539.616,2586.00
540.610,2489.00
541.605,3002.00
542.599,3052.00
543.593,2957.00
544.587,3872.00
545.581,2827.00
546.575,3020.00
547.569,3020.00
548.563,2646.00
549.557,2653.00
550.550,2799.00
551.543,2716.00
552.537,3125.00
553.530,2728.00
554.523,2787.00
555.516,3038.00
556.509,2945.00
557.502,2591.00
558.494,3153.00
559.487,2887.00
560.479,3160.00
561.472,3223.00
562.464,3174.00
563.456,3291.00
564.448,2914.00
565.440,2956.00
566.432,3374.00
567.423,2833.00
568.415,2934.00
569.404,3061.00
570.396,2837.00
571.387,3137.00
572.378,2998.00
573.369,3912.00
574.360,3647.00
575.351,2938.00
576.341,2867.00
577.332,2845.00
578.323,2673.00
579.313,2863.00
580.303,3216.00
581.293,3083.00
582.283,2947.00
583.273,3082.00
584.263,2987.00
585.253,3048.00
586.243,3150.00
587.232,2666.00
588.222,2944.00
589.211,3147.00
590.200,3065.00
591.189,2893.00
592.178,2917.00
593.167,3388.00
594.156,3259.00
595.145,2875.00
596.133,3418.00
597.122,3114.00
598.110,3156.00
599.098,3018.00
600.086,2987.00
601.074,3132.00
602.062,2820.00
603.050,2681.00
604.038,3120.00
605.025,2747.00
606.013,3173.00
607.000,3336.00
607.987,3042.00
608.975,3049.00
609.962,2771.00
610.949,3111.00
611.936,3192.00
612.922,3192.00
613.909,2683.00
614.895,3310.00
615.882,2814.00
616.868,2973.00
617.854,2709.00
618.841,2982.00
619.826,3089.00
620.812,2948.00
621.798,2811.00
622.784,3182.00
623.769,3045.00
624.755,2695.00
625.740,3037.00
626.725,2678.00
627.711,2833.00
628.698,3022.00
629.683,2766.00
630.667,3111.00
631.652,2745.00
632.637,2911.00
633.621,3149.00
634.606,2949.00
635.590,3063.00
636.574,2922.00
637.558,3042.00
638.542,3031.00
639.526,2807.00
640.510,2607.00
641.493,3073.00
642.477,2973.00
643.460,2690.00
644.444,3227.00
645.427,3214.00
646.410,2650.00
647.393,2978.00
648.376,3036.00
649.359,2906.00
650.341,3052.00
651.324,3085.00
652.307,2984.00
653.289,2897.00
654.271,2840.00
655.253,2868.00
656.235,3119.00
657.217,3208.00
658.199,2614.00
659.181,2709.00
660.163,2976.00
661.144,2851.00
662.126,2872.00
663.107,2768.00
664.088,6175.00
665.069,3216.00
666.050,2818.00
667.033,2685.00
668.014,3045.00
668.995,2590.00
669.975,2964.00
670.956,2984.00
671.936,3139.00
672.916,2947.00
673.896,3013.00
674.876,2888.00
675.856,2849.00
676.836,2714.00
677.816,2302.00
678.795,2790.00
679.775,2641.00
680.754,3026.00
681.734,3149.00
682.713,3132.00
683.692,2740.00
684.671,2650.00
685.650,2760.00
686.629,2847.00
687.607,2733.00
688.586,2764.00
689.564,2824.00
690.543,3224.00
691.523,2378.00
692.501,2810.00
693.479,2913.00
694.457,2745.00
695.435,2849.00
696.413,2625.00
697.390,2493.00
698.368,2679.00
699.345,3082.00
700.322,2887.00
701.300,3070.00
702.277,3011.00
703.254,3202.00
704.231,2572.00
705.207,2906.00
706.184,2784.00
707.161,2615.00
708.137,2809.00
709.113,2785.00
710.090,2804.00
711.068,2565.00
712.044,2615.00
713.020,2855.00
713.996,2590.00
714.971,2808.00
715.947,2830.00
716.922,2795.00
717.898,2734.00
718.873,2880.00
719.848,2681.00
720.823,2688.00
721.798,2970.00
722.773,2733.00
723.748,2537.00
724.723,3006.00
725.697,2804.00
726.672,2745.00
727.646,2519.00
728.622,2947.00
729.596,2580.00
730.570,2732.00
731.544,3087.00
732.518,3234.00
733.492,2786.00
734.466,2828.00
735.439,2984.00
736.413,3118.00
737.386,2480.00
738.359,2385.00
739.332,2517.00
740.305,2821.00
741.278,3305.00
742.251,2916.00
743.224,2702.00
744.196,2519.00
745.171,3131.00
746.143,3075.00
747.115,2749.00
748.087,2713.00
749.059,3058.00
750.031,2906.00
751.003,3679.00
751.975,3258.00
752.947,2682.00
753.918,3064.00
754.890,2577.00
755.861,2790.00
756.832,2973.00
757.803,2832.00
758.774,2821.00
759.747,2610.00
760.718,3165.00
761.689,2738.00
762.659,2584.00
763.630,3115.00
764.600,2536.00
765.570,3038.00
766.540,3108.00
767.510,2937.00
768.480,3034.00
769.450,2676.00
770.420,2829.00
771.390,2640.00
772.359,2758.00
773.329,2632.00
774.300,2509.00
775.269,2714.00
776.238,2953.00
777.207,3124.00
778.176,2529.00
779.145,2799.00
780.114,2649.00
781.083,2547.00
782.051,2748.00
783.019,2667.00
783.988,3054.00
784.956,2834.00
785.924,2982.00
786.894,2869.00
787.862,2666.00
788.830,3109.00
789.797,2596.00
790.765,2601.00
791.732,2767.00
792.700,2681.00
793.667,2582.00
794.634,2713.00
795.601,2730.00
796.568,2755.00
797.535,2798.00
798.502,3388.00
799.468,2918.00
800.437,2384.00
801.403,2619.00
802.370,3280.00
803.336,2964.00
804.302,2833.00
805.268,2420.00
806.234,2563.00
807.200,2717.00
808.166,2809.00
809.131,2550.00
810.097,2956.00
811.062,3691.00
812.027,3015.00
812.994,2606.00
813.960,2608.00
814.925,2961.00
815.889,2526.00
816.854,2994.00
817.819,2636.00
818.783,2688.00
819.748,3079.00
820.712,2732.00
821.677,2661.00
822.641,2748.00
823.605,2717.00
824.571,3118.00
825.534,2740.00
826.498,2654.00
827.462,2821.00
828.425,2594.00
829.389,3013.00
830.352,2837.00
831.315,2876.00
832.279,2507.00
833.242,2752.00
834.204,2631.00
835.167,2623.00
836.132,3032.00
837.095,2498.00
838.057,2712.00
839.020,2794.00
839.982,2859.00
840.944,2685.00
841.906,2645.00
842.868,2960.00
843.830,2521.00
844.792,3030.00
845.753,2666.00
846.715,2414.00
847.679,2564.00
848.640,2627.00
849.601,2741.00
850.562,3197.00
851.523,2701.00
852.484,2460.00
853.445,2959.00
854.406,2691.00
855.367,2719.00
856.327,3043.00
857.288,2492.00
858.248,2655.00
859.210,2703.00
860.170,2511.00
861.130,2982.00
862.090,2420.00
863.050,2626.00
864.010,2690.00
864.969,2874.00
865.929,2596.00
866.888,2505.00
867.848,2800.00
868.807,2685.00
869.766,2852.00
870.727,2673.00
871.686,3002.00
872.645,3004.00
873.604,3263.00
874.562,2756.00
875.521,2778.00
876.479,3388.00
877.437,2592.00
878.396,2602.00
879.354,3144.00
880.312,2624.00
881.270,2625.00
882.229,3128.00
883.187,2592.00
884.145,2673.00
885.102,2917.00
886.059,2835.00
887.017,2900.00
887.974,2940.00
888.931,3106.00
889.888,2499.00
890.845,2442.00
891.802,2345.00
892.758,2677.00
893.717,2445.00
894.673,2563.00
895.630,2612.00
896.586,2902.00
897.542,2695.00
898.498,2511.00
899.454,2867.00
900.410,2680.00
901.366,2680.00
902.321,2610.00
903.277,2671.00
904.232,2755.00
905.189,2496.00
906.145,2668.00
907.100,2200.00
908.055,2702.00
909.010,2918.00
909.965,2360.00
910.919,2793.00
911.874,2589.00
912.828,2793.00
913.783,2785.00
914.737,2364.00
915.693,2759.00
916.648,2903.00
917.602,2934.00
918.555,2779.00
919.509,2828.00
920.463,2731.00
921.417,2723.00
922.370,2568.00
923.324,2675.00
924.277,2672.00
925.230,2751.00
926.183,2426.00
927.138,2640.00
928.091,2923.00
929.044,2805.00
929.996,2627.00
930.949,2624.00
931.902,2836.00
932.854,2846.00
933.806,2603.00
934.758,2926.00
935.711,3000.00
936.663,2769.00
937.614,2816.00
938.568,2739.00
939.520,2397.00
940.471,2680.00
941.423,2806.00
942.374,2869.00
943.326,2743.00
944.277,2558.00
945.228,2833.00
946.179,2684.00
947.130,3022.00
948.080,2666.00
949.031,2564.00
949.984,2655.00
950.934,2677.00
951.884,2472.00
952.835,2713.00
953.785,2797.00
954.735,2615.00
955.685,2350.00
956.635,2604.00
957.585,2571.00
958.534,2623.00
959.484,2731.00
960.433,2609.00
961.383,2496.00
962.334,2995.00
963.283,2771.00
964.232,2819.00
965.181,2714.00
966.130,2793.00
967.079,2631.00
968.027,2723.00
968.976,2739.00
969.924,2608.00
970.873,2826.00
971.821,2682.00
972.769,2947.00
973.719,2842.00
974.667,2492.00
975.615,2700.00
976.562,2736.00
977.510,2386.00
978.458,2600.00
979.405,2785.00
980.352,2741.00
981.300,2952.00
982.247,2821.00
983.194,2561.00
984.141,2626.00
985.088,2738.00
986.036,2801.00
986.983,3018.00
987.930,3114.00
988.876,2356.00
989.822,2940.00
990.769,2566.00
991.715,2596.00
992.661,2416.00
993.607,2777.00
994.553,3277.00
995.498,2593.00
996.444,2281.00
997.389,2772.00
998.337,2570.00
999.282,2846.00
1000.227,2671.00
1001.173,2699.00
1002.118,2441.00
1003.062,2893.00
1004.007,2677.00
1004.952,3006.00
1005.897,2919.00
1006.841,2711.00
1007.786,2479.00
1008.730,2434.00
1009.674,3177.00
1010.618,2682.00
1011.564,2535.00
1012.508,2382.00
1013.452,2961.00
1014.396,2694.00
1015.339,2609.00
1016.283,2686.00
1017.226,2744.00
1018.170,2715.00
1019.113,2876.00
1020.056,2698.00
1020.999,2728.00
1021.942,2629.00
1022.885,2835.00
1023.828,3012.00
1024.770,2473.00
1025.715,2757.00
1026.657,2710.00
1027.600,2727.00
1028.542,2928.00
1029.484,2742.00
1030.426,2847.00
1031.368,2772.00
1032.310,2535.00
1033.251,2525.00
1034.193,2693.00
1035.135,2499.00
1036.076,2640.00
1037.017,2503.00
1037.959,2866.00
1038.900,2790.00
1039.843,2782.00
1040.784,2785.00
1041.725,2822.00
1042.665,2609.00
1043.606,2744.00
1044.547,2749.00
1045.487,2343.00
1046.427,2636.00
1047.368,2750.00
1048.308,2265.00
1049.248,2502.00
1050.188,2743.00
1051.128,2557.00
1052.067,2673.00
1053.007,2390.00
1053.947,2421.00
1054.886,2566.00
1055.827,2498.00
1056.766,2875.00
1057.706,2460.00
1058.645,2682.00
1059.584,2760.00
1060.522,2976.00
1061.461,2435.00
1062.400,2469.00
1063.338,2621.00
1064.277,2505.00
1065.215,2504.00
1066.154,2419.00
1067.092,2610.00
1068.030,2614.00
1068.968,2883.00
1069.906,3001.00
1070.843,2967.00
1071.781,2717.00
1072.720,2796.00
1073.658,2835.00
1074.595,2595.00
1075.533,2554.00
1076.470,2570.00
1077.407,2989.00
1078.344,2747.00
1079.281,2771.00
1080.217,2309.00
1081.154,2672.00
1082.091,2722.00
1083.027,2442.00
1083.964,2903.00
1084.900,2542.00
1085.836,2600.00
1086.772,2901.00
1087.708,2472.00
1088.644,2807.00
1089.580,2721.00
1090.515,2733.00
1091.451,2582.00
1092.388,2721.00
1093.324,2435.00
1094.259,3262.00
1095.194,2791.00
1096.129,2612.00
1097.064,2586.00
1097.999,2835.00
1098.934,2529.00
1099.869,2547.00
1100.803,2701.00
1101.738,2705.00
1102.672,2399.00
1103.607,2819.00
1104.541,2550.00
1105.475,2530.00
1106.409,2422.00
1107.343,2594.00
1108.277,2431.00
1109.210,2733.00
1110.144,2676.00
1111.078,2660.00
1112.011,2461.00
1112.944,2758.00
1113.878,2706.00
1114.811,2204.00
1115.744,2564.00
1116.678,2342.00
1117.611,2565.00
1118.544,2596.00
1119.477,2737.00
1120.409,2568.00
1121.342,3108.00
1122.274,2739.00
1123.206,4248.00
1124.138,2702.00
1125.070,3005.00
1126.002,2836.00
1126.934,2322.00
1127.866,2584.00
1128.798,2361.00
1129.729,2391.00
1130.661,2653.00
1131.592,2525.00
1132.523,2717.00
1133.454,2790.00
1134.385,2290.00
1135.317,2619.00
1136.247,2559.00
1137.178,2867.00
1138.109,2364.00
1139.039,3012.00
1139.970,2846.00
1140.900,2558.00
1141.831,2339.00
1142.761,2268.00
1143.691,2741.00
1144.621,2656.00
1145.551,2744.00
1146.480,2650.00
1147.410,2861.00
1148.340,2310.00
1149.269,2377.00
1150.199,2580.00
1151.128,3041.00
1152.057,2487.00
1152.979,2576.00
1153.898,2583.00
1154.819,2729.00
1155.739,2630.00
1156.658,2578.00
1157.579,2688.00
1158.498,2634.00
1159.419,2154.00
1160.338,2692.00
1161.256,2693.00
1162.177,2485.00
1163.095,2601.00
1164.016,2720.00
1164.934,2905.00
1165.852,2834.00
1166.772,2618.00
1167.690,2626.00
1168.610,2717.00
1169.528,2631.00
1170.446,2184.00
1171.365,2560.00
1172.283,2509.00
1173.202,2643.00
1174.120,2666.00
1175.037,2501.00
1175.956,2484.00
1176.873,2546.00
1177.792,2531.00
1178.709,3117.00
1179.626,2567.00
1180.544,2840.00
1181.461,2508.00
1182.379,2746.00
1183.296,2623.00
1184.212,2270.00
1185.130,2500.00
1186.046,2929.00
1186.962,2629.00
1187.880,2922.00
1188.796,2700.00
1189.714,2428.00
1190.629,2743.00
1191.545,2718.00
1192.462,2588.00
1193.378,2584.00
1194.295,2345.00
1195.210,2654.00
1196.125,2776.00
1197.042,2756.00
1197.957,2620.00
1198.872,2539.00
1199.788,2529.00
1200.703,2968.00
1201.619,2641.00
1202.534,2481.00
1203.448,2703.00
1204.364,2538.00
1205.278,2280.00
1206.192,2707.00
1207.108,3107.00
1208.022,2999.00
1208.938,2489.00
1209.851,2785.00
1210.765,2910.00
1211.680,2502.00
1212.594,2430.00
1213.507,2594.00
1214.422,3039.00
1215.335,2749.00
1216.248,2541.00
1217.163,2625.00
1218.076,3196.00
1218.990,2730.00
1219.903,2426.00
1220.816,2483.00
1221.730,2594.00
1222.642,2488.00
1223.554,2528.00
1224.469,2676.00
1225.380,2582.00
1226.292,2300.00
1227.206,2769.00
1228.118,2937.00
1229.032,2268.00
1229.943,2501.00
1230.855,2625.00
1231.768,2362.00
1232.679,2707.00
1233.590,2604.00
1234.503,2871.00
1235.414,2498.00
1236.325,2525.00
1237.238,2671.00
1238.149,2756.00
1239.059,2427.00
1239.972,2793.00
1240.882,2479.00
1241.793,2730.00
1242.705,2980.00
1243.615,2567.00
1244.525,2731.00
1245.437,2207.00
1246.347,2688.00
1247.259,2776.00
1248.168,3022.00
1249.078,2895.00
1249.989,2834.00
1250.899,2456.00
1251.808,2516.00
1252.719,2568.00
1253.628,2474.00
1254.537,3005.00
1255.448,2444.00
1256.357,2465.00
1257.266,2645.00
1258.176,2369.00
1259.085,2347.00
1259.993,2453.00
1260.904,2466.00
1261.812,2483.00
1262.720,3239.00
1263.630,2794.00
1264.538,2462.00
1265.446,2740.00
1266.356,2614.00
1267.263,2918.00
1268.171,2424.00
1269.080,2669.00
1269.988,2793.00
1270.895,2489.00
1271.804,2585.00
1272.711,2796.00
1273.619,2778.00
1274.527,2466.00
1275.434,2715.00
1276.341,2451.00
1277.248,2628.00
1278.156,2928.00
1279.063,2485.00
1279.969,2722.00
1280.877,3502.00
1281.783,2837.00
1282.690,2712.00
1283.598,2575.00
1284.503,2525.00
1285.409,2468.00
1286.317,2974.00
1287.223,3028.00
1288.128,2711.00
1289.036,2491.00
1289.941,2549.00
1290.846,2632.00
1291.751,2449.00
1292.658,2527.00
1293.563,3070.00
1294.468,2643.00
1295.375,2796.00
1296.280,2859.00
1297.184,3366.00
1298.091,2720.00
1298.995,2779.00
1299.900,3017.00
1300.806,2511.00
1301.710,2421.00
1302.614,2196.00
1303.518,2858.00
1304.424,2575.00
1305.327,2791.00
1306.231,2622.00
1307.137,2741.00
1308.040,2668.00
1308.943,2623.00
1309.847,2846.00
1310.752,2808.00
1311.655,2295.00
1312.558,2396.00
1313.463,2595.00
1314.366,2513.00
1315.269,2728.00
1316.171,2618.00
1317.076,2529.00
1317.978,2411.00
1318.881,2242.00
1319.785,2472.00
1320.687,2512.00
1321.589,2262.00
1322.491,2442.00
1323.395,2704.00
1324.297,3184.00
1325.198,2745.00
1326.102,2421.00
1327.004,2444.00
1327.905,3013.00
1328.806,2592.00
1329.709,2678.00
1330.611,2510.00
1331.512,2404.00
1332.413,3067.00
1333.316,2677.00
1334.216,2772.00
1335.117,2388.00
1336.020,2649.00
1336.920,2638.00
1337.821,2463.00
1338.721,2888.00
1339.623,2660.00
1340.523,2563.00
1341.423,2497.00
1342.323,2879.00
1343.225,2732.00
1344.125,2452.00
1345.025,2534.00
1345.924,2295.00
1346.826,2951.00
1347.725,3096.00
1348.624,2861.00
1349.524,2484.00
1350.425,2546.00
1351.324,2706.00
1352.223,2789.00
1353.121,2587.00
1354.022,2797.00
1354.921,2989.00
1355.819,2781.00
1356.718,2678.00
1357.618,2386.00
1358.516,2731.00
1359.415,3007.00
1360.313,2730.00
1361.213,2576.00
1362.111,2940.00
1363.008,3274.00
1363.906,2606.00
1364.806,2620.00
1365.703,2717.00
1366.601,2481.00
1367.498,2453.00
1368.397,2801.00
1369.295,2697.00
1370.192,2462.00
1371.089,2711.00
1371.987,2606.00
1372.884,2867.00
1373.781,2398.00
1374.678,2612.00
1375.574,2443.00
1376.473,2732.00
1377.369,2878.00
1378.265,2461.00
1379.161,2589.00
1380.059,2347.00
1380.955,2777.00
1381.851,2401.00
1382.747,2546.00
1383.643,2570.00
1384.540,2426.00
1385.436,2519.00
1386.331,2711.00
1387.227,2749.00
1388.124,2737.00
1389.019,2449.00
1389.914,2619.00
1390.809,2295.00
1391.704,3027.00
1392.601,2550.00
1393.495,2879.00
1394.390,2818.00
1395.285,2894.00
1396.179,2714.00
1397.075,2609.00
1397.969,2702.00
1398.864,2325.00
1399.758,2596.00
1400.652,2632.00
1401.547,2455.00
1402.441,2436.00
1403.335,2950.00
1404.229,2653.00
1405.122,2725.00
1406.017,2639.00
1406.911,2752.00
1407.804,3033.00
1408.697,2615.00
1409.590,2490.00
1410.485,2807.00
1411.378,2689.00
1412.271,2350.00
1413.163,2659.00
1414.056,2729.00
1414.949,2979.00
1415.843,2659.00
1416.735,2528.00
1417.627,2670.00
1418.520,2610.00
1419.412,2866.00
1420.306,2795.00
1421.197,2892.00
1422.089,2853.00
1422.981,3072.00
1423.873,2792.00
1424.764,2734.00
1425.657,2661.00
1426.549,2802.00
1427.440,2824.00
1428.331,2493.00
1429.222,2293.00
1430.113,2682.00
1431.006,2805.00
1431.897,2572.00
1432.787,2686.00
1433.678,2555.00
1434.568,2481.00
1435.459,2830.00
1436.351,2817.00
1437.241,2737.00
1438.131,2770.00
1439.021,2410.00
1439.911,2592.00
1440.801,2675.00
1441.693,2843.00
1442.583,2628.00
1443.472,2612.00
1444.362,2733.00
1445.251,2611.00
1446.140,2551.00
1447.030,2792.00
1447.921,2885.00
1448.810,2466.00
1449.699,2979.00
1450.588,2687.00
1451.476,2564.00
1452.365,2766.00
1453.254,2517.00
1454.144,2527.00
1455.032,2755.00
1455.921,2369.00
1456.809,2933.00
1457.697,2414.00
1458.585,2567.00
1459.473,2539.00
1460.361,2451.00
1461.251,2738.00
1462.138,2688.00
1463.026,2575.00
1463.913,2874.00
1464.801,2563.00
1465.688,2676.00
1466.575,2676.00
1467.463,3107.00
1468.351,2472.00
1469.238,2591.00
1470.125,2245.00
1471.012,2697.00
1471.899,2687.00
1472.785,2481.00
1473.672,2638.00
1474.558,2846.00
1475.446,2791.00
1476.333,2786.00
1477.219,2462.00
1478.105,2629.00
1478.991,2580.00
1479.877,2935.00
1480.762,2629.00
1481.648,2528.00
1482.534,2779.00
1483.419,2676.00
1484.307,2739.00
1485.192,2571.00
1486.077,2497.00
1486.962,2495.00
1487.847,2376.00
1488.732,2494.00
1489.617,2651.00
1490.502,2843.00
1491.387,2770.00
1492.271,2469.00
1493.156,2461.00
1494.042,2430.00
1494.927,2835.00
1495.811,2544.00
1496.695,2771.00
1497.579,2911.00
1498.463,2661.00
1499.347,2694.00
1500.231,2661.00
1501.114,2698.00
1501.998,2914.00
1502.881,2691.00
1503.765,2929.00
1504.648,3046.00
1505.533,2760.00
1506.417,2625.00
1507.300,2606.00
1508.183,2710.00
1509.066,2113.00
1509.948,2861.00
1510.831,2979.00
1511.714,2437.00
1512.596,2769.00
1513.479,2886.00
1514.361,2875.00
1515.243,2647.00
1516.125,2811.00
1517.008,2895.00
1517.890,2588.00
1518.771,2683.00
1519.655,2851.00
1520.537,2602.00
1521.419,2458.00
1522.300,2705.00
1523.182,2779.00
1524.063,2779.00
1524.944,2917.00
1525.825,2821.00
1526.707,2446.00
1527.588,2442.00
1528.468,2699.00
1529.349,2323.00
1530.230,2547.00
1531.111,2817.00
1531.991,2717.00
1532.872,2383.00
1533.752,2611.00
1534.632,2491.00
1535.513,2542.00
1536.393,2823.00
1537.273,2939.00
1538.153,3302.00
1539.032,2403.00
1539.912,2652.00
1540.792,2662.00
1541.672,2627.00
1542.551,2777.00
1543.430,3179.00
1544.310,2693.00
1545.189,2537.00
1546.068,3055.00
1546.947,2731.00
1547.826,2955.00
1548.705,2646.00
1549.584,2846.00
1550.462,2603.00
1551.341,2790.00
1552.219,2714.00
1553.098,2777.00
1553.976,2888.00
1554.854,3038.00
1555.733,2845.00
1556.611,2568.00
1557.489,2471.00
1558.367,2669.00
1559.244,2808.00
1560.122,2638.00
1561.000,2737.00
1561.877,2983.00
1562.755,2539.00
1563.632,2617.00
1564.509,2905.00
1565.386,2999.00
1566.264,2399.00
1567.141,2263.00
1568.017,2791.00
1568.894,2639.00
1569.771,2687.00
1570.648,2730.00
1571.524,2682.00
1572.401,2419.00
1573.277,2415.00
1574.153,2723.00
1575.029,2521.00
1575.906,3332.00
1576.781,2786.00
1577.657,2599.00
1578.533,2883.00
1579.409,2250.00
1580.285,2645.00
1581.160,3072.00
1582.036,2835.00
1582.911,2495.00
1583.786,2992.00
1584.662,2467.00
1585.537,2605.00
1586.412,2666.00
1587.287,2503.00
1588.160,2833.00
1589.035,2302.00
1589.909,2683.00
1590.784,2637.00
1591.658,2426.00
1592.533,2690.00
1593.407,2692.00
1594.281,2506.00
1595.155,3026.00
1596.029,2580.00
1596.903,2600.00
1597.777,2565.00
1598.651,2889.00
1599.525,2364.00
1600.398,2661.00
1601.272,2632.00
1602.144,3178.00
1603.017,2586.00
1603.890,2908.00
1604.763,2754.00
1605.636,2829.00
1606.509,2344.00
1607.382,2480.00
1608.255,2732.00
1609.128,2880.00
1610.000,2622.00
1610.873,2369.00
1611.746,2596.00
1612.616,2604.00
1613.488,2232.00
1614.361,2641.00
1615.233,2635.00
1616.105,2897.00
1616.977,2584.00
1617.849,2484.00
1618.720,2966.00
1619.592,2946.00
1620.464,2742.00
1621.333,3097.00
1622.205,2684.00
1623.076,2629.00
1623.947,2600.00
1624.818,2833.00
1625.689,2786.00
1626.560,2561.00
1627.431,2671.00
1628.302,3061.00
1629.171,2774.00
1630.042,2932.00
1630.912,3610.00
1631.782,3223.00
1632.653,2446.00
1633.523,2789.00
1634.393,2836.00
1635.263,2533.00
1636.131,2667.00
1637.001,2564.00
1637.871,2299.00
1638.741,2316.00
1639.611,2403.00
1640.480,2782.00
1641.350,2545.00
1642.219,2490.00
1643.087,2168.00
1643.956,3086.00
1644.825,2912.00
1645.694,2851.00
1646.563,2812.00
1647.432,2713.00
1648.299,2701.00
1649.167,2784.00
1650.036,2463.00
1650.904,2784.00
1651.773,2887.00
1652.641,2682.00
1653.509,2856.00
1654.376,2522.00
1655.244,2724.00
1656.112,2651.00
1656.980,2676.00
1657.847,2528.00
1658.715,2820.00
1659.581,2552.00
1660.448,2907.00
1661.316,2180.00
1662.183,2701.00
1663.051,2721.00
1663.918,2681.00
1664.783,2658.00
1665.650,2732.00
1666.517,2814.00
1667.384,2670.00
1668.251,2703.00
1669.115,2852.00
1669.982,2660.00
1670.849,2920.00
1671.715,2616.00
1672.581,2783.00
1673.446,2764.00
1674.312,2697.00
1675.178,3028.00
1676.044,2745.00
1676.910,2770.00
1677.774,2696.00
1678.639,2342.00
1679.505,2637.00
1680.370,2767.00
1681.236,3301.00
1682.099,2621.00
1682.965,2644.00
1683.830,2291.00
1684.695,2503.00
1685.560,2594.00
1686.423,2802.00
1687.288,2788.00
1688.153,2707.00
1689.017,2587.00
1689.880,2732.00
1690.745,2800.00
1691.609,2492.00
1692.473,2787.00
1693.338,2879.00
1694.200,2948.00
1695.064,2636.00
1695.928,2585.00
1696.792,2679.00
1697.654,3150.00
1698.517,2716.00
1699.381,2396.00
1700.245,2323.00
1701.106,2918.00
1701.969,2608.00
1702.833,2797.00
1703.696,2568.00
1704.557,2623.00
1705.420,2561.00
1706.283,2680.00
1707.146,2794.00
1708.007,2484.00
1708.870,2471.00
1709.732,2374.00
1710.595,2564.00
1711.455,2424.00
1712.318,2569.00
1713.180,2907.00
1714.040,2696.00
1714.902,2865.00
1715.764,2648.00
1716.626,2459.00
1717.486,2599.00
1718.348,2920.00
1719.209,5078.00
1720.071,2324.00
1720.930,2423.00
1721.792,2506.00
1722.653,2529.00
1723.512,2552.00
1724.374,2680.00
1725.234,2698.00
1726.095,2696.00
1726.954,2674.00
1727.815,2809.00
1728.676,2673.00
1729.535,2881.00
1730.395,2621.00
1731.256,2584.00
1732.114,2694.00
1732.974,2162.00
1733.834,3022.00
1734.693,2830.00
1735.553,2717.00
1736.413,3080.00
1737.272,2553.00
1738.130,2645.00
1738.990,2760.00
1739.849,2606.00
1740.707,3644.00
1741.566,2707.00
1742.426,2678.00
1743.283,3077.00
1744.142,2561.00
1745.001,2341.00
1745.858,2842.00
1746.717,2708.00
1747.576,2738.00
1748.433,2799.00
1749.292,3166.00
1750.150,3248.00
1751.007,2837.00
1751.865,2880.00
1752.723,2715.00
1753.579,2560.00
1754.438,2901.00
1755.296,2874.00
1756.152,2261.00
1757.010,2387.00
1757.865,2865.00
1758.723,2351.00
1759.581,2973.00
1760.436,2642.00
1761.294,2998.00
1762.151,2626.00
1763.006,2598.00
1763.864,2315.00
1764.721,2876.00
1765.576,2708.00
1766.433,2821.00
1767.288,2577.00
1768.144,2675.00
1769.001,2636.00
1769.856,2769.00
1770.712,2874.00
1771.568,2471.00
1772.423,2583.00
1773.279,2581.00
1774.133,2607.00
1774.989,3052.00
1775.845,3015.00
1776.699,2890.00
1777.555,2654.00
1778.409,3191.00
1779.265,2652.00
1780.120,2598.00
1780.974,2649.00
1781.829,2297.00
1782.682,2727.00
1783.538,2476.00
1784.393,2704.00
1785.246,2559.00
1786.101,2783.00
1786.954,2807.00
1787.808,2897.00
1788.661,2445.00
1789.516,2563.00
1790.370,2610.00
1791.223,2835.00
1792.077,2666.00
1792.930,2778.00
1793.784,2543.00
1794.636,2688.00
1795.490,2658.00
1796.344,2668.00
1797.196,2652.00
1798.049,2835.00
1798.901,2553.00
1799.755,2884.00
1800.606,2492.00
1801.460,3212.00
1802.311,2974.00
1803.165,3046.00
1804.018,3012.00
1804.869,2749.00
1805.722,3069.00
1806.573,2728.00
1807.426,2501.00
1808.276,2653.00
1809.129,2554.00
1809.980,2879.00
1810.832,2953.00
1811.683,2579.00
1812.535,2979.00
1813.385,2628.00
1814.237,2922.00
1815.089,2715.00
1815.940,2943.00
1816.791,2595.00
1817.641,2556.00
1818.493,2812.00
1819.343,2763.00
1820.194,2574.00
1821.044,2795.00
1821.895,2884.00
1822.745,2433.00
1823.596,2546.00
1824.445,3061.00
1825.296,2786.00
1826.145,2660.00
1826.996,2855.00
1827.845,2681.00
1828.695,2746.00
1829.544,2617.00
1830.395,2680.00
1831.243,2590.00
1832.094,2419.00
1832.942,3280.00
1833.792,2794.00
1834.640,2740.00
1835.490,2697.00
1836.338,2758.00
1837.186,2576.00
1838.036,2533.00
1838.884,2669.00
1839.733,2987.00
1840.581,2877.00
1841.430,2800.00
1842.278,3011.00
1843.127,2578.00
1843.974,2362.00
1844.823,3114.00
1845.671,2852.00
1846.519,2667.00
1847.366,2753.00
1848.213,2332.00
1849.062,2505.00
1849.909,2416.00
1850.757,3278.00
1851.604,2798.00
1852.452,2589.00
1853.298,2866.00
1854.146,2713.00
1854.993,2720.00
1855.839,3157.00
1856.687,2791.00
1857.532,2785.00
1858.380,2698.00
1859.226,2761.00
1860.073,2815.00
1860.919,2538.00
1861.765,2583.00
1862.612,2928.00
1863.457,2902.00
1864.304,2610.00
1865.150,2821.00
1865.995,2679.00
1866.842,2837.00
1867.686,2921.00
1868.533,2769.00
1869.378,2726.00
1870.223,2731.00
1871.069,2578.00
1871.914,2711.00
1872.760,2662.00
1873.604,2484.00
1874.448,2842.00
1875.294,2912.00
1876.139,2547.00
1876.984,2796.00
1877.828,2364.00
1878.672,2185.00
1879.518,2585.00
1880.361,2854.00
1881.205,2817.00
1882.050,2520.00
1882.894,3186.00
1883.739,2546.00
1884.582,2445.00
1885.425,2527.00
1886.270,2912.00
1887.113,2453.00
1887.956,2757.00
1888.801,2742.00
1889.644,2495.00
1890.486,2292.00
1891.331,2630.00
1892.173,2738.00
1893.017,2768.00
1893.860,2971.00
1894.702,2961.00
1895.546,2717.00
1896.388,3404.00
1897.230,3081.00
1898.074,2602.00
1898.916,2483.00
1899.757,2495.00
1900.601,3356.00
1901.443,2978.00
1902.284,2969.00
1903.125,3119.00
1903.969,2843.00
1904.810,2920.00
1905.651,2753.00
1906.494,2995.00
1907.335,3151.00
1908.176,2779.00
1909.018,2777.00
1909.859,2686.00
1910.700,2567.00
1911.542,3214.00
1912.383,2759.00
1913.223,2350.00
1914.064,2797.00
1914.906,2939.00
1915.746,3020.00
1916.586,3159.00
1917.428,2700.00
1918.268,2718.00
1919.107,2618.00
1919.947,2512.00
1920.789,2634.00
1921.628,2909.00
1922.468,2685.00
1923.309,2548.00
1924.148,3009.00
1924.988,2781.00
1925.827,2675.00
1926.667,2575.00
1927.507,2729.00
1928.345,2527.00
1929.184,2851.00
1930.025,2551.00
1930.864,2934.00
1931.702,2963.00
1932.541,2618.00
1933.381,2802.00
1934.219,2866.00
1935.057,2940.00
1935.896,2414.00
1936.735,2645.00
1937.573,2628.00
1938.411,2489.00
1939.249,2836.00
1940.089,2593.00
1940.927,2922.00
1941.764,3025.00
1942.602,2619.00
1943.439,2596.00
1944.278,2658.00
1945.115,2605.00
1945.953,2426.00
1946.790,2782.00
1947.628,3057.00
1948.465,2816.00
1949.302,2806.00
1950.139,2809.00
1950.976,2600.00
1951.814,2883.00
1952.651,2761.00
1953.487,2505.00
1954.323,2986.00
1955.160,2688.00
1955.998,3054.00
1956.834,2695.00
1957.670,2818.00
1958.506,2925.00
1959.342,2781.00
1960.177,2761.00
1961.015,2839.00
1961.850,2740.00
1962.686,2779.00
1963.521,2767.00
1964.357,2999.00
1965.192,2478.00
1966.029,2829.00
1966.864,2618.00
1967.699,2943.00
1968.534,2715.00
1969.369,3005.00
1970.204,2682.00
1971.040,2753.00
1971.875,2646.00
1972.709,2734.00
1973.544,2531.00
1974.378,2616.00
1975.212,2847.00
1976.047,2604.00
1976.882,2585.00
1977.716,3099.00
1978.550,2401.00
1979.384,2675.00
1980.218,2641.00
1981.052,2687.00
1981.885,2759.00
1982.719,2734.00
1983.554,2815.00
1984.388,3007.00
1985.221,2774.00
1986.054,2954.00
1986.887,2773.00
1987.720,2551.00
1988.553,2994.00
1989.386,2773.00
1990.219,2837.00
1991.053,3003.00
1991.886,2587.00
1992.719,2904.00
1993.551,2230.00
1994.383,2839.00
1995.216,2611.00
1996.048,2442.00
1996.880,2852.00
1997.712,2597.00
1998.544,2754.00
1999.376,2762.00
2000.208,2937.00
2001.040,3128.00
2001.873,2514.00
2002.705,2557.00
2003.536,2793.00
2004.367,2770.00
2005.199,2733.00
2006.030,2592.00
2006.861,2535.00
2007.692,2719.00
2008.523,2608.00
2009.354,2722.00
2010.185,2533.00
2011.016,2890.00
2011.846,2954.00
2012.677,2661.00
2013.507,3041.00
2014.338,2891.00
2015.168,2629.00
2015.999,3205.00
2016.829,2670.00
2017.659,2930.00
2018.489,3243.00
2019.319,2575.00
2020.149,2895.00
2020.980,2741.00
2021.810,2520.00
2022.639,2602.00
2023.469,2635.00
2024.298,2422.00
2025.128,2383.00
2025.957,2349.00
2026.786,2161.00
2027.615,2379.00
2028.444,2621.00
2029.273,2746.00
2030.102,2350.00
2030.931,2579.00
2031.758,2823.00
2032.586,2495.00
2033.415,2589.00
2034.243,2237.00
2035.072,2007.00
2035.900,2491.00
2036.728,2303.00
2037.556,2310.00
2038.385,2366.00
2039.213,2135.00
2040.040,2118.00
2040.868,2106.00
2041.696,2177.00
2042.524,2233.00
2043.351,2407.00
2044.179,2161.00
2045.006,2000.00
