RamanScope Measure Spectrum Data V3.72

<< MEASURE CONDITION >>
Exposure Type,Aver
Exposure Time [sec],15
Exposure Count,1
Measure Time,2023/07/04 15:37:53
Data Name,""
Data Comment,""
Rayleigh Wave[nm],532.0

<< SAMPLE SPECTRUM >>
Wave[dcm-1],No270
146.591,435.00
147.626,548.00
148.664,658.00
149.699,783.00
150.737,906.00
151.772,1010.00
152.809,1155.00
153.846,1263.00
154.881,1407.00
155.918,1528.00
156.953,1539.00
157.989,1671.00
159.026,1743.00
160.060,1743.00
161.096,1852.00
162.130,1883.00
163.167,1942.00
164.200,1963.00
165.236,2022.00
166.272,2059.00
167.305,2079.00
168.341,2056.00
169.374,2170.00
170.409,2189.00
171.445,2241.00
172.477,2251.00
173.512,2241.00
174.545,2245.00
175.580,2330.00
176.614,2345.00
177.647,2349.00
178.681,2287.00
179.713,2418.00
180.747,2396.00
181.781,2427.00
182.813,2365.00
183.847,2453.00
184.878,2432.00
185.912,2392.00
186.945,2373.00
187.976,2411.00
189.010,2366.00
190.043,2380.00
191.073,2507.00
192.106,2389.00
193.137,2505.00
194.170,2565.00
195.202,2513.00
196.232,2562.00
197.265,2594.00
198.297,2538.00
199.327,2617.00
200.359,2645.00
201.388,2648.00
202.420,2744.00
203.452,2676.00
204.481,2741.00
205.512,2710.00
206.544,2856.00
207.573,2908.00
208.604,2827.00
209.635,2963.00
210.663,3016.00
211.694,3153.00
212.725,3184.00
213.753,3313.00
214.783,3363.00
215.813,3560.00
216.841,3670.00
217.871,3876.00
218.899,4093.00
219.929,4287.00
220.959,4687.00
221.986,4981.00
223.016,5315.00
224.045,5645.00
225.072,5946.00
226.101,6074.00
227.130,6079.00
228.157,5922.00
229.185,5570.00
230.214,5400.00
231.241,5060.00
232.269,4650.00
233.297,4432.00
234.323,4093.00
235.351,3839.00
236.379,3708.00
237.407,3588.00
238.433,3489.00
239.460,3403.00
240.488,3363.00
241.513,3289.00
242.540,3337.00
243.568,3281.00
244.592,3322.00
245.619,3206.00
246.646,3270.00
247.671,3261.00
248.697,3301.00
249.724,3415.00
250.748,3249.00
251.774,3327.00
252.801,3282.00
253.827,3273.00
254.850,3277.00
255.876,3210.00
256.902,3191.00
257.925,3225.00
258.951,3218.00
259.976,3182.00
260.999,3196.00
262.024,3226.00
263.049,3178.00
264.074,3271.00
265.097,3291.00
266.122,3281.00
267.146,3368.00
268.168,3384.00
269.193,3386.00
270.217,3438.00
271.241,3570.00
272.263,3620.00
273.287,3663.00
274.311,3753.00
275.332,3789.00
276.356,3896.00
277.379,4148.00
278.402,4237.00
279.424,4423.00
280.447,4491.00
281.470,4511.00
282.492,4820.00
283.513,4938.00
284.536,5177.00
285.558,5126.00
286.581,5274.00
287.601,5225.00
288.623,5324.00
289.645,5335.00
290.665,5216.00
291.687,5137.00
292.709,5053.00
293.730,4904.00
294.750,4837.00
295.771,4611.00
296.792,4602.00
297.813,4487.00
298.832,4348.00
299.853,4201.00
300.874,4086.00
301.895,3928.00
302.913,3895.00
303.934,3711.00
304.954,3573.00
305.975,3408.00
306.993,3372.00
308.013,3309.00
309.033,3214.00
310.052,3061.00
311.072,3039.00
312.090,2976.00
313.109,2946.00
314.129,2879.00
315.148,2861.00
316.165,2750.00
317.184,2724.00
318.203,2704.00
319.222,2670.00
320.238,2595.00
321.257,2587.00
322.275,2584.00
323.294,2584.00
324.312,2547.00
325.328,2479.00
326.346,2406.00
327.364,2493.00
328.382,2432.00
329.397,2441.00
330.415,2506.00
331.432,2408.00
332.450,2369.00
333.467,2449.00
334.482,2390.00
335.499,2396.00
336.516,2384.00
337.533,2382.00
338.547,2342.00
339.564,2353.00
340.580,2325.00
341.597,2340.00
342.613,2311.00
343.627,2313.00
344.643,2322.00
345.659,2330.00
346.675,2316.00
347.690,2338.00
348.704,2302.00
349.719,2333.00
350.735,2289.00
351.750,2316.00
352.765,2252.00
353.778,2325.00
354.793,2275.00
355.808,2346.00
356.822,2337.00
357.837,2304.00
358.851,2277.00
359.864,2383.00
360.878,2296.00
361.892,2291.00
362.906,2295.00
363.920,2338.00
364.932,2330.00
365.945,2348.00
366.959,2378.00
367.972,2381.00
368.986,2415.00
369.999,2428.00
371.010,2409.00
372.023,2429.00
373.036,2478.00
374.049,2521.00
375.061,2440.00
376.072,2523.00
377.084,2591.00
378.097,2604.00
379.109,2578.00
380.121,2632.00
381.133,2658.00
382.143,2687.00
383.155,2796.00
384.166,2721.00
385.178,2856.00
386.189,2848.00
387.201,2946.00
388.212,2859.00
389.221,2922.00
390.232,3040.00
391.243,3117.00
392.254,3116.00
393.264,3117.00
394.275,3176.00
395.283,3192.00
396.294,3150.00
397.304,3223.00
398.314,3290.00
399.324,3241.00
400.334,3255.00
401.344,3183.00
402.351,3258.00
403.361,3175.00
404.370,3149.00
405.380,3130.00
406.389,3139.00
407.398,3052.00
408.407,3026.00
409.414,2906.00
410.423,2880.00
411.431,2906.00
412.440,2816.00
413.448,2697.00
414.457,2632.00
415.465,2684.00
416.471,2584.00
417.479,2604.00
418.487,2465.00
419.495,2556.00
420.503,2504.00
421.510,2469.00
422.518,2457.00
423.525,2386.00
424.530,2396.00
425.537,2408.00
426.544,2333.00
427.551,2350.00
428.558,2281.00
429.565,2336.00
430.571,2320.00
431.578,2302.00
432.582,2288.00
433.588,2298.00
434.595,2180.00
435.601,2308.00
436.607,2248.00
437.612,2268.00
438.618,2217.00
439.624,2244.00
440.627,2172.00
441.633,2173.00
442.638,2244.00
443.643,2205.00
444.648,2167.00
445.653,2180.00
446.658,2194.00
447.663,2296.00
448.667,2198.00
449.672,2206.00
450.674,2232.00
451.678,2199.00
452.682,2196.00
453.687,2153.00
454.690,2131.00
455.694,2188.00
456.698,2183.00
457.702,2217.00
458.705,2142.00
459.709,2183.00
460.710,2201.00
461.713,2186.00
462.716,2223.00
463.719,2240.00
464.722,2266.00
465.725,2195.00
466.727,2253.00
467.730,2298.00
468.732,2208.00
469.735,2232.00
470.737,2274.00
471.737,2270.00
472.739,2272.00
473.741,2300.00
474.742,2328.00
475.744,2316.00
476.746,2247.00
477.747,2288.00
478.748,2353.00
479.750,2356.00
480.751,2316.00
481.752,2374.00
482.753,2357.00
483.751,2346.00
484.752,2361.00
485.753,2312.00
486.753,2308.00
487.753,2330.00
488.754,2428.00
489.754,2358.00
490.754,2369.00
491.754,2305.00
492.754,2380.00
493.753,2367.00
494.753,2395.00
495.752,2322.00
496.752,2341.00
497.749,2319.00
498.748,2338.00
499.747,2319.00
500.746,2307.00
501.745,2285.00
502.744,2335.00
503.742,2304.00
504.741,2281.00
505.739,2281.00
506.737,2254.00
507.735,2218.00
508.734,2233.00
509.732,2229.00
510.729,2238.00
511.727,2167.00
512.725,2239.00
513.720,2210.00
514.718,2277.00
515.715,2232.00
516.712,2157.00
517.709,2181.00
518.706,2185.00
519.703,2206.00
520.700,2191.00
521.696,2210.00
522.693,2205.00
523.689,2129.00
524.686,2139.00
525.682,2190.00
526.678,2188.00
527.674,2170.00
528.670,2134.00
529.666,2197.00
530.661,2185.00
531.657,2200.00
532.652,2233.00
533.648,2208.00
534.641,2153.00
535.636,2217.00
536.631,2199.00
537.626,2258.00
538.621,2229.00
539.616,2246.00
540.610,2230.00
541.605,2254.00
542.599,2275.00
543.593,2265.00
544.587,2256.00
545.581,2272.00
546.575,2337.00
547.569,2339.00
548.563,2257.00
549.557,2364.00
550.550,2257.00
551.543,2293.00
552.537,2322.00
553.530,2309.00
554.523,2312.00
555.516,2303.00
556.509,2289.00
557.502,2349.00
558.494,2319.00
559.487,2320.00
560.479,2390.00
561.472,2390.00
562.464,2310.00
563.456,2369.00
564.448,2300.00
565.440,2348.00
566.432,2385.00
567.423,2381.00
568.415,2435.00
569.404,2395.00
570.396,2509.00
571.387,2346.00
572.378,2438.00
573.369,2410.00
574.360,2374.00
575.351,2513.00
576.341,2525.00
577.332,2468.00
578.323,2464.00
579.313,2541.00
580.303,2541.00
581.293,2537.00
582.283,2580.00
583.273,2616.00
584.263,2657.00
585.253,2610.00
586.243,2594.00
587.232,2675.00
588.222,2637.00
589.211,2698.00
590.200,2701.00
591.189,2696.00
592.178,2733.00
593.167,2722.00
594.156,2683.00
595.145,2706.00
596.133,2700.00
597.122,2755.00
598.110,2756.00
599.098,2730.00
600.086,2712.00
601.074,2717.00
602.062,2646.00
603.050,2684.00
604.038,2708.00
605.025,2667.00
606.013,2611.00
607.000,2628.00
607.987,2597.00
608.975,2632.00
609.962,2522.00
610.949,2579.00
611.936,2501.00
612.922,2545.00
613.909,2519.00
614.895,2440.00
615.882,2505.00
616.868,2582.00
617.854,2462.00
618.841,2466.00
619.826,2432.00
620.812,2446.00
621.798,2445.00
622.784,2328.00
623.769,2360.00
624.755,2463.00
625.740,2355.00
626.725,2374.00
627.711,2281.00
628.698,2339.00
629.683,2375.00
630.667,2330.00
631.652,2255.00
632.637,2298.00
633.621,2190.00
634.606,2195.00
635.590,2213.00
636.574,2209.00
637.558,2164.00
638.542,2248.00
639.526,2161.00
640.510,2155.00
641.493,2174.00
642.477,2239.00
643.460,2141.00
644.444,2074.00
645.427,2117.00
646.410,2136.00
647.393,2086.00
648.376,2027.00
649.359,2055.00
650.341,2059.00
651.324,2023.00
652.307,2028.00
653.289,1962.00
654.271,2034.00
655.253,2046.00
656.235,2003.00
657.217,1956.00
658.199,1944.00
659.181,2024.00
660.163,1979.00
661.144,1973.00
662.126,1920.00
663.107,1901.00
664.088,1872.00
665.069,1909.00
666.050,1905.00
667.033,1855.00
668.014,1918.00
668.995,1843.00
669.975,1930.00
670.956,1874.00
671.936,1891.00
672.916,1793.00
673.896,1895.00
674.876,1840.00
675.856,1844.00
676.836,1829.00
677.816,1874.00
678.795,1746.00
679.775,1769.00
680.754,1783.00
681.734,1794.00
682.713,1733.00
683.692,1755.00
684.671,1711.00
685.650,1750.00
686.629,1725.00
687.607,1726.00
688.586,1762.00
689.564,1662.00
690.543,1739.00
691.523,1715.00
692.501,1656.00
693.479,1708.00
694.457,1661.00
695.435,1622.00
696.413,1679.00
697.390,1696.00
698.368,1599.00
699.345,1615.00
700.322,1616.00
701.300,1598.00
702.277,1691.00
703.254,1570.00
704.231,1595.00
705.207,1564.00
706.184,1564.00
707.161,1658.00
708.137,1531.00
709.113,1539.00
710.090,1560.00
711.068,1528.00
712.044,1557.00
713.020,1578.00
713.996,1494.00
714.971,1516.00
715.947,1525.00
716.922,1606.00
717.898,1472.00
718.873,1560.00
719.848,1464.00
720.823,1513.00
721.798,1556.00
722.773,1545.00
723.748,1528.00
724.723,1540.00
725.697,1479.00
726.672,1477.00
727.646,1510.00
728.622,1476.00
729.596,1477.00
730.570,1502.00
731.544,1542.00
732.518,1556.00
733.492,1549.00
734.466,1438.00
735.439,1456.00
736.413,1496.00
737.386,1504.00
738.359,1402.00
739.332,1424.00
740.305,1443.00
741.278,1480.00
742.251,1464.00
743.224,1471.00
744.196,1476.00
745.171,1401.00
746.143,1463.00
747.115,1431.00
748.087,1459.00
749.059,1393.00
750.031,1438.00
751.003,1394.00
751.975,1411.00
752.947,1378.00
753.918,1455.00
754.890,1437.00
755.861,1352.00
756.832,1421.00
757.803,1412.00
758.774,1342.00
759.747,1469.00
760.718,1396.00
761.689,1398.00
762.659,1399.00
763.630,1396.00
764.600,1383.00
765.570,1379.00
766.540,1416.00
767.510,1398.00
768.480,1381.00
769.450,1391.00
770.420,1391.00
771.390,1372.00
772.359,1392.00
773.329,1378.00
774.300,1366.00
775.269,1398.00
776.238,1421.00
777.207,1380.00
778.176,1357.00
779.145,1396.00
780.114,1388.00
781.083,1390.00
782.051,1340.00
783.019,1338.00
783.988,1329.00
784.956,1324.00
785.924,1328.00
786.894,1360.00
787.862,1348.00
788.830,1317.00
789.797,1321.00
790.765,1336.00
791.732,1353.00
792.700,1300.00
793.667,1331.00
794.634,1334.00
795.601,1304.00
796.568,1355.00
797.535,1336.00
798.502,1310.00
799.468,1305.00
800.437,1277.00
801.403,1238.00
802.370,1332.00
803.336,1285.00
804.302,1254.00
805.268,1302.00
806.234,1285.00
807.200,1332.00
808.166,1277.00
809.131,1345.00
810.097,1268.00
811.062,1279.00
812.027,1263.00
812.994,1307.00
813.960,1282.00
814.925,1271.00
815.889,1198.00
816.854,1246.00
817.819,1286.00
818.783,1284.00
819.748,1250.00
820.712,1251.00
821.677,1228.00
822.641,1240.00
823.605,1224.00
824.571,1173.00
825.534,1182.00
826.498,1200.00
827.462,1204.00
828.425,1224.00
829.389,1246.00
830.352,1193.00
831.315,1240.00
832.279,1215.00
833.242,1212.00
834.204,1264.00
835.167,1218.00
836.132,1195.00
837.095,1245.00
838.057,1212.00
839.020,1192.00
839.982,1227.00
840.944,1238.00
841.906,1254.00
842.868,1199.00
843.830,1160.00
844.792,1239.00
845.753,1199.00
846.715,1196.00
847.679,1153.00
848.640,1180.00
849.601,1250.00
850.562,1255.00
851.523,1268.00
852.484,1186.00
853.445,1153.00
854.406,1219.00
855.367,1134.00
856.327,1196.00
857.288,1219.00
858.248,1210.00
859.210,1222.00
860.170,1244.00
861.130,1225.00
862.090,1174.00
863.050,1208.00
864.010,1228.00
864.969,1176.00
865.929,1174.00
866.888,1145.00
867.848,1188.00
868.807,1207.00
869.766,1180.00
870.727,1200.00
871.686,1158.00
872.645,1176.00
873.604,1170.00
874.562,1185.00
875.521,1176.00
876.479,1168.00
877.437,1224.00
878.396,1197.00
879.354,1194.00
880.312,1152.00
881.270,1240.00
882.229,1244.00
883.187,1210.00
884.145,1164.00
885.102,1203.00
886.059,1172.00
887.017,1124.00
887.974,1217.00
888.931,1172.00
889.888,1142.00
890.845,1116.00
891.802,1132.00
892.758,1145.00
893.717,1120.00
894.673,1168.00
895.630,1191.00
896.586,1180.00
897.542,1166.00
898.498,1140.00
899.454,1120.00
900.410,1170.00
901.366,1184.00
902.321,1229.00
903.277,1112.00
904.232,1164.00
905.189,1231.00
906.145,1172.00
907.100,1186.00
908.055,1177.00
909.010,1137.00
909.965,1182.00
910.919,1119.00
911.874,1196.00
912.828,1130.00
913.783,1133.00
914.737,1184.00
915.693,1206.00
916.648,1212.00
917.602,1144.00
918.555,1202.00
919.509,1203.00
920.463,1220.00
921.417,1200.00
922.370,1213.00
923.324,1136.00
924.277,1246.00
925.230,1251.00
926.183,1249.00
927.138,1234.00
928.091,1219.00
929.044,1216.00
929.996,1190.00
930.949,1151.00
931.902,1199.00
932.854,1195.00
933.806,1187.00
934.758,1204.00
935.711,1211.00
936.663,1239.00
937.614,1281.00
938.568,1155.00
939.520,1179.00
940.471,1217.00
941.423,1277.00
942.374,1187.00
943.326,1270.00
944.277,1265.00
945.228,1173.00
946.179,1139.00
947.130,1301.00
948.080,1225.00
949.031,1130.00
949.984,1210.00
950.934,1213.00
951.884,1219.00
952.835,1190.00
953.785,1179.00
954.735,1280.00
955.685,1241.00
956.635,1178.00
957.585,1131.00
958.534,1229.00
959.484,1235.00
960.433,1294.00
961.383,1204.00
962.334,1294.00
963.283,1239.00
964.232,1277.00
965.181,1221.00
966.130,1252.00
967.079,1211.00
968.027,1174.00
968.976,1213.00
969.924,1246.00
970.873,1301.00
971.821,1222.00
972.769,1280.00
973.719,1273.00
974.667,1245.00
975.615,1231.00
976.562,1207.00
977.510,1228.00
978.458,1247.00
979.405,1258.00
980.352,1242.00
981.300,1218.00
982.247,1227.00
983.194,1209.00
984.141,1220.00
985.088,1255.00
986.036,1257.00
986.983,1251.00
987.930,1254.00
988.876,1272.00
989.822,1267.00
990.769,1257.00
991.715,1242.00
992.661,1276.00
993.607,1249.00
994.553,1237.00
995.498,1262.00
996.444,1269.00
997.389,1300.00
998.337,1227.00
999.282,1302.00
1000.227,1243.00
1001.173,1253.00
1002.118,1265.00
1003.062,1325.00
1004.007,1303.00
1004.952,1261.00
1005.897,1326.00
1006.841,1274.00
1007.786,1321.00
1008.730,1293.00
1009.674,1295.00
1010.618,1264.00
1011.564,1323.00
1012.508,1383.00
1013.452,1317.00
1014.396,1330.00
1015.339,1279.00
1016.283,1351.00
1017.226,1439.00
1018.170,1314.00
1019.113,1293.00
1020.056,1346.00
1020.999,1318.00
1021.942,1358.00
1022.885,1312.00
1023.828,1349.00
1024.770,1315.00
1025.715,1305.00
1026.657,1344.00
1027.600,1360.00
1028.542,1330.00
1029.484,1374.00
1030.426,1390.00
1031.368,1425.00
1032.310,1355.00
1033.251,1373.00
1034.193,1323.00
1035.135,1368.00
1036.076,1402.00
1037.017,1354.00
1037.959,1354.00
1038.900,1385.00
1039.843,1389.00
1040.784,1429.00
1041.725,1367.00
1042.665,1368.00
1043.606,1395.00
1044.547,1385.00
1045.487,1446.00
1046.427,1419.00
1047.368,1400.00
1048.308,1465.00
1049.248,1438.00
1050.188,1444.00
1051.128,1445.00
1052.067,1440.00
1053.007,1438.00
1053.947,1447.00
1054.886,1491.00
1055.827,1477.00
1056.766,1508.00
1057.706,1460.00
1058.645,1493.00
1059.584,1466.00
1060.522,1470.00
1061.461,1455.00
1062.400,1513.00
1063.338,1479.00
1064.277,1492.00
1065.215,1556.00
1066.154,1491.00
1067.092,1505.00
1068.030,1507.00
1068.968,1457.00
1069.906,1548.00
1070.843,1511.00
1071.781,1486.00
1072.720,1566.00
1073.658,1499.00
1074.595,1565.00
1075.533,1530.00
1076.470,1609.00
1077.407,1532.00
1078.344,1553.00
1079.281,1594.00
1080.217,1568.00
1081.154,1601.00
1082.091,1561.00
1083.027,1542.00
1083.964,1579.00
1084.900,1584.00
1085.836,1569.00
1086.772,1678.00
1087.708,1544.00
1088.644,1595.00
1089.580,1591.00
1090.515,1597.00
1091.451,1600.00
1092.388,1588.00
1093.324,1543.00
1094.259,1507.00
1095.194,1586.00
1096.129,1551.00
1097.064,1580.00
1097.999,1587.00
1098.934,1641.00
1099.869,1577.00
1100.803,1561.00
1101.738,1560.00
1102.672,1585.00
1103.607,1545.00
1104.541,1577.00
1105.475,1534.00
1106.409,1577.00
1107.343,1562.00
1108.277,1566.00
1109.210,1510.00
1110.144,1496.00
1111.078,1546.00
1112.011,1523.00
1112.944,1617.00
1113.878,1439.00
1114.811,1499.00
1115.744,1475.00
1116.678,1502.00
1117.611,1510.00
1118.544,1509.00
1119.477,1451.00
1120.409,1442.00
1121.342,1408.00
1122.274,1476.00
1123.206,1561.00
1124.138,1467.00
1125.070,1456.00
1126.002,1384.00
1126.934,1412.00
1127.866,1455.00
1128.798,1410.00
1129.729,1431.00
1130.661,1445.00
1131.592,1424.00
1132.523,1383.00
1133.454,1435.00
1134.385,1422.00
1135.317,1382.00
1136.247,1372.00
1137.178,1351.00
1138.109,1371.00
1139.039,1345.00
1139.970,1371.00
1140.900,1391.00
1141.831,1306.00
1142.761,1310.00
1143.691,1399.00
1144.621,1378.00
1145.551,1342.00
1146.480,1356.00
1147.410,1369.00
1148.340,1418.00
1149.269,1376.00
1150.199,1335.00
1151.128,1359.00
1152.057,1274.00
1152.979,1328.00
1153.898,1356.00
1154.819,1278.00
1155.739,1359.00
1156.658,1329.00
1157.579,1332.00
1158.498,1323.00
1159.419,1315.00
1160.338,1327.00
1161.256,1254.00
1162.177,1324.00
1163.095,1290.00
1164.016,1303.00
1164.934,1386.00
1165.852,1272.00
1166.772,1308.00
1167.690,1324.00
1168.610,1298.00
1169.528,1320.00
1170.446,1345.00
1171.365,1304.00
1172.283,1340.00
1173.202,1312.00
1174.120,1261.00
1175.037,1266.00
1175.956,1320.00
1176.873,1367.00
1177.792,1276.00
1178.709,1317.00
1179.626,1272.00
1180.544,1292.00
1181.461,1342.00
1182.379,1225.00
1183.296,1293.00
1184.212,1304.00
1185.130,1255.00
1186.046,1345.00
1186.962,1309.00
1187.880,1245.00
1188.796,1289.00
1189.714,1281.00
1190.629,1317.00
1191.545,1283.00
1192.462,1287.00
1193.378,1318.00
1194.295,1337.00
1195.210,1339.00
1196.125,1310.00
1197.042,1342.00
1197.957,1353.00
1198.872,1278.00
1199.788,1355.00
1200.703,1355.00
1201.619,1293.00
1202.534,1333.00
1203.448,1385.00
1204.364,1287.00
1205.278,1294.00
1206.192,1326.00
1207.108,1361.00
1208.022,1355.00
1208.938,1325.00
1209.851,1392.00
1210.765,1380.00
1211.680,1402.00
1212.594,1357.00
1213.507,1387.00
1214.422,1351.00
1215.335,1272.00
1216.248,1391.00
1217.163,1394.00
1218.076,1381.00
1218.990,1425.00
1219.903,1376.00
1220.816,1362.00
1221.730,1413.00
1222.642,1421.00
1223.554,1439.00
1224.469,1360.00
1225.380,1384.00
1226.292,1434.00
1227.206,1423.00
1228.118,1446.00
1229.032,1448.00
1229.943,1428.00
1230.855,1443.00
1231.768,1435.00
1232.679,1520.00
1233.590,1401.00
1234.503,1423.00
1235.414,1483.00
1236.325,1474.00
1237.238,1516.00
1238.149,1477.00
1239.059,1489.00
1239.972,1478.00
1240.882,1472.00
1241.793,1484.00
1242.705,1482.00
1243.615,1570.00
1244.525,1557.00
1245.437,1541.00
1246.347,1499.00
1247.259,1529.00
1248.168,1525.00
1249.078,1541.00
1249.989,1562.00
1250.899,1557.00
1251.808,1575.00
1252.719,1534.00
1253.628,1606.00
1254.537,1552.00
1255.448,1606.00
1256.357,1643.00
1257.266,1611.00
1258.176,1617.00
1259.085,1613.00
1259.993,1695.00
1260.904,1698.00
1261.812,1666.00
1262.720,1725.00
1263.630,1730.00
1264.538,1678.00
1265.446,1753.00
1266.356,1624.00
1267.263,1733.00
1268.171,1720.00
1269.080,1691.00
1269.988,1714.00
1270.895,1717.00
1271.804,1718.00
1272.711,1692.00
1273.619,1758.00
1274.527,1713.00
1275.434,1694.00
1276.341,1736.00
1277.248,1757.00
1278.156,1800.00
1279.063,1765.00
1279.969,1768.00
1280.877,1785.00
1281.783,1790.00
1282.690,1757.00
1283.598,1741.00
1284.503,1844.00
1285.409,1766.00
1286.317,1829.00
1287.223,1806.00
1288.128,1753.00
1289.036,1757.00
1289.941,1753.00
1290.846,1837.00
1291.751,1760.00
1292.658,1797.00
1293.563,1782.00
1294.468,1758.00
1295.375,1791.00
1296.280,1816.00
1297.184,1833.00
1298.091,1773.00
1298.995,1724.00
1299.900,1778.00
1300.806,1765.00
1301.710,1779.00
1302.614,1738.00
1303.518,1668.00
1304.424,1743.00
1305.327,1659.00
1306.231,1713.00
1307.137,1707.00
1308.040,1743.00
1308.943,1674.00
1309.847,1631.00
1310.752,1706.00
1311.655,1725.00
1312.558,1698.00
1313.463,1607.00
1314.366,1631.00
1315.269,1611.00
1316.171,1643.00
1317.076,1631.00
1317.978,1602.00
1318.881,1547.00
1319.785,1586.00
1320.687,1537.00
1321.589,1541.00
1322.491,1592.00
1323.395,1522.00
1324.297,1484.00
1325.198,1558.00
1326.102,1474.00
1327.004,1505.00
1327.905,1531.00
1328.806,1477.00
1329.709,1488.00
1330.611,1512.00
1331.512,1473.00
1332.413,1493.00
1333.316,1482.00
1334.216,1420.00
1335.117,1447.00
1336.020,1293.00
1336.920,1335.00
1337.821,1424.00
1338.721,1424.00
1339.623,1414.00
1340.523,1362.00
1341.423,1421.00
1342.323,1360.00
1343.225,1313.00
1344.125,1344.00
1345.025,1360.00
1345.924,1297.00
1346.826,1332.00
1347.725,1294.00
1348.624,1269.00
1349.524,1303.00
1350.425,1199.00
1351.324,1272.00
1352.223,1249.00
1353.121,1223.00
1354.022,1261.00
1354.921,1246.00
1355.819,1265.00
1356.718,1201.00
1357.618,1199.00
1358.516,1166.00
1359.415,1196.00
1360.313,1191.00
1361.213,1178.00
1362.111,1170.00
1363.008,1247.00
1363.906,1115.00
1364.806,1154.00
1365.703,1148.00
1366.601,1119.00
1367.498,1178.00
1368.397,1199.00
1369.295,1141.00
1370.192,1096.00
1371.089,1090.00
1371.987,1112.00
1372.884,1075.00
1373.781,1166.00
1374.678,1143.00
1375.574,1088.00
1376.473,1087.00
1377.369,995.00
1378.265,1113.00
1379.161,1062.00
1380.059,1076.00
1380.955,1081.00
1381.851,1106.00
1382.747,1035.00
1383.643,1103.00
1384.540,1068.00
1385.436,994.00
1386.331,1080.00
1387.227,1038.00
1388.124,1038.00
1389.019,1031.00
1389.914,1064.00
1390.809,1033.00
1391.704,1020.00
1392.601,988.00
1393.495,975.00
1394.390,956.00
1395.285,973.00
1396.179,1001.00
1397.075,987.00
1397.969,1017.00
1398.864,984.00
1399.758,994.00
1400.652,970.00
1401.547,990.00
1402.441,950.00
1403.335,949.00
1404.229,1020.00
1405.122,991.00
1406.017,916.00
1406.911,968.00
1407.804,943.00
1408.697,932.00
1409.590,938.00
1410.485,965.00
1411.378,921.00
1412.271,986.00
1413.163,948.00
1414.056,915.00
1414.949,922.00
1415.843,951.00
1416.735,919.00
1417.627,925.00
1418.520,942.00
1419.412,904.00
1420.306,926.00
1421.197,906.00
1422.089,958.00
1422.981,888.00
1423.873,888.00
1424.764,932.00
1425.657,929.00
1426.549,928.00
1427.440,923.00
1428.331,903.00
1429.222,864.00
1430.113,894.00
1431.006,873.00
1431.897,870.00
1432.787,929.00
1433.678,904.00
1434.568,892.00
1435.459,917.00
1436.351,867.00
1437.241,886.00
1438.131,900.00
1439.021,928.00
1439.911,857.00
1440.801,882.00
1441.693,864.00
1442.583,885.00
1443.472,872.00
1444.362,878.00
1445.251,829.00
1446.140,848.00
1447.030,846.00
1447.921,868.00
1448.810,844.00
1449.699,855.00
1450.588,887.00
1451.476,836.00
1452.365,835.00
1453.254,836.00
1454.144,822.00
1455.032,846.00
1455.921,852.00
1456.809,842.00
1457.697,835.00
1458.585,817.00
1459.473,872.00
1460.361,837.00
1461.251,837.00
1462.138,821.00
1463.026,797.00
1463.913,829.00
1464.801,774.00
1465.688,857.00
1466.575,805.00
1467.463,853.00
1468.351,773.00
1469.238,777.00
1470.125,793.00
1471.012,813.00
1471.899,814.00
1472.785,850.00
1473.672,819.00
1474.558,813.00
1475.446,802.00
1476.333,851.00
1477.219,747.00
1478.105,802.00
1478.991,763.00
1479.877,772.00
1480.762,815.00
1481.648,755.00
1482.534,793.00
1483.419,746.00
1484.307,748.00
1485.192,866.00
1486.077,723.00
1486.962,790.00
1487.847,785.00
1488.732,792.00
1489.617,747.00
1490.502,822.00
1491.387,767.00
1492.271,770.00
1493.156,757.00
1494.042,781.00
1494.927,848.00
1495.811,762.00
1496.695,752.00
1497.579,794.00
1498.463,777.00
1499.347,735.00
1500.231,792.00
1501.114,736.00
1501.998,739.00
1502.881,769.00
1503.765,797.00
1504.648,804.00
1505.533,719.00
1506.417,699.00
1507.300,738.00
1508.183,746.00
1509.066,737.00
1509.948,747.00
1510.831,718.00
1511.714,732.00
1512.596,675.00
1513.479,765.00
1514.361,798.00
1515.243,724.00
1516.125,752.00
1517.008,770.00
1517.890,706.00
1518.771,800.00
1519.655,724.00
1520.537,677.00
1521.419,707.00
1522.300,760.00
1523.182,739.00
1524.063,720.00
1524.944,711.00
1525.825,758.00
1526.707,728.00
1527.588,734.00
1528.468,709.00
1529.349,734.00
1530.230,704.00
1531.111,708.00
1531.991,743.00
1532.872,726.00
1533.752,676.00
1534.632,676.00
1535.513,683.00
1536.393,722.00
1537.273,728.00
1538.153,603.00
1539.032,652.00
1539.912,718.00
1540.792,703.00
1541.672,772.00
1542.551,727.00
1543.430,704.00
1544.310,704.00
1545.189,722.00
1546.068,720.00
1546.947,703.00
1547.826,728.00
1548.705,736.00
1549.584,703.00
1550.462,715.00
1551.341,734.00
1552.219,715.00
1553.098,711.00
1553.976,649.00
1554.854,733.00
1555.733,701.00
1556.611,693.00
1557.489,698.00
1558.367,683.00
1559.244,635.00
1560.122,665.00
1561.000,673.00
1561.877,689.00
1562.755,718.00
1563.632,679.00
1564.509,734.00
1565.386,630.00
1566.264,659.00
1567.141,684.00
1568.017,650.00
1568.894,708.00
1569.771,688.00
1570.648,670.00
1571.524,639.00
1572.401,675.00
1573.277,676.00
1574.153,648.00
1575.029,652.00
1575.906,739.00
1576.781,665.00
1577.657,661.00
1578.533,700.00
1579.409,635.00
1580.285,634.00
1581.160,669.00
1582.036,686.00
1582.911,679.00
1583.786,622.00
1584.662,608.00
1585.537,646.00
1586.412,696.00
1587.287,686.00
1588.160,671.00
1589.035,624.00
1589.909,668.00
1590.784,623.00
1591.658,636.00
1592.533,622.00
1593.407,688.00
1594.281,651.00
1595.155,594.00
1596.029,644.00
1596.903,643.00
1597.777,625.00
1598.651,693.00
1599.525,708.00
1600.398,647.00
1601.272,606.00
1602.144,618.00
1603.017,614.00
1603.890,620.00
1604.763,663.00
1605.636,648.00
1606.509,672.00
1607.382,671.00
1608.255,664.00
1609.128,626.00
1610.000,612.00
1610.873,676.00
1611.746,658.00
1612.616,675.00
1613.488,644.00
1614.361,592.00
1615.233,595.00
1616.105,679.00
1616.977,626.00
1617.849,579.00
1618.720,664.00
1619.592,689.00
1620.464,630.00
1621.333,588.00
1622.205,602.00
1623.076,676.00
1623.947,638.00
1624.818,584.00
1625.689,644.00
1626.560,645.00
1627.431,640.00
1628.302,648.00
1629.171,612.00
1630.042,656.00
1630.912,642.00
1631.782,640.00
1632.653,636.00
1633.523,632.00
1634.393,689.00
1635.263,644.00
1636.131,656.00
1637.001,684.00
1637.871,653.00
1638.741,650.00
1639.611,553.00
1640.480,601.00
1641.350,651.00
1642.219,623.00
1643.087,559.00
1643.956,677.00
1644.825,647.00
1645.694,629.00
1646.563,605.00
1647.432,575.00
1648.299,602.00
1649.167,615.00
1650.036,587.00
1650.904,578.00
1651.773,617.00
1652.641,617.00
1653.509,614.00
1654.376,583.00
1655.244,621.00
1656.112,613.00
1656.980,625.00
1657.847,623.00
1658.715,659.00
1659.581,578.00
1660.448,565.00
1661.316,614.00
1662.183,609.00
1663.051,638.00
1663.918,709.00
1664.783,650.00
1665.650,595.00
1666.517,634.00
1667.384,519.00
1668.251,594.00
1669.115,649.00
1669.982,655.00
1670.849,605.00
1671.715,578.00
1672.581,605.00
1673.446,622.00
1674.312,607.00
1675.178,597.00
1676.044,607.00
1676.910,634.00
1677.774,624.00
1678.639,578.00
1679.505,565.00
1680.370,651.00
1681.236,656.00
1682.099,628.00
1682.965,557.00
1683.830,539.00
1684.695,606.00
1685.560,584.00
1686.423,589.00
1687.288,649.00
1688.153,558.00
1689.017,544.00
1689.880,567.00
1690.745,663.00
1691.609,525.00
1692.473,564.00
1693.338,589.00
1694.200,566.00
1695.064,598.00
1695.928,562.00
1696.792,601.00
1697.654,621.00
1698.517,556.00
1699.381,593.00
1700.245,591.00
1701.106,605.00
1701.969,602.00
1702.833,641.00
1703.696,577.00
1704.557,595.00
1705.420,566.00
1706.283,615.00
1707.146,575.00
1708.007,579.00
1708.870,550.00
1709.732,621.00
1710.595,589.00
1711.455,621.00
1712.318,594.00
1713.180,568.00
1714.040,571.00
1714.902,583.00
1715.764,538.00
1716.626,513.00
1717.486,533.00
1718.348,569.00
1719.209,602.00
1720.071,617.00
1720.930,562.00
1721.792,615.00
1722.653,550.00
1723.512,596.00
1724.374,514.00
1725.234,565.00
1726.095,601.00
1726.954,620.00
1727.815,548.00
1728.676,624.00
1729.535,551.00
1730.395,574.00
1731.256,647.00
1732.114,540.00
1732.974,589.00
1733.834,629.00
1734.693,548.00
1735.553,562.00
1736.413,568.00
1737.272,586.00
1738.130,535.00
1738.990,603.00
1739.849,587.00
1740.707,555.00
1741.566,620.00
1742.426,571.00
1743.283,590.00
1744.142,530.00
1745.001,625.00
1745.858,592.00
1746.717,515.00
1747.576,556.00
1748.433,584.00
1749.292,601.00
1750.150,548.00
1751.007,585.00
1751.865,581.00
1752.723,609.00
1753.579,559.00
1754.438,576.00
1755.296,562.00
1756.152,589.00
1757.010,514.00
1757.865,538.00
1758.723,539.00
1759.581,585.00
1760.436,489.00
1761.294,600.00
1762.151,604.00
1763.006,567.00
1763.864,583.00
1764.721,570.00
1765.576,477.00
1766.433,564.00
1767.288,594.00
1768.144,506.00
1769.001,592.00
1769.856,614.00
1770.712,567.00
1771.568,568.00
1772.423,527.00
1773.279,588.00
1774.133,545.00
1774.989,582.00
1775.845,536.00
1776.699,513.00
1777.555,517.00
1778.409,630.00
1779.265,527.00
1780.120,588.00
1780.974,597.00
1781.829,538.00
1782.682,560.00
1783.538,563.00
1784.393,509.00
1785.246,565.00
1786.101,593.00
1786.954,612.00
1787.808,539.00
1788.661,585.00
1789.516,490.00
1790.370,569.00
1791.223,583.00
1792.077,541.00
1792.930,549.00
1793.784,492.00
1794.636,559.00
1795.490,562.00
1796.344,558.00
1797.196,581.00
1798.049,545.00
1798.901,541.00
1799.755,533.00
1800.606,524.00
1801.460,535.00
1802.311,570.00
1803.165,570.00
1804.018,537.00
1804.869,503.00
1805.722,573.00
1806.573,584.00
1807.426,540.00
1808.276,549.00
1809.129,495.00
1809.980,555.00
1810.832,599.00
1811.683,544.00
1812.535,514.00
1813.385,606.00
1814.237,515.00
1815.089,498.00
1815.940,565.00
1816.791,547.00
1817.641,528.00
1818.493,538.00
1819.343,604.00
1820.194,593.00
1821.044,541.00
1821.895,564.00
1822.745,588.00
1823.596,521.00
1824.445,570.00
1825.296,571.00
1826.145,492.00
1826.996,569.00
1827.845,463.00
1828.695,528.00
1829.544,566.00
1830.395,528.00
1831.243,527.00
1832.094,555.00
1832.942,568.00
1833.792,491.00
1834.640,557.00
1835.490,529.00
1836.338,515.00
1837.186,504.00
1838.036,550.00
1838.884,575.00
1839.733,514.00
1840.581,526.00
1841.430,528.00
1842.278,513.00
1843.127,534.00
1843.974,508.00
1844.823,484.00
1845.671,604.00
1846.519,527.00
1847.366,568.00
1848.213,565.00
1849.062,528.00
1849.909,540.00
1850.757,585.00
1851.604,504.00
1852.452,569.00
1853.298,544.00
1854.146,572.00
1854.993,534.00
1855.839,539.00
1856.687,519.00
1857.532,517.00
1858.380,551.00
1859.226,517.00
1860.073,550.00
1860.919,535.00
1861.765,529.00
1862.612,554.00
1863.457,550.00
1864.304,561.00
1865.150,498.00
1865.995,494.00
1866.842,509.00
1867.686,511.00
1868.533,486.00
1869.378,576.00
1870.223,483.00
1871.069,526.00
1871.914,521.00
1872.760,579.00
1873.604,563.00
1874.448,563.00
1875.294,601.00
1876.139,489.00
1876.984,578.00
1877.828,514.00
1878.672,558.00
1879.518,519.00
1880.361,523.00
1881.205,508.00
1882.050,556.00
1882.894,536.00
1883.739,506.00
1884.582,554.00
1885.425,515.00
1886.270,520.00
1887.113,528.00
1887.956,456.00
1888.801,529.00
1889.644,622.00
1890.486,496.00
1891.331,536.00
1892.173,548.00
1893.017,559.00
1893.860,521.00
1894.702,525.00
1895.546,492.00
1896.388,580.00
1897.230,518.00
1898.074,530.00
1898.916,534.00
1899.757,508.00
1900.601,559.00
1901.443,553.00
1902.284,540.00
1903.125,567.00
1903.969,511.00
1904.810,586.00
1905.651,553.00
1906.494,496.00
1907.335,598.00
1908.176,533.00
1909.018,568.00
1909.859,491.00
1910.700,525.00
1911.542,528.00
1912.383,489.00
1913.223,543.00
1914.064,547.00
1914.906,482.00
1915.746,536.00
1916.586,507.00
1917.428,502.00
1918.268,518.00
1919.107,507.00
1919.947,536.00
1920.789,502.00
1921.628,484.00
1922.468,547.00
1923.309,466.00
1924.148,559.00
1924.988,560.00
1925.827,508.00
1926.667,514.00
1927.507,576.00
1928.345,526.00
1929.184,543.00
1930.025,532.00
1930.864,545.00
1931.702,536.00
1932.541,580.00
1933.381,534.00
1934.219,489.00
1935.057,501.00
1935.896,544.00
1936.735,531.00
1937.573,568.00
1938.411,554.00
1939.249,541.00
1940.089,485.00
1940.927,498.00
1941.764,491.00
1942.602,533.00
1943.439,513.00
1944.278,515.00
1945.115,568.00
1945.953,525.00
1946.790,539.00
1947.628,514.00
1948.465,553.00
1949.302,501.00
1950.139,423.00
1950.976,527.00
1951.814,504.00
1952.651,525.00
1953.487,541.00
1954.323,610.00
1955.160,486.00
1955.998,576.00
1956.834,514.00
1957.670,511.00
1958.506,488.00
1959.342,484.00
1960.177,500.00
1961.015,487.00
1961.850,490.00
1962.686,517.00
1963.521,508.00
1964.357,559.00
1965.192,514.00
1966.029,496.00
1966.864,530.00
1967.699,581.00
1968.534,514.00
1969.369,531.00
1970.204,552.00
1971.040,491.00
1971.875,538.00
1972.709,536.00
1973.544,506.00
1974.378,505.00
1975.212,518.00
1976.047,456.00
1976.882,505.00
1977.716,536.00
1978.550,501.00
1979.384,523.00
1980.218,488.00
1981.052,511.00
1981.885,528.00
1982.719,534.00
1983.554,510.00
1984.388,560.00
1985.221,493.00
1986.054,508.00
1986.887,536.00
1987.720,419.00
1988.553,513.00
1989.386,462.00
1990.219,520.00
1991.053,521.00
1991.886,509.00
1992.719,522.00
1993.551,521.00
1994.383,527.00
1995.216,525.00
1996.048,509.00
1996.880,509.00
1997.712,578.00
1998.544,529.00
1999.376,526.00
2000.208,483.00
2000.208,483.00

Max Intensity Wave.,227.130
Max Intensity Data,6079.00
Min Intensity Wave.,1987.720
Min Intensity Data,419.00
FWHM Wave.,402.324
FWHM Value,1.10
Pressure Wave.,1284.566
Pressure Value [GPa],7892.55513
G/D Ratio,0.43390
G/D Gband Wave.,1541.764
G/D Gband Intensity,772.63
G/D Dband Wave.,1301.488
G/D Dband Intensity,1780.66

<< BACKGROUND SPECTRUM >>
Wave[dcm-1],No270
146.591,2243.00
147.626,2079.00
148.664,2048.00
149.699,2475.00
150.737,2196.00
151.772,2394.00
152.809,2359.00
153.846,2277.00
154.881,2366.00
155.918,1941.00
156.953,2293.00
157.989,2574.00
159.026,2402.00
160.060,2636.00
161.096,2823.00
162.130,2482.00
163.167,2512.00
164.200,2424.00
165.236,2636.00
166.272,2659.00
167.305,2248.00
168.341,2548.00
169.374,2776.00
170.409,2768.00
171.445,2695.00
172.477,2476.00
173.512,2376.00
174.545,2656.00
175.580,2828.00
176.614,3027.00
177.647,2801.00
178.681,3032.00
179.713,3273.00
180.747,2768.00
181.781,2682.00
182.813,2971.00
183.847,3005.00
184.878,2695.00
185.912,2936.00
186.945,3109.00
187.976,3034.00
189.010,2699.00
190.043,2794.00
191.073,2877.00
192.106,2747.00
193.137,3125.00
194.170,2498.00
195.202,2896.00
196.232,2650.00
197.265,2950.00
198.297,3043.00
199.327,2761.00
200.359,2925.00
201.388,3260.00
202.420,2857.00
203.452,3079.00
204.481,2631.00
205.512,3291.00
206.544,3040.00
207.573,2986.00
208.604,3375.00
209.635,3462.00
210.663,2926.00
211.694,2936.00
212.725,2828.00
213.753,2711.00
214.783,3372.00
215.813,3193.00
216.841,2961.00
217.871,3152.00
218.899,2903.00
219.929,3108.00
220.959,2867.00
221.986,3126.00
223.016,2749.00
224.045,3079.00
225.072,3060.00
226.101,3147.00
227.130,3212.00
228.157,2798.00
229.185,2363.00
230.214,3148.00
231.241,2798.00
232.269,2468.00
233.297,2685.00
234.323,3186.00
235.351,2793.00
236.379,3068.00
237.407,2769.00
238.433,2902.00
239.460,3080.00
240.488,3058.00
241.513,3204.00
242.540,3054.00
243.568,3165.00
244.592,3156.00
245.619,3169.00
246.646,2889.00
247.671,2961.00
248.697,2803.00
249.724,2957.00
250.748,2998.00
251.774,2971.00
252.801,3266.00
253.827,3067.00
254.850,3019.00
255.876,2617.00
256.902,3118.00
257.925,2936.00
258.951,2687.00
259.976,2747.00
260.999,3050.00
262.024,2752.00
263.049,3621.00
264.074,3051.00
265.097,2967.00
266.122,3084.00
267.146,2992.00
268.168,3150.00
269.193,2830.00
270.217,3219.00
271.241,2652.00
272.263,2852.00
273.287,3145.00
274.311,2772.00
275.332,3262.00
276.356,2844.00
277.379,3036.00
278.402,3099.00
279.424,2880.00
280.447,2868.00
281.470,2733.00
282.492,2989.00
283.513,2859.00
284.536,3105.00
285.558,3089.00
286.581,3110.00
287.601,2822.00
288.623,2779.00
289.645,3022.00
290.665,3066.00
291.687,3104.00
292.709,3093.00
293.730,3399.00
294.750,2877.00
295.771,2729.00
296.792,3012.00
297.813,2878.00
298.832,3019.00
299.853,2703.00
300.874,2935.00
301.895,2912.00
302.913,2912.00
303.934,3215.00
304.954,3007.00
305.975,3147.00
306.993,2725.00
308.013,3097.00
309.033,2963.00
310.052,2939.00
311.072,2867.00
312.090,3038.00
313.109,3234.00
314.129,3339.00
315.148,2959.00
316.165,3007.00
317.184,3204.00
318.203,2717.00
319.222,2743.00
320.238,3118.00
321.257,2811.00
322.275,2684.00
323.294,2971.00
324.312,3127.00
325.328,3252.00
326.346,3271.00
327.364,3228.00
328.382,3155.00
329.397,3079.00
330.415,3168.00
331.432,3199.00
332.450,3221.00
333.467,3418.00
334.482,2543.00
335.499,3309.00
336.516,2830.00
337.533,2570.00
338.547,2792.00
339.564,2846.00
340.580,3094.00
341.597,2960.00
342.613,3373.00
343.627,2956.00
344.643,2968.00
345.659,3096.00
346.675,2936.00
347.690,2823.00
348.704,3048.00
349.719,2860.00
350.735,2736.00
351.750,3148.00
352.765,3015.00
353.778,2952.00
354.793,3160.00
355.808,2808.00
356.822,3180.00
357.837,2638.00
358.851,3221.00
359.864,2920.00
360.878,2712.00
361.892,2944.00
362.906,3157.00
363.920,2559.00
364.932,3097.00
365.945,3056.00
366.959,2960.00
367.972,2907.00
368.986,2695.00
369.999,3303.00
371.010,2816.00
372.023,3308.00
373.036,2903.00
374.049,3311.00
375.061,3071.00
376.072,2976.00
377.084,2824.00
378.097,2707.00
379.109,3179.00
380.121,2983.00
381.133,2660.00
382.143,3088.00
383.155,2698.00
384.166,2890.00
385.178,3039.00
386.189,3189.00
387.201,2725.00
388.212,2901.00
389.221,2897.00
390.232,2991.00
391.243,2882.00
392.254,3014.00
393.264,2795.00
394.275,3174.00
395.283,3166.00
396.294,3624.00
397.304,3457.00
398.314,3018.00
399.324,2976.00
400.334,2641.00
401.344,3149.00
402.351,2611.00
403.361,3185.00
404.370,2949.00
405.380,2863.00
406.389,3310.00
407.398,3094.00
408.407,3066.00
409.414,3151.00
410.423,3286.00
411.431,2732.00
412.440,2645.00
413.448,3328.00
414.457,2870.00
415.465,2797.00
416.471,2889.00
417.479,2979.00
418.487,2841.00
419.495,3280.00
420.503,3098.00
421.510,2622.00
422.518,3150.00
423.525,3183.00
424.530,3409.00
425.537,2856.00
426.544,3229.00
427.551,2821.00
428.558,3586.00
429.565,3383.00
430.571,2893.00
431.578,2879.00
432.582,2870.00
433.588,2916.00
434.595,2619.00
435.601,3259.00
436.607,3227.00
437.612,2729.00
438.618,3316.00
439.624,2902.00
440.627,2923.00
441.633,3134.00
442.638,3586.00
443.643,3061.00
444.648,2993.00
445.653,3175.00
446.658,2884.00
447.663,2968.00
448.667,2867.00
449.672,2898.00
450.674,2923.00
451.678,2693.00
452.682,2844.00
453.687,2814.00
454.690,3613.00
455.694,3254.00
456.698,2582.00
457.702,2644.00
458.705,2817.00
459.709,2774.00
460.710,2864.00
461.713,3037.00
462.716,3048.00
463.719,2983.00
464.722,3140.00
465.725,2936.00
466.727,2806.00
467.730,3001.00
468.732,2746.00
469.735,3288.00
470.737,2837.00
471.737,2885.00
472.739,2875.00
473.741,2789.00
474.742,3036.00
475.744,3039.00
476.746,3043.00
477.747,2971.00
478.748,3118.00
479.750,2905.00
480.751,2954.00
481.752,3643.00
482.753,3074.00
483.751,3548.00
484.752,2594.00
485.753,2913.00
486.753,2842.00
487.753,2985.00
488.754,3369.00
489.754,2697.00
490.754,3278.00
491.754,3116.00
492.754,2639.00
493.753,2983.00
494.753,2859.00
495.752,3325.00
496.752,3041.00
497.749,2971.00
498.748,2855.00
499.747,3378.00
500.746,3087.00
501.745,2715.00
502.744,2690.00
503.742,3306.00
504.741,2921.00
505.739,2487.00
506.737,2866.00
507.735,3108.00
508.734,3324.00
509.732,3147.00
510.729,3314.00
511.727,2913.00
512.725,2893.00
513.720,2784.00
514.718,3203.00
515.715,2684.00
516.712,2607.00
517.709,2995.00
518.706,2896.00
519.703,3031.00
520.700,3181.00
521.696,3314.00
522.693,2899.00
523.689,2841.00
524.686,3179.00
525.682,2771.00
526.678,3433.00
527.674,2934.00
528.670,2602.00
529.666,3455.00
530.661,3442.00
531.657,3099.00
532.652,3144.00
533.648,2985.00
534.641,3231.00
535.636,3045.00
536.631,3099.00
537.626,3097.00
538.621,2722.00
539.616,2611.00
540.610,2498.00
541.605,2994.00
542.599,3039.00
543.593,2977.00
544.587,3862.00
545.581,2833.00
546.575,3012.00
547.569,3026.00
548.563,2691.00
549.557,2620.00
550.550,2786.00
551.543,2721.00
552.537,3109.00
553.530,2759.00
554.523,2761.00
555.516,3132.00
556.509,2951.00
557.502,2614.00
558.494,3158.00
559.487,2915.00
560.479,3164.00
561.472,3242.00
562.464,3117.00
563.456,3309.00
564.448,2950.00
565.440,2980.00
566.432,3360.00
567.423,2878.00
568.415,2862.00
569.404,3093.00
570.396,2752.00
571.387,3125.00
572.378,2984.00
573.369,3964.00
574.360,3682.00
575.351,2917.00
576.341,2830.00
577.332,2848.00
578.323,2729.00
579.313,2856.00
580.303,3203.00
581.293,3133.00
582.283,2981.00
583.273,3090.00
584.263,2973.00
585.253,3082.00
586.243,3111.00
587.232,2623.00
588.222,2932.00
589.211,3138.00
590.200,3040.00
591.189,2939.00
592.178,2919.00
593.167,3417.00
594.156,3265.00
595.145,2896.00
596.133,3423.00
597.122,3094.00
598.110,3163.00
599.098,3022.00
600.086,2988.00
601.074,3158.00
602.062,2817.00
603.050,2738.00
604.038,3057.00
605.025,2777.00
606.013,3188.00
607.000,3367.00
607.987,3000.00
608.975,3054.00
609.962,2770.00
610.949,3068.00
611.936,3234.00
612.922,3177.00
613.909,2681.00
614.895,3353.00
615.882,2801.00
616.868,2945.00
617.854,2739.00
618.841,2991.00
619.826,3086.00
620.812,2923.00
621.798,2786.00
622.784,3194.00
623.769,3122.00
624.755,2653.00
625.740,3047.00
626.725,2720.00
627.711,2848.00
628.698,3085.00
629.683,2782.00
630.667,3143.00
631.652,2773.00
632.637,2893.00
633.621,3170.00
634.606,2916.00
635.590,3094.00
636.574,2919.00
637.558,3022.00
638.542,3020.00
639.526,2833.00
640.510,2636.00
641.493,3034.00
642.477,2933.00
643.460,2668.00
644.444,3203.00
645.427,3241.00
646.410,2633.00
647.393,2930.00
648.376,3068.00
649.359,2883.00
650.341,3050.00
651.324,3063.00
652.307,3004.00
653.289,2956.00
654.271,2862.00
655.253,2876.00
656.235,3106.00
657.217,3200.00
658.199,2629.00
659.181,2717.00
660.163,2981.00
661.144,2865.00
662.126,2904.00
663.107,2746.00
664.088,6247.00
665.069,3203.00
666.050,2787.00
667.033,2705.00
668.014,3012.00
668.995,2591.00
669.975,2971.00
670.956,2958.00
671.936,3126.00
672.916,2976.00
673.896,3022.00
674.876,2907.00
675.856,2844.00
676.836,2725.00
677.816,2284.00
678.795,2797.00
679.775,2706.00
680.754,3013.00
681.734,3138.00
682.713,3160.00
683.692,2779.00
684.671,2644.00
685.650,2726.00
686.629,2860.00
687.607,2753.00
688.586,2718.00
689.564,2856.00
690.543,3217.00
691.523,2364.00
692.501,2811.00
693.479,2929.00
694.457,2796.00
695.435,2838.00
696.413,2652.00
697.390,2483.00
698.368,2691.00
699.345,3072.00
700.322,2912.00
701.300,3049.00
702.277,3007.00
703.254,3230.00
704.231,2572.00
705.207,2969.00
706.184,2767.00
707.161,2615.00
708.137,2833.00
709.113,2780.00
710.090,2774.00
711.068,2610.00
712.044,2634.00
713.020,2867.00
713.996,2617.00
714.971,2820.00
715.947,2820.00
716.922,2789.00
717.898,2754.00
718.873,2847.00
719.848,2744.00
720.823,2713.00
721.798,2963.00
722.773,2756.00
723.748,2494.00
724.723,2968.00
725.697,2838.00
726.672,2762.00
727.646,2497.00
728.622,2961.00
729.596,2572.00
730.570,2709.00
731.544,3037.00
732.518,3218.00
733.492,2762.00
734.466,2884.00
735.439,2983.00
736.413,3067.00
737.386,2452.00
738.359,2425.00
739.332,2532.00
740.305,2859.00
741.278,3271.00
742.251,2885.00
743.224,2679.00
744.196,2540.00
745.171,3119.00
746.143,2991.00
747.115,2795.00
748.087,2702.00
749.059,3064.00
750.031,2882.00
751.003,3663.00
751.975,3198.00
752.947,2712.00
753.918,3068.00
754.890,2552.00
755.861,2778.00
756.832,2989.00
757.803,2837.00
758.774,2849.00
759.747,2585.00
760.718,3189.00
761.689,2722.00
762.659,2587.00
763.630,3146.00
764.600,2550.00
765.570,3059.00
766.540,3132.00
767.510,2898.00
768.480,3044.00
769.450,2688.00
770.420,2810.00
771.390,2680.00
772.359,2745.00
773.329,2685.00
774.300,2501.00
775.269,2753.00
776.238,2984.00
777.207,3146.00
778.176,2518.00
779.145,2779.00
780.114,2659.00
781.083,2548.00
782.051,2773.00
783.019,2681.00
783.988,3066.00
784.956,2875.00
785.924,2976.00
786.894,2874.00
787.862,2710.00
788.830,3129.00
789.797,2606.00
790.765,2581.00
791.732,2712.00
792.700,2657.00
793.667,2578.00
794.634,2733.00
795.601,2754.00
796.568,2760.00
797.535,2839.00
798.502,3424.00
799.468,2858.00
800.437,2416.00
801.403,2669.00
802.370,3219.00
803.336,2936.00
804.302,2881.00
805.268,2420.00
806.234,2542.00
807.200,2723.00
808.166,2761.00
809.131,2518.00
810.097,2956.00
811.062,3612.00
812.027,2991.00
812.994,2614.00
813.960,2597.00
814.925,2897.00
815.889,2533.00
816.854,2991.00
817.819,2620.00
818.783,2683.00
819.748,3078.00
820.712,2739.00
821.677,2679.00
822.641,2701.00
823.605,2718.00
824.571,3136.00
825.534,2751.00
826.498,2702.00
827.462,2799.00
828.425,2621.00
829.389,3025.00
830.352,2830.00
831.315,2865.00
832.279,2503.00
833.242,2755.00
834.204,2638.00
835.167,2664.00
836.132,3011.00
837.095,2515.00
838.057,2714.00
839.020,2817.00
839.982,2837.00
840.944,2674.00
841.906,2622.00
842.868,2961.00
843.830,2543.00
844.792,3006.00
845.753,2669.00
846.715,2429.00
847.679,2591.00
848.640,2602.00
849.601,2705.00
850.562,3234.00
851.523,2686.00
852.484,2463.00
853.445,2992.00
854.406,2683.00
855.367,2733.00
856.327,2988.00
857.288,2495.00
858.248,2660.00
859.210,2679.00
860.170,2483.00
861.130,3024.00
862.090,2422.00
863.050,2601.00
864.010,2642.00
864.969,2883.00
865.929,2580.00
866.888,2528.00
867.848,2815.00
868.807,2645.00
869.766,2838.00
870.727,2681.00
871.686,2989.00
872.645,2999.00
873.604,3295.00
874.562,2724.00
875.521,2774.00
876.479,3351.00
877.437,2571.00
878.396,2558.00
879.354,3185.00
880.312,2592.00
881.270,2634.00
882.229,3046.00
883.187,2616.00
884.145,2638.00
885.102,2901.00
886.059,2825.00
887.017,2908.00
887.974,2884.00
888.931,3061.00
889.888,2535.00
890.845,2471.00
891.802,2361.00
892.758,2617.00
893.717,2406.00
894.673,2555.00
895.630,2635.00
896.586,2898.00
897.542,2671.00
898.498,2544.00
899.454,2875.00
900.410,2647.00
901.366,2684.00
902.321,2578.00
903.277,2713.00
904.232,2743.00
905.189,2467.00
906.145,2680.00
907.100,2192.00
908.055,2690.00
909.010,2898.00
909.965,2326.00
910.919,2801.00
911.874,2553.00
912.828,2772.00
913.783,2817.00
914.737,2353.00
915.693,2726.00
916.648,2899.00
917.602,2968.00
918.555,2790.00
919.509,2815.00
920.463,2737.00
921.417,2726.00
922.370,2556.00
923.324,2677.00
924.277,2650.00
925.230,2739.00
926.183,2380.00
927.138,2680.00
928.091,2927.00
929.044,2796.00
929.996,2663.00
930.949,2672.00
931.902,2805.00
932.854,2846.00
933.806,2609.00
934.758,2959.00
935.711,2984.00
936.663,2774.00
937.614,2761.00
938.568,2754.00
939.520,2427.00
940.471,2709.00
941.423,2765.00
942.374,2906.00
943.326,2709.00
944.277,2575.00
945.228,2855.00
946.179,2734.00
947.130,2985.00
948.080,2662.00
949.031,2602.00
949.984,2662.00
950.934,2697.00
951.884,2450.00
952.835,2717.00
953.785,2785.00
954.735,2585.00
955.685,2355.00
956.635,2656.00
957.585,2671.00
958.534,2659.00
959.484,2719.00
960.433,2602.00
961.383,2485.00
962.334,2942.00
963.283,2774.00
964.232,2811.00
965.181,2700.00
966.130,2771.00
967.079,2641.00
968.027,2764.00
968.976,2775.00
969.924,2616.00
970.873,2766.00
971.821,2734.00
972.769,2909.00
973.719,2835.00
974.667,2480.00
975.615,2716.00
976.562,2757.00
977.510,2398.00
978.458,2594.00
979.405,2841.00
980.352,2769.00
981.300,2982.00
982.247,2761.00
983.194,2557.00
984.141,2667.00
985.088,2735.00
986.036,2788.00
986.983,3014.00
987.930,3143.00
988.876,2379.00
989.822,2938.00
990.769,2553.00
991.715,2596.00
992.661,2410.00
993.607,2810.00
994.553,3285.00
995.498,2603.00
996.444,2284.00
997.389,2789.00
998.337,2532.00
999.282,2831.00
1000.227,2655.00
1001.173,2769.00
1002.118,2446.00
1003.062,2913.00
1004.007,2659.00
1004.952,2979.00
1005.897,2935.00
1006.841,2705.00
1007.786,2467.00
1008.730,2447.00
1009.674,3198.00
1010.618,2678.00
1011.564,2511.00
1012.508,2366.00
1013.452,2959.00
1014.396,2709.00
1015.339,2637.00
1016.283,2658.00
1017.226,2712.00
1018.170,2735.00
1019.113,2898.00
1020.056,2719.00
1020.999,2757.00
1021.942,2593.00
1022.885,2867.00
1023.828,3005.00
1024.770,2499.00
1025.715,2742.00
1026.657,2683.00
1027.600,2771.00
1028.542,2946.00
1029.484,2747.00
1030.426,2829.00
1031.368,2718.00
1032.310,2575.00
1033.251,2512.00
1034.193,2687.00
1035.135,2495.00
1036.076,2617.00
1037.017,2523.00
1037.959,2829.00
1038.900,2779.00
1039.843,2802.00
1040.784,2762.00
1041.725,2803.00
1042.665,2611.00
1043.606,2758.00
1044.547,2757.00
1045.487,2353.00
1046.427,2650.00
1047.368,2771.00
1048.308,2213.00
1049.248,2511.00
1050.188,2679.00
1051.128,2605.00
1052.067,2658.00
1053.007,2391.00
1053.947,2411.00
1054.886,2527.00
1055.827,2467.00
1056.766,2884.00
1057.706,2451.00
1058.645,2651.00
1059.584,2758.00
1060.522,2955.00
1061.461,2469.00
1062.400,2466.00
1063.338,2638.00
1064.277,2500.00
1065.215,2482.00
1066.154,2406.00
1067.092,2585.00
1068.030,2636.00
1068.968,2880.00
1069.906,2972.00
1070.843,2952.00
1071.781,2766.00
1072.720,2780.00
1073.658,2836.00
1074.595,2596.00
1075.533,2573.00
1076.470,2532.00
1077.407,2976.00
1078.344,2781.00
1079.281,2780.00
1080.217,2299.00
1081.154,2665.00
1082.091,2736.00
1083.027,2454.00
1083.964,2921.00
1084.900,2550.00
1085.836,2615.00
1086.772,2848.00
1087.708,2441.00
1088.644,2802.00
1089.580,2673.00
1090.515,2755.00
1091.451,2617.00
1092.388,2710.00
1093.324,2488.00
1094.259,3266.00
1095.194,2731.00
1096.129,2623.00
1097.064,2565.00
1097.999,2820.00
1098.934,2513.00
1099.869,2566.00
1100.803,2715.00
1101.738,2731.00
1102.672,2373.00
1103.607,2847.00
1104.541,2533.00
1105.475,2554.00
1106.409,2386.00
1107.343,2607.00
1108.277,2439.00
1109.210,2698.00
1110.144,2672.00
1111.078,2657.00
1112.011,2459.00
1112.944,2762.00
1113.878,2741.00
1114.811,2189.00
1115.744,2587.00
1116.678,2298.00
1117.611,2552.00
1118.544,2611.00
1119.477,2754.00
1120.409,2582.00
1121.342,3160.00
1122.274,2764.00
1123.206,4187.00
1124.138,2676.00
1125.070,2984.00
1126.002,2873.00
1126.934,2344.00
1127.866,2578.00
1128.798,2344.00
1129.729,2373.00
1130.661,2630.00
1131.592,2568.00
1132.523,2780.00
1133.454,2753.00
1134.385,2290.00
1135.317,2644.00
1136.247,2596.00
1137.178,2856.00
1138.109,2418.00
1139.039,3016.00
1139.970,2817.00
1140.900,2561.00
1141.831,2388.00
1142.761,2288.00
1143.691,2748.00
1144.621,2651.00
1145.551,2695.00
1146.480,2700.00
1147.410,2852.00
1148.340,2276.00
1149.269,2350.00
1150.199,2579.00
1151.128,3013.00
1152.057,2465.00
1152.979,2569.00
1153.898,2620.00
1154.819,2754.00
1155.739,2630.00
1156.658,2554.00
1157.579,2679.00
1158.498,2641.00
1159.419,2173.00
1160.338,2684.00
1161.256,2756.00
1162.177,2486.00
1163.095,2614.00
1164.016,2722.00
1164.934,2869.00
1165.852,2821.00
1166.772,2613.00
1167.690,2661.00
1168.610,2701.00
1169.528,2646.00
1170.446,2174.00
1171.365,2582.00
1172.283,2499.00
1173.202,2662.00
1174.120,2712.00
1175.037,2501.00
1175.956,2448.00
1176.873,2483.00
1177.792,2528.00
1178.709,3117.00
1179.626,2554.00
1180.544,2864.00
1181.461,2507.00
1182.379,2732.00
1183.296,2639.00
1184.212,2288.00
1185.130,2485.00
1186.046,2914.00
1186.962,2617.00
1187.880,2915.00
1188.796,2716.00
1189.714,2427.00
1190.629,2753.00
1191.545,2714.00
1192.462,2554.00
1193.378,2640.00
1194.295,2339.00
1195.210,2634.00
1196.125,2769.00
1197.042,2688.00
1197.957,2636.00
1198.872,2514.00
1199.788,2532.00
1200.703,2943.00
1201.619,2648.00
1202.534,2489.00
1203.448,2716.00
1204.364,2568.00
1205.278,2278.00
1206.192,2692.00
1207.108,3143.00
1208.022,2976.00
1208.938,2485.00
1209.851,2741.00
1210.765,2860.00
1211.680,2478.00
1212.594,2425.00
1213.507,2606.00
1214.422,3019.00
1215.335,2776.00
1216.248,2573.00
1217.163,2643.00
1218.076,3209.00
1218.990,2731.00
1219.903,2392.00
1220.816,2486.00
1221.730,2594.00
1222.642,2483.00
1223.554,2518.00
1224.469,2765.00
1225.380,2569.00
1226.292,2285.00
1227.206,2774.00
1228.118,2936.00
1229.032,2254.00
1229.943,2514.00
1230.855,2563.00
1231.768,2400.00
1232.679,2696.00
1233.590,2604.00
1234.503,2857.00
1235.414,2482.00
1236.325,2505.00
1237.238,2689.00
1238.149,2733.00
1239.059,2447.00
1239.972,2825.00
1240.882,2499.00
1241.793,2787.00
1242.705,3010.00
1243.615,2598.00
1244.525,2698.00
1245.437,2230.00
1246.347,2715.00
1247.259,2808.00
1248.168,3052.00
1249.078,2905.00
1249.989,2877.00
1250.899,2443.00
1251.808,2496.00
1252.719,2592.00
1253.628,2511.00
1254.537,3059.00
1255.448,2483.00
1256.357,2472.00
1257.266,2649.00
1258.176,2370.00
1259.085,2374.00
1259.993,2443.00
1260.904,2464.00
1261.812,2462.00
1262.720,3217.00
1263.630,2772.00
1264.538,2486.00
1265.446,2696.00
1266.356,2633.00
1267.263,2903.00
1268.171,2417.00
1269.080,2701.00
1269.988,2772.00
1270.895,2538.00
1271.804,2595.00
1272.711,2830.00
1273.619,2786.00
1274.527,2452.00
1275.434,2757.00
1276.341,2438.00
1277.248,2656.00
1278.156,2909.00
1279.063,2481.00
1279.969,2722.00
1280.877,3536.00
1281.783,2832.00
1282.690,2710.00
1283.598,2595.00
1284.503,2453.00
1285.409,2500.00
1286.317,2944.00
1287.223,3020.00
1288.128,2699.00
1289.036,2530.00
1289.941,2600.00
1290.846,2613.00
1291.751,2452.00
1292.658,2527.00
1293.563,3048.00
1294.468,2656.00
1295.375,2750.00
1296.280,2837.00
1297.184,3339.00
1298.091,2736.00
1298.995,2804.00
1299.900,2996.00
1300.806,2502.00
1301.710,2378.00
1302.614,2213.00
1303.518,2877.00
1304.424,2541.00
1305.327,2828.00
1306.231,2625.00
1307.137,2767.00
1308.040,2683.00
1308.943,2662.00
1309.847,2860.00
1310.752,2795.00
1311.655,2287.00
1312.558,2399.00
1313.463,2617.00
1314.366,2520.00
1315.269,2675.00
1316.171,2594.00
1317.076,2487.00
1317.978,2414.00
1318.881,2256.00
1319.785,2483.00
1320.687,2493.00
1321.589,2263.00
1322.491,2472.00
1323.395,2736.00
1324.297,3190.00
1325.198,2746.00
1326.102,2434.00
1327.004,2448.00
1327.905,3001.00
1328.806,2616.00
1329.709,2708.00
1330.611,2541.00
1331.512,2421.00
1332.413,3063.00
1333.316,2653.00
1334.216,2769.00
1335.117,2343.00
1336.020,2679.00
1336.920,2646.00
1337.821,2471.00
1338.721,2902.00
1339.623,2662.00
1340.523,2582.00
1341.423,2481.00
1342.323,2910.00
1343.225,2708.00
1344.125,2449.00
1345.025,2485.00
1345.924,2275.00
1346.826,2956.00
1347.725,3044.00
1348.624,2898.00
1349.524,2479.00
1350.425,2622.00
1351.324,2717.00
1352.223,2804.00
1353.121,2596.00
1354.022,2831.00
1354.921,3004.00
1355.819,2738.00
1356.718,2677.00
1357.618,2400.00
1358.516,2730.00
1359.415,3012.00
1360.313,2700.00
1361.213,2587.00
1362.111,2917.00
1363.008,3253.00
1363.906,2609.00
1364.806,2636.00
1365.703,2722.00
1366.601,2479.00
1367.498,2450.00
1368.397,2770.00
1369.295,2668.00
1370.192,2477.00
1371.089,2735.00
1371.987,2632.00
1372.884,2896.00
1373.781,2429.00
1374.678,2591.00
1375.574,2447.00
1376.473,2789.00
1377.369,2876.00
1378.265,2470.00
1379.161,2587.00
1380.059,2327.00
1380.955,2743.00
1381.851,2376.00
1382.747,2532.00
1383.643,2535.00
1384.540,2438.00
1385.436,2530.00
1386.331,2653.00
1387.227,2773.00
1388.124,2719.00
1389.019,2449.00
1389.914,2580.00
1390.809,2266.00
1391.704,3058.00
1392.601,2550.00
1393.495,2902.00
1394.390,2805.00
1395.285,2905.00
1396.179,2692.00
1397.075,2597.00
1397.969,2649.00
1398.864,2350.00
1399.758,2574.00
1400.652,2660.00
1401.547,2458.00
1402.441,2414.00
1403.335,2972.00
1404.229,2637.00
1405.122,2701.00
1406.017,2644.00
1406.911,2756.00
1407.804,3020.00
1408.697,2598.00
1409.590,2470.00
1410.485,2792.00
1411.378,2708.00
1412.271,2337.00
1413.163,2693.00
1414.056,2793.00
1414.949,3020.00
1415.843,2660.00
1416.735,2567.00
1417.627,2630.00
1418.520,2603.00
1419.412,2873.00
1420.306,2788.00
1421.197,2898.00
1422.089,2808.00
1422.981,3111.00
1423.873,2803.00
1424.764,2725.00
1425.657,2692.00
1426.549,2769.00
1427.440,2827.00
1428.331,2559.00
1429.222,2330.00
1430.113,2656.00
1431.006,2814.00
1431.897,2563.00
1432.787,2615.00
1433.678,2549.00
1434.568,2445.00
1435.459,2841.00
1436.351,2799.00
1437.241,2746.00
1438.131,2786.00
1439.021,2387.00
1439.911,2595.00
1440.801,2702.00
1441.693,2849.00
1442.583,2636.00
1443.472,2635.00
1444.362,2758.00
1445.251,2600.00
1446.140,2559.00
1447.030,2836.00
1447.921,2819.00
1448.810,2457.00
1449.699,2988.00
1450.588,2635.00
1451.476,2540.00
1452.365,2771.00
1453.254,2534.00
1454.144,2524.00
1455.032,2779.00
1455.921,2364.00
1456.809,2934.00
1457.697,2445.00
1458.585,2580.00
1459.473,2555.00
1460.361,2464.00
1461.251,2692.00
1462.138,2747.00
1463.026,2621.00
1463.913,2862.00
1464.801,2548.00
1465.688,2709.00
1466.575,2639.00
1467.463,3083.00
1468.351,2521.00
1469.238,2624.00
1470.125,2231.00
1471.012,2679.00
1471.899,2691.00
1472.785,2435.00
1473.672,2616.00
1474.558,2827.00
1475.446,2774.00
1476.333,2775.00
1477.219,2451.00
1478.105,2605.00
1478.991,2610.00
1479.877,2953.00
1480.762,2642.00
1481.648,2518.00
1482.534,2770.00
1483.419,2741.00
1484.307,2746.00
1485.192,2548.00
1486.077,2508.00
1486.962,2477.00
1487.847,2402.00
1488.732,2496.00
1489.617,2633.00
1490.502,2848.00
1491.387,2755.00
1492.271,2465.00
1493.156,2500.00
1494.042,2411.00
1494.927,2805.00
1495.811,2519.00
1496.695,2759.00
1497.579,2900.00
1498.463,2627.00
1499.347,2675.00
1500.231,2654.00
1501.114,2718.00
1501.998,2917.00
1502.881,2683.00
1503.765,2899.00
1504.648,3012.00
1505.533,2761.00
1506.417,2670.00
1507.300,2591.00
1508.183,2718.00
1509.066,2144.00
1509.948,2890.00
1510.831,3005.00
1511.714,2458.00
1512.596,2793.00
1513.479,2841.00
1514.361,2800.00
1515.243,2654.00
1516.125,2785.00
1517.008,2902.00
1517.890,2622.00
1518.771,2633.00
1519.655,2837.00
1520.537,2626.00
1521.419,2489.00
1522.300,2672.00
1523.182,2775.00
1524.063,2751.00
1524.944,2928.00
1525.825,2823.00
1526.707,2476.00
1527.588,2430.00
1528.468,2726.00
1529.349,2312.00
1530.230,2567.00
1531.111,2821.00
1531.991,2665.00
1532.872,2365.00
1533.752,2656.00
1534.632,2523.00
1535.513,2543.00
1536.393,2791.00
1537.273,2938.00
1538.153,3373.00
1539.032,2418.00
1539.912,2603.00
1540.792,2675.00
1541.672,2608.00
1542.551,2726.00
1543.430,3237.00
1544.310,2679.00
1545.189,2526.00
1546.068,3065.00
1546.947,2768.00
1547.826,2942.00
1548.705,2618.00
1549.584,2881.00
1550.462,2591.00
1551.341,2781.00
1552.219,2689.00
1553.098,2773.00
1553.976,2887.00
1554.854,3015.00
1555.733,2846.00
1556.611,2583.00
1557.489,2455.00
1558.367,2650.00
1559.244,2822.00
1560.122,2637.00
1561.000,2727.00
1561.877,2942.00
1562.755,2517.00
1563.632,2624.00
1564.509,2903.00
1565.386,3043.00
1566.264,2412.00
1567.141,2286.00
1568.017,2813.00
1568.894,2651.00
1569.771,2683.00
1570.648,2768.00
1571.524,2681.00
1572.401,2427.00
1573.277,2438.00
1574.153,2707.00
1575.029,2513.00
1575.906,3310.00
1576.781,2827.00
1577.657,2616.00
1578.533,2850.00
1579.409,2347.00
1580.285,2633.00
1581.160,3067.00
1582.036,2809.00
1582.911,2481.00
1583.786,3014.00
1584.662,2487.00
1585.537,2622.00
1586.412,2682.00
1587.287,2511.00
1588.160,2813.00
1589.035,2339.00
1589.909,2661.00
1590.784,2673.00
1591.658,2455.00
1592.533,2730.00
1593.407,2635.00
1594.281,2563.00
1595.155,3083.00
1596.029,2579.00
1596.903,2589.00
1597.777,2578.00
1598.651,2887.00
1599.525,2314.00
1600.398,2675.00
1601.272,2651.00
1602.144,3180.00
1603.017,2603.00
1603.890,2917.00
1604.763,2726.00
1605.636,2838.00
1606.509,2369.00
1607.382,2491.00
1608.255,2739.00
1609.128,2885.00
1610.000,2625.00
1610.873,2327.00
1611.746,2567.00
1612.616,2555.00
1613.488,2263.00
1614.361,2674.00
1615.233,2623.00
1616.105,2827.00
1616.977,2598.00
1617.849,2503.00
1618.720,2961.00
1619.592,2939.00
1620.464,2747.00
1621.333,3128.00
1622.205,2647.00
1623.076,2623.00
1623.947,2651.00
1624.818,2907.00
1625.689,2793.00
1626.560,2566.00
1627.431,2690.00
1628.302,3015.00
1629.171,2798.00
1630.042,2934.00
1630.912,3617.00
1631.782,3208.00
1632.653,2462.00
1633.523,2809.00
1634.393,2848.00
1635.263,2546.00
1636.131,2620.00
1637.001,2560.00
1637.871,2270.00
1638.741,2297.00
1639.611,2436.00
1640.480,2816.00
1641.350,2509.00
1642.219,2504.00
1643.087,2191.00
1643.956,3053.00
1644.825,2880.00
1645.694,2879.00
1646.563,2813.00
1647.432,2722.00
1648.299,2666.00
1649.167,2780.00
1650.036,2490.00
1650.904,2787.00
1651.773,2861.00
1652.641,2700.00
1653.509,2860.00
1654.376,2536.00
1655.244,2698.00
1656.112,2723.00
1656.980,2661.00
1657.847,2517.00
1658.715,2788.00
1659.581,2588.00
1660.448,2911.00
1661.316,2167.00
1662.183,2683.00
1663.051,2705.00
1663.918,2620.00
1664.783,2671.00
1665.650,2763.00
1666.517,2807.00
1667.384,2719.00
1668.251,2709.00
1669.115,2846.00
1669.982,2590.00
1670.849,2954.00
1671.715,2643.00
1672.581,2802.00
1673.446,2736.00
1674.312,2680.00
1675.178,3057.00
1676.044,2759.00
1676.910,2741.00
1677.774,2673.00
1678.639,2357.00
1679.505,2647.00
1680.370,2754.00
1681.236,3274.00
1682.099,2571.00
1682.965,2714.00
1683.830,2302.00
1684.695,2489.00
1685.560,2609.00
1686.423,2798.00
1687.288,2777.00
1688.153,2733.00
1689.017,2606.00
1689.880,2735.00
1690.745,2800.00
1691.609,2551.00
1692.473,2818.00
1693.338,2888.00
1694.200,2946.00
1695.064,2665.00
1695.928,2603.00
1696.792,2648.00
1697.654,3165.00
1698.517,2709.00
1699.381,2434.00
1700.245,2343.00
1701.106,2961.00
1701.969,2543.00
1702.833,2774.00
1703.696,2565.00
1704.557,2606.00
1705.420,2539.00
1706.283,2707.00
1707.146,2808.00
1708.007,2494.00
1708.870,2493.00
1709.732,2346.00
1710.595,2547.00
1711.455,2417.00
1712.318,2561.00
1713.180,2951.00
1714.040,2712.00
1714.902,2822.00
1715.764,2702.00
1716.626,2514.00
1717.486,2654.00
1718.348,2937.00
1719.209,4876.00
1720.071,2308.00
1720.930,2444.00
1721.792,2500.00
1722.653,2538.00
1723.512,2564.00
1724.374,2661.00
1725.234,2728.00
1726.095,2697.00
1726.954,2649.00
1727.815,2784.00
1728.676,2650.00
1729.535,2876.00
1730.395,2654.00
1731.256,2535.00
1732.114,2744.00
1732.974,2140.00
1733.834,2989.00
1734.693,2852.00
1735.553,2675.00
1736.413,3092.00
1737.272,2545.00
1738.130,2606.00
1738.990,2741.00
1739.849,2571.00
1740.707,3649.00
1741.566,2682.00
1742.426,2696.00
1743.283,3058.00
1744.142,2575.00
1745.001,2327.00
1745.858,2824.00
1746.717,2736.00
1747.576,2773.00
1748.433,2786.00
1749.292,3215.00
1750.150,3276.00
1751.007,2857.00
1751.865,2870.00
1752.723,2656.00
1753.579,2606.00
1754.438,2869.00
1755.296,2882.00
1756.152,2225.00
1757.010,2405.00
1757.865,2885.00
1758.723,2363.00
1759.581,2964.00
1760.436,2671.00
1761.294,3011.00
1762.151,2646.00
1763.006,2610.00
1763.864,2320.00
1764.721,2871.00
1765.576,2714.00
1766.433,2816.00
1767.288,2580.00
1768.144,2733.00
1769.001,2606.00
1769.856,2721.00
1770.712,2913.00
1771.568,2485.00
1772.423,2599.00
1773.279,2608.00
1774.133,2598.00
1774.989,3050.00
1775.845,3074.00
1776.699,2931.00
1777.555,2684.00
1778.409,3172.00
1779.265,2657.00
1780.120,2596.00
1780.974,2627.00
1781.829,2293.00
1782.682,2736.00
1783.538,2514.00
1784.393,2704.00
1785.246,2571.00
1786.101,2778.00
1786.954,2769.00
1787.808,2880.00
1788.661,2373.00
1789.516,2623.00
1790.370,2609.00
1791.223,2867.00
1792.077,2673.00
1792.930,2751.00
1793.784,2591.00
1794.636,2702.00
1795.490,2626.00
1796.344,2706.00
1797.196,2639.00
1798.049,2826.00
1798.901,2573.00
1799.755,2904.00
1800.606,2480.00
1801.460,3178.00
1802.311,2968.00
1803.165,3062.00
1804.018,3009.00
1804.869,2805.00
1805.722,3105.00
1806.573,2697.00
1807.426,2516.00
1808.276,2695.00
1809.129,2630.00
1809.980,2862.00
1810.832,2911.00
1811.683,2588.00
1812.535,3022.00
1813.385,2593.00
1814.237,2952.00
1815.089,2762.00
1815.940,2940.00
1816.791,2637.00
1817.641,2551.00
1818.493,2832.00
1819.343,2712.00
1820.194,2533.00
1821.044,2747.00
1821.895,2887.00
1822.745,2420.00
1823.596,2572.00
1824.445,3066.00
1825.296,2758.00
1826.145,2662.00
1826.996,2868.00
1827.845,2780.00
1828.695,2773.00
1829.544,2660.00
1830.395,2737.00
1831.243,2604.00
1832.094,2440.00
1832.942,3250.00
1833.792,2797.00
1834.640,2734.00
1835.490,2701.00
1836.338,2748.00
1837.186,2601.00
1838.036,2535.00
1838.884,2640.00
1839.733,2998.00
1840.581,2832.00
1841.430,2798.00
1842.278,2998.00
1843.127,2576.00
1843.974,2385.00
1844.823,3125.00
1845.671,2813.00
1846.519,2696.00
1847.366,2712.00
1848.213,2322.00
1849.062,2499.00
1849.909,2414.00
1850.757,3281.00
1851.604,2793.00
1852.452,2605.00
1853.298,2834.00
1854.146,2724.00
1854.993,2723.00
1855.839,3159.00
1856.687,2842.00
1857.532,2808.00
1858.380,2709.00
1859.226,2746.00
1860.073,2811.00
1860.919,2520.00
1861.765,2565.00
1862.612,2902.00
1863.457,2881.00
1864.304,2610.00
1865.150,2808.00
1865.995,2683.00
1866.842,2776.00
1867.686,2931.00
1868.533,2800.00
1869.378,2709.00
1870.223,2723.00
1871.069,2573.00
1871.914,2723.00
1872.760,2677.00
1873.604,2483.00
1874.448,2818.00
1875.294,2822.00
1876.139,2599.00
1876.984,2786.00
1877.828,2375.00
1878.672,2208.00
1879.518,2572.00
1880.361,2838.00
1881.205,2896.00
1882.050,2479.00
1882.894,3164.00
1883.739,2557.00
1884.582,2473.00
1885.425,2497.00
1886.270,2934.00
1887.113,2457.00
1887.956,2822.00
1888.801,2734.00
1889.644,2478.00
1890.486,2312.00
1891.331,2638.00
1892.173,2716.00
1893.017,2744.00
1893.860,2984.00
1894.702,2980.00
1895.546,2697.00
1896.388,3325.00
1897.230,3036.00
1898.074,2596.00
1898.916,2493.00
1899.757,2543.00
1900.601,3319.00
1901.443,2972.00
1902.284,2968.00
1903.125,3163.00
1903.969,2895.00
1904.810,2878.00
1905.651,2757.00
1906.494,3025.00
1907.335,3119.00
1908.176,2815.00
1909.018,2764.00
1909.859,2678.00
1910.700,2558.00
1911.542,3239.00
1912.383,2783.00
1913.223,2341.00
1914.064,2800.00
1914.906,2984.00
1915.746,3034.00
1916.586,3138.00
1917.428,2706.00
1918.268,2725.00
1919.107,2633.00
1919.947,2456.00
1920.789,2641.00
1921.628,2933.00
1922.468,2679.00
1923.309,2570.00
1924.148,2989.00
1924.988,2727.00
1925.827,2687.00
1926.667,2587.00
1927.507,2709.00
1928.345,2511.00
1929.184,2843.00
1930.025,2514.00
1930.864,2950.00
1931.702,2998.00
1932.541,2602.00
1933.381,2834.00
1934.219,2896.00
1935.057,2989.00
1935.896,2409.00
1936.735,2661.00
1937.573,2596.00
1938.411,2496.00
1939.249,2847.00
1940.089,2618.00
1940.927,2951.00
1941.764,2981.00
1942.602,2648.00
1943.439,2579.00
1944.278,2680.00
1945.115,2574.00
1945.953,2435.00
1946.790,2768.00
1947.628,3034.00
1948.465,2789.00
1949.302,2844.00
1950.139,2862.00
1950.976,2560.00
1951.814,2861.00
1952.651,2763.00
1953.487,2505.00
1954.323,2912.00
1955.160,2680.00
1955.998,3039.00
1956.834,2710.00
1957.670,2766.00
1958.506,2940.00
1959.342,2805.00
1960.177,2762.00
1961.015,2853.00
1961.850,2765.00
1962.686,2764.00
1963.521,2754.00
1964.357,2981.00
1965.192,2483.00
1966.029,2863.00
1966.864,2621.00
1967.699,2900.00
1968.534,2770.00
1969.369,3007.00
1970.204,2671.00
1971.040,2759.00
1971.875,2640.00
1972.709,2749.00
1973.544,2563.00
1974.378,2610.00
1975.212,2786.00
1976.047,2644.00
1976.882,2582.00
1977.716,3079.00
1978.550,2417.00
1979.384,2685.00
1980.218,2709.00
1981.052,2660.00
1981.885,2743.00
1982.719,2715.00
1983.554,2847.00
1984.388,2962.00
1985.221,2797.00
1986.054,2959.00
1986.887,2738.00
1987.720,2619.00
1988.553,3016.00
1989.386,2799.00
1990.219,2843.00
1991.053,3024.00
1991.886,2583.00
1992.719,2916.00
1993.551,2210.00
1994.383,2867.00
1995.216,2649.00
1996.048,2447.00
1996.880,2876.00
1997.712,2552.00
1998.544,2743.00
1999.376,2798.00
2000.208,2970.00
