RamanScope Measure Spectrum Data V3.72

<< MEASURE CONDITION >>
Exposure Type,Aver
Exposure Time [sec],15
Exposure Count,30
Measure Time,2023/07/12 19:23:01
Data Name,""
Data Comment,""
Rayleigh Wave[nm],532.0

<< SAMPLE SPECTRUM >>
Wave[dcm-1],No32
146.591,909.87
147.626,1074.53
148.664,1216.57
149.699,1424.00
150.737,1593.60
151.772,1743.83
152.809,1931.13
153.846,2056.60
154.881,2151.80
155.918,2247.97
156.953,2332.33
157.989,2405.27
159.026,2471.60
160.060,2498.17
161.096,2597.10
162.130,2631.93
163.167,2660.93
164.200,2709.23
165.236,2776.00
166.272,2798.43
167.305,2862.03
168.341,2903.03
169.374,2911.70
170.409,2985.30
171.445,3042.50
172.477,3124.10
173.512,3152.83
174.545,3138.60
175.580,3192.23
176.614,3154.63
177.647,3162.30
178.681,3147.50
179.713,3119.57
180.747,3109.37
181.781,3083.07
182.813,3093.37
183.847,3086.10
184.878,3084.93
185.912,3081.80
186.945,3176.47
187.976,3160.07
189.010,3186.13
190.043,3155.30
191.073,3260.67
192.106,3300.70
193.137,3335.00
194.170,3340.37
195.202,3350.33
196.232,3413.10
197.265,3434.67
198.297,3560.10
199.327,3611.67
200.359,3646.27
201.388,3693.47
202.420,3769.63
203.452,3888.57
204.481,3952.37
205.512,4023.87
206.544,4176.87
207.573,4263.97
208.604,4409.63
209.635,4495.37
210.663,4633.43
211.694,4743.83
212.725,4923.57
213.753,5034.50
214.783,5131.50
215.813,5157.60
216.841,5244.23
217.871,5252.40
218.899,5226.33
219.929,5199.40
220.959,5048.00
221.986,4975.77
223.016,4818.33
224.045,4736.97
225.072,4586.43
226.101,4557.13
227.130,4403.57
228.157,4353.87
229.185,4286.70
230.214,4231.00
231.241,4131.33
232.269,4086.97
233.297,4085.03
234.323,4021.97
235.351,4007.00
236.379,3983.07
237.407,3995.07
238.433,4001.83
239.460,4029.10
240.488,4080.90
241.513,4098.37
242.540,4092.33
243.568,4173.97
244.592,4190.77
245.619,4218.40
246.646,4164.83
247.671,4168.47
248.697,4176.47
249.724,4080.60
250.748,4080.17
251.774,4026.67
252.801,4112.83
253.827,4109.17
254.850,4123.17
255.876,4074.30
256.902,4130.90
257.925,4123.60
258.951,4198.40
259.976,4235.40
260.999,4276.13
262.024,4248.60
263.049,4301.87
264.074,4366.37
265.097,4377.90
266.122,4445.03
267.146,4473.67
268.168,4519.10
269.193,4588.33
270.217,4643.23
271.241,4668.63
272.263,4765.77
273.287,4763.70
274.311,4826.23
275.332,4848.30
276.356,4833.00
277.379,4826.10
278.402,4836.20
279.424,4776.17
280.447,4778.20
281.470,4719.37
282.492,4640.67
283.513,4627.80
284.536,4575.90
285.558,4483.27
286.581,4400.40
287.601,4325.23
288.623,4266.00
289.645,4240.37
290.665,4203.93
291.687,4147.10
292.709,4022.57
293.730,4036.70
294.750,3990.63
295.771,3918.47
296.792,3816.93
297.813,3825.93
298.832,3803.37
299.853,3740.37
300.874,3688.50
301.895,3652.70
302.913,3611.33
303.934,3514.70
304.954,3524.20
305.975,3201.13
306.993,3454.20
308.013,3402.60
309.033,3359.33
310.052,3359.57
311.072,3379.20
312.090,3295.27
313.109,3301.93
314.129,3318.93
315.148,3254.77
316.165,3247.47
317.184,3237.30
318.203,3146.40
319.222,3189.43
320.238,3165.27
321.257,3111.67
322.275,3160.30
323.294,3098.60
324.312,3115.30
325.328,3082.00
326.346,3100.57
327.364,3084.27
328.382,3057.07
329.397,3055.40
330.415,3066.87
331.432,3063.53
332.450,3069.13
333.467,3056.67
334.482,3031.53
335.499,3007.97
336.516,3016.07
337.533,3032.53
338.547,3023.90
339.564,2977.73
340.580,3023.70
341.597,3000.77
342.613,2977.43
343.627,2965.30
344.643,2983.67
345.659,2955.03
346.675,2980.77
347.690,2940.03
348.704,2976.23
349.719,2916.20
350.735,2933.50
351.750,2984.87
352.765,2952.80
353.778,2984.90
354.793,2943.13
355.808,2947.93
356.822,2968.90
357.837,2994.53
358.851,2951.40
359.864,2991.77
360.878,2966.03
361.892,2989.33
362.906,3007.37
363.920,2986.33
364.932,2934.07
365.945,2963.00
366.959,3022.90
367.972,3036.97
368.986,3044.57
369.999,2969.17
371.010,3048.67
372.023,3092.33
373.036,3086.47
374.049,3056.97
375.061,3077.53
376.072,3054.43
377.084,3100.37
378.097,3119.47
379.109,3104.67
380.121,3049.03
381.133,3127.00
382.143,3122.30
383.155,3107.10
384.166,3117.07
385.178,3149.33
386.189,3057.33
387.201,3109.40
388.212,3115.83
389.221,3079.27
390.232,3102.47
391.243,3063.63
392.254,3114.97
393.264,3084.17
394.275,3076.13
395.283,3077.67
396.294,3068.17
397.304,3003.47
398.314,3022.73
399.324,2986.20
400.334,2958.73
401.344,2959.43
402.351,2966.57
403.361,2935.53
404.370,2924.63
405.380,2904.27
406.389,2896.67
407.398,2916.60
408.407,2881.30
409.414,2921.27
410.423,2841.60
411.431,2847.23
412.440,2805.13
413.448,2821.03
414.457,2841.17
415.465,2755.47
416.471,2780.60
417.479,2772.73
418.487,2796.10
419.495,2792.67
420.503,2771.40
421.510,2738.87
422.518,2752.20
423.525,2793.13
424.530,2770.00
425.537,2780.13
426.544,2729.30
427.551,2735.03
428.558,2716.13
429.565,2768.67
430.571,2713.57
431.578,2704.33
432.582,2695.40
433.588,2773.87
434.595,2732.33
435.601,2737.87
436.607,2701.50
437.612,2721.33
438.618,2708.50
439.624,2719.87
440.627,2703.87
441.633,2717.30
442.638,2729.93
443.643,2657.10
444.648,2695.23
445.653,2718.73
446.658,2719.03
447.663,2680.43
448.667,2679.47
449.672,2704.57
450.674,2720.37
451.678,2760.57
452.682,2711.53
453.687,2723.03
454.690,2768.30
455.694,2732.97
456.698,2694.90
457.702,2737.17
458.705,2763.23
459.709,2692.50
460.710,2727.30
461.713,2761.13
462.716,2742.50
463.719,2700.73
464.722,2736.87
465.725,2760.30
466.727,2771.70
467.730,2779.80
468.732,2738.93
469.735,2743.87
470.737,2790.80
471.737,2729.50
472.739,2757.57
473.741,2744.13
474.742,2749.93
475.744,2772.40
476.746,2796.23
477.747,2779.87
478.748,2765.17
479.750,2740.60
480.751,2744.17
481.752,2816.00
482.753,2779.63
483.751,2774.60
484.752,2738.03
485.753,2767.87
486.753,2769.00
487.753,2735.67
488.754,2741.40
489.754,2741.13
490.754,2734.50
491.754,2771.23
492.754,2744.33
493.753,2739.37
494.753,2739.70
495.752,2727.67
496.752,2760.93
497.749,2755.40
498.748,2737.07
499.747,2700.00
500.746,2730.13
501.745,2723.03
502.744,2699.07
503.742,2692.83
504.741,2669.37
505.739,2686.77
506.737,2729.23
507.735,2681.20
508.734,2658.37
509.732,2647.53
510.729,2627.53
511.727,2618.50
512.725,2620.27
513.720,2656.33
514.718,2628.70
515.715,2586.90
516.712,2597.37
517.709,2617.17
518.706,2595.87
519.703,2587.93
520.700,2592.70
521.696,2581.80
522.693,2619.40
523.689,2606.97
524.686,2615.33
525.682,2624.07
526.678,2606.53
527.674,2596.33
528.670,2647.70
529.666,2610.50
530.661,2642.57
531.657,2321.20
532.652,2669.43
533.648,2673.40
534.641,2614.87
535.636,2589.97
536.631,2645.83
537.626,2620.60
538.621,2649.10
539.616,2632.60
540.610,2669.97
541.605,2646.13
542.599,2656.70
543.593,2644.50
544.587,2636.20
545.581,2620.40
546.575,2594.43
547.569,2672.53
548.563,2675.70
549.557,2648.37
550.550,2677.53
551.543,2659.83
552.537,2685.23
553.530,2660.43
554.523,2661.80
555.516,2666.87
556.509,2652.70
557.502,2682.57
558.494,2689.53
559.487,2679.57
560.479,2708.33
561.472,2661.17
562.464,2645.17
563.456,2668.83
564.448,2673.97
565.440,2714.40
566.432,2662.23
567.423,2656.73
568.415,2734.43
569.404,2769.90
570.396,2740.67
571.387,2762.07
572.378,2740.97
573.369,2745.37
574.360,2758.10
575.351,2752.37
576.341,2734.53
577.332,2759.87
578.323,2747.27
579.313,2752.80
580.303,2757.27
581.293,2796.70
582.283,2780.83
583.273,2782.67
584.263,2773.87
585.253,2816.37
586.243,2816.17
587.232,2790.63
588.222,2804.87
589.211,2825.67
590.200,2800.10
591.189,2811.83
592.178,2810.53
593.167,2791.67
594.156,2831.53
595.145,2837.87
596.133,2814.20
597.122,2796.37
598.110,2806.63
599.098,2772.97
600.086,2798.47
601.074,2797.03
602.062,2814.50
603.050,2776.80
604.038,2789.23
605.025,2743.83
606.013,2783.23
607.000,2794.87
607.987,2752.57
608.975,2726.77
609.962,2790.17
610.949,2726.80
611.936,2715.60
612.922,2690.37
613.909,2656.20
614.895,2664.23
615.882,2641.53
616.868,2690.67
617.854,2654.63
618.841,2631.93
619.826,2592.00
620.812,2599.63
621.798,2577.77
622.784,2589.97
623.769,2503.07
624.755,2508.37
625.740,2532.20
626.725,2530.37
627.711,2444.97
628.698,2463.70
629.683,2408.93
630.667,2408.93
631.652,2422.23
632.637,2429.50
633.621,2434.23
634.606,2362.53
635.590,2339.63
636.574,2315.97
637.558,2360.57
638.542,2339.90
639.526,2310.80
640.510,2272.23
641.493,2293.97
642.477,2252.17
643.460,2303.23
644.444,2280.10
645.427,2236.67
646.410,2237.13
647.393,2254.13
648.376,2207.93
649.359,2210.43
650.341,2163.87
651.324,2214.70
652.307,2204.87
653.289,2179.37
654.271,2189.83
655.253,2160.80
656.235,2169.80
657.217,2187.07
658.199,2199.23
659.181,2170.53
660.163,2134.23
661.144,2099.53
662.126,2122.77
663.107,2142.93
664.088,2068.07
665.069,2089.33
666.050,2098.03
667.033,2100.83
668.014,2108.50
668.995,2129.80
669.975,2096.83
670.956,2103.77
671.936,2081.13
672.916,2048.63
673.896,2074.87
674.876,2022.27
675.856,1980.73
676.836,2014.80
677.816,2027.03
678.795,1995.17
679.775,1971.47
680.754,1968.70
681.734,1961.17
682.713,1931.97
683.692,1909.17
684.671,1990.73
685.650,1905.90
686.629,1875.20
687.607,1882.73
688.586,1854.90
689.564,1879.00
690.543,1861.77
691.523,1862.07
692.501,1826.43
693.479,1816.23
694.457,1798.30
695.435,1799.00
696.413,1809.70
697.390,1808.73
698.368,1770.73
699.345,1800.30
700.322,1810.73
701.300,1782.00
702.277,1740.47
703.254,1737.77
704.231,1765.07
705.207,1737.57
706.184,1745.13
707.161,1700.57
708.137,1707.00
709.113,1720.87
710.090,1693.33
711.068,1725.80
712.044,1687.73
713.020,1698.23
713.996,1690.20
714.971,1695.97
715.947,1665.43
716.922,1669.03
717.898,1671.53
718.873,1734.67
719.848,1728.57
720.823,1654.23
721.798,1640.87
722.773,1647.90
723.748,1645.60
724.723,1606.60
725.697,1648.57
726.672,1638.20
727.646,1680.77
728.622,1615.77
729.596,1617.30
730.570,1616.30
731.544,1616.40
732.518,1608.83
733.492,1617.83
734.466,1617.07
735.439,1618.77
736.413,1597.30
737.386,1560.63
738.359,1563.30
739.332,1587.80
740.305,1590.20
741.278,1619.33
742.251,1568.00
743.224,1554.73
744.196,1564.70
745.171,1552.10
746.143,1549.87
747.115,1574.00
748.087,1509.83
749.059,1535.87
750.031,1559.77
751.003,1507.57
751.975,1506.90
752.947,1486.80
753.918,1551.20
754.890,1512.07
755.861,1499.13
756.832,1524.83
757.803,1477.37
758.774,1538.67
759.747,1458.87
760.718,1487.40
761.689,1488.10
762.659,1464.50
763.630,1456.00
764.600,1455.37
765.570,1480.83
766.540,1469.47
767.510,1471.37
768.480,1461.47
769.450,1432.37
770.420,1431.43
771.390,1420.80
772.359,1442.00
773.329,1470.97
774.300,1420.10
775.269,1435.03
776.238,1434.13
777.207,1403.83
778.176,1408.23
779.145,1424.40
780.114,1424.57
781.083,1403.80
782.051,1427.17
783.019,1403.37
783.988,1373.80
784.956,1329.43
785.924,1382.80
786.894,1393.23
787.862,1415.30
788.830,1363.90
789.797,1376.93
790.765,1327.37
791.732,1358.93
792.700,1409.87
793.667,1349.73
794.634,1338.57
795.601,1373.07
796.568,1340.80
797.535,1344.33
798.502,1364.90
799.468,1334.70
800.437,1309.67
801.403,1321.27
802.370,1332.73
803.336,1301.20
804.302,1336.63
805.268,1362.60
806.234,1309.77
807.200,1298.20
808.166,1282.53
809.131,1326.20
810.097,1311.00
811.062,1271.70
812.027,1307.90
812.994,1287.50
813.960,1306.63
814.925,1299.67
815.889,1324.97
816.854,1232.97
817.819,1271.40
818.783,1295.27
819.748,1296.63
820.712,1277.20
821.677,1277.07
822.641,1236.87
823.605,1277.77
824.571,1253.67
825.534,1316.53
826.498,1247.37
827.462,1243.40
828.425,1235.70
829.389,1247.63
830.352,1276.50
831.315,1252.23
832.279,1227.77
833.242,1256.30
834.204,1209.30
835.167,1224.67
836.132,1219.20
837.095,1210.20
838.057,1269.03
839.020,1245.33
839.982,1188.03
840.944,1231.33
841.906,1223.60
842.868,1215.50
843.830,1201.23
844.792,1235.87
845.753,1234.63
846.715,1241.57
847.679,1180.43
848.640,1210.70
849.601,1186.90
850.562,1214.53
851.523,1195.83
852.484,1227.93
853.445,1185.23
854.406,1246.53
855.367,1185.97
856.327,1173.93
857.288,1210.90
858.248,1206.53
859.210,1222.60
860.170,1204.17
861.130,1198.53
862.090,1204.70
863.050,1180.63
864.010,1210.10
864.969,1178.97
865.929,1165.63
866.888,1184.87
867.848,1173.07
868.807,1191.37
869.766,1193.63
870.727,1129.10
871.686,1208.27
872.645,1165.47
873.604,1216.27
874.562,1182.60
875.521,1150.23
876.479,1138.87
877.437,1193.43
878.396,1193.03
879.354,1198.83
880.312,1197.30
881.270,1162.67
882.229,1122.30
883.187,1152.63
884.145,1203.17
885.102,1164.30
886.059,1208.47
887.017,1183.00
887.974,1209.40
888.931,1152.63
889.888,1162.30
890.845,1156.33
891.802,1175.23
892.758,1161.40
893.717,1154.63
894.673,1172.33
895.630,1163.00
896.586,1212.37
897.542,1215.13
898.498,1159.73
899.454,1194.40
900.410,1205.40
901.366,1162.43
902.321,1192.57
903.277,1179.97
904.232,1177.07
905.189,1212.63
906.145,1185.13
907.100,1212.50
908.055,1176.07
909.010,1177.63
909.965,1192.23
910.919,1149.93
911.874,1178.50
912.828,1187.80
913.783,1215.63
914.737,1188.23
915.693,1222.10
916.648,1215.77
917.602,1210.80
918.555,1217.10
919.509,1180.17
920.463,1189.03
921.417,1154.17
922.370,1174.43
923.324,1177.97
924.277,1216.77
925.230,1187.00
926.183,1207.87
927.138,1228.00
928.091,1177.87
929.044,1201.50
929.996,1240.93
930.949,1232.43
931.902,1226.83
932.854,1226.23
933.806,1217.13
934.758,1210.63
935.711,1184.53
936.663,1240.80
937.614,1193.27
938.568,1175.70
939.520,1171.43
940.471,1218.90
941.423,1230.83
942.374,1196.07
943.326,1158.33
944.277,1199.07
945.228,1198.57
946.179,1186.70
947.130,1233.57
948.080,1195.00
949.031,1229.37
949.984,1208.43
950.934,1183.87
951.884,1223.23
952.835,1182.40
953.785,1217.73
954.735,1146.07
955.685,1190.63
956.635,1146.37
957.585,1192.40
958.534,1173.87
959.484,1206.30
960.433,1176.93
961.383,1176.93
962.334,1179.47
963.283,1140.63
964.232,1162.90
965.181,1171.83
966.130,1191.97
967.079,1182.63
968.027,1141.17
968.976,1144.67
969.924,1175.27
970.873,1148.00
971.821,1181.20
972.769,1173.57
973.719,1136.70
974.667,1129.47
975.615,1166.13
976.562,1128.77
977.510,1150.87
978.458,1168.53
979.405,1197.00
980.352,1132.70
981.300,1151.87
982.247,1166.93
983.194,1182.07
984.141,1153.33
985.088,1181.93
986.036,1115.73
986.983,1150.43
987.930,1149.43
988.876,1153.63
989.822,1175.67
990.769,1189.20
991.715,1157.93
992.661,1137.60
993.607,1134.07
994.553,1131.00
995.498,1159.00
996.444,1139.77
997.389,1135.03
998.337,1155.13
999.282,1154.43
1000.227,1142.73
1001.173,1152.73
1002.118,1142.57
1003.062,1145.00
1004.007,1133.43
1004.952,1144.57
1005.897,1135.27
1006.841,1132.10
1007.786,1148.43
1008.730,1143.53
1009.674,1133.70
1010.618,1160.13
1011.564,1147.50
1012.508,1162.00
1013.452,1154.13
1014.396,1159.77
1015.339,1176.27
1016.283,1176.20
1017.226,1123.03
1018.170,1148.20
1019.113,1177.40
1020.056,1114.13
1020.999,1124.83
1021.942,1166.13
1022.885,1149.90
1023.828,1122.57
1024.770,1172.67
1025.715,1174.33
1026.657,1122.50
1027.600,1160.23
1028.542,1143.10
1029.484,1190.17
1030.426,1179.93
1031.368,1172.60
1032.310,1179.17
1033.251,1143.70
1034.193,1183.93
1035.135,1163.53
1036.076,1187.57
1037.017,1153.00
1037.959,1147.03
1038.900,1162.30
1039.843,1196.60
1040.784,1178.67
1041.725,1182.17
1042.665,1172.20
1043.606,1165.40
1044.547,1187.27
1045.487,1153.87
1046.427,1199.23
1047.368,1218.97
1048.308,1171.20
1049.248,1202.83
1050.188,1175.60
1051.128,1153.30
1052.067,1189.13
1053.007,1209.10
1053.947,1189.50
1054.886,1188.33
1055.827,1216.33
1056.766,1181.27
1057.706,1217.40
1058.645,1222.07
1059.584,1192.77
1060.522,1235.20
1061.461,1227.90
1062.400,1214.40
1063.338,1225.87
1064.277,1195.83
1065.215,1251.30
1066.154,1204.73
1067.092,1223.63
1068.030,1303.63
1068.968,1256.27
1069.906,1264.00
1070.843,1246.67
1071.781,1240.33
1072.720,1249.43
1073.658,1281.67
1074.595,1227.10
1075.533,1280.63
1076.470,1214.90
1077.407,1228.93
1078.344,1268.37
1079.281,1294.63
1080.217,1228.60
1081.154,1289.43
1082.091,1273.10
1083.027,1266.43
1083.964,1287.10
1084.900,1257.20
1085.836,1259.30
1086.772,1273.50
1087.708,1266.17
1088.644,1255.53
1089.580,1284.63
1090.515,1257.27
1091.451,1255.50
1092.388,1240.43
1093.324,1268.93
1094.259,1313.23
1095.194,1272.10
1096.129,1269.37
1097.064,1280.70
1097.999,1256.80
1098.934,1285.33
1099.869,1235.73
1100.803,1252.13
1101.738,1266.30
1102.672,1245.77
1103.607,1227.13
1104.541,1222.67
1105.475,1230.80
1106.409,1206.70
1107.343,1229.90
1108.277,1247.47
1109.210,1169.73
1110.144,1180.67
1111.078,1187.43
1112.011,1173.27
1112.944,1160.70
1113.878,1180.77
1114.811,1175.30
1115.744,1217.47
1116.678,1196.63
1117.611,1124.33
1118.544,1144.77
1119.477,1164.40
1120.409,1181.30
1121.342,1145.23
1122.274,1115.93
1123.206,374.30
1124.138,1110.23
1125.070,1129.50
1126.002,1167.53
1126.934,1142.23
1127.866,1108.50
1128.798,1109.47
1129.729,1102.13
1130.661,1098.47
1131.592,1064.00
1132.523,1089.80
1133.454,1061.07
1134.385,1088.10
1135.317,1122.27
1136.247,1097.23
1137.178,1112.27
1138.109,1089.37
1139.039,1051.77
1139.970,1045.97
1140.900,1036.97
1141.831,1069.40
1142.761,1067.77
1143.691,1065.53
1144.621,1075.70
1145.551,1041.97
1146.480,1050.10
1147.410,1075.00
1148.340,1050.87
1149.269,1034.63
1150.199,1000.70
1151.128,1041.50
1152.057,1038.57
1152.979,1041.17
1153.898,1006.03
1154.819,1020.77
1155.739,1016.10
1156.658,1056.83
1157.579,1020.47
1158.498,1029.70
1159.419,1013.53
1160.338,969.67
1161.256,1011.87
1162.177,1076.70
1163.095,1023.17
1164.016,1043.63
1164.934,1013.30
1165.852,1040.47
1166.772,1048.37
1167.690,994.93
1168.610,1034.57
1169.528,994.33
1170.446,1022.07
1171.365,1028.30
1172.283,987.57
1173.202,997.97
1174.120,986.20
1175.037,1000.27
1175.956,1000.87
1176.873,944.77
1177.792,1016.63
1178.709,1020.77
1179.626,985.20
1180.544,1034.37
1181.461,962.00
1182.379,1003.67
1183.296,1002.77
1184.212,989.40
1185.130,978.77
1186.046,985.93
1186.962,954.63
1187.880,970.80
1188.796,970.67
1189.714,985.87
1190.629,977.60
1191.545,964.90
1192.462,973.87
1193.378,959.07
1194.295,964.13
1195.210,1018.03
1196.125,979.97
1197.042,953.53
1197.957,987.23
1198.872,951.83
1199.788,1008.30
1200.703,1004.53
1201.619,971.00
1202.534,988.97
1203.448,998.23
1204.364,1018.47
1205.278,975.57
1206.192,944.00
1207.108,989.27
1208.022,968.60
1208.938,1000.40
1209.851,945.97
1210.765,968.40
1211.680,966.93
1212.594,968.97
1213.507,978.87
1214.422,980.17
1215.335,1005.57
1216.248,954.20
1217.163,971.77
1218.076,926.87
1218.990,983.97
1219.903,1004.90
1220.816,985.97
1221.730,980.67
1222.642,969.80
1223.554,985.17
1224.469,993.80
1225.380,1008.83
1226.292,971.27
1227.206,972.40
1228.118,993.47
1229.032,965.00
1229.943,937.20
1230.855,991.40
1231.768,956.60
1232.679,989.43
1233.590,1006.53
1234.503,974.60
1235.414,965.40
1236.325,977.40
1237.238,1022.37
1238.149,978.90
1239.059,991.40
1239.972,999.07
1240.882,981.90
1241.793,1023.57
1242.705,1039.57
1243.615,981.00
1244.525,956.37
1245.437,1044.83
1246.347,977.97
1247.259,1038.77
1248.168,976.33
1249.078,998.03
1249.989,964.83
1250.899,1005.00
1251.808,1024.30
1252.719,1003.30
1253.628,1020.93
1254.537,991.83
1255.448,973.27
1256.357,987.27
1257.266,1023.10
1258.176,1005.47
1259.085,1008.67
1259.993,1015.73
1260.904,992.50
1261.812,1022.80
1262.720,1035.07
1263.630,1020.13
1264.538,982.70
1265.446,1017.83
1266.356,1016.40
1267.263,1031.80
1268.171,994.53
1269.080,998.90
1269.988,1017.77
1270.895,1023.07
1271.804,1012.93
1272.711,1020.53
1273.619,998.87
1274.527,1031.37
1275.434,1000.43
1276.341,971.20
1277.248,1022.00
1278.156,1012.70
1279.063,1036.60
1279.969,1017.03
1280.877,1020.83
1281.783,1016.40
1282.690,1051.37
1283.598,990.40
1284.503,996.93
1285.409,1002.03
1286.317,982.73
1287.223,998.90
1288.128,1010.67
1289.036,1011.00
1289.941,987.30
1290.846,1002.00
1291.751,977.30
1292.658,990.00
1293.563,987.00
1294.468,987.63
1295.375,975.40
1296.280,996.87
1297.184,960.47
1298.091,989.83
1298.995,996.53
1299.900,982.40
1300.806,965.47
1301.710,928.73
1302.614,954.70
1303.518,981.43
1304.424,953.87
1305.327,961.80
1306.231,956.10
1307.137,976.67
1308.040,963.97
1308.943,933.77
1309.847,974.90
1310.752,965.30
1311.655,934.63
1312.558,947.47
1313.463,913.83
1314.366,955.60
1315.269,948.27
1316.171,933.30
1317.076,924.83
1317.978,913.47
1318.881,930.23
1319.785,916.43
1320.687,930.50
1321.589,938.03
1322.491,884.37
1323.395,875.50
1324.297,897.43
1325.198,946.00
1326.102,902.67
1327.004,910.77
1327.905,920.00
1328.806,909.17
1329.709,869.17
1330.611,908.50
1331.512,932.47
1332.413,921.33
1333.316,887.53
1334.216,904.77
1335.117,899.47
1336.020,879.43
1336.920,890.83
1337.821,871.20
1338.721,858.47
1339.623,880.87
1340.523,865.53
1341.423,823.97
1342.323,837.30
1343.225,901.43
1344.125,857.60
1345.025,833.47
1345.924,865.80
1346.826,857.10
1347.725,840.07
1348.624,877.40
1349.524,858.80
1350.425,836.67
1351.324,837.37
1352.223,824.10
1353.121,856.50
1354.022,821.90
1354.921,832.70
1355.819,788.30
1356.718,837.53
1357.618,771.43
1358.516,801.07
1359.415,813.57
1360.313,812.30
1361.213,809.00
1362.111,785.57
1363.008,783.83
1363.906,797.57
1364.806,828.73
1365.703,805.60
1366.601,808.43
1367.498,834.60
1368.397,806.73
1369.295,820.47
1370.192,775.00
1371.089,820.87
1371.987,803.33
1372.884,791.87
1373.781,804.10
1374.678,776.37
1375.574,783.77
1376.473,777.33
1377.369,731.87
1378.265,763.60
1379.161,771.33
1380.059,767.50
1380.955,787.07
1381.851,817.03
1382.747,776.53
1383.643,784.00
1384.540,778.27
1385.436,765.37
1386.331,725.10
1387.227,787.20
1388.124,753.43
1389.019,770.13
1389.914,753.13
1390.809,745.97
1391.704,737.67
1392.601,703.40
1393.495,705.03
1394.390,757.47
1395.285,730.47
1396.179,749.33
1397.075,781.50
1397.969,730.17
1398.864,745.33
1399.758,758.97
1400.652,713.30
1401.547,704.87
1402.441,750.33
1403.335,768.23
1404.229,746.03
1405.122,711.47
1406.017,723.50
1406.911,757.83
1407.804,694.10
1408.697,699.33
1409.590,728.50
1410.485,724.67
1411.378,712.07
1412.271,691.57
1413.163,713.70
1414.056,731.60
1414.949,706.23
1415.843,721.67
1416.735,703.47
1417.627,685.23
1418.520,721.40
1419.412,716.70
1420.306,724.07
1421.197,721.00
1422.089,716.40
1422.981,710.83
1423.873,721.20
1424.764,741.93
1425.657,660.53
1426.549,721.57
1427.440,702.73
1428.331,681.90
1429.222,695.60
1430.113,699.23
1431.006,698.97
1431.897,712.37
1432.787,699.63
1433.678,650.63
1434.568,647.93
1435.459,681.13
1436.351,692.70
1437.241,704.83
1438.131,656.73
1439.021,705.57
1439.911,678.93
1440.801,689.53
1441.693,629.27
1442.583,678.47
1443.472,662.27
1444.362,678.13
1445.251,674.77
1446.140,672.60
1447.030,694.93
1447.921,691.77
1448.810,693.77
1449.699,696.73
1450.588,689.33
1451.476,669.70
1452.365,683.83
1453.254,698.63
1454.144,659.07
1455.032,701.80
1455.921,648.93
1456.809,688.93
1457.697,668.33
1458.585,683.43
1459.473,635.30
1460.361,638.80
1461.251,680.73
1462.138,673.50
1463.026,635.27
1463.913,635.53
1464.801,696.30
1465.688,701.87
1466.575,654.47
1467.463,632.53
1468.351,653.40
1469.238,654.33
1470.125,651.63
1471.012,649.23
1471.899,632.40
1472.785,657.23
1473.672,637.53
1474.558,642.50
1475.446,638.27
1476.333,641.87
1477.219,654.57
1478.105,636.40
1478.991,668.80
1479.877,630.63
1480.762,633.17
1481.648,603.23
1482.534,592.77
1483.419,597.03
1484.307,649.67
1485.192,625.63
1486.077,650.30
1486.962,617.50
1487.847,631.43
1488.732,650.30
1489.617,615.50
1490.502,631.17
1491.387,625.57
1492.271,595.53
1493.156,644.47
1494.042,629.70
1494.927,625.37
1495.811,637.60
1496.695,579.27
1497.579,624.90
1498.463,617.13
1499.347,645.77
1500.231,636.90
1501.114,628.53
1501.998,622.00
1502.881,618.87
1503.765,638.63
1504.648,609.50
1505.533,563.23
1506.417,604.03
1507.300,590.40
1508.183,602.27
1509.066,616.73
1509.948,599.57
1510.831,579.50
1511.714,562.97
1512.596,608.33
1513.479,652.20
1514.361,607.90
1515.243,581.47
1516.125,618.63
1517.008,574.67
1517.890,626.93
1518.771,564.50
1519.655,617.30
1520.537,568.47
1521.419,614.33
1522.300,583.93
1523.182,585.40
1524.063,632.93
1524.944,608.27
1525.825,620.10
1526.707,571.83
1527.588,604.97
1528.468,577.47
1529.349,574.10
1530.230,584.90
1531.111,582.27
1531.991,572.00
1532.872,577.07
1533.752,544.83
1534.632,585.40
1535.513,585.07
1536.393,595.33
1537.273,569.40
1538.153,543.30
1539.032,567.87
1539.912,586.20
1540.792,585.27
1541.672,585.23
1542.551,572.73
1543.430,558.67
1544.310,575.43
1545.189,582.13
1546.068,577.80
1546.947,580.03
1547.826,561.37
1548.705,557.97
1549.584,551.40
1550.462,559.63
1551.341,588.20
1552.219,564.83
1553.098,567.30
1553.976,576.73
1554.854,558.17
1555.733,552.93
1556.611,576.13
1557.489,550.43
1558.367,562.40
1559.244,545.13
1560.122,571.00
1561.000,572.73
1561.877,556.27
1562.755,515.00
1563.632,546.50
1564.509,560.93
1565.386,559.33
1566.264,591.80
1567.141,557.87
1568.017,572.20
1568.894,518.23
1569.771,555.83
1570.648,537.83
1571.524,546.57
1572.401,549.60
1573.277,569.90
1574.153,540.00
1575.029,550.97
1575.906,522.50
1576.781,547.50
1577.657,506.90
1578.533,552.03
1579.409,539.27
1580.285,545.37
1581.160,503.70
1582.036,525.40
1582.911,515.37
1583.786,557.30
1584.662,523.13
1585.537,538.33
1586.412,525.97
1587.287,544.93
1588.160,555.20
1589.035,533.03
1589.909,528.53
1590.784,547.90
1591.658,537.00
1592.533,538.77
1593.407,526.40
1594.281,540.80
1595.155,545.07
1596.029,496.13
1596.903,503.37
1597.777,558.83
1598.651,553.70
1599.525,514.27
1600.398,527.67
1601.272,525.43
1602.144,576.63
1603.017,508.50
1603.890,534.30
1604.763,555.67
1605.636,534.00
1606.509,538.17
1607.382,515.73
1608.255,488.23
1609.128,534.57
1610.000,522.67
1610.873,565.33
1611.746,511.30
1612.616,504.17
1613.488,539.47
1614.361,512.80
1615.233,502.10
1616.105,556.80
1616.977,564.53
1617.849,530.70
1618.720,508.03
1619.592,542.17
1620.464,540.40
1621.333,505.70
1622.205,526.90
1623.076,518.43
1623.947,538.47
1624.818,493.27
1625.689,524.80
1626.560,485.20
1627.431,513.87
1628.302,527.90
1629.171,498.20
1630.042,498.50
1630.912,514.20
1631.782,546.33
1632.653,526.03
1633.523,506.63
1634.393,521.43
1635.263,515.30
1636.131,497.77
1637.001,524.87
1637.871,509.83
1638.741,521.23
1639.611,480.10
1640.480,489.00
1641.350,508.33
1642.219,547.70
1643.087,495.50
1643.956,521.77
1644.825,518.20
1645.694,495.77
1646.563,499.90
1647.432,508.47
1648.299,523.97
1649.167,483.63
1650.036,490.63
1650.904,524.50
1651.773,506.87
1652.641,458.63
1653.509,497.50
1654.376,512.63
1655.244,489.93
1656.112,496.73
1656.980,501.00
1657.847,498.23
1658.715,525.80
1659.581,487.83
1660.448,493.07
1661.316,496.83
1662.183,486.77
1663.051,493.73
1663.918,491.20
1664.783,478.07
1665.650,501.23
1666.517,494.47
1667.384,538.83
1668.251,502.80
1669.115,471.40
1669.982,548.53
1670.849,477.37
1671.715,502.10
1672.581,492.83
1673.446,465.90
1674.312,502.27
1675.178,487.47
1676.044,498.20
1676.910,507.40
1677.774,517.73
1678.639,484.93
1679.505,457.70
1680.370,471.40
1681.236,471.10
1682.099,468.03
1682.965,467.30
1683.830,449.00
1684.695,487.63
1685.560,511.57
1686.423,488.60
1687.288,500.20
1688.153,447.90
1689.017,512.77
1689.880,490.80
1690.745,477.30
1691.609,472.83
1692.473,500.50
1693.338,443.33
1694.200,557.60
1695.064,483.00
1695.928,507.40
1696.792,462.60
1697.654,482.87
1698.517,489.53
1699.381,473.33
1700.245,492.67
1701.106,493.03
1701.969,449.93
1702.833,518.43
1703.696,489.80
1704.557,479.17
1705.420,463.97
1706.283,458.83
1707.146,487.87
1708.007,476.83
1708.870,490.70
1709.732,467.57
1710.595,474.93
1711.455,480.57
1712.318,470.93
1713.180,493.70
1714.040,463.53
1714.902,485.00
1715.764,505.23
1716.626,481.93
1717.486,440.73
1718.348,421.77
1719.209,310.53
1720.071,466.80
1720.930,457.10
1721.792,464.60
1722.653,475.90
1723.512,452.50
1724.374,472.50
1725.234,494.30
1726.095,482.67
1726.954,463.93
1727.815,486.67
1728.676,489.60
1729.535,442.83
1730.395,432.50
1731.256,456.17
1732.114,471.30
1732.974,493.20
1733.834,452.23
1734.693,457.60
1735.553,500.20
1736.413,450.70
1737.272,474.17
1738.130,479.33
1738.990,454.10
1739.849,473.07
1740.707,438.60
1741.566,495.23
1742.426,460.70
1743.283,430.40
1744.142,506.53
1745.001,467.20
1745.858,481.57
1746.717,495.97
1747.576,491.40
1748.433,460.17
1749.292,521.17
1750.150,466.27
1751.007,483.67
1751.865,507.13
1752.723,463.43
1753.579,485.90
1754.438,494.20
1755.296,457.67
1756.152,504.37
1757.010,461.67
1757.865,443.23
1758.723,475.53
1759.581,455.67
1760.436,440.47
1761.294,469.13
1762.151,448.27
1763.006,435.57
1763.864,460.03
1764.721,496.00
1765.576,480.30
1766.433,473.50
1767.288,464.23
1768.144,443.53
1769.001,453.97
1769.856,465.33
1770.712,478.97
1771.568,452.63
1772.423,447.80
1773.279,469.37
1774.133,468.73
1774.989,461.90
1775.845,519.10
1776.699,475.67
1777.555,483.13
1778.409,443.90
1779.265,469.70
1780.120,456.13
1780.974,464.23
1781.829,470.23
1782.682,457.73
1783.538,436.03
1784.393,435.53
1785.246,470.03
1786.101,472.90
1786.954,446.10
1787.808,467.80
1788.661,461.27
1789.516,423.23
1790.370,447.43
1791.223,455.67
1792.077,444.53
1792.930,425.13
1793.784,432.73
1794.636,449.97
1795.490,437.20
1796.344,466.97
1797.196,433.53
1798.049,430.07
1798.901,457.97
1799.755,445.90
1800.606,451.70
1801.460,476.30
1802.311,470.67
1803.165,459.73
1804.018,507.70
1804.869,460.23
1805.722,419.80
1806.573,481.87
1807.426,489.40
1808.276,438.37
1809.129,470.00
1809.980,446.67
1810.832,431.27
1811.683,434.17
1812.535,428.47
1813.385,462.53
1814.237,452.97
1815.089,447.73
1815.940,436.30
1816.791,468.63
1817.641,464.97
1818.493,459.30
1819.343,455.63
1820.194,446.93
1821.044,439.80
1821.895,434.47
1822.745,448.17
1823.596,447.73
1824.445,453.07
1825.296,454.87
1826.145,410.57
1826.996,419.80
1827.845,421.60
1828.695,470.43
1829.544,425.77
1830.395,472.00
1831.243,455.97
1832.094,416.83
1832.942,415.50
1833.792,435.90
1834.640,454.63
1835.490,459.40
1836.338,451.97
1837.186,432.80
1838.036,431.43
1838.884,475.27
1839.733,414.03
1840.581,441.87
1841.430,422.93
1842.278,425.63
1843.127,456.93
1843.974,418.63
1844.823,405.83
1845.671,443.47
1846.519,432.03
1847.366,441.27
1848.213,453.93
1849.062,425.77
1849.909,455.90
1850.757,421.83
1851.604,415.83
1852.452,451.53
1853.298,400.93
1854.146,447.40
1854.993,436.57
1855.839,438.43
1856.687,459.93
1857.532,443.00
1858.380,432.23
1859.226,441.37
1860.073,447.27
1860.919,458.27
1861.765,426.77
1862.612,430.87
1863.457,454.23
1864.304,445.23
1865.150,419.03
1865.995,457.07
1866.842,422.83
1867.686,418.53
1868.533,421.13
1869.378,426.57
1870.223,394.77
1871.069,409.03
1871.914,423.60
1872.760,463.07
1873.604,437.23
1874.448,404.07
1875.294,464.13
1876.139,413.93
1876.984,459.90
1877.828,420.40
1878.672,427.80
1879.518,410.20
1880.361,406.70
1881.205,440.07
1882.050,403.33
1882.894,436.20
1883.739,425.87
1884.582,425.03
1885.425,441.30
1886.270,459.37
1887.113,413.63
1887.956,428.20
1888.801,422.77
1889.644,402.30
1890.486,442.63
1891.331,469.27
1892.173,428.53
1893.017,438.37
1893.860,421.67
1894.702,444.50
1895.546,423.57
1896.388,382.20
1897.230,434.57
1898.074,426.33
1898.916,443.73
1899.757,423.17
1900.601,435.53
1901.443,440.77
1902.284,420.43
1903.125,452.73
1903.969,458.43
1904.810,402.97
1905.651,456.57
1906.494,431.47
1907.335,400.53
1908.176,411.60
1909.018,432.33
1909.859,423.77
1910.700,448.97
1911.542,435.03
1912.383,427.23
1913.223,429.63
1914.064,425.07
1914.906,444.03
1915.746,367.53
1916.586,438.57
1917.428,452.10
1918.268,434.90
1919.107,412.03
1919.947,387.30
1920.789,385.40
1921.628,451.17
1922.468,448.67
1923.309,420.83
1924.148,406.90
1924.988,464.17
1925.827,430.13
1926.667,408.80
1927.507,426.83
1928.345,403.80
1929.184,421.40
1930.025,419.77
1930.864,436.10
1931.702,423.23
1932.541,420.47
1933.381,419.47
1934.219,409.13
1935.057,418.53
1935.896,416.83
1936.735,437.87
1937.573,441.77
1938.411,437.47
1939.249,457.83
1940.089,421.60
1940.927,450.83
1941.764,424.23
1942.602,465.50
1943.439,409.37
1944.278,438.13
1945.115,430.87
1945.953,415.93
1946.790,381.87
1947.628,410.33
1948.465,411.83
1949.302,450.67
1950.139,438.07
1950.976,387.67
1951.814,408.57
1952.651,403.30
1953.487,370.13
1954.323,384.57
1955.160,418.77
1955.998,370.13
1956.834,446.80
1957.670,381.50
1958.506,374.10
1959.342,414.40
1960.177,396.87
1961.015,407.70
1961.850,425.63
1962.686,395.03
1963.521,411.80
1964.357,440.07
1965.192,420.30
1966.029,426.27
1966.864,430.73
1967.699,423.43
1968.534,408.47
1969.369,395.23
1970.204,418.17
1971.040,446.67
1971.875,367.10
1972.709,405.40
1973.544,409.03
1974.378,400.63
1975.212,430.77
1976.047,420.13
1976.882,434.03
1977.716,436.57
1978.550,402.97
1979.384,403.07
1980.218,418.10
1981.052,422.63
1981.885,412.03
1982.719,412.60
1983.554,390.33
1984.388,415.50
1985.221,435.07
1986.054,405.50
1986.887,432.63
1987.720,360.93
1988.553,407.07
1989.386,400.77
1990.219,397.30
1991.053,425.30
1991.886,410.23
1992.719,415.20
1993.551,441.03
1994.383,421.20
1995.216,381.17
1996.048,407.07
1996.880,436.67
1997.712,399.93
1998.544,444.57
1999.376,349.03
2000.208,428.07
2001.040,408.87
2001.873,402.07
2002.705,379.83
2003.536,384.93
2004.367,439.47
2005.199,392.87
2006.030,421.60
2006.861,415.50
2007.692,435.10
2008.523,374.73
2009.354,394.37
2010.185,412.53
2011.016,431.63
2011.846,437.60
2012.677,446.10
2013.507,396.30
2014.338,407.50
2015.168,409.63
2015.999,402.67
2016.829,410.83
2017.659,397.83
2018.489,450.33
2019.319,407.07
2020.149,402.13
2020.980,441.07
2021.810,393.47
2022.639,405.13
2023.469,397.70
2024.298,406.07
2025.128,426.07
2025.957,410.57
2026.786,396.67
2027.615,427.83
2028.444,399.40
2029.273,404.13
2030.102,434.13
2030.931,407.33
2031.758,450.70
2032.586,452.87
2033.415,408.17
2034.243,402.33
2035.072,430.43
2035.900,430.07
2036.728,406.73
2037.556,439.47
2038.385,423.23
2039.213,433.07
2040.040,406.67
2040.868,408.03
2041.696,417.93
2042.524,390.07
2043.351,411.50
2044.179,406.57
2045.006,442.07
2045.006,442.07

Max Intensity Wave.,217.871
Max Intensity Data,5252.40
Min Intensity Wave.,1719.209
Min Intensity Data,310.53
FWHM Wave.,402.613
FWHM Value,0.84
Pressure Wave.,684.671
Pressure Value [GPa],-24.91530
G/D Ratio,0.60300
G/D Gband Wave.,1566.254
G/D Gband Intensity,591.80
G/D Dband Wave.,1303.512
G/D Dband Intensity,981.43

<< BACKGROUND SPECTRUM >>
Wave[dcm-1],No32
146.591,2267.00
147.626,2110.00
148.664,2079.00
149.699,2520.00
150.737,2245.00
151.772,2407.00
152.809,2356.00
153.846,2274.00
154.881,2388.00
155.918,1962.00
156.953,2291.00
157.989,2601.00
159.026,2460.00
160.060,2668.00
161.096,2848.00
162.130,2499.00
163.167,2574.00
164.200,2441.00
165.236,2617.00
166.272,2668.00
167.305,2275.00
168.341,2525.00
169.374,2806.00
170.409,2798.00
171.445,2740.00
172.477,2498.00
173.512,2387.00
174.545,2688.00
175.580,2829.00
176.614,3045.00
177.647,2804.00
178.681,3038.00
179.713,3336.00
180.747,2819.00
181.781,2743.00
182.813,3012.00
183.847,3121.00
184.878,2748.00
185.912,3003.00
186.945,3102.00
187.976,3092.00
189.010,2726.00
190.043,2888.00
191.073,2906.00
192.106,2705.00
193.137,3164.00
194.170,2576.00
195.202,2932.00
196.232,2697.00
197.265,3023.00
198.297,3049.00
199.327,2753.00
200.359,2956.00
201.388,3323.00
202.420,2919.00
203.452,3087.00
204.481,2682.00
205.512,3336.00
206.544,3043.00
207.573,3054.00
208.604,3371.00
209.635,3541.00
210.663,2977.00
211.694,2999.00
212.725,2840.00
213.753,2830.00
214.783,3394.00
215.813,3275.00
216.841,2987.00
217.871,3148.00
218.899,2904.00
219.929,3112.00
220.959,2895.00
221.986,3134.00
223.016,2780.00
224.045,3165.00
225.072,3160.00
226.101,3171.00
227.130,3249.00
228.157,2816.00
229.185,2327.00
230.214,3164.00
231.241,2803.00
232.269,2467.00
233.297,2653.00
234.323,3255.00
235.351,2801.00
236.379,3119.00
237.407,2759.00
238.433,2938.00
239.460,3114.00
240.488,3078.00
241.513,3194.00
242.540,3130.00
243.568,3189.00
244.592,3233.00
245.619,3189.00
246.646,2921.00
247.671,2940.00
248.697,2782.00
249.724,3047.00
250.748,3015.00
251.774,3038.00
252.801,3261.00
253.827,3096.00
254.850,3054.00
255.876,2722.00
256.902,3128.00
257.925,2998.00
258.951,2724.00
259.976,2760.00
260.999,3052.00
262.024,2800.00
263.049,3636.00
264.074,3089.00
265.097,3037.00
266.122,3093.00
267.146,3024.00
268.168,3232.00
269.193,2871.00
270.217,3222.00
271.241,2734.00
272.263,2833.00
273.287,3165.00
274.311,2759.00
275.332,3277.00
276.356,2865.00
277.379,3094.00
278.402,3103.00
279.424,2962.00
280.447,2875.00
281.470,2702.00
282.492,3085.00
283.513,2870.00
284.536,3145.00
285.558,3178.00
286.581,3149.00
287.601,2846.00
288.623,2829.00
289.645,3067.00
290.665,3104.00
291.687,3111.00
292.709,3140.00
293.730,3375.00
294.750,2859.00
295.771,2761.00
296.792,3130.00
297.813,2893.00
298.832,3015.00
299.853,2730.00
300.874,2991.00
301.895,2937.00
302.913,2947.00
303.934,3295.00
304.954,3024.00
305.975,4275.00
306.993,2754.00
308.013,3110.00
309.033,3030.00
310.052,2936.00
311.072,2863.00
312.090,3064.00
313.109,3257.00
314.129,3345.00
315.148,3000.00
316.165,3058.00
317.184,3205.00
318.203,2787.00
319.222,2746.00
320.238,3141.00
321.257,2877.00
322.275,2695.00
323.294,3007.00
324.312,3137.00
325.328,3274.00
326.346,3283.00
327.364,3235.00
328.382,3182.00
329.397,3131.00
330.415,3228.00
331.432,3222.00
332.450,3246.00
333.467,3429.00
334.482,2575.00
335.499,3369.00
336.516,2873.00
337.533,2560.00
338.547,2823.00
339.564,2847.00
340.580,3083.00
341.597,2962.00
342.613,3461.00
343.627,2979.00
344.643,3003.00
345.659,3119.00
346.675,2977.00
347.690,2927.00
348.704,3067.00
349.719,2911.00
350.735,2770.00
351.750,3167.00
352.765,2999.00
353.778,2947.00
354.793,3143.00
355.808,2848.00
356.822,3186.00
357.837,2626.00
358.851,3262.00
359.864,2922.00
360.878,2744.00
361.892,2948.00
362.906,3145.00
363.920,2580.00
364.932,3140.00
365.945,3097.00
366.959,2985.00
367.972,2922.00
368.986,2673.00
369.999,3401.00
371.010,2810.00
372.023,3303.00
373.036,2933.00
374.049,3386.00
375.061,3067.00
376.072,3004.00
377.084,2854.00
378.097,2675.00
379.109,3184.00
380.121,3030.00
381.133,2652.00
382.143,3141.00
383.155,2739.00
384.166,2901.00
385.178,3056.00
386.189,3240.00
387.201,2726.00
388.212,2926.00
389.221,2943.00
390.232,3001.00
391.243,2940.00
392.254,3009.00
393.264,2836.00
394.275,3222.00
395.283,3159.00
396.294,3581.00
397.304,3490.00
398.314,3117.00
399.324,3056.00
400.334,2682.00
401.344,3150.00
402.351,2657.00
403.361,3234.00
404.370,2977.00
405.380,2924.00
406.389,3337.00
407.398,3095.00
408.407,3108.00
409.414,3155.00
410.423,3316.00
411.431,2763.00
412.440,2726.00
413.448,3361.00
414.457,2855.00
415.465,2872.00
416.471,2894.00
417.479,3033.00
418.487,2803.00
419.495,3299.00
420.503,3113.00
421.510,2633.00
422.518,3150.00
423.525,3151.00
424.530,3398.00
425.537,2863.00
426.544,3238.00
427.551,2856.00
428.558,3602.00
429.565,3420.00
430.571,2887.00
431.578,2904.00
432.582,2884.00
433.588,2900.00
434.595,2608.00
435.601,3291.00
436.607,3236.00
437.612,2753.00
438.618,3329.00
439.624,2948.00
440.627,2950.00
441.633,3088.00
442.638,3550.00
443.643,3142.00
444.648,3032.00
445.653,3180.00
446.658,2880.00
447.663,3041.00
448.667,2900.00
449.672,2925.00
450.674,2977.00
451.678,2677.00
452.682,2874.00
453.687,2840.00
454.690,3570.00
455.694,3274.00
456.698,2595.00
457.702,2649.00
458.705,2753.00
459.709,2848.00
460.710,2901.00
461.713,3022.00
462.716,3050.00
463.719,3031.00
464.722,3169.00
465.725,2955.00
466.727,2832.00
467.730,3012.00
468.732,2794.00
469.735,3295.00
470.737,2907.00
471.737,2929.00
472.739,2913.00
473.741,2816.00
474.742,3079.00
475.744,3111.00
476.746,3010.00
477.747,2954.00
478.748,3156.00
479.750,2947.00
480.751,3015.00
481.752,3708.00
482.753,3073.00
483.751,3521.00
484.752,2663.00
485.753,2975.00
486.753,2872.00
487.753,3018.00
488.754,3443.00
489.754,2706.00
490.754,3338.00
491.754,3124.00
492.754,2725.00
493.753,3027.00
494.753,2920.00
495.752,3341.00
496.752,3017.00
497.749,2974.00
498.748,2858.00
499.747,3389.00
500.746,3090.00
501.745,2775.00
502.744,2792.00
503.742,3325.00
504.741,2947.00
505.739,2464.00
506.737,2850.00
507.735,3145.00
508.734,3370.00
509.732,3138.00
510.729,3345.00
511.727,2937.00
512.725,2951.00
513.720,2745.00
514.718,3244.00
515.715,2698.00
516.712,2650.00
517.709,2986.00
518.706,2898.00
519.703,3053.00
520.700,3184.00
521.696,3376.00
522.693,2924.00
523.689,2869.00
524.686,3158.00
525.682,2789.00
526.678,3469.00
527.674,2953.00
528.670,2575.00
529.666,3517.00
530.661,3438.00
531.657,3462.00
532.652,3143.00
533.648,2983.00
534.641,3243.00
535.636,3081.00
536.631,3113.00
537.626,3187.00
538.621,2767.00
539.616,2610.00
540.610,2498.00
541.605,2990.00
542.599,3063.00
543.593,3015.00
544.587,3924.00
545.581,2868.00
546.575,3092.00
547.569,3031.00
548.563,2698.00
549.557,2689.00
550.550,2749.00
551.543,2748.00
552.537,3127.00
553.530,2777.00
554.523,2782.00
555.516,3102.00
556.509,2960.00
557.502,2614.00
558.494,3162.00
559.487,2920.00
560.479,3152.00
561.472,3232.00
562.464,3168.00
563.456,3300.00
564.448,2957.00
565.440,2985.00
566.432,3413.00
567.423,2945.00
568.415,2869.00
569.404,3066.00
570.396,2798.00
571.387,3094.00
572.378,3010.00
573.369,3935.00
574.360,3680.00
575.351,2984.00
576.341,2872.00
577.332,2872.00
578.323,2702.00
579.313,2893.00
580.303,3273.00
581.293,3089.00
582.283,2972.00
583.273,3120.00
584.263,3038.00
585.253,3095.00
586.243,3143.00
587.232,2657.00
588.222,2940.00
589.211,3157.00
590.200,3063.00
591.189,2950.00
592.178,2951.00
593.167,3417.00
594.156,3243.00
595.145,2878.00
596.133,3452.00
597.122,3118.00
598.110,3190.00
599.098,3091.00
600.086,3013.00
601.074,3189.00
602.062,2828.00
603.050,2748.00
604.038,3107.00
605.025,2846.00
606.013,3206.00
607.000,3368.00
607.987,3033.00
608.975,3079.00
609.962,2740.00
610.949,3169.00
611.936,3273.00
612.922,3179.00
613.909,2731.00
614.895,3373.00
615.882,2878.00
616.868,2983.00
617.854,2735.00
618.841,3002.00
619.826,3102.00
620.812,2968.00
621.798,2783.00
622.784,3139.00
623.769,3104.00
624.755,2717.00
625.740,3045.00
626.725,2679.00
627.711,2890.00
628.698,3061.00
629.683,2822.00
630.667,3179.00
631.652,2746.00
632.637,2928.00
633.621,3127.00
634.606,2929.00
635.590,3138.00
636.574,2977.00
637.558,3053.00
638.542,3026.00
639.526,2831.00
640.510,2656.00
641.493,3038.00
642.477,3007.00
643.460,2669.00
644.444,3207.00
645.427,3256.00
646.410,2669.00
647.393,2951.00
648.376,3091.00
649.359,2907.00
650.341,3117.00
651.324,3075.00
652.307,3018.00
653.289,2955.00
654.271,2854.00
655.253,2918.00
656.235,3098.00
657.217,3221.00
658.199,2594.00
659.181,2732.00
660.163,3000.00
661.144,2908.00
662.126,2902.00
663.107,2781.00
664.088,4748.00
665.069,3245.00
666.050,2824.00
667.033,2724.00
668.014,3035.00
668.995,2552.00
669.975,2979.00
670.956,2961.00
671.936,3120.00
672.916,2959.00
673.896,3069.00
674.876,2918.00
675.856,2879.00
676.836,2728.00
677.816,2294.00
678.795,2822.00
679.775,2685.00
680.754,3023.00
681.734,3132.00
682.713,3152.00
683.692,2796.00
684.671,2567.00
685.650,2751.00
686.629,2873.00
687.607,2749.00
688.586,2792.00
689.564,2835.00
690.543,3250.00
691.523,2375.00
692.501,2835.00
693.479,2945.00
694.457,2831.00
695.435,2881.00
696.413,2658.00
697.390,2503.00
698.368,2715.00
699.345,3095.00
700.322,2931.00
701.300,3060.00
702.277,3070.00
703.254,3278.00
704.231,2558.00
705.207,2970.00
706.184,2773.00
707.161,2697.00
708.137,2853.00
709.113,2805.00
710.090,2825.00
711.068,2587.00
712.044,2627.00
713.020,2882.00
713.996,2619.00
714.971,2802.00
715.947,2858.00
716.922,2823.00
717.898,2736.00
718.873,2830.00
719.848,2669.00
720.823,2709.00
721.798,2994.00
722.773,2753.00
723.748,2521.00
724.723,3050.00
725.697,2838.00
726.672,2752.00
727.646,2463.00
728.622,2999.00
729.596,2617.00
730.570,2737.00
731.544,3069.00
732.518,3259.00
733.492,2799.00
734.466,2843.00
735.439,2975.00
736.413,3115.00
737.386,2486.00
738.359,2447.00
739.332,2510.00
740.305,2827.00
741.278,3263.00
742.251,2929.00
743.224,2726.00
744.196,2561.00
745.171,3139.00
746.143,3035.00
747.115,2739.00
748.087,2741.00
749.059,3102.00
750.031,2862.00
751.003,3694.00
751.975,3278.00
752.947,2730.00
753.918,3048.00
754.890,2576.00
755.861,2772.00
756.832,3020.00
757.803,2864.00
758.774,2816.00
759.747,2628.00
760.718,3196.00
761.689,2729.00
762.659,2620.00
763.630,3173.00
764.600,2577.00
765.570,3024.00
766.540,3111.00
767.510,2916.00
768.480,3030.00
769.450,2743.00
770.420,2836.00
771.390,2666.00
772.359,2781.00
773.329,2629.00
774.300,2515.00
775.269,2752.00
776.238,2984.00
777.207,3174.00
778.176,2523.00
779.145,2779.00
780.114,2669.00
781.083,2564.00
782.051,2728.00
783.019,2678.00
783.988,3099.00
784.956,2891.00
785.924,2972.00
786.894,2876.00
787.862,2677.00
788.830,3142.00
789.797,2611.00
790.765,2617.00
791.732,2765.00
792.700,2618.00
793.667,2601.00
794.634,2762.00
795.601,2723.00
796.568,2779.00
797.535,2824.00
798.502,3403.00
799.468,2904.00
800.437,2427.00
801.403,2654.00
802.370,3280.00
803.336,3003.00
804.302,2848.00
805.268,2407.00
806.234,2540.00
807.200,2737.00
808.166,2791.00
809.131,2556.00
810.097,2974.00
811.062,3668.00
812.027,2994.00
812.994,2603.00
813.960,2592.00
814.925,2924.00
815.889,2473.00
816.854,3045.00
817.819,2642.00
818.783,2696.00
819.748,3069.00
820.712,2718.00
821.677,2603.00
822.641,2713.00
823.605,2697.00
824.571,3147.00
825.534,2696.00
826.498,2690.00
827.462,2815.00
828.425,2639.00
829.389,3062.00
830.352,2800.00
831.315,2909.00
832.279,2514.00
833.242,2739.00
834.204,2680.00
835.167,2661.00
836.132,3066.00
837.095,2536.00
838.057,2646.00
839.020,2785.00
839.982,2886.00
840.944,2668.00
841.906,2624.00
842.868,2957.00
843.830,2550.00
844.792,3029.00
845.753,2673.00
846.715,2416.00
847.679,2623.00
848.640,2605.00
849.601,2763.00
850.562,3238.00
851.523,2705.00
852.484,2459.00
853.445,2995.00
854.406,2662.00
855.367,2725.00
856.327,3070.00
857.288,2482.00
858.248,2670.00
859.210,2652.00
860.170,2515.00
861.130,2993.00
862.090,2401.00
863.050,2613.00
864.010,2656.00
864.969,2906.00
865.929,2610.00
866.888,2522.00
867.848,2839.00
868.807,2636.00
869.766,2832.00
870.727,2768.00
871.686,2964.00
872.645,3006.00
873.604,3256.00
874.562,2757.00
875.521,2824.00
876.479,3392.00
877.437,2577.00
878.396,2577.00
879.354,3146.00
880.312,2588.00
881.270,2672.00
882.229,3151.00
883.187,2639.00
884.145,2656.00
885.102,2937.00
886.059,2793.00
887.017,2882.00
887.974,2922.00
888.931,3084.00
889.888,2527.00
890.845,2451.00
891.802,2336.00
892.758,2660.00
893.717,2464.00
894.673,2575.00
895.630,2639.00
896.586,2861.00
897.542,2652.00
898.498,2549.00
899.454,2846.00
900.410,2667.00
901.366,2683.00
902.321,2608.00
903.277,2694.00
904.232,2756.00
905.189,2467.00
906.145,2638.00
907.100,2192.00
908.055,2716.00
909.010,2936.00
909.965,2342.00
910.919,2833.00
911.874,2577.00
912.828,2765.00
913.783,2757.00
914.737,2365.00
915.693,2730.00
916.648,2862.00
917.602,2938.00
918.555,2770.00
919.509,2866.00
920.463,2768.00
921.417,2805.00
922.370,2564.00
923.324,2685.00
924.277,2641.00
925.230,2768.00
926.183,2382.00
927.138,2660.00
928.091,2959.00
929.044,2818.00
929.996,2617.00
930.949,2628.00
931.902,2801.00
932.854,2814.00
933.806,2573.00
934.758,2959.00
935.711,3016.00
936.663,2727.00
937.614,2801.00
938.568,2762.00
939.520,2414.00
940.471,2688.00
941.423,2743.00
942.374,2895.00
943.326,2793.00
944.277,2588.00
945.228,2841.00
946.179,2706.00
947.130,3002.00
948.080,2651.00
949.031,2521.00
949.984,2659.00
950.934,2712.00
951.884,2445.00
952.835,2722.00
953.785,2710.00
954.735,2634.00
955.685,2356.00
956.635,2655.00
957.585,2620.00
958.534,2640.00
959.484,2708.00
960.433,2604.00
961.383,2458.00
962.334,2945.00
963.283,2801.00
964.232,2861.00
965.181,2717.00
966.130,2765.00
967.079,2611.00
968.027,2754.00
968.976,2735.00
969.924,2594.00
970.873,2819.00
971.821,2727.00
972.769,2920.00
973.719,2875.00
974.667,2512.00
975.615,2714.00
976.562,2750.00
977.510,2433.00
978.458,2607.00
979.405,2789.00
980.352,2785.00
981.300,2976.00
982.247,2782.00
983.194,2518.00
984.141,2627.00
985.088,2691.00
986.036,2808.00
986.983,3001.00
987.930,3121.00
988.876,2366.00
989.822,2931.00
990.769,2513.00
991.715,2591.00
992.661,2439.00
993.607,2808.00
994.553,3279.00
995.498,2571.00
996.444,2295.00
997.389,2787.00
998.337,2524.00
999.282,2858.00
1000.227,2654.00
1001.173,2686.00
1002.118,2446.00
1003.062,2900.00
1004.007,2696.00
1004.952,2989.00
1005.897,2921.00
1006.841,2689.00
1007.786,2449.00
1008.730,2433.00
1009.674,3178.00
1010.618,2631.00
1011.564,2503.00
1012.508,2371.00
1013.452,2931.00
1014.396,2725.00
1015.339,2579.00
1016.283,2659.00
1017.226,2762.00
1018.170,2707.00
1019.113,2855.00
1020.056,2762.00
1020.999,2731.00
1021.942,2572.00
1022.885,2851.00
1023.828,3014.00
1024.770,2493.00
1025.715,2738.00
1026.657,2713.00
1027.600,2730.00
1028.542,2928.00
1029.484,2719.00
1030.426,2828.00
1031.368,2770.00
1032.310,2553.00
1033.251,2553.00
1034.193,2678.00
1035.135,2497.00
1036.076,2605.00
1037.017,2550.00
1037.959,2847.00
1038.900,2765.00
1039.843,2762.00
1040.784,2742.00
1041.725,2777.00
1042.665,2622.00
1043.606,2775.00
1044.547,2729.00
1045.487,2397.00
1046.427,2659.00
1047.368,2740.00
1048.308,2255.00
1049.248,2506.00
1050.188,2706.00
1051.128,2654.00
1052.067,2677.00
1053.007,2394.00
1053.947,2401.00
1054.886,2580.00
1055.827,2476.00
1056.766,2979.00
1057.706,2437.00
1058.645,2638.00
1059.584,2761.00
1060.522,2960.00
1061.461,2446.00
1062.400,2475.00
1063.338,2633.00
1064.277,2539.00
1065.215,2497.00
1066.154,2424.00
1067.092,2599.00
1068.030,2583.00
1068.968,2842.00
1069.906,2983.00
1070.843,2952.00
1071.781,2750.00
1072.720,2806.00
1073.658,2801.00
1074.595,2627.00
1075.533,2532.00
1076.470,2624.00
1077.407,3005.00
1078.344,2767.00
1079.281,2767.00
1080.217,2333.00
1081.154,2633.00
1082.091,2718.00
1083.027,2451.00
1083.964,2902.00
1084.900,2567.00
1085.836,2619.00
1086.772,2868.00
1087.708,2451.00
1088.644,2845.00
1089.580,2663.00
1090.515,2747.00
1091.451,2605.00
1092.388,2734.00
1093.324,2439.00
1094.259,3178.00
1095.194,2723.00
1096.129,2590.00
1097.064,2532.00
1097.999,2795.00
1098.934,2501.00
1099.869,2547.00
1100.803,2701.00
1101.738,2681.00
1102.672,2379.00
1103.607,2811.00
1104.541,2555.00
1105.475,2530.00
1106.409,2431.00
1107.343,2578.00
1108.277,2394.00
1109.210,2739.00
1110.144,2693.00
1111.078,2678.00
1112.011,2457.00
1112.944,2781.00
1113.878,2718.00
1114.811,2191.00
1115.744,2536.00
1116.678,2286.00
1117.611,2622.00
1118.544,2604.00
1119.477,2747.00
1120.409,2521.00
1121.342,3128.00
1122.274,2765.00
1123.206,4181.00
1124.138,2698.00
1125.070,2975.00
1126.002,2801.00
1126.934,2274.00
1127.866,2575.00
1128.798,2332.00
1129.729,2378.00
1130.661,2670.00
1131.592,2609.00
1132.523,2742.00
1133.454,2784.00
1134.385,2304.00
1135.317,2612.00
1136.247,2574.00
1137.178,2829.00
1138.109,2360.00
1139.039,3025.00
1139.970,2856.00
1140.900,2605.00
1141.831,2354.00
1142.761,2232.00
1143.691,2751.00
1144.621,2637.00
1145.551,2710.00
1146.480,2685.00
1147.410,2828.00
1148.340,2298.00
1149.269,2391.00
1150.199,2633.00
1151.128,3042.00
1152.057,2448.00
1152.979,2580.00
1153.898,2635.00
1154.819,2726.00
1155.739,2641.00
1156.658,2520.00
1157.579,2681.00
1158.498,2630.00
1159.419,2189.00
1160.338,2727.00
1161.256,2709.00
1162.177,2451.00
1163.095,2616.00
1164.016,2675.00
1164.934,2890.00
1165.852,2787.00
1166.772,2579.00
1167.690,2660.00
1168.610,2666.00
1169.528,2649.00
1170.446,2171.00
1171.365,2515.00
1172.283,2525.00
1173.202,2625.00
1174.120,2682.00
1175.037,2482.00
1175.956,2450.00
1176.873,2534.00
1177.792,2503.00
1178.709,3068.00
1179.626,2537.00
1180.544,2789.00
1181.461,2533.00
1182.379,2695.00
1183.296,2605.00
1184.212,2275.00
1185.130,2483.00
1186.046,2950.00
1186.962,2647.00
1187.880,2906.00
1188.796,2682.00
1189.714,2423.00
1190.629,2761.00
1191.545,2703.00
1192.462,2569.00
1193.378,2617.00
1194.295,2351.00
1195.210,2607.00
1196.125,2759.00
1197.042,2722.00
1197.957,2618.00
1198.872,2526.00
1199.788,2503.00
1200.703,2922.00
1201.619,2649.00
1202.534,2485.00
1203.448,2684.00
1204.364,2543.00
1205.278,2293.00
1206.192,2702.00
1207.108,3115.00
1208.022,2985.00
1208.938,2455.00
1209.851,2803.00
1210.765,2856.00
1211.680,2542.00
1212.594,2407.00
1213.507,2566.00
1214.422,3014.00
1215.335,2717.00
1216.248,2588.00
1217.163,2642.00
1218.076,3261.00
1218.990,2736.00
1219.903,2407.00
1220.816,2452.00
1221.730,2589.00
1222.642,2523.00
1223.554,2541.00
1224.469,2699.00
1225.380,2557.00
1226.292,2298.00
1227.206,2759.00
1228.118,2951.00
1229.032,2287.00
1229.943,2555.00
1230.855,2573.00
1231.768,2403.00
1232.679,2699.00
1233.590,2578.00
1234.503,2850.00
1235.414,2515.00
1236.325,2515.00
1237.238,2663.00
1238.149,2737.00
1239.059,2452.00
1239.972,2798.00
1240.882,2451.00
1241.793,2735.00
1242.705,2934.00
1243.615,2600.00
1244.525,2729.00
1245.437,2166.00
1246.347,2690.00
1247.259,2753.00
1248.168,3076.00
1249.078,2863.00
1249.989,2929.00
1250.899,2436.00
1251.808,2479.00
1252.719,2553.00
1253.628,2474.00
1254.537,3019.00
1255.448,2497.00
1256.357,2487.00
1257.266,2618.00
1258.176,2365.00
1259.085,2335.00
1259.993,2426.00
1260.904,2483.00
1261.812,2436.00
1262.720,3119.00
1263.630,2779.00
1264.538,2484.00
1265.446,2718.00
1266.356,2592.00
1267.263,2878.00
1268.171,2443.00
1269.080,2693.00
1269.988,2780.00
1270.895,2524.00
1271.804,2581.00
1272.711,2786.00
1273.619,2783.00
1274.527,2405.00
1275.434,2744.00
1276.341,2466.00
1277.248,2641.00
1278.156,2914.00
1279.063,2458.00
1279.969,2708.00
1280.877,3492.00
1281.783,2806.00
1282.690,2641.00
1283.598,2604.00
1284.503,2477.00
1285.409,2449.00
1286.317,2980.00
1287.223,3010.00
1288.128,2668.00
1289.036,2503.00
1289.941,2559.00
1290.846,2612.00
1291.751,2449.00
1292.658,2544.00
1293.563,3059.00
1294.468,2635.00
1295.375,2777.00
1296.280,2843.00
1297.184,3345.00
1298.091,2706.00
1298.995,2758.00
1299.900,2995.00
1300.806,2523.00
1301.710,2407.00
1302.614,2220.00
1303.518,2860.00
1304.424,2582.00
1305.327,2818.00
1306.231,2607.00
1307.137,2748.00
1308.040,2676.00
1308.943,2668.00
1309.847,2813.00
1310.752,2787.00
1311.655,2296.00
1312.558,2405.00
1313.463,2588.00
1314.366,2502.00
1315.269,2658.00
1316.171,2600.00
1317.076,2522.00
1317.978,2436.00
1318.881,2224.00
1319.785,2480.00
1320.687,2481.00
1321.589,2209.00
1322.491,2484.00
1323.395,2737.00
1324.297,3189.00
1325.198,2715.00
1326.102,2426.00
1327.004,2428.00
1327.905,2994.00
1328.806,2582.00
1329.709,2723.00
1330.611,2541.00
1331.512,2417.00
1332.413,3025.00
1333.316,2669.00
1334.216,2778.00
1335.117,2359.00
1336.020,2658.00
1336.920,2611.00
1337.821,2482.00
1338.721,2889.00
1339.623,2678.00
1340.523,2581.00
1341.423,2530.00
1342.323,2913.00
1343.225,2667.00
1344.125,2452.00
1345.025,2522.00
1345.924,2273.00
1346.826,2962.00
1347.725,3026.00
1348.624,2824.00
1349.524,2473.00
1350.425,2579.00
1351.324,2717.00
1352.223,2809.00
1353.121,2585.00
1354.022,2835.00
1354.921,3019.00
1355.819,2775.00
1356.718,2662.00
1357.618,2423.00
1358.516,2762.00
1359.415,3010.00
1360.313,2718.00
1361.213,2596.00
1362.111,2939.00
1363.008,3292.00
1363.906,2621.00
1364.806,2617.00
1365.703,2716.00
1366.601,2434.00
1367.498,2432.00
1368.397,2802.00
1369.295,2659.00
1370.192,2481.00
1371.089,2685.00
1371.987,2597.00
1372.884,2877.00
1373.781,2415.00
1374.678,2643.00
1375.574,2467.00
1376.473,2759.00
1377.369,2891.00
1378.265,2479.00
1379.161,2602.00
1380.059,2331.00
1380.955,2730.00
1381.851,2355.00
1382.747,2506.00
1383.643,2541.00
1384.540,2411.00
1385.436,2521.00
1386.331,2727.00
1387.227,2745.00
1388.124,2750.00
1389.019,2422.00
1389.914,2614.00
1390.809,2287.00
1391.704,3054.00
1392.601,2588.00
1393.495,2953.00
1394.390,2780.00
1395.285,2882.00
1396.179,2705.00
1397.075,2568.00
1397.969,2686.00
1398.864,2325.00
1399.758,2564.00
1400.652,2678.00
1401.547,2480.00
1402.441,2396.00
1403.335,2943.00
1404.229,2648.00
1405.122,2721.00
1406.017,2613.00
1406.911,2740.00
1407.804,3063.00
1408.697,2645.00
1409.590,2454.00
1410.485,2798.00
1411.378,2704.00
1412.271,2359.00
1413.163,2694.00
1414.056,2769.00
1414.949,3016.00
1415.843,2668.00
1416.735,2602.00
1417.627,2673.00
1418.520,2594.00
1419.412,2857.00
1420.306,2776.00
1421.197,2888.00
1422.089,2838.00
1422.981,3085.00
1423.873,2787.00
1424.764,2705.00
1425.657,2709.00
1426.549,2760.00
1427.440,2835.00
1428.331,2555.00
1429.222,2335.00
1430.113,2683.00
1431.006,2817.00
1431.897,2526.00
1432.787,2662.00
1433.678,2610.00
1434.568,2498.00
1435.459,2867.00
1436.351,2816.00
1437.241,2761.00
1438.131,2816.00
1439.021,2369.00
1439.911,2599.00
1440.801,2693.00
1441.693,2915.00
1442.583,2676.00
1443.472,2650.00
1444.362,2758.00
1445.251,2582.00
1446.140,2566.00
1447.030,2820.00
1447.921,2820.00
1448.810,2441.00
1449.699,2980.00
1450.588,2660.00
1451.476,2545.00
1452.365,2724.00
1453.254,2518.00
1454.144,2536.00
1455.032,2733.00
1455.921,2391.00
1456.809,2913.00
1457.697,2433.00
1458.585,2560.00
1459.473,2607.00
1460.361,2490.00
1461.251,2690.00
1462.138,2703.00
1463.026,2636.00
1463.913,2894.00
1464.801,2504.00
1465.688,2689.00
1466.575,2659.00
1467.463,3105.00
1468.351,2496.00
1469.238,2612.00
1470.125,2250.00
1471.012,2686.00
1471.899,2735.00
1472.785,2445.00
1473.672,2648.00
1474.558,2856.00
1475.446,2780.00
1476.333,2807.00
1477.219,2442.00
1478.105,2624.00
1478.991,2565.00
1479.877,2940.00
1480.762,2639.00
1481.648,2533.00
1482.534,2821.00
1483.419,2738.00
1484.307,2733.00
1485.192,2622.00
1486.077,2467.00
1486.962,2522.00
1487.847,2396.00
1488.732,2463.00
1489.617,2664.00
1490.502,2895.00
1491.387,2780.00
1492.271,2497.00
1493.156,2462.00
1494.042,2452.00
1494.927,2847.00
1495.811,2517.00
1496.695,2815.00
1497.579,2928.00
1498.463,2645.00
1499.347,2662.00
1500.231,2647.00
1501.114,2699.00
1501.998,2901.00
1502.881,2671.00
1503.765,2913.00
1504.648,3051.00
1505.533,2806.00
1506.417,2663.00
1507.300,2638.00
1508.183,2718.00
1509.066,2130.00
1509.948,2889.00
1510.831,3022.00
1511.714,2489.00
1512.596,2777.00
1513.479,2849.00
1514.361,2847.00
1515.243,2684.00
1516.125,2790.00
1517.008,2939.00
1517.890,2578.00
1518.771,2702.00
1519.655,2836.00
1520.537,2624.00
1521.419,2475.00
1522.300,2704.00
1523.182,2792.00
1524.063,2741.00
1524.944,2912.00
1525.825,2814.00
1526.707,2481.00
1527.588,2421.00
1528.468,2738.00
1529.349,2336.00
1530.230,2580.00
1531.111,2827.00
1531.991,2710.00
1532.872,2373.00
1533.752,2657.00
1534.632,2516.00
1535.513,2507.00
1536.393,2785.00
1537.273,2979.00
1538.153,3314.00
1539.032,2409.00
1539.912,2622.00
1540.792,2651.00
1541.672,2666.00
1542.551,2769.00
1543.430,3255.00
1544.310,2673.00
1545.189,2550.00
1546.068,3061.00
1546.947,2750.00
1547.826,2971.00
1548.705,2659.00
1549.584,2900.00
1550.462,2614.00
1551.341,2796.00
1552.219,2719.00
1553.098,2802.00
1553.976,2853.00
1554.854,3065.00
1555.733,2872.00
1556.611,2566.00
1557.489,2477.00
1558.367,2650.00
1559.244,2830.00
1560.122,2644.00
1561.000,2716.00
1561.877,2955.00
1562.755,2580.00
1563.632,2637.00
1564.509,2913.00
1565.386,3024.00
1566.264,2391.00
1567.141,2280.00
1568.017,2790.00
1568.894,2690.00
1569.771,2704.00
1570.648,2790.00
1571.524,2685.00
1572.401,2437.00
1573.277,2429.00
1574.153,2717.00
1575.029,2528.00
1575.906,3411.00
1576.781,2831.00
1577.657,2643.00
1578.533,2906.00
1579.409,2309.00
1580.285,2610.00
1581.160,3119.00
1582.036,2854.00
1582.911,2513.00
1583.786,2987.00
1584.662,2477.00
1585.537,2631.00
1586.412,2717.00
1587.287,2494.00
1588.160,2827.00
1589.035,2326.00
1589.909,2691.00
1590.784,2626.00
1591.658,2473.00
1592.533,2722.00
1593.407,2688.00
1594.281,2555.00
1595.155,3048.00
1596.029,2626.00
1596.903,2644.00
1597.777,2568.00
1598.651,2902.00
1599.525,2392.00
1600.398,2701.00
1601.272,2636.00
1602.144,3161.00
1603.017,2645.00
1603.890,2913.00
1604.763,2723.00
1605.636,2805.00
1606.509,2367.00
1607.382,2515.00
1608.255,2767.00
1609.128,2870.00
1610.000,2631.00
1610.873,2334.00
1611.746,2582.00
1612.616,2610.00
1613.488,2236.00
1614.361,2675.00
1615.233,2641.00
1616.105,2840.00
1616.977,2540.00
1617.849,2500.00
1618.720,2987.00
1619.592,2955.00
1620.464,2725.00
1621.333,3152.00
1622.205,2645.00
1623.076,2642.00
1623.947,2642.00
1624.818,2931.00
1625.689,2780.00
1626.560,2614.00
1627.431,2709.00
1628.302,3060.00
1629.171,2806.00
1630.042,2989.00
1630.912,3285.00
1631.782,3210.00
1632.653,2456.00
1633.523,2832.00
1634.393,2895.00
1635.263,2539.00
1636.131,2656.00
1637.001,2581.00
1637.871,2304.00
1638.741,2307.00
1639.611,2450.00
1640.480,2804.00
1641.350,2535.00
1642.219,2464.00
1643.087,2187.00
1643.956,3085.00
1644.825,2905.00
1645.694,2886.00
1646.563,2833.00
1647.432,2698.00
1648.299,2675.00
1649.167,2823.00
1650.036,2509.00
1650.904,2846.00
1651.773,2881.00
1652.641,2727.00
1653.509,2843.00
1654.376,2530.00
1655.244,2724.00
1656.112,2723.00
1656.980,2686.00
1657.847,2543.00
1658.715,2821.00
1659.581,2589.00
1660.448,2919.00
1661.316,2188.00
1662.183,2722.00
1663.051,2719.00
1663.918,2711.00
1664.783,2702.00
1665.650,2757.00
1666.517,2837.00
1667.384,2655.00
1668.251,2699.00
1669.115,2920.00
1669.982,2591.00
1670.849,2971.00
1671.715,2646.00
1672.581,2802.00
1673.446,2825.00
1674.312,2690.00
1675.178,3090.00
1676.044,2764.00
1676.910,2741.00
1677.774,2690.00
1678.639,2353.00
1679.505,2701.00
1680.370,2840.00
1681.236,3323.00
1682.099,2657.00
1682.965,2723.00
1683.830,2326.00
1684.695,2509.00
1685.560,2583.00
1686.423,2807.00
1687.288,2787.00
1688.153,2765.00
1689.017,2587.00
1689.880,2747.00
1690.745,2834.00
1691.609,2527.00
1692.473,2815.00
1693.338,2939.00
1694.200,2874.00
1695.064,2697.00
1695.928,2562.00
1696.792,2707.00
1697.654,3174.00
1698.517,2704.00
1699.381,2454.00
1700.245,2324.00
1701.106,2970.00
1701.969,2609.00
1702.833,2796.00
1703.696,2580.00
1704.557,2661.00
1705.420,2573.00
1706.283,2726.00
1707.146,2809.00
1708.007,2501.00
1708.870,2474.00
1709.732,2371.00
1710.595,2589.00
1711.455,2438.00
1712.318,2606.00
1713.180,2937.00
1714.040,2742.00
1714.902,2846.00
1715.764,2660.00
1716.626,2468.00
1717.486,2703.00
1718.348,2996.00
1719.209,4957.00
1720.071,2364.00
1720.930,2453.00
1721.792,2546.00
1722.653,2533.00
1723.512,2599.00
1724.374,2633.00
1725.234,2710.00
1726.095,2697.00
1726.954,2691.00
1727.815,2795.00
1728.676,2663.00
1729.535,2929.00
1730.395,2698.00
1731.256,2607.00
1732.114,2739.00
1732.974,2135.00
1733.834,3058.00
1734.693,2857.00
1735.553,2678.00
1736.413,3119.00
1737.272,2578.00
1738.130,2605.00
1738.990,2767.00
1739.849,2577.00
1740.707,3699.00
1741.566,2692.00
1742.426,2735.00
1743.283,3114.00
1744.142,2546.00
1745.001,2359.00
1745.858,2844.00
1746.717,2739.00
1747.576,2757.00
1748.433,2840.00
1749.292,3227.00
1750.150,3301.00
1751.007,2862.00
1751.865,2854.00
1752.723,2705.00
1753.579,2594.00
1754.438,2882.00
1755.296,2912.00
1756.152,2228.00
1757.010,2383.00
1757.865,2904.00
1758.723,2341.00
1759.581,3005.00
1760.436,2688.00
1761.294,3031.00
1762.151,2689.00
1763.006,2639.00
1763.864,2355.00
1764.721,2852.00
1765.576,2702.00
1766.433,2835.00
1767.288,2599.00
1768.144,2762.00
1769.001,2649.00
1769.856,2768.00
1770.712,2878.00
1771.568,2491.00
1772.423,2605.00
1773.279,2595.00
1774.133,2585.00
1774.989,3084.00
1775.845,3010.00
1776.699,2918.00
1777.555,2651.00
1778.409,3230.00
1779.265,2633.00
1780.120,2645.00
1780.974,2664.00
1781.829,2290.00
1782.682,2749.00
1783.538,2546.00
1784.393,2750.00
1785.246,2565.00
1786.101,2769.00
1786.954,2827.00
1787.808,2889.00
1788.661,2393.00
1789.516,2630.00
1790.370,2631.00
1791.223,2878.00
1792.077,2703.00
1792.930,2811.00
1793.784,2592.00
1794.636,2715.00
1795.490,2669.00
1796.344,2703.00
1797.196,2698.00
1798.049,2868.00
1798.901,2571.00
1799.755,2927.00
1800.606,2498.00
1801.460,3189.00
1802.311,2980.00
1803.165,3091.00
1804.018,2975.00
1804.869,2765.00
1805.722,3178.00
1806.573,2705.00
1807.426,2487.00
1808.276,2694.00
1809.129,2583.00
1809.980,2897.00
1810.832,2995.00
1811.683,2635.00
1812.535,3040.00
1813.385,2615.00
1814.237,2963.00
1815.089,2731.00
1815.940,2987.00
1816.791,2625.00
1817.641,2551.00
1818.493,2838.00
1819.343,2758.00
1820.194,2567.00
1821.044,2806.00
1821.895,2919.00
1822.745,2425.00
1823.596,2593.00
1824.445,3091.00
1825.296,2797.00
1826.145,2695.00
1826.996,2914.00
1827.845,2767.00
1828.695,2739.00
1829.544,2711.00
1830.395,2707.00
1831.243,2609.00
1832.094,2479.00
1832.942,3319.00
1833.792,2826.00
1834.640,2755.00
1835.490,2691.00
1836.338,2746.00
1837.186,2603.00
1838.036,2577.00
1838.884,2662.00
1839.733,3042.00
1840.581,2884.00
1841.430,2834.00
1842.278,3043.00
1843.127,2580.00
1843.974,2416.00
1844.823,3153.00
1845.671,2860.00
1846.519,2718.00
1847.366,2765.00
1848.213,2325.00
1849.062,2542.00
1849.909,2425.00
1850.757,3361.00
1851.604,2834.00
1852.452,2611.00
1853.298,2917.00
1854.146,2746.00
1854.993,2738.00
1855.839,3209.00
1856.687,2790.00
1857.532,2807.00
1858.380,2717.00
1859.226,2780.00
1860.073,2818.00
1860.919,2512.00
1861.765,2611.00
1862.612,2943.00
1863.457,2908.00
1864.304,2656.00
1865.150,2844.00
1865.995,2654.00
1866.842,2831.00
1867.686,2957.00
1868.533,2796.00
1869.378,2769.00
1870.223,2764.00
1871.069,2642.00
1871.914,2751.00
1872.760,2665.00
1873.604,2502.00
1874.448,2873.00
1875.294,2848.00
1876.139,2603.00
1876.984,2799.00
1877.828,2389.00
1878.672,2239.00
1879.518,2609.00
1880.361,2910.00
1881.205,2858.00
1882.050,2546.00
1882.894,3206.00
1883.739,2586.00
1884.582,2477.00
1885.425,2525.00
1886.270,2933.00
1887.113,2472.00
1887.956,2809.00
1888.801,2771.00
1889.644,2551.00
1890.486,2307.00
1891.331,2596.00
1892.173,2758.00
1893.017,2759.00
1893.860,2998.00
1894.702,2991.00
1895.546,2729.00
1896.388,3437.00
1897.230,3063.00
1898.074,2613.00
1898.916,2491.00
1899.757,2555.00
1900.601,3367.00
1901.443,2990.00
1902.284,3022.00
1903.125,3154.00
1903.969,2875.00
1904.810,2963.00
1905.651,2780.00
1906.494,3017.00
1907.335,3177.00
1908.176,2847.00
1909.018,2787.00
1909.859,2689.00
1910.700,2559.00
1911.542,3243.00
1912.383,2778.00
1913.223,2342.00
1914.064,2859.00
1914.906,2967.00
1915.746,3102.00
1916.586,3173.00
1917.428,2689.00
1918.268,2746.00
1919.107,2635.00
1919.947,2509.00
1920.789,2690.00
1921.628,2935.00
1922.468,2692.00
1923.309,2563.00
1924.148,3058.00
1924.988,2764.00
1925.827,2695.00
1926.667,2621.00
1927.507,2754.00
1928.345,2581.00
1929.184,2881.00
1930.025,2542.00
1930.864,2963.00
1931.702,3017.00
1932.541,2634.00
1933.381,2858.00
1934.219,2892.00
1935.057,3018.00
1935.896,2438.00
1936.735,2673.00
1937.573,2608.00
1938.411,2508.00
1939.249,2848.00
1940.089,2608.00
1940.927,2942.00
1941.764,3001.00
1942.602,2616.00
1943.439,2625.00
1944.278,2665.00
1945.115,2653.00
1945.953,2474.00
1946.790,2833.00
1947.628,3087.00
1948.465,2839.00
1949.302,2847.00
1950.139,2833.00
1950.976,2626.00
1951.814,2907.00
1952.651,2799.00
1953.487,2579.00
1954.323,3018.00
1955.160,2704.00
1955.998,3134.00
1956.834,2687.00
1957.670,2830.00
1958.506,2997.00
1959.342,2832.00
1960.177,2801.00
1961.015,2874.00
1961.850,2765.00
1962.686,2791.00
1963.521,2781.00
1964.357,2987.00
1965.192,2509.00
1966.029,2871.00
1966.864,2642.00
1967.699,2939.00
1968.534,2771.00
1969.369,3022.00
1970.204,2687.00
1971.040,2733.00
1971.875,2699.00
1972.709,2779.00
1973.544,2581.00
1974.378,2639.00
1975.212,2830.00
1976.047,2638.00
1976.882,2582.00
1977.716,3114.00
1978.550,2451.00
1979.384,2684.00
1980.218,2685.00
1981.052,2653.00
1981.885,2765.00
1982.719,2739.00
1983.554,2905.00
1984.388,3039.00
1985.221,2791.00
1986.054,2991.00
1986.887,2755.00
1987.720,2618.00
1988.553,3039.00
1989.386,2835.00
1990.219,2883.00
1991.053,3019.00
1991.886,2617.00
1992.719,2939.00
1993.551,2255.00
1994.383,2871.00
1995.216,2675.00
1996.048,2466.00
1996.880,2874.00
1997.712,2630.00
1998.544,2699.00
1999.376,2878.00
2000.208,3001.00
2001.040,3189.00
2001.873,2584.00
2002.705,2595.00
2003.536,2821.00
2004.367,2762.00
2005.199,2803.00
2006.030,2621.00
2006.861,2538.00
2007.692,2731.00
2008.523,2640.00
2009.354,2798.00
2010.185,2551.00
2011.016,2860.00
2011.846,2914.00
2012.677,2649.00
2013.507,3088.00
2014.338,2978.00
2015.168,2677.00
2015.999,3264.00
2016.829,2687.00
2017.659,2976.00
2018.489,3221.00
2019.319,2563.00
2020.149,2929.00
2020.980,2743.00
2021.810,2569.00
2022.639,2634.00
2023.469,2647.00
2024.298,2455.00
2025.128,2355.00
2025.957,2367.00
2026.786,2213.00
2027.615,2378.00
2028.444,2599.00
2029.273,2774.00
2030.102,2347.00
2030.931,2607.00
2031.758,2825.00
2032.586,2494.00
2033.415,2609.00
2034.243,2230.00
2035.072,2007.00
2035.900,2487.00
2036.728,2333.00
2037.556,2339.00
2038.385,2376.00
2039.213,2179.00
2040.040,2187.00
2040.868,2162.00
2041.696,2203.00
2042.524,2241.00
2043.351,2411.00
2044.179,2235.00
2045.006,1969.00
