RamanScope Measure Spectrum Data V3.72

<< MEASURE CONDITION >>
Exposure Type,Aver
Exposure Time [sec],15
Exposure Count,30
Measure Time,2023/07/12 20:03:07
Data Name,""
Data Comment,""
Rayleigh Wave[nm],532.0

<< SAMPLE SPECTRUM >>
Wave[dcm-1],No40
146.591,910.33
147.626,1072.33
148.664,1223.83
149.699,1393.63
150.737,1540.10
151.772,1676.03
152.809,1841.67
153.846,1984.43
154.881,2100.90
155.918,2189.60
156.953,2255.67
157.989,2325.13
159.026,2417.17
160.060,2465.23
161.096,2498.87
162.130,2572.13
163.167,2591.67
164.200,2659.53
165.236,2616.20
166.272,2731.53
167.305,2773.83
168.341,2825.17
169.374,2851.90
170.409,2930.73
171.445,2976.03
172.477,3040.97
173.512,3015.20
174.545,3087.80
175.580,3079.00
176.614,3110.90
177.647,3115.90
178.681,3106.93
179.713,3040.00
180.747,3064.13
181.781,3026.33
182.813,3045.33
183.847,3001.00
184.878,3026.23
185.912,3011.90
186.945,3103.33
187.976,3087.97
189.010,3082.03
190.043,3085.73
191.073,3151.37
192.106,3216.10
193.137,3246.10
194.170,3300.80
195.202,3302.07
196.232,3356.70
197.265,3426.23
198.297,3480.30
199.327,3525.90
200.359,3593.83
201.388,3689.83
202.420,3757.07
203.452,3882.07
204.481,3953.83
205.512,4043.27
206.544,4141.53
207.573,4312.70
208.604,4395.80
209.635,4542.60
210.663,4684.93
211.694,4880.77
212.725,4991.87
213.753,5114.23
214.783,5268.60
215.813,5286.53
216.841,5367.73
217.871,5350.70
218.899,5346.17
219.929,5242.93
220.959,5141.43
221.986,5034.87
223.016,4895.23
224.045,4780.07
225.072,4635.03
226.101,4551.40
227.130,4422.97
228.157,4307.77
229.185,4241.13
230.214,4164.13
231.241,4111.37
232.269,4054.53
233.297,4039.57
234.323,4006.43
235.351,3989.87
236.379,3957.57
237.407,3958.73
238.433,3957.40
239.460,3978.07
240.488,4052.47
241.513,4041.93
242.540,4084.47
243.568,4115.77
244.592,4119.43
245.619,4120.07
246.646,4095.73
247.671,4080.17
248.697,4068.17
249.724,4038.93
250.748,4017.60
251.774,4034.10
252.801,4025.50
253.827,4055.97
254.850,4061.03
255.876,4087.30
256.902,4095.67
257.925,4100.30
258.951,4142.53
259.976,4173.17
260.999,4240.37
262.024,4219.63
263.049,4315.43
264.074,4345.43
265.097,4428.57
266.122,4460.17
267.146,4499.97
268.168,4571.03
269.193,4602.67
270.217,4671.60
271.241,4686.37
272.263,4732.93
273.287,4748.10
274.311,4825.40
275.332,4849.80
276.356,4833.03
277.379,4831.10
278.402,4819.23
279.424,4751.13
280.447,4730.80
281.470,4656.20
282.492,4595.67
283.513,4565.10
284.536,4575.93
285.558,4450.37
286.581,4328.87
287.601,4294.57
288.623,4199.07
289.645,4152.37
290.665,4120.93
291.687,4089.50
292.709,4028.80
293.730,3948.83
294.750,3961.30
295.771,3849.40
296.792,3818.40
297.813,3717.17
298.832,3675.90
299.853,3612.87
300.874,3637.83
301.895,3536.60
302.913,3513.70
303.934,3475.20
304.954,3405.33
305.975,3934.57
306.993,3367.47
308.013,3343.53
309.033,3278.60
310.052,3299.67
311.072,3283.70
312.090,3250.87
313.109,3176.10
314.129,3205.83
315.148,3145.90
316.165,3161.90
317.184,3124.73
318.203,3100.30
319.222,3087.87
320.238,3102.83
321.257,3094.83
322.275,3070.00
323.294,3065.67
324.312,3027.67
325.328,2977.27
326.346,3015.57
327.364,2977.80
328.382,2953.70
329.397,2967.83
330.415,2932.33
331.432,2963.93
332.450,2989.17
333.467,2938.53
334.482,2894.27
335.499,2923.43
336.516,2910.03
337.533,2895.20
338.547,2915.07
339.564,2875.40
340.580,2876.37
341.597,2913.63
342.613,2899.53
343.627,2854.33
344.643,2869.03
345.659,2863.97
346.675,2860.37
347.690,2880.30
348.704,2867.70
349.719,2830.37
350.735,2876.23
351.750,2902.93
352.765,2884.63
353.778,2847.47
354.793,2846.37
355.808,2855.63
356.822,2873.60
357.837,2875.80
358.851,2866.43
359.864,2853.93
360.878,2880.10
361.892,2849.27
362.906,2921.73
363.920,2848.63
364.932,2890.13
365.945,2917.83
366.959,2844.13
367.972,2924.40
368.986,2910.30
369.999,2853.50
371.010,2871.97
372.023,2946.93
373.036,2941.60
374.049,2962.67
375.061,2971.17
376.072,2974.10
377.084,2952.00
378.097,3006.20
379.109,3008.97
380.121,2930.97
381.133,3002.83
382.143,3030.10
383.155,2990.37
384.166,3023.87
385.178,3007.83
386.189,2992.07
387.201,2965.13
388.212,3011.30
389.221,3002.97
390.232,2969.00
391.243,2919.60
392.254,2932.90
393.264,2995.80
394.275,2930.37
395.283,2935.73
396.294,2917.50
397.304,2906.57
398.314,2910.00
399.324,2831.83
400.334,2888.73
401.344,2831.03
402.351,2856.57
403.361,2844.40
404.370,2833.00
405.380,2784.80
406.389,2803.77
407.398,2832.10
408.407,2814.70
409.414,2764.97
410.423,2734.13
411.431,2751.77
412.440,2717.17
413.448,2737.30
414.457,2729.73
415.465,2660.90
416.471,2674.50
417.479,2662.43
418.487,2671.83
419.495,2660.53
420.503,2639.57
421.510,2667.00
422.518,2588.30
423.525,2631.97
424.530,2650.70
425.537,2626.57
426.544,2631.07
427.551,2611.73
428.558,2620.90
429.565,2613.00
430.571,2628.60
431.578,2582.73
432.582,2595.23
433.588,2588.37
434.595,2597.97
435.601,2637.77
436.607,2563.87
437.612,2589.73
438.618,2566.47
439.624,2602.27
440.627,2586.43
441.633,2543.03
442.638,2593.03
443.643,2556.07
444.648,2591.30
445.653,2575.80
446.658,2591.40
447.663,2581.07
448.667,2584.57
449.672,2589.37
450.674,2585.77
451.678,2600.43
452.682,2582.70
453.687,2597.80
454.690,2624.37
455.694,2646.03
456.698,2573.00
457.702,2607.67
458.705,2604.40
459.709,2610.57
460.710,2616.77
461.713,2579.80
462.716,2583.90
463.719,2562.83
464.722,2629.07
465.725,2611.73
466.727,2625.33
467.730,2602.90
468.732,2613.87
469.735,2629.43
470.737,2584.50
471.737,2611.80
472.739,2643.43
473.741,2606.00
474.742,2642.70
475.744,2643.80
476.746,2659.50
477.747,2630.80
478.748,2661.67
479.750,2604.33
480.751,2636.63
481.752,2610.40
482.753,2627.20
483.751,2588.77
484.752,2618.77
485.753,2663.10
486.753,2664.83
487.753,2645.47
488.754,2641.87
489.754,2605.23
490.754,2617.33
491.754,2681.33
492.754,2626.20
493.753,2634.13
494.753,2640.30
495.752,2593.77
496.752,2636.87
497.749,2586.47
498.748,2612.57
499.747,2516.50
500.746,2552.47
501.745,2557.40
502.744,2587.70
503.742,2566.33
504.741,2539.60
505.739,2528.73
506.737,2528.53
507.735,2576.40
508.734,2484.43
509.732,2547.63
510.729,2536.37
511.727,2510.07
512.725,2544.90
513.720,2514.77
514.718,2465.03
515.715,2485.97
516.712,2483.23
517.709,2498.97
518.706,2460.43
519.703,2502.93
520.700,2499.87
521.696,2499.23
522.693,2503.00
523.689,2566.23
524.686,2487.07
525.682,2493.80
526.678,2508.17
527.674,2470.30
528.670,2502.87
529.666,2512.17
530.661,2494.83
531.657,2478.13
532.652,2500.97
533.648,2519.27
534.641,2531.37
535.636,2522.87
536.631,2473.87
537.626,2540.60
538.621,2541.63
539.616,2518.03
540.610,2514.10
541.605,2553.07
542.599,2542.67
543.593,2524.33
544.587,2578.27
545.581,2559.00
546.575,2501.90
547.569,2542.47
548.563,2556.30
549.557,2542.63
550.550,2564.80
551.543,2560.73
552.537,2555.87
553.530,2545.80
554.523,2568.23
555.516,2558.97
556.509,2540.13
557.502,2559.13
558.494,2553.10
559.487,2586.03
560.479,2597.47
561.472,2562.77
562.464,2596.77
563.456,2584.17
564.448,2604.07
565.440,2623.53
566.432,2612.03
567.423,2653.53
568.415,2676.67
569.404,2685.17
570.396,2664.20
571.387,2651.17
572.378,2663.63
573.369,2659.10
574.360,2693.40
575.351,2679.23
576.341,2687.50
577.332,2708.20
578.323,2676.70
579.313,2736.73
580.303,2698.03
581.293,2713.63
582.283,2706.73
583.273,2727.40
584.263,2743.13
585.253,2725.60
586.243,2801.77
587.232,2719.83
588.222,2747.90
589.211,2723.70
590.200,2708.63
591.189,2733.40
592.178,2709.77
593.167,2734.23
594.156,2746.17
595.145,2739.83
596.133,2738.27
597.122,2741.93
598.110,2739.80
599.098,2746.33
600.086,2743.57
601.074,2741.63
602.062,2710.00
603.050,2745.13
604.038,2732.10
605.025,2717.30
606.013,2747.90
607.000,2693.77
607.987,2683.10
608.975,2681.63
609.962,2642.77
610.949,2668.47
611.936,2596.87
612.922,2646.00
613.909,2571.83
614.895,2566.37
615.882,2589.80
616.868,2540.00
617.854,2573.27
618.841,2531.03
619.826,2519.57
620.812,2541.33
621.798,2544.90
622.784,2493.63
623.769,2480.87
624.755,2456.00
625.740,2465.80
626.725,2430.27
627.711,2433.53
628.698,2407.50
629.683,2359.17
630.667,2383.43
631.652,2396.80
632.637,2340.87
633.621,2368.20
634.606,2315.23
635.590,2344.53
636.574,2312.60
637.558,2260.50
638.542,2292.63
639.526,2212.37
640.510,2250.63
641.493,2236.50
642.477,2259.70
643.460,2222.20
644.444,2250.07
645.427,2198.03
646.410,2198.83
647.393,2150.43
648.376,2223.10
649.359,2152.83
650.341,2139.90
651.324,2193.63
652.307,2158.50
653.289,2166.20
654.271,2148.73
655.253,2094.87
656.235,2131.07
657.217,2182.80
658.199,2166.13
659.181,2108.57
660.163,2073.47
661.144,2089.33
662.126,2118.13
663.107,2121.43
664.088,2098.17
665.069,2096.90
666.050,2047.73
667.033,2056.73
668.014,2065.30
668.995,2051.40
669.975,2025.63
670.956,2012.47
671.936,2014.90
672.916,2014.80
673.896,1998.63
674.876,1968.73
675.856,1958.17
676.836,1935.13
677.816,1930.67
678.795,1950.63
679.775,1918.33
680.754,1907.20
681.734,1884.83
682.713,1902.33
683.692,1891.17
684.671,1904.77
685.650,1880.73
686.629,1837.30
687.607,1841.67
688.586,1821.03
689.564,1827.93
690.543,1811.53
691.523,1787.03
692.501,1775.50
693.479,1770.40
694.457,1790.67
695.435,1770.10
696.413,1773.90
697.390,1738.47
698.368,1759.53
699.345,1778.83
700.322,1839.70
701.300,1714.93
702.277,1748.63
703.254,1717.47
704.231,1741.13
705.207,1708.77
706.184,1702.83
707.161,1652.07
708.137,1706.13
709.113,1714.07
710.090,1665.33
711.068,1654.57
712.044,1644.93
713.020,1666.97
713.996,1663.57
714.971,1648.00
715.947,1651.80
716.922,1639.20
717.898,1617.27
718.873,1629.93
719.848,1646.63
720.823,1635.10
721.798,1643.53
722.773,1659.57
723.748,1614.13
724.723,1587.23
725.697,1609.83
726.672,1643.90
727.646,1608.10
728.622,1582.43
729.596,1573.60
730.570,1601.80
731.544,1589.97
732.518,1573.93
733.492,1586.73
734.466,1636.83
735.439,1555.30
736.413,1571.60
737.386,1551.27
738.359,1584.67
739.332,1582.47
740.305,1587.47
741.278,1560.33
742.251,1545.53
743.224,1517.47
744.196,1540.57
745.171,1541.90
746.143,1551.20
747.115,1503.73
748.087,1491.77
749.059,1537.83
750.031,1529.23
751.003,1476.87
751.975,1543.47
752.947,1513.53
753.918,1503.60
754.890,1474.33
755.861,1476.10
756.832,1465.40
757.803,1503.40
758.774,1462.27
759.747,1453.77
760.718,1463.20
761.689,1453.33
762.659,1445.43
763.630,1448.73
764.600,1449.93
765.570,1446.77
766.540,1471.60
767.510,1423.67
768.480,1456.60
769.450,1437.83
770.420,1437.80
771.390,1397.13
772.359,1405.80
773.329,1436.10
774.300,1415.30
775.269,1415.80
776.238,1452.03
777.207,1400.37
778.176,1403.93
779.145,1356.23
780.114,1418.40
781.083,1348.80
782.051,1369.23
783.019,1380.27
783.988,1379.10
784.956,1371.43
785.924,1374.87
786.894,1352.07
787.862,1357.83
788.830,1344.00
789.797,1314.23
790.765,1374.57
791.732,1355.60
792.700,1340.37
793.667,1345.87
794.634,1321.93
795.601,1337.63
796.568,1299.53
797.535,1304.37
798.502,1321.73
799.468,1336.93
800.437,1303.20
801.403,1303.30
802.370,1306.20
803.336,1308.37
804.302,1285.43
805.268,1310.87
806.234,1287.47
807.200,1261.03
808.166,1302.50
809.131,1258.30
810.097,1313.70
811.062,1268.50
812.027,1230.47
812.994,1287.90
813.960,1297.00
814.925,1241.70
815.889,1268.97
816.854,1203.77
817.819,1247.83
818.783,1247.17
819.748,1202.07
820.712,1264.77
821.677,1244.40
822.641,1236.47
823.605,1244.97
824.571,1223.33
825.534,1255.17
826.498,1230.50
827.462,1240.43
828.425,1210.00
829.389,1262.63
830.352,1259.03
831.315,1208.23
832.279,1244.87
833.242,1233.67
834.204,1206.00
835.167,1243.43
836.132,1202.73
837.095,1239.10
838.057,1211.90
839.020,1184.97
839.982,1241.93
840.944,1192.93
841.906,1223.33
842.868,1201.70
843.830,1183.53
844.792,1173.43
845.753,1209.23
846.715,1204.53
847.679,1190.40
848.640,1165.77
849.601,1177.50
850.562,1222.30
851.523,1171.53
852.484,1177.50
853.445,1206.40
854.406,1156.70
855.367,1179.60
856.327,1171.67
857.288,1168.97
858.248,1159.93
859.210,1193.17
860.170,1147.97
861.130,1185.37
862.090,1168.47
863.050,1158.93
864.010,1112.57
864.969,1123.40
865.929,1179.53
866.888,1145.53
867.848,1149.47
868.807,1153.10
869.766,1114.70
870.727,1127.67
871.686,1155.77
872.645,1131.47
873.604,1109.97
874.562,1134.47
875.521,1174.07
876.479,1133.53
877.437,1147.53
878.396,1147.17
879.354,1127.80
880.312,1118.87
881.270,1115.53
882.229,1116.40
883.187,1130.30
884.145,1140.90
885.102,1102.30
886.059,1107.10
887.017,1107.57
887.974,1133.80
888.931,1125.30
889.888,1122.10
890.845,1128.73
891.802,1153.77
892.758,1121.73
893.717,1138.97
894.673,1133.17
895.630,1112.97
896.586,1112.57
897.542,1133.87
898.498,1122.43
899.454,1135.77
900.410,1090.27
901.366,1128.23
902.321,1112.80
903.277,1142.87
904.232,1164.97
905.189,1142.07
906.145,1110.87
907.100,1114.07
908.055,1115.43
909.010,1161.43
909.965,1102.57
910.919,1105.60
911.874,1105.43
912.828,1142.20
913.783,1125.70
914.737,1141.83
915.693,1111.63
916.648,1129.77
917.602,1108.07
918.555,1100.93
919.509,1114.60
920.463,1140.57
921.417,1109.47
922.370,1115.10
923.324,1156.53
924.277,1126.87
925.230,1121.53
926.183,1112.20
927.138,1144.07
928.091,1126.90
929.044,1134.40
929.996,1137.07
930.949,1129.83
931.902,1137.43
932.854,1139.97
933.806,1157.87
934.758,1103.17
935.711,1104.87
936.663,1141.93
937.614,1146.47
938.568,1135.10
939.520,1144.77
940.471,1121.63
941.423,1123.03
942.374,1150.57
943.326,1166.10
944.277,1142.27
945.228,1152.30
946.179,1143.67
947.130,1118.53
948.080,1126.57
949.031,1118.47
949.984,1126.67
950.934,1135.97
951.884,1101.97
952.835,1160.27
953.785,1135.70
954.735,1113.20
955.685,1141.10
956.635,1123.87
957.585,1134.40
958.534,1132.20
959.484,1146.73
960.433,1098.27
961.383,1123.53
962.334,1150.57
963.283,1125.70
964.232,1124.83
965.181,1094.73
966.130,1102.47
967.079,1116.87
968.027,1098.80
968.976,1124.70
969.924,1067.07
970.873,1117.87
971.821,1109.40
972.769,1072.33
973.719,1090.27
974.667,1126.63
975.615,1101.43
976.562,1138.07
977.510,1118.33
978.458,1122.37
979.405,1135.50
980.352,1105.13
981.300,1083.70
982.247,1095.30
983.194,1104.00
984.141,1116.83
985.088,1120.17
986.036,1077.63
986.983,1109.67
987.930,1083.20
988.876,1103.17
989.822,1113.20
990.769,1093.80
991.715,1072.23
992.661,1071.57
993.607,1092.60
994.553,1090.50
995.498,1084.37
996.444,1106.60
997.389,1081.23
998.337,1099.33
999.282,1094.30
1000.227,1151.70
1001.173,1092.00
1002.118,1085.20
1003.062,1105.93
1004.007,1101.67
1004.952,1110.17
1005.897,1076.57
1006.841,1078.47
1007.786,1124.27
1008.730,1135.67
1009.674,1082.43
1010.618,1099.53
1011.564,1101.80
1012.508,1074.53
1013.452,1075.13
1014.396,1114.07
1015.339,1108.30
1016.283,1087.17
1017.226,1084.33
1018.170,1133.33
1019.113,1066.07
1020.056,1125.00
1020.999,1082.57
1021.942,1107.40
1022.885,1109.17
1023.828,1075.73
1024.770,1137.60
1025.715,1136.30
1026.657,1103.47
1027.600,1108.40
1028.542,1100.33
1029.484,1114.90
1030.426,1105.93
1031.368,1106.00
1032.310,1132.83
1033.251,1106.43
1034.193,1096.20
1035.135,1101.97
1036.076,1150.10
1037.017,1112.33
1037.959,1135.03
1038.900,1125.73
1039.843,1167.17
1040.784,1130.03
1041.725,1130.93
1042.665,1113.37
1043.606,1147.30
1044.547,1145.03
1045.487,1139.97
1046.427,1164.40
1047.368,1132.77
1048.308,1131.97
1049.248,1111.70
1050.188,1167.30
1051.128,1135.50
1052.067,1146.10
1053.007,1105.00
1053.947,1140.77
1054.886,1125.63
1055.827,1156.97
1056.766,1162.07
1057.706,1167.50
1058.645,1149.20
1059.584,1165.77
1060.522,1151.70
1061.461,1141.70
1062.400,1175.30
1063.338,1188.80
1064.277,1183.87
1065.215,1179.37
1066.154,1176.70
1067.092,1180.70
1068.030,1167.93
1068.968,1180.60
1069.906,1213.37
1070.843,1186.77
1071.781,1173.97
1072.720,1198.33
1073.658,1244.53
1074.595,1235.27
1075.533,1194.43
1076.470,1205.87
1077.407,1217.57
1078.344,1213.93
1079.281,1201.17
1080.217,1203.03
1081.154,1197.90
1082.091,1212.03
1083.027,1222.00
1083.964,1199.80
1084.900,1208.33
1085.836,1227.63
1086.772,1191.73
1087.708,1200.67
1088.644,1208.47
1089.580,1177.63
1090.515,1238.83
1091.451,1201.93
1092.388,1193.77
1093.324,1221.27
1094.259,1244.63
1095.194,1198.73
1096.129,1209.13
1097.064,1160.70
1097.999,1185.80
1098.934,1164.83
1099.869,1188.90
1100.803,1192.57
1101.738,1186.23
1102.672,1152.67
1103.607,1197.33
1104.541,1172.27
1105.475,1162.23
1106.409,1128.20
1107.343,1130.20
1108.277,1193.17
1109.210,1133.77
1110.144,1131.53
1111.078,1101.83
1112.011,1141.50
1112.944,1174.90
1113.878,1114.80
1114.811,1117.50
1115.744,1144.20
1116.678,1129.20
1117.611,1094.80
1118.544,1103.20
1119.477,1117.00
1120.409,1100.43
1121.342,1087.60
1122.274,1099.30
1123.206,1129.87
1124.138,1088.63
1125.070,1057.67
1126.002,1085.13
1126.934,1079.10
1127.866,1068.40
1128.798,1071.83
1129.729,1072.37
1130.661,1082.47
1131.592,1069.00
1132.523,1062.00
1133.454,1045.60
1134.385,1035.43
1135.317,1027.97
1136.247,1058.57
1137.178,1053.50
1138.109,1063.13
1139.039,1010.90
1139.970,1056.90
1140.900,1000.93
1141.831,1044.77
1142.761,1034.70
1143.691,993.37
1144.621,1002.77
1145.551,1040.67
1146.480,1069.63
1147.410,1015.80
1148.340,1011.80
1149.269,1049.83
1150.199,1031.03
1151.128,1027.13
1152.057,1050.40
1152.979,1017.87
1153.898,1000.40
1154.819,980.80
1155.739,1017.33
1156.658,1001.87
1157.579,980.37
1158.498,991.50
1159.419,1012.03
1160.338,991.47
1161.256,967.43
1162.177,985.80
1163.095,988.17
1164.016,994.57
1164.934,1000.77
1165.852,987.60
1166.772,983.33
1167.690,1013.93
1168.610,1000.80
1169.528,968.97
1170.446,988.00
1171.365,996.33
1172.283,996.53
1173.202,1018.90
1174.120,984.87
1175.037,960.53
1175.956,998.10
1176.873,996.60
1177.792,980.73
1178.709,958.37
1179.626,1004.73
1180.544,951.17
1181.461,982.53
1182.379,972.57
1183.296,962.97
1184.212,962.30
1185.130,968.63
1186.046,976.67
1186.962,974.27
1187.880,933.93
1188.796,974.07
1189.714,964.67
1190.629,943.87
1191.545,980.00
1192.462,996.77
1193.378,993.07
1194.295,1004.60
1195.210,961.17
1196.125,978.30
1197.042,944.73
1197.957,968.37
1198.872,962.87
1199.788,958.60
1200.703,958.43
1201.619,974.10
1202.534,979.47
1203.448,971.00
1204.364,964.30
1205.278,932.17
1206.192,959.50
1207.108,957.27
1208.022,932.87
1208.938,946.37
1209.851,964.87
1210.765,939.40
1211.680,996.50
1212.594,949.27
1213.507,972.00
1214.422,988.63
1215.335,984.50
1216.248,961.13
1217.163,974.23
1218.076,952.40
1218.990,956.70
1219.903,972.57
1220.816,973.63
1221.730,982.83
1222.642,927.63
1223.554,944.40
1224.469,973.60
1225.380,990.90
1226.292,984.13
1227.206,1009.63
1228.118,993.60
1229.032,995.17
1229.943,995.30
1230.855,1010.47
1231.768,984.20
1232.679,981.70
1233.590,971.13
1234.503,996.90
1235.414,975.17
1236.325,990.13
1237.238,983.20
1238.149,987.87
1239.059,1022.60
1239.972,992.57
1240.882,1000.67
1241.793,992.50
1242.705,990.13
1243.615,1019.23
1244.525,950.07
1245.437,1023.30
1246.347,986.10
1247.259,994.13
1248.168,972.47
1249.078,972.37
1249.989,1010.90
1250.899,998.67
1251.808,995.60
1252.719,1027.47
1253.628,994.47
1254.537,982.53
1255.448,1008.23
1256.357,1005.13
1257.266,1012.17
1258.176,1009.00
1259.085,1026.20
1259.993,1011.37
1260.904,1022.60
1261.812,1022.80
1262.720,1017.33
1263.630,1001.73
1264.538,1016.17
1265.446,956.27
1266.356,990.97
1267.263,992.17
1268.171,999.37
1269.080,992.60
1269.988,974.43
1270.895,994.63
1271.804,1003.03
1272.711,1009.07
1273.619,986.97
1274.527,976.57
1275.434,970.07
1276.341,1033.77
1277.248,1023.37
1278.156,1019.83
1279.063,979.10
1279.969,993.40
1280.877,951.70
1281.783,978.63
1282.690,1007.37
1283.598,973.70
1284.503,975.90
1285.409,1012.43
1286.317,987.70
1287.223,978.00
1288.128,965.97
1289.036,997.40
1289.941,979.10
1290.846,994.07
1291.751,983.13
1292.658,1001.87
1293.563,973.37
1294.468,994.77
1295.375,985.53
1296.280,974.60
1297.184,966.73
1298.091,969.60
1298.995,943.57
1299.900,936.77
1300.806,990.10
1301.710,948.60
1302.614,941.83
1303.518,977.87
1304.424,953.03
1305.327,957.00
1306.231,966.70
1307.137,913.60
1308.040,983.50
1308.943,927.07
1309.847,940.80
1310.752,928.87
1311.655,945.40
1312.558,916.83
1313.463,943.07
1314.366,945.53
1315.269,930.23
1316.171,920.57
1317.076,953.90
1317.978,905.43
1318.881,906.97
1319.785,891.30
1320.687,913.77
1321.589,914.93
1322.491,890.53
1323.395,883.87
1324.297,903.00
1325.198,881.23
1326.102,919.93
1327.004,893.03
1327.905,897.17
1328.806,876.43
1329.709,900.90
1330.611,859.80
1331.512,884.17
1332.413,903.30
1333.316,916.13
1334.216,868.30
1335.117,897.07
1336.020,903.27
1336.920,834.83
1337.821,876.37
1338.721,873.43
1339.623,862.27
1340.523,875.33
1341.423,824.93
1342.323,834.17
1343.225,842.50
1344.125,846.73
1345.025,823.70
1345.924,839.17
1346.826,808.07
1347.725,814.47
1348.624,841.17
1349.524,836.30
1350.425,847.57
1351.324,822.87
1352.223,817.80
1353.121,865.30
1354.022,868.10
1354.921,818.37
1355.819,801.10
1356.718,827.07
1357.618,794.23
1358.516,816.83
1359.415,824.10
1360.313,840.80
1361.213,799.67
1362.111,791.30
1363.008,775.73
1363.906,802.73
1364.806,803.67
1365.703,808.57
1366.601,749.67
1367.498,798.63
1368.397,798.40
1369.295,772.53
1370.192,778.30
1371.089,749.03
1371.987,767.23
1372.884,780.80
1373.781,762.37
1374.678,774.10
1375.574,772.10
1376.473,775.73
1377.369,744.53
1378.265,754.73
1379.161,766.60
1380.059,748.23
1380.955,786.03
1381.851,794.57
1382.747,745.97
1383.643,781.57
1384.540,726.53
1385.436,732.90
1386.331,734.03
1387.227,761.33
1388.124,776.20
1389.019,749.23
1389.914,747.97
1390.809,744.53
1391.704,747.30
1392.601,749.93
1393.495,749.37
1394.390,724.00
1395.285,757.67
1396.179,748.87
1397.075,723.57
1397.969,750.43
1398.864,744.53
1399.758,731.77
1400.652,754.23
1401.547,765.87
1402.441,725.87
1403.335,748.00
1404.229,737.10
1405.122,764.10
1406.017,702.83
1406.911,741.77
1407.804,696.67
1408.697,721.27
1409.590,697.17
1410.485,765.47
1411.378,729.03
1412.271,707.40
1413.163,741.00
1414.056,707.20
1414.949,722.60
1415.843,732.90
1416.735,704.07
1417.627,693.27
1418.520,684.77
1419.412,719.37
1420.306,694.83
1421.197,718.63
1422.089,685.33
1422.981,711.00
1423.873,689.37
1424.764,668.87
1425.657,690.87
1426.549,694.13
1427.440,714.83
1428.331,677.17
1429.222,701.37
1430.113,703.03
1431.006,681.17
1431.897,681.60
1432.787,686.83
1433.678,699.13
1434.568,726.07
1435.459,700.83
1436.351,685.47
1437.241,702.87
1438.131,655.33
1439.021,697.27
1439.911,667.93
1440.801,716.70
1441.693,680.90
1442.583,689.43
1443.472,623.07
1444.362,685.10
1445.251,679.90
1446.140,650.57
1447.030,683.77
1447.921,621.43
1448.810,662.50
1449.699,674.07
1450.588,659.20
1451.476,663.20
1452.365,666.83
1453.254,673.17
1454.144,672.87
1455.032,658.07
1455.921,675.70
1456.809,631.80
1457.697,663.90
1458.585,632.30
1459.473,650.87
1460.361,665.50
1461.251,661.83
1462.138,642.80
1463.026,648.33
1463.913,645.73
1464.801,647.03
1465.688,681.60
1466.575,676.30
1467.463,613.80
1468.351,647.17
1469.238,676.27
1470.125,636.23
1471.012,633.67
1471.899,656.47
1472.785,671.63
1473.672,609.20
1474.558,657.83
1475.446,666.67
1476.333,657.13
1477.219,632.03
1478.105,619.63
1478.991,626.47
1479.877,640.33
1480.762,613.53
1481.648,622.53
1482.534,636.43
1483.419,610.43
1484.307,635.73
1485.192,638.57
1486.077,639.23
1486.962,615.43
1487.847,602.97
1488.732,614.07
1489.617,609.83
1490.502,632.87
1491.387,649.87
1492.271,612.93
1493.156,646.73
1494.042,657.53
1494.927,607.10
1495.811,582.33
1496.695,626.43
1497.579,633.23
1498.463,615.07
1499.347,628.27
1500.231,578.67
1501.114,622.53
1501.998,621.07
1502.881,583.73
1503.765,582.20
1504.648,633.97
1505.533,592.43
1506.417,603.93
1507.300,597.07
1508.183,579.93
1509.066,589.37
1509.948,597.10
1510.831,619.33
1511.714,557.20
1512.596,587.70
1513.479,620.00
1514.361,620.40
1515.243,560.43
1516.125,619.47
1517.008,655.17
1517.890,599.10
1518.771,580.97
1519.655,614.40
1520.537,608.90
1521.419,573.70
1522.300,614.13
1523.182,577.43
1524.063,589.90
1524.944,591.87
1525.825,585.57
1526.707,579.07
1527.588,603.43
1528.468,593.37
1529.349,599.53
1530.230,606.70
1531.111,605.60
1531.991,549.37
1532.872,590.50
1533.752,548.67
1534.632,574.47
1535.513,590.30
1536.393,584.40
1537.273,561.63
1538.153,564.50
1539.032,522.10
1539.912,553.20
1540.792,577.07
1541.672,568.30
1542.551,564.50
1543.430,595.77
1544.310,566.23
1545.189,589.80
1546.068,566.73
1546.947,560.37
1547.826,584.57
1548.705,582.20
1549.584,584.33
1550.462,570.20
1551.341,575.80
1552.219,613.03
1553.098,571.27
1553.976,603.17
1554.854,567.27
1555.733,547.33
1556.611,596.17
1557.489,530.43
1558.367,589.00
1559.244,568.87
1560.122,539.27
1561.000,547.03
1561.877,580.87
1562.755,554.13
1563.632,553.27
1564.509,577.77
1565.386,566.50
1566.264,537.90
1567.141,592.23
1568.017,561.37
1568.894,566.00
1569.771,570.40
1570.648,582.10
1571.524,567.00
1572.401,547.13
1573.277,520.23
1574.153,533.43
1575.029,549.40
1575.906,545.93
1576.781,545.83
1577.657,543.27
1578.533,548.03
1579.409,557.47
1580.285,520.80
1581.160,534.23
1582.036,541.33
1582.911,542.97
1583.786,513.30
1584.662,522.00
1585.537,545.70
1586.412,527.80
1587.287,596.37
1588.160,547.73
1589.035,552.23
1589.909,504.47
1590.784,527.53
1591.658,547.10
1592.533,533.77
1593.407,561.93
1594.281,534.23
1595.155,519.67
1596.029,553.90
1596.903,507.57
1597.777,539.00
1598.651,559.27
1599.525,538.57
1600.398,533.90
1601.272,518.73
1602.144,540.10
1603.017,509.13
1603.890,492.67
1604.763,520.20
1605.636,516.03
1606.509,521.13
1607.382,528.03
1608.255,524.83
1609.128,557.57
1610.000,549.17
1610.873,543.27
1611.746,534.63
1612.616,570.30
1613.488,535.10
1614.361,522.40
1615.233,544.17
1616.105,519.13
1616.977,520.93
1617.849,523.13
1618.720,567.50
1619.592,551.93
1620.464,507.93
1621.333,561.60
1622.205,504.10
1623.076,532.53
1623.947,534.17
1624.818,535.17
1625.689,487.87
1626.560,538.77
1627.431,520.80
1628.302,525.27
1629.171,506.27
1630.042,504.10
1630.912,403.50
1631.782,541.10
1632.653,519.63
1633.523,513.87
1634.393,525.00
1635.263,532.00
1636.131,531.73
1637.001,531.70
1637.871,499.60
1638.741,508.60
1639.611,531.17
1640.480,528.43
1641.350,528.20
1642.219,494.77
1643.087,512.03
1643.956,467.50
1644.825,530.57
1645.694,502.47
1646.563,541.13
1647.432,533.83
1648.299,511.57
1649.167,482.60
1650.036,533.23
1650.904,477.83
1651.773,515.10
1652.641,518.33
1653.509,492.07
1654.376,522.47
1655.244,497.40
1656.112,500.67
1656.980,518.87
1657.847,521.27
1658.715,490.77
1659.581,514.00
1660.448,475.67
1661.316,528.53
1662.183,525.17
1663.051,496.53
1663.918,482.77
1664.783,519.73
1665.650,462.23
1666.517,532.73
1667.384,495.67
1668.251,456.97
1669.115,477.23
1669.982,528.83
1670.849,531.50
1671.715,544.27
1672.581,474.07
1673.446,491.67
1674.312,530.27
1675.178,489.67
1676.044,513.93
1676.910,458.67
1677.774,511.67
1678.639,509.07
1679.505,495.53
1680.370,459.03
1681.236,495.73
1682.099,532.60
1682.965,475.97
1683.830,478.43
1684.695,469.00
1685.560,471.53
1686.423,494.50
1687.288,492.17
1688.153,511.07
1689.017,522.83
1689.880,483.73
1690.745,495.10
1691.609,499.07
1692.473,533.37
1693.338,505.37
1694.200,492.47
1695.064,480.50
1695.928,490.23
1696.792,468.00
1697.654,482.10
1698.517,508.10
1699.381,464.93
1700.245,492.97
1701.106,500.77
1701.969,513.57
1702.833,465.43
1703.696,452.97
1704.557,497.07
1705.420,474.27
1706.283,490.23
1707.146,458.13
1708.007,489.10
1708.870,481.67
1709.732,502.33
1710.595,510.87
1711.455,475.20
1712.318,444.30
1713.180,475.87
1714.040,496.30
1714.902,486.93
1715.764,476.13
1716.626,478.00
1717.486,465.17
1718.348,482.13
1719.209,467.90
1720.071,484.67
1720.930,465.87
1721.792,485.20
1722.653,480.37
1723.512,481.90
1724.374,445.70
1725.234,462.53
1726.095,459.90
1726.954,487.50
1727.815,477.17
1728.676,451.17
1729.535,451.80
1730.395,494.37
1731.256,482.37
1732.114,475.13
1732.974,496.90
1733.834,485.60
1734.693,517.67
1735.553,459.27
1736.413,441.00
1737.272,462.93
1738.130,456.73
1738.990,491.83
1739.849,479.73
1740.707,420.57
1741.566,494.23
1742.426,472.33
1743.283,469.43
1744.142,479.07
1745.001,465.17
1745.858,454.60
1746.717,483.07
1747.576,458.80
1748.433,466.17
1749.292,483.37
1750.150,450.63
1751.007,497.37
1751.865,454.60
1752.723,449.87
1753.579,478.43
1754.438,500.17
1755.296,474.93
1756.152,466.50
1757.010,436.10
1757.865,477.27
1758.723,449.90
1759.581,436.97
1760.436,448.90
1761.294,432.63
1762.151,468.60
1763.006,488.13
1763.864,465.57
1764.721,467.90
1765.576,433.33
1766.433,465.47
1767.288,480.97
1768.144,470.13
1769.001,470.93
1769.856,487.07
1770.712,455.23
1771.568,435.17
1772.423,465.43
1773.279,479.77
1774.133,434.23
1774.989,443.27
1775.845,455.67
1776.699,506.17
1777.555,480.43
1778.409,450.70
1779.265,440.30
1780.120,470.93
1780.974,463.13
1781.829,428.80
1782.682,472.30
1783.538,449.87
1784.393,460.33
1785.246,465.80
1786.101,446.97
1786.954,461.13
1787.808,490.87
1788.661,469.33
1789.516,449.27
1790.370,446.33
1791.223,486.27
1792.077,459.30
1792.930,446.70
1793.784,471.50
1794.636,454.27
1795.490,435.73
1796.344,474.90
1797.196,429.20
1798.049,464.50
1798.901,454.80
1799.755,436.83
1800.606,434.73
1801.460,459.87
1802.311,475.17
1803.165,460.67
1804.018,487.17
1804.869,449.10
1805.722,450.13
1806.573,444.50
1807.426,464.40
1808.276,485.20
1809.129,447.43
1809.980,497.67
1810.832,463.67
1811.683,474.17
1812.535,468.67
1813.385,420.17
1814.237,452.20
1815.089,478.30
1815.940,441.50
1816.791,494.20
1817.641,438.60
1818.493,496.43
1819.343,482.37
1820.194,462.80
1821.044,434.47
1821.895,423.23
1822.745,425.80
1823.596,443.77
1824.445,477.30
1825.296,464.83
1826.145,486.40
1826.996,472.83
1827.845,440.80
1828.695,480.13
1829.544,460.57
1830.395,398.10
1831.243,423.27
1832.094,453.43
1832.942,443.60
1833.792,500.33
1834.640,410.27
1835.490,468.80
1836.338,431.23
1837.186,440.77
1838.036,438.13
1838.884,462.37
1839.733,427.00
1840.581,427.10
1841.430,416.70
1842.278,458.73
1843.127,384.87
1843.974,443.77
1844.823,454.17
1845.671,414.37
1846.519,445.20
1847.366,456.17
1848.213,437.33
1849.062,449.00
1849.909,429.43
1850.757,452.83
1851.604,442.17
1852.452,459.50
1853.298,443.13
1854.146,445.43
1854.993,398.03
1855.839,481.47
1856.687,497.17
1857.532,428.13
1858.380,447.30
1859.226,430.90
1860.073,438.50
1860.919,422.43
1861.765,458.27
1862.612,467.00
1863.457,454.50
1864.304,417.80
1865.150,485.90
1865.995,455.93
1866.842,423.63
1867.686,457.83
1868.533,478.30
1869.378,438.83
1870.223,401.77
1871.069,409.73
1871.914,442.73
1872.760,409.87
1873.604,437.37
1874.448,445.13
1875.294,435.17
1876.139,438.00
1876.984,407.47
1877.828,434.13
1878.672,454.93
1879.518,441.10
1880.361,422.43
1881.205,434.57
1882.050,458.13
1882.894,441.83
1883.739,423.90
1884.582,386.70
1885.425,447.97
1886.270,387.73
1887.113,427.70
1887.956,485.73
1888.801,415.37
1889.644,429.20
1890.486,415.70
1891.331,435.53
1892.173,396.07
1893.017,407.83
1893.860,466.33
1894.702,452.90
1895.546,436.50
1896.388,424.37
1897.230,423.23
1898.074,419.23
1898.916,446.37
1899.757,435.50
1900.601,415.67
1901.443,421.93
1902.284,488.27
1903.125,433.73
1903.969,416.77
1904.810,448.63
1905.651,451.57
1906.494,429.07
1907.335,426.97
1908.176,460.80
1909.018,429.20
1909.859,419.60
1910.700,453.93
1911.542,431.70
1912.383,425.07
1913.223,429.73
1914.064,435.33
1914.906,424.07
1915.746,425.63
1916.586,455.50
1917.428,398.37
1918.268,409.73
1919.107,438.53
1919.947,413.93
1920.789,451.97
1921.628,398.20
1922.468,453.13
1923.309,451.03
1924.148,420.93
1924.988,421.77
1925.827,427.53
1926.667,424.50
1927.507,432.30
1928.345,419.77
1929.184,415.50
1930.025,447.63
1930.864,419.17
1931.702,435.97
1932.541,427.93
1933.381,418.43
1934.219,444.43
1935.057,394.00
1935.896,467.43
1936.735,461.73
1937.573,446.23
1938.411,409.53
1939.249,419.00
1940.089,412.77
1940.927,449.60
1941.764,419.37
1942.602,424.90
1943.439,445.53
1944.278,416.20
1945.115,431.70
1945.953,426.57
1946.790,476.20
1947.628,402.27
1948.465,405.80
1949.302,433.50
1950.139,386.97
1950.976,413.30
1951.814,389.87
1952.651,468.73
1953.487,438.50
1954.323,413.37
1955.160,424.90
1955.998,454.97
1956.834,440.73
1957.670,459.10
1958.506,451.80
1959.342,408.20
1960.177,421.50
1961.015,422.43
1961.850,393.33
1962.686,434.73
1963.521,417.73
1964.357,424.67
1965.192,415.07
1966.029,416.23
1966.864,399.37
1967.699,398.20
1968.534,421.43
1969.369,415.83
1970.204,447.57
1971.040,403.00
1971.875,397.87
1972.709,411.77
1973.544,401.93
1974.378,445.70
1975.212,421.47
1976.047,422.90
1976.882,448.27
1977.716,401.53
1978.550,430.47
1979.384,409.53
1980.218,425.33
1981.052,461.37
1981.885,416.43
1982.719,402.20
1983.554,388.50
1984.388,399.63
1985.221,424.13
1986.054,384.97
1986.887,412.73
1987.720,428.10
1988.553,426.30
1989.386,402.90
1990.219,420.13
1991.053,444.07
1991.886,361.97
1992.719,421.27
1993.551,407.10
1994.383,408.70
1995.216,444.50
1996.048,426.90
1996.880,429.20
1997.712,386.10
1998.544,417.83
1999.376,417.73
2000.208,390.10
2001.040,391.50
2001.873,403.50
2002.705,420.80
2003.536,407.17
2004.367,383.27
2005.199,430.23
2006.030,405.70
2006.861,429.77
2007.692,433.10
2008.523,385.53
2009.354,443.33
2010.185,430.53
2011.016,391.87
2011.846,391.87
2012.677,425.10
2013.507,443.80
2014.338,409.57
2015.168,437.40
2015.999,422.43
2016.829,429.67
2017.659,374.73
2018.489,426.53
2019.319,416.63
2020.149,427.47
2020.980,424.90
2021.810,446.27
2022.639,407.37
2023.469,430.17
2024.298,424.70
2025.128,390.03
2025.957,428.00
2026.786,409.07
2027.615,427.60
2028.444,405.17
2029.273,423.53
2030.102,427.73
2030.931,447.77
2031.758,429.20
2032.586,433.07
2033.415,431.20
2034.243,438.00
2035.072,425.57
2035.900,424.00
2036.728,422.77
2037.556,409.63
2038.385,422.20
2039.213,430.17
2040.040,449.73
2040.868,426.33
2041.696,450.40
2042.524,433.87
2043.351,418.30
2044.179,429.10
2045.006,410.30
2045.006,410.30

Max Intensity Wave.,216.841
Max Intensity Data,5367.73
Min Intensity Wave.,1991.886
Min Intensity Data,361.97
FWHM Wave.,400.333
FWHM Value,0.35
Pressure Wave.,684.671
Pressure Value [GPa],-24.91530
G/D Ratio,0.61920
G/D Gband Wave.,1552.194
G/D Gband Intensity,613.07
G/D Dband Wave.,1300.806
G/D Dband Intensity,990.10

<< BACKGROUND SPECTRUM >>
Wave[dcm-1],No40
146.591,2241.00
147.626,2080.00
148.664,2041.00
149.699,2515.00
150.737,2270.00
151.772,2415.00
152.809,2384.00
153.846,2294.00
154.881,2382.00
155.918,1965.00
156.953,2291.00
157.989,2613.00
159.026,2441.00
160.060,2613.00
161.096,2871.00
162.130,2475.00
163.167,2551.00
164.200,2426.00
165.236,2675.00
166.272,2659.00
167.305,2275.00
168.341,2538.00
169.374,2784.00
170.409,2763.00
171.445,2718.00
172.477,2502.00
173.512,2428.00
174.545,2664.00
175.580,2874.00
176.614,3033.00
177.647,2804.00
178.681,3029.00
179.713,3356.00
180.747,2805.00
181.781,2731.00
182.813,2996.00
183.847,3127.00
184.878,2733.00
185.912,2990.00
186.945,3103.00
187.976,3065.00
189.010,2738.00
190.043,2878.00
191.073,2925.00
192.106,2698.00
193.137,3178.00
194.170,2532.00
195.202,2909.00
196.232,2690.00
197.265,2977.00
198.297,3056.00
199.327,2773.00
200.359,2958.00
201.388,3293.00
202.420,2899.00
203.452,3061.00
204.481,2671.00
205.512,3320.00
206.544,3087.00
207.573,3027.00
208.604,3423.00
209.635,3547.00
210.663,2957.00
211.694,2950.00
212.725,2839.00
213.753,2835.00
214.783,3335.00
215.813,3238.00
216.841,2973.00
217.871,3170.00
218.899,2895.00
219.929,3154.00
220.959,2888.00
221.986,3146.00
223.016,2776.00
224.045,3151.00
225.072,3132.00
226.101,3177.00
227.130,3241.00
228.157,2856.00
229.185,2371.00
230.214,3205.00
231.241,2827.00
232.269,2475.00
233.297,2681.00
234.323,3247.00
235.351,2807.00
236.379,3103.00
237.407,2766.00
238.433,2955.00
239.460,3131.00
240.488,3090.00
241.513,3190.00
242.540,3093.00
243.568,3199.00
244.592,3234.00
245.619,3208.00
246.646,2932.00
247.671,2939.00
248.697,2811.00
249.724,3028.00
250.748,3012.00
251.774,2989.00
252.801,3298.00
253.827,3111.00
254.850,3085.00
255.876,2676.00
256.902,3139.00
257.925,2989.00
258.951,2762.00
259.976,2791.00
260.999,3085.00
262.024,2818.00
263.049,3618.00
264.074,3105.00
265.097,2994.00
266.122,3079.00
267.146,3008.00
268.168,3184.00
269.193,2859.00
270.217,3209.00
271.241,2707.00
272.263,2888.00
273.287,3181.00
274.311,2771.00
275.332,3287.00
276.356,2854.00
277.379,3061.00
278.402,3102.00
279.424,2954.00
280.447,2891.00
281.470,2733.00
282.492,3090.00
283.513,2897.00
284.536,3112.00
285.558,3162.00
286.581,3155.00
287.601,2841.00
288.623,2839.00
289.645,3093.00
290.665,3120.00
291.687,3111.00
292.709,3070.00
293.730,3375.00
294.750,2831.00
295.771,2768.00
296.792,3059.00
297.813,2940.00
298.832,3062.00
299.853,2767.00
300.874,2968.00
301.895,2967.00
302.913,2961.00
303.934,3253.00
304.954,3062.00
305.975,3241.00
306.993,2747.00
308.013,3095.00
309.033,3027.00
310.052,2916.00
311.072,2878.00
312.090,3031.00
313.109,3286.00
314.129,3370.00
315.148,3013.00
316.165,3061.00
317.184,3234.00
318.203,2752.00
319.222,2757.00
320.238,3114.00
321.257,2807.00
322.275,2689.00
323.294,2957.00
324.312,3134.00
325.328,3297.00
326.346,3282.00
327.364,3254.00
328.382,3183.00
329.397,3112.00
330.415,3255.00
331.432,3225.00
332.450,3224.00
333.467,3455.00
334.482,2621.00
335.499,3371.00
336.516,2894.00
337.533,2605.00
338.547,2826.00
339.564,2867.00
340.580,3131.00
341.597,2944.00
342.613,3438.00
343.627,3016.00
344.643,3010.00
345.659,3119.00
346.675,3016.00
347.690,2900.00
348.704,3069.00
349.719,2909.00
350.735,2746.00
351.750,3156.00
352.765,2988.00
353.778,2978.00
354.793,3151.00
355.808,2848.00
356.822,3200.00
357.837,2644.00
358.851,3268.00
359.864,2978.00
360.878,2744.00
361.892,2981.00
362.906,3140.00
363.920,2629.00
364.932,3085.00
365.945,3064.00
366.959,3066.00
367.972,2936.00
368.986,2723.00
369.999,3427.00
371.010,2896.00
372.023,3344.00
373.036,2968.00
374.049,3374.00
375.061,3070.00
376.072,2985.00
377.084,2901.00
378.097,2693.00
379.109,3180.00
380.121,3045.00
381.133,2670.00
382.143,3127.00
383.155,2746.00
384.166,2873.00
385.178,3094.00
386.189,3193.00
387.201,2747.00
388.212,2901.00
389.221,2903.00
390.232,3025.00
391.243,2966.00
392.254,3066.00
393.264,2814.00
394.275,3238.00
395.283,3186.00
396.294,3605.00
397.304,3473.00
398.314,3117.00
399.324,3088.00
400.334,2636.00
401.344,3171.00
402.351,2650.00
403.361,3202.00
404.370,2960.00
405.380,2928.00
406.389,3323.00
407.398,3068.00
408.407,3053.00
409.414,3169.00
410.423,3325.00
411.431,2755.00
412.440,2685.00
413.448,3323.00
414.457,2859.00
415.465,2851.00
416.471,2874.00
417.479,3030.00
418.487,2818.00
419.495,3315.00
420.503,3131.00
421.510,2600.00
422.518,3197.00
423.525,3197.00
424.530,3395.00
425.537,2910.00
426.544,3225.00
427.551,2862.00
428.558,3583.00
429.565,3450.00
430.571,2857.00
431.578,2911.00
432.582,2873.00
433.588,2959.00
434.595,2621.00
435.601,3267.00
436.607,3247.00
437.612,2767.00
438.618,3347.00
439.624,2931.00
440.627,2951.00
441.633,3142.00
442.638,3586.00
443.643,3114.00
444.648,3022.00
445.653,3198.00
446.658,2877.00
447.663,3020.00
448.667,2884.00
449.672,2921.00
450.674,2965.00
451.678,2710.00
452.682,2880.00
453.687,2837.00
454.690,3567.00
455.694,3230.00
456.698,2585.00
457.702,2645.00
458.705,2786.00
459.709,2783.00
460.710,2873.00
461.713,3058.00
462.716,3067.00
463.719,3029.00
464.722,3154.00
465.725,2963.00
466.727,2840.00
467.730,3051.00
468.732,2774.00
469.735,3281.00
470.737,2962.00
471.737,2912.00
472.739,2886.00
473.741,2813.00
474.742,3046.00
475.744,3104.00
476.746,3016.00
477.747,2961.00
478.748,3118.00
479.750,2964.00
480.751,2992.00
481.752,3768.00
482.753,3082.00
483.751,3577.00
484.752,2644.00
485.753,2952.00
486.753,2844.00
487.753,2992.00
488.754,3402.00
489.754,2709.00
490.754,3312.00
491.754,3081.00
492.754,2709.00
493.753,3005.00
494.753,2891.00
495.752,3352.00
496.752,3022.00
497.749,3006.00
498.748,2850.00
499.747,3443.00
500.746,3133.00
501.745,2805.00
502.744,2769.00
503.742,3336.00
504.741,2950.00
505.739,2510.00
506.737,2927.00
507.735,3127.00
508.734,3412.00
509.732,3120.00
510.729,3320.00
511.727,2911.00
512.725,2895.00
513.720,2769.00
514.718,3285.00
515.715,2680.00
516.712,2647.00
517.709,2983.00
518.706,2914.00
519.703,3015.00
520.700,3168.00
521.696,3339.00
522.693,2926.00
523.689,2789.00
524.686,3167.00
525.682,2792.00
526.678,3459.00
527.674,2953.00
528.670,2595.00
529.666,3506.00
530.661,3480.00
531.657,3675.00
532.652,3186.00
533.648,3027.00
534.641,3208.00
535.636,3045.00
536.631,3151.00
537.626,3152.00
538.621,2751.00
539.616,2609.00
540.610,2527.00
541.605,2991.00
542.599,3065.00
543.593,3026.00
544.587,3871.00
545.581,2822.00
546.575,3074.00
547.569,3050.00
548.563,2716.00
549.557,2686.00
550.550,2757.00
551.543,2740.00
552.537,3144.00
553.530,2785.00
554.523,2781.00
555.516,3111.00
556.509,2977.00
557.502,2644.00
558.494,3223.00
559.487,2914.00
560.479,3170.00
561.472,3255.00
562.464,3125.00
563.456,3310.00
564.448,2941.00
565.440,2993.00
566.432,3390.00
567.423,2887.00
568.415,2852.00
569.404,3070.00
570.396,2806.00
571.387,3109.00
572.378,3007.00
573.369,3949.00
574.360,3680.00
575.351,2977.00
576.341,2846.00
577.332,2855.00
578.323,2703.00
579.313,2852.00
580.303,3263.00
581.293,3117.00
582.283,2983.00
583.273,3119.00
584.263,3000.00
585.253,3110.00
586.243,3107.00
587.232,2662.00
588.222,2943.00
589.211,3189.00
590.200,3084.00
591.189,2966.00
592.178,3001.00
593.167,3423.00
594.156,3267.00
595.145,2900.00
596.133,3461.00
597.122,3095.00
598.110,3194.00
599.098,3054.00
600.086,2997.00
601.074,3191.00
602.062,2862.00
603.050,2725.00
604.038,3100.00
605.025,2802.00
606.013,3163.00
607.000,3392.00
607.987,3026.00
608.975,3060.00
609.962,2797.00
610.949,3146.00
611.936,3305.00
612.922,3141.00
613.909,2720.00
614.895,3386.00
615.882,2844.00
616.868,3042.00
617.854,2746.00
618.841,3032.00
619.826,3109.00
620.812,2968.00
621.798,2740.00
622.784,3176.00
623.769,3065.00
624.755,2710.00
625.740,3048.00
626.725,2732.00
627.711,2844.00
628.698,3067.00
629.683,2825.00
630.667,3168.00
631.652,2724.00
632.637,2956.00
633.621,3131.00
634.606,2934.00
635.590,3085.00
636.574,2941.00
637.558,3092.00
638.542,3014.00
639.526,2880.00
640.510,2635.00
641.493,3059.00
642.477,2977.00
643.460,2704.00
644.444,3209.00
645.427,3246.00
646.410,2667.00
647.393,3010.00
648.376,3036.00
649.359,2918.00
650.341,3113.00
651.324,3063.00
652.307,3041.00
653.289,2925.00
654.271,2857.00
655.253,2938.00
656.235,3114.00
657.217,3186.00
658.199,2582.00
659.181,2763.00
660.163,3024.00
661.144,2876.00
662.126,2868.00
663.107,2761.00
664.088,4675.00
665.069,3196.00
666.050,2837.00
667.033,2721.00
668.014,3031.00
668.995,2595.00
669.975,3000.00
670.956,2999.00
671.936,3134.00
672.916,2947.00
673.896,3090.00
674.876,2916.00
675.856,2859.00
676.836,2752.00
677.816,2334.00
678.795,2821.00
679.775,2701.00
680.754,3035.00
681.734,3156.00
682.713,3132.00
683.692,2759.00
684.671,2615.00
685.650,2731.00
686.629,2868.00
687.607,2753.00
688.586,2787.00
689.564,2847.00
690.543,3255.00
691.523,2401.00
692.501,2855.00
693.479,2955.00
694.457,2798.00
695.435,2871.00
696.413,2650.00
697.390,2538.00
698.368,2682.00
699.345,3069.00
700.322,2862.00
701.300,3089.00
702.277,3028.00
703.254,3256.00
704.231,2551.00
705.207,2960.00
706.184,2795.00
707.161,2708.00
708.137,2832.00
709.113,2787.00
710.090,2820.00
711.068,2627.00
712.044,2641.00
713.020,2884.00
713.996,2607.00
714.971,2817.00
715.947,2842.00
716.922,2815.00
717.898,2757.00
718.873,2899.00
719.848,2711.00
720.823,2700.00
721.798,2954.00
722.773,2710.00
723.748,2530.00
724.723,3043.00
725.697,2844.00
726.672,2725.00
727.646,2508.00
728.622,3004.00
729.596,2642.00
730.570,2732.00
731.544,3071.00
732.518,3269.00
733.492,2808.00
734.466,2796.00
735.439,3017.00
736.413,3098.00
737.386,2475.00
738.359,2401.00
739.332,2496.00
740.305,2810.00
741.278,3293.00
742.251,2922.00
743.224,2734.00
744.196,2561.00
745.171,3129.00
746.143,3011.00
747.115,2776.00
748.087,2744.00
749.059,3067.00
750.031,2871.00
751.003,3698.00
751.975,3224.00
752.947,2676.00
753.918,3083.00
754.890,2595.00
755.861,2764.00
756.832,3065.00
757.803,2816.00
758.774,2855.00
759.747,2615.00
760.718,3209.00
761.689,2739.00
762.659,2617.00
763.630,3150.00
764.600,2554.00
765.570,3047.00
766.540,3099.00
767.510,2947.00
768.480,3017.00
769.450,2713.00
770.420,2823.00
771.390,2678.00
772.359,2798.00
773.329,2651.00
774.300,2510.00
775.269,2755.00
776.238,2968.00
777.207,3161.00
778.176,2511.00
779.145,2828.00
780.114,2650.00
781.083,2609.00
782.051,2751.00
783.019,2694.00
783.988,3085.00
784.956,2837.00
785.924,2966.00
786.894,2895.00
787.862,2708.00
788.830,3155.00
789.797,2663.00
790.765,2560.00
791.732,2747.00
792.700,2669.00
793.667,2590.00
794.634,2767.00
795.601,2744.00
796.568,2803.00
797.535,2855.00
798.502,3441.00
799.468,2887.00
800.437,2420.00
801.403,2659.00
802.370,3291.00
803.336,2983.00
804.302,2878.00
805.268,2433.00
806.234,2551.00
807.200,2759.00
808.166,2771.00
809.131,2621.00
810.097,2950.00
811.062,3659.00
812.027,3046.00
812.994,2582.00
813.960,2587.00
814.925,2969.00
815.889,2514.00
816.854,3065.00
817.819,2660.00
818.783,2742.00
819.748,3150.00
820.712,2728.00
821.677,2626.00
822.641,2708.00
823.605,2712.00
824.571,3165.00
825.534,2740.00
826.498,2688.00
827.462,2801.00
828.425,2645.00
829.389,3030.00
830.352,2801.00
831.315,2929.00
832.279,2490.00
833.242,2743.00
834.204,2664.00
835.167,2634.00
836.132,3066.00
837.095,2493.00
838.057,2678.00
839.020,2832.00
839.982,2812.00
840.944,2696.00
841.906,2611.00
842.868,2953.00
843.830,2553.00
844.792,3068.00
845.753,2684.00
846.715,2430.00
847.679,2583.00
848.640,2626.00
849.601,2761.00
850.562,3208.00
851.523,2712.00
852.484,2479.00
853.445,2953.00
854.406,2718.00
855.367,2713.00
856.327,3036.00
857.288,2494.00
858.248,2690.00
859.210,2657.00
860.170,2535.00
861.130,2988.00
862.090,2416.00
863.050,2612.00
864.010,2715.00
864.969,2927.00
865.929,2568.00
866.888,2529.00
867.848,2841.00
868.807,2647.00
869.766,2870.00
870.727,2744.00
871.686,2975.00
872.645,3011.00
873.604,3322.00
874.562,2776.00
875.521,2764.00
876.479,3350.00
877.437,2586.00
878.396,2585.00
879.354,3180.00
880.312,2625.00
881.270,2692.00
882.229,3121.00
883.187,2623.00
884.145,2672.00
885.102,2958.00
886.059,2844.00
887.017,2915.00
887.974,2958.00
888.931,3072.00
889.888,2520.00
890.845,2436.00
891.802,2322.00
892.758,2656.00
893.717,2441.00
894.673,2565.00
895.630,2636.00
896.586,2909.00
897.542,2680.00
898.498,2539.00
899.454,2842.00
900.410,2717.00
901.366,2658.00
902.321,2632.00
903.277,2678.00
904.232,2712.00
905.189,2479.00
906.145,2664.00
907.100,2228.00
908.055,2724.00
909.010,2905.00
909.965,2375.00
910.919,2820.00
911.874,2592.00
912.828,2748.00
913.783,2779.00
914.737,2347.00
915.693,2781.00
916.648,2888.00
917.602,2973.00
918.555,2815.00
919.509,2855.00
920.463,2755.00
921.417,2784.00
922.370,2567.00
923.324,2654.00
924.277,2662.00
925.230,2766.00
926.183,2425.00
927.138,2675.00
928.091,2949.00
929.044,2821.00
929.996,2652.00
930.949,2654.00
931.902,2822.00
932.854,2830.00
933.806,2566.00
934.758,3009.00
935.711,3021.00
936.663,2749.00
937.614,2793.00
938.568,2745.00
939.520,2391.00
940.471,2718.00
941.423,2799.00
942.374,2879.00
943.326,2722.00
944.277,2591.00
945.228,2820.00
946.179,2682.00
947.130,3054.00
948.080,2673.00
949.031,2575.00
949.984,2684.00
950.934,2709.00
951.884,2505.00
952.835,2678.00
953.785,2730.00
954.735,2616.00
955.685,2351.00
956.635,2623.00
957.585,2629.00
958.534,2629.00
959.484,2717.00
960.433,2627.00
961.383,2467.00
962.334,2927.00
963.283,2771.00
964.232,2850.00
965.181,2735.00
966.130,2807.00
967.079,2631.00
968.027,2735.00
968.976,2708.00
969.924,2662.00
970.873,2810.00
971.821,2734.00
972.769,2966.00
973.719,2877.00
974.667,2472.00
975.615,2732.00
976.562,2696.00
977.510,2421.00
978.458,2603.00
979.405,2800.00
980.352,2777.00
981.300,2997.00
982.247,2814.00
983.194,2559.00
984.141,2621.00
985.088,2706.00
986.036,2811.00
986.983,3013.00
987.930,3139.00
988.876,2367.00
989.822,2953.00
990.769,2571.00
991.715,2639.00
992.661,2462.00
993.607,2810.00
994.553,3278.00
995.498,2599.00
996.444,2287.00
997.389,2788.00
998.337,2536.00
999.282,2880.00
1000.227,2607.00
1001.173,2706.00
1002.118,2460.00
1003.062,2896.00
1004.007,2684.00
1004.952,2974.00
1005.897,2945.00
1006.841,2708.00
1007.786,2444.00
1008.730,2396.00
1009.674,3188.00
1010.618,2650.00
1011.564,2496.00
1012.508,2420.00
1013.452,2968.00
1014.396,2724.00
1015.339,2608.00
1016.283,2709.00
1017.226,2761.00
1018.170,2673.00
1019.113,2921.00
1020.056,2709.00
1020.999,2734.00
1021.942,2590.00
1022.885,2850.00
1023.828,3022.00
1024.770,2479.00
1025.715,2729.00
1026.657,2689.00
1027.600,2748.00
1028.542,2932.00
1029.484,2751.00
1030.426,2851.00
1031.368,2787.00
1032.310,2564.00
1033.251,2540.00
1034.193,2722.00
1035.135,2507.00
1036.076,2603.00
1037.017,2545.00
1037.959,2812.00
1038.900,2764.00
1039.843,2747.00
1040.784,2750.00
1041.725,2794.00
1042.665,2633.00
1043.606,2748.00
1044.547,2723.00
1045.487,2360.00
1046.427,2649.00
1047.368,2766.00
1048.308,2244.00
1049.248,2555.00
1050.188,2672.00
1051.128,2623.00
1052.067,2664.00
1053.007,2440.00
1053.947,2403.00
1054.886,2592.00
1055.827,2491.00
1056.766,2944.00
1057.706,2437.00
1058.645,2667.00
1059.584,2736.00
1060.522,2995.00
1061.461,2480.00
1062.400,2471.00
1063.338,2623.00
1064.277,2489.00
1065.215,2510.00
1066.154,2409.00
1067.092,2582.00
1068.030,2662.00
1068.968,2862.00
1069.906,2988.00
1070.843,2951.00
1071.781,2753.00
1072.720,2812.00
1073.658,2780.00
1074.595,2565.00
1075.533,2559.00
1076.470,2583.00
1077.407,2965.00
1078.344,2756.00
1079.281,2799.00
1080.217,2318.00
1081.154,2674.00
1082.091,2723.00
1083.027,2429.00
1083.964,2926.00
1084.900,2556.00
1085.836,2589.00
1086.772,2890.00
1087.708,2462.00
1088.644,2836.00
1089.580,2708.00
1090.515,2707.00
1091.451,2597.00
1092.388,2721.00
1093.324,2432.00
1094.259,3193.00
1095.194,2739.00
1096.129,2595.00
1097.064,2594.00
1097.999,2813.00
1098.934,2551.00
1099.869,2534.00
1100.803,2707.00
1101.738,2688.00
1102.672,2426.00
1103.607,2790.00
1104.541,2553.00
1105.475,2542.00
1106.409,2452.00
1107.343,2632.00
1108.277,2409.00
1109.210,2726.00
1110.144,2689.00
1111.078,2704.00
1112.011,2449.00
1112.944,2730.00
1113.878,2728.00
1114.811,2191.00
1115.744,2568.00
1116.678,2323.00
1117.611,2597.00
1118.544,2592.00
1119.477,2751.00
1120.409,2564.00
1121.342,3146.00
1122.274,2747.00
1123.206,2957.00
1124.138,2686.00
1125.070,3008.00
1126.002,2844.00
1126.934,2303.00
1127.866,2582.00
1128.798,2325.00
1129.729,2372.00
1130.661,2645.00
1131.592,2567.00
1132.523,2753.00
1133.454,2771.00
1134.385,2308.00
1135.317,2675.00
1136.247,2590.00
1137.178,2867.00
1138.109,2363.00
1139.039,3029.00
1139.970,2819.00
1140.900,2621.00
1141.831,2346.00
1142.761,2235.00
1143.691,3294.00
1144.621,2683.00
1145.551,2683.00
1146.480,2660.00
1147.410,2862.00
1148.340,2308.00
1149.269,2355.00
1150.199,2574.00
1151.128,3037.00
1152.057,2413.00
1152.979,2581.00
1153.898,2623.00
1154.819,2757.00
1155.739,2631.00
1156.658,2563.00
1157.579,2690.00
1158.498,2647.00
1159.419,2174.00
1160.338,2682.00
1161.256,2727.00
1162.177,2516.00
1163.095,2638.00
1164.016,2705.00
1164.934,2881.00
1165.852,2826.00
1166.772,2624.00
1167.690,2625.00
1168.610,2682.00
1169.528,2663.00
1170.446,2204.00
1171.365,2533.00
1172.283,2499.00
1173.202,2597.00
1174.120,2675.00
1175.037,2505.00
1175.956,2443.00
1176.873,2487.00
1177.792,2527.00
1178.709,3119.00
1179.626,2503.00
1180.544,2862.00
1181.461,2499.00
1182.379,2730.00
1183.296,2639.00
1184.212,2283.00
1185.130,2485.00
1186.046,2950.00
1186.962,2617.00
1187.880,2939.00
1188.796,2675.00
1189.714,2438.00
1190.629,2789.00
1191.545,2682.00
1192.462,2534.00
1193.378,2578.00
1194.295,2316.00
1195.210,2654.00
1196.125,2752.00
1197.042,2724.00
1197.957,2636.00
1198.872,2512.00
1199.788,2544.00
1200.703,2960.00
1201.619,2644.00
1202.534,2488.00
1203.448,2709.00
1204.364,2584.00
1205.278,2337.00
1206.192,2681.00
1207.108,3132.00
1208.022,3031.00
1208.938,2492.00
1209.851,2778.00
1210.765,2875.00
1211.680,2512.00
1212.594,2431.00
1213.507,2573.00
1214.422,3013.00
1215.335,2730.00
1216.248,2568.00
1217.163,2638.00
1218.076,3239.00
1218.990,2759.00
1219.903,2437.00
1220.816,2456.00
1221.730,2596.00
1222.642,2562.00
1223.554,2579.00
1224.469,2711.00
1225.380,2569.00
1226.292,2281.00
1227.206,2724.00
1228.118,2939.00
1229.032,2243.00
1229.943,2491.00
1230.855,2547.00
1231.768,2380.00
1232.679,2714.00
1233.590,2611.00
1234.503,2831.00
1235.414,2498.00
1236.325,2497.00
1237.238,2697.00
1238.149,2723.00
1239.059,2418.00
1239.972,2804.00
1240.882,2439.00
1241.793,2754.00
1242.705,2974.00
1243.615,2564.00
1244.525,2753.00
1245.437,2179.00
1246.347,2688.00
1247.259,2801.00
1248.168,3077.00
1249.078,2886.00
1249.989,2882.00
1250.899,2437.00
1251.808,2502.00
1252.719,2530.00
1253.628,2501.00
1254.537,3017.00
1255.448,2451.00
1256.357,2461.00
1257.266,2629.00
1258.176,2362.00
1259.085,2331.00
1259.993,2435.00
1260.904,2450.00
1261.812,2442.00
1262.720,3128.00
1263.630,2802.00
1264.538,2455.00
1265.446,2777.00
1266.356,2605.00
1267.263,2909.00
1268.171,2437.00
1269.080,2702.00
1269.988,2827.00
1270.895,2551.00
1271.804,2591.00
1272.711,2802.00
1273.619,2797.00
1274.527,2466.00
1275.434,2775.00
1276.341,2403.00
1277.248,2632.00
1278.156,2895.00
1279.063,2505.00
1279.969,2730.00
1280.877,3542.00
1281.783,2837.00
1282.690,2678.00
1283.598,2619.00
1284.503,2496.00
1285.409,2441.00
1286.317,2974.00
1287.223,3020.00
1288.128,2703.00
1289.036,2512.00
1289.941,2566.00
1290.846,2613.00
1291.751,2437.00
1292.658,2526.00
1293.563,3057.00
1294.468,2633.00
1295.375,2771.00
1296.280,2863.00
1297.184,3328.00
1298.091,2715.00
1298.995,2803.00
1299.900,3031.00
1300.806,2495.00
1301.710,2389.00
1302.614,2230.00
1303.518,2850.00
1304.424,2571.00
1305.327,2815.00
1306.231,2598.00
1307.137,2812.00
1308.040,2645.00
1308.943,2671.00
1309.847,2831.00
1310.752,2825.00
1311.655,2284.00
1312.558,2430.00
1313.463,2547.00
1314.366,2506.00
1315.269,2663.00
1316.171,2617.00
1317.076,2496.00
1317.978,2439.00
1318.881,2249.00
1319.785,2499.00
1320.687,2495.00
1321.589,2233.00
1322.491,2463.00
1323.395,2719.00
1324.297,3175.00
1325.198,2774.00
1326.102,2410.00
1327.004,2447.00
1327.905,3010.00
1328.806,2611.00
1329.709,2692.00
1330.611,2584.00
1331.512,2459.00
1332.413,3032.00
1333.316,2638.00
1334.216,2804.00
1335.117,2361.00
1336.020,2638.00
1336.920,2677.00
1337.821,2481.00
1338.721,2876.00
1339.623,2686.00
1340.523,2573.00
1341.423,2518.00
1342.323,2910.00
1343.225,2721.00
1344.125,2456.00
1345.025,2522.00
1345.924,2305.00
1346.826,3004.00
1347.725,3059.00
1348.624,2852.00
1349.524,2492.00
1350.425,2578.00
1351.324,2728.00
1352.223,2815.00
1353.121,2569.00
1354.022,2776.00
1354.921,3020.00
1355.819,2760.00
1356.718,2671.00
1357.618,2402.00
1358.516,2749.00
1359.415,2993.00
1360.313,2700.00
1361.213,2602.00
1362.111,2932.00
1363.008,3290.00
1363.906,2611.00
1364.806,2625.00
1365.703,2700.00
1366.601,2496.00
1367.498,2464.00
1368.397,2810.00
1369.295,2699.00
1370.192,2464.00
1371.089,2753.00
1371.987,2624.00
1372.884,2885.00
1373.781,2442.00
1374.678,2632.00
1375.574,2475.00
1376.473,2757.00
1377.369,2879.00
1378.265,2488.00
1379.161,2601.00
1380.059,2346.00
1380.955,2722.00
1381.851,2379.00
1382.747,2533.00
1383.643,2551.00
1384.540,2460.00
1385.436,2544.00
1386.331,2719.00
1387.227,2782.00
1388.124,2723.00
1389.019,2440.00
1389.914,2617.00
1390.809,2286.00
1391.704,3044.00
1392.601,2538.00
1393.495,2904.00
1394.390,2807.00
1395.285,2852.00
1396.179,2697.00
1397.075,2624.00
1397.969,2664.00
1398.864,2319.00
1399.758,2588.00
1400.652,2635.00
1401.547,2425.00
1402.441,2417.00
1403.335,2966.00
1404.229,2657.00
1405.122,2667.00
1406.017,2634.00
1406.911,2758.00
1407.804,3056.00
1408.697,2630.00
1409.590,2475.00
1410.485,2756.00
1411.378,2693.00
1412.271,2341.00
1413.163,2661.00
1414.056,2790.00
1414.949,3004.00
1415.843,2650.00
1416.735,2586.00
1417.627,2663.00
1418.520,2624.00
1419.412,2849.00
1420.306,2792.00
1421.197,2900.00
1422.089,2862.00
1422.981,3084.00
1423.873,2818.00
1424.764,2780.00
1425.657,2681.00
1426.549,2780.00
1427.440,2820.00
1428.331,2560.00
1429.222,2325.00
1430.113,2671.00
1431.006,2829.00
1431.897,2541.00
1432.787,2656.00
1433.678,2563.00
1434.568,2423.00
1435.459,2850.00
1436.351,2834.00
1437.241,2756.00
1438.131,2823.00
1439.021,2383.00
1439.911,2612.00
1440.801,2672.00
1441.693,2865.00
1442.583,2671.00
1443.472,2695.00
1444.362,2748.00
1445.251,2588.00
1446.140,2586.00
1447.030,2823.00
1447.921,2882.00
1448.810,2477.00
1449.699,3004.00
1450.588,2693.00
1451.476,2551.00
1452.365,2748.00
1453.254,2539.00
1454.144,2525.00
1455.032,2775.00
1455.921,2371.00
1456.809,2973.00
1457.697,2442.00
1458.585,2618.00
1459.473,2594.00
1460.361,2470.00
1461.251,2718.00
1462.138,2733.00
1463.026,2617.00
1463.913,2884.00
1464.801,2557.00
1465.688,2709.00
1466.575,2647.00
1467.463,3122.00
1468.351,2500.00
1469.238,2587.00
1470.125,2271.00
1471.012,2706.00
1471.899,2716.00
1472.785,2437.00
1473.672,2678.00
1474.558,2843.00
1475.446,2761.00
1476.333,2788.00
1477.219,2467.00
1478.105,2633.00
1478.991,2610.00
1479.877,2938.00
1480.762,2656.00
1481.648,2519.00
1482.534,2783.00
1483.419,2725.00
1484.307,2745.00
1485.192,2613.00
1486.077,2490.00
1486.962,2523.00
1487.847,2427.00
1488.732,2494.00
1489.617,2662.00
1490.502,2900.00
1491.387,2754.00
1492.271,2478.00
1493.156,2469.00
1494.042,2417.00
1494.927,2876.00
1495.811,2572.00
1496.695,2765.00
1497.579,2918.00
1498.463,2647.00
1499.347,2685.00
1500.231,2700.00
1501.114,2694.00
1501.998,2904.00
1502.881,2715.00
1503.765,2958.00
1504.648,3028.00
1505.533,2777.00
1506.417,2660.00
1507.300,2626.00
1508.183,2736.00
1509.066,2164.00
1509.948,2890.00
1510.831,2989.00
1511.714,2497.00
1512.596,2801.00
1513.479,2892.00
1514.361,2824.00
1515.243,2707.00
1516.125,2790.00
1517.008,2859.00
1517.890,2604.00
1518.771,2692.00
1519.655,2842.00
1520.537,2588.00
1521.419,2506.00
1522.300,2677.00
1523.182,2793.00
1524.063,2785.00
1524.944,2945.00
1525.825,2844.00
1526.707,2486.00
1527.588,2423.00
1528.468,2731.00
1529.349,2315.00
1530.230,2556.00
1531.111,2804.00
1531.991,2738.00
1532.872,2366.00
1533.752,2654.00
1534.632,2520.00
1535.513,2501.00
1536.393,2805.00
1537.273,2984.00
1538.153,3292.00
1539.032,2445.00
1539.912,2659.00
1540.792,2659.00
1541.672,2680.00
1542.551,2780.00
1543.430,3218.00
1544.310,2694.00
1545.189,2546.00
1546.068,3076.00
1546.947,2772.00
1547.826,2953.00
1548.705,2637.00
1549.584,2864.00
1550.462,2609.00
1551.341,2813.00
1552.219,2671.00
1553.098,2802.00
1553.976,2836.00
1554.854,3058.00
1555.733,2879.00
1556.611,2551.00
1557.489,2508.00
1558.367,2633.00
1559.244,2808.00
1560.122,2667.00
1561.000,2747.00
1561.877,2936.00
1562.755,2543.00
1563.632,2636.00
1564.509,2899.00
1565.386,3018.00
1566.264,2449.00
1567.141,2258.00
1568.017,2793.00
1568.894,2642.00
1569.771,2700.00
1570.648,2747.00
1571.524,2669.00
1572.401,2430.00
1573.277,2473.00
1574.153,2733.00
1575.029,2531.00
1575.906,3394.00
1576.781,2844.00
1577.657,2619.00
1578.533,2914.00
1579.409,2303.00
1580.285,2641.00
1581.160,3089.00
1582.036,2839.00
1582.911,2493.00
1583.786,3034.00
1584.662,2483.00
1585.537,2630.00
1586.412,2718.00
1587.287,2446.00
1588.160,2832.00
1589.035,2323.00
1589.909,2716.00
1590.784,2641.00
1591.658,2456.00
1592.533,2724.00
1593.407,2655.00
1594.281,2565.00
1595.155,3074.00
1596.029,2577.00
1596.903,2645.00
1597.777,2587.00
1598.651,2894.00
1599.525,2369.00
1600.398,2694.00
1601.272,2638.00
1602.144,3199.00
1603.017,2648.00
1603.890,2946.00
1604.763,2757.00
1605.636,2825.00
1606.509,2390.00
1607.382,2508.00
1608.255,2732.00
1609.128,2851.00
1610.000,2611.00
1610.873,2356.00
1611.746,2560.00
1612.616,2553.00
1613.488,2247.00
1614.361,2683.00
1615.233,2601.00
1616.105,2877.00
1616.977,2578.00
1617.849,2507.00
1618.720,2947.00
1619.592,2950.00
1620.464,2766.00
1621.333,3097.00
1622.205,2675.00
1623.076,2627.00
1623.947,2645.00
1624.818,2896.00
1625.689,2818.00
1626.560,2563.00
1627.431,2714.00
1628.302,3059.00
1629.171,2808.00
1630.042,2985.00
1630.912,3663.00
1631.782,3216.00
1632.653,2470.00
1633.523,2848.00
1634.393,2898.00
1635.263,2522.00
1636.131,2632.00
1637.001,2580.00
1637.871,2316.00
1638.741,2325.00
1639.611,2400.00
1640.480,2772.00
1641.350,2528.00
1642.219,2521.00
1643.087,2182.00
1643.956,3144.00
1644.825,2897.00
1645.694,2884.00
1646.563,2803.00
1647.432,2680.00
1648.299,2688.00
1649.167,2826.00
1650.036,2480.00
1650.904,2895.00
1651.773,2884.00
1652.641,2660.00
1653.509,2864.00
1654.376,2529.00
1655.244,2723.00
1656.112,2725.00
1656.980,2668.00
1657.847,2524.00
1658.715,2858.00
1659.581,2567.00
1660.448,2934.00
1661.316,2161.00
1662.183,2696.00
1663.051,2721.00
1663.918,2719.00
1664.783,2673.00
1665.650,2798.00
1666.517,2809.00
1667.384,2702.00
1668.251,2746.00
1669.115,2918.00
1669.982,2609.00
1670.849,2915.00
1671.715,2609.00
1672.581,2837.00
1673.446,2812.00
1674.312,2666.00
1675.178,3094.00
1676.044,2754.00
1676.910,2798.00
1677.774,2700.00
1678.639,2325.00
1679.505,2665.00
1680.370,2849.00
1681.236,3301.00
1682.099,2596.00
1682.965,2715.00
1683.830,2302.00
1684.695,2522.00
1685.560,2619.00
1686.423,2808.00
1687.288,2799.00
1688.153,2713.00
1689.017,2585.00
1689.880,2754.00
1690.745,2820.00
1691.609,2511.00
1692.473,2798.00
1693.338,2878.00
1694.200,2941.00
1695.064,2697.00
1695.928,2591.00
1696.792,2704.00
1697.654,3172.00
1698.517,2690.00
1699.381,2463.00
1700.245,2338.00
1701.106,2968.00
1701.969,2553.00
1702.833,2844.00
1703.696,2627.00
1704.557,2645.00
1705.420,2565.00
1706.283,2698.00
1707.146,2845.00
1708.007,2486.00
1708.870,2486.00
1709.732,2355.00
1710.595,2552.00
1711.455,2451.00
1712.318,2640.00
1713.180,2944.00
1714.040,2714.00
1714.902,2853.00
1715.764,2694.00
1716.626,2468.00
1717.486,2685.00
1718.348,2945.00
1719.209,4967.00
1720.071,2348.00
1720.930,2457.00
1721.792,2522.00
1722.653,2535.00
1723.512,2587.00
1724.374,2665.00
1725.234,2759.00
1726.095,2717.00
1726.954,2679.00
1727.815,2806.00
1728.676,2703.00
1729.535,2922.00
1730.395,2651.00
1731.256,2595.00
1732.114,2737.00
1732.974,2131.00
1733.834,3028.00
1734.693,2802.00
1735.553,2722.00
1736.413,3130.00
1737.272,2587.00
1738.130,2637.00
1738.990,2740.00
1739.849,2581.00
1740.707,3725.00
1741.566,2695.00
1742.426,2727.00
1743.283,3080.00
1744.142,2575.00
1745.001,2367.00
1745.858,2878.00
1746.717,2751.00
1747.576,2793.00
1748.433,2842.00
1749.292,3270.00
1750.150,3321.00
1751.007,2843.00
1751.865,2910.00
1752.723,2729.00
1753.579,2601.00
1754.438,2882.00
1755.296,2898.00
1756.152,2260.00
1757.010,2403.00
1757.865,2879.00
1758.723,2376.00
1759.581,3029.00
1760.436,2692.00
1761.294,3066.00
1762.151,2667.00
1763.006,2588.00
1763.864,2350.00
1764.721,2880.00
1765.576,2752.00
1766.433,2846.00
1767.288,2581.00
1768.144,2736.00
1769.001,2644.00
1769.856,2760.00
1770.712,2913.00
1771.568,2510.00
1772.423,2596.00
1773.279,2588.00
1774.133,2624.00
1774.989,3102.00
1775.845,3081.00
1776.699,2889.00
1777.555,2661.00
1778.409,3225.00
1779.265,2661.00
1780.120,2638.00
1780.974,2675.00
1781.829,2338.00
1782.682,2747.00
1783.538,2531.00
1784.393,2737.00
1785.246,2578.00
1786.101,2800.00
1786.954,2822.00
1787.808,2875.00
1788.661,2390.00
1789.516,2617.00
1790.370,2636.00
1791.223,2857.00
1792.077,2683.00
1792.930,2785.00
1793.784,2558.00
1794.636,2716.00
1795.490,2678.00
1796.344,2699.00
1797.196,2702.00
1798.049,2836.00
1798.901,2581.00
1799.755,2936.00
1800.606,2518.00
1801.460,3204.00
1802.311,2988.00
1803.165,3087.00
1804.018,3000.00
1804.869,2784.00
1805.722,3149.00
1806.573,2745.00
1807.426,2519.00
1808.276,2652.00
1809.129,2605.00
1809.980,2858.00
1810.832,2966.00
1811.683,2598.00
1812.535,3008.00
1813.385,2658.00
1814.237,2964.00
1815.089,2705.00
1815.940,2981.00
1816.791,2609.00
1817.641,2577.00
1818.493,2796.00
1819.343,2738.00
1820.194,2555.00
1821.044,2823.00
1821.895,2931.00
1822.745,2452.00
1823.596,2596.00
1824.445,3075.00
1825.296,2783.00
1826.145,2623.00
1826.996,2869.00
1827.845,2745.00
1828.695,2735.00
1829.544,2674.00
1830.395,2791.00
1831.243,2646.00
1832.094,2459.00
1832.942,3302.00
1833.792,2769.00
1834.640,2806.00
1835.490,2689.00
1836.338,2779.00
1837.186,2612.00
1838.036,2579.00
1838.884,2681.00
1839.733,3039.00
1840.581,2914.00
1841.430,2845.00
1842.278,3031.00
1843.127,2658.00
1843.974,2394.00
1844.823,3104.00
1845.671,2894.00
1846.519,2718.00
1847.366,2752.00
1848.213,2356.00
1849.062,2520.00
1849.909,2456.00
1850.757,3337.00
1851.604,2816.00
1852.452,2609.00
1853.298,2877.00
1854.146,2757.00
1854.993,2791.00
1855.839,3172.00
1856.687,2759.00
1857.532,2831.00
1858.380,2707.00
1859.226,2783.00
1860.073,2833.00
1860.919,2551.00
1861.765,2574.00
1862.612,2911.00
1863.457,2915.00
1864.304,2691.00
1865.150,2786.00
1865.995,2660.00
1866.842,2830.00
1867.686,2923.00
1868.533,2743.00
1869.378,2777.00
1870.223,2760.00
1871.069,2640.00
1871.914,2723.00
1872.760,2723.00
1873.604,2502.00
1874.448,2837.00
1875.294,2885.00
1876.139,2582.00
1876.984,2858.00
1877.828,2385.00
1878.672,2214.00
1879.518,2582.00
1880.361,2901.00
1881.205,2864.00
1882.050,2502.00
1882.894,3212.00
1883.739,2600.00
1884.582,2526.00
1885.425,2524.00
1886.270,3005.00
1887.113,2465.00
1887.956,2757.00
1888.801,2777.00
1889.644,2533.00
1890.486,2335.00
1891.331,2634.00
1892.173,2786.00
1893.017,2803.00
1893.860,2958.00
1894.702,2987.00
1895.546,2721.00
1896.388,3404.00
1897.230,3082.00
1898.074,2628.00
1898.916,2510.00
1899.757,2547.00
1900.601,3389.00
1901.443,3012.00
1902.284,2960.00
1903.125,3176.00
1903.969,2927.00
1904.810,2927.00
1905.651,2781.00
1906.494,3028.00
1907.335,3161.00
1908.176,2799.00
1909.018,2810.00
1909.859,2699.00
1910.700,2565.00
1911.542,3242.00
1912.383,2786.00
1913.223,2360.00
1914.064,2858.00
1914.906,2995.00
1915.746,3060.00
1916.586,3164.00
1917.428,2736.00
1918.268,2773.00
1919.107,2611.00
1919.947,2493.00
1920.789,2633.00
1921.628,2993.00
1922.468,2694.00
1923.309,2546.00
1924.148,3034.00
1924.988,2802.00
1925.827,2710.00
1926.667,2612.00
1927.507,2765.00
1928.345,2576.00
1929.184,2892.00
1930.025,2520.00
1930.864,2980.00
1931.702,3006.00
1932.541,2641.00
1933.381,2869.00
1934.219,2865.00
1935.057,3048.00
1935.896,2393.00
1936.735,2650.00
1937.573,2607.00
1938.411,2542.00
1939.249,2888.00
1940.089,2619.00
1940.927,2960.00
1941.764,3018.00
1942.602,2665.00
1943.439,2597.00
1944.278,2715.00
1945.115,2648.00
1945.953,2468.00
1946.790,2750.00
1947.628,3095.00
1948.465,2850.00
1949.302,2861.00
1950.139,2892.00
1950.976,2601.00
1951.814,2922.00
1952.651,2745.00
1953.487,2519.00
1954.323,2992.00
1955.160,2711.00
1955.998,3060.00
1956.834,2702.00
1957.670,2754.00
1958.506,2932.00
1959.342,2839.00
1960.177,2777.00
1961.015,2868.00
1961.850,2804.00
1962.686,2764.00
1963.521,2778.00
1964.357,3010.00
1965.192,2524.00
1966.029,2881.00
1966.864,2681.00
1967.699,2965.00
1968.534,2769.00
1969.369,3004.00
1970.204,2675.00
1971.040,2782.00
1971.875,2678.00
1972.709,2782.00
1973.544,2600.00
1974.378,2606.00
1975.212,2849.00
1976.047,2640.00
1976.882,2577.00
1977.716,3152.00
1978.550,2429.00
1979.384,2690.00
1980.218,2688.00
1981.052,2631.00
1981.885,2769.00
1982.719,2755.00
1983.554,2908.00
1984.388,3060.00
1985.221,2802.00
1986.054,3019.00
1986.887,2782.00
1987.720,2560.00
1988.553,3037.00
1989.386,2840.00
1990.219,2863.00
1991.053,3017.00
1991.886,2665.00
1992.719,2934.00
1993.551,2288.00
1994.383,2882.00
1995.216,2631.00
1996.048,2450.00
1996.880,2901.00
1997.712,2649.00
1998.544,2729.00
1999.376,2823.00
2000.208,3040.00
2001.040,3202.00
2001.873,2583.00
2002.705,2566.00
2003.536,2806.00
2004.367,2816.00
2005.199,2761.00
2006.030,2647.00
2006.861,2540.00
2007.692,2744.00
2008.523,2632.00
2009.354,2754.00
2010.185,2539.00
2011.016,2908.00
2011.846,2968.00
2012.677,2673.00
2013.507,3045.00
2014.338,2971.00
2015.168,2652.00
2015.999,3253.00
2016.829,2678.00
2017.659,3006.00
2018.489,3247.00
2019.319,2560.00
2020.149,2910.00
2020.980,2768.00
2021.810,2525.00
2022.639,2638.00
2023.469,2633.00
2024.298,2436.00
2025.128,2401.00
2025.957,2367.00
2026.786,2212.00
2027.615,2382.00
2028.444,2612.00
2029.273,2755.00
2030.102,2363.00
2030.931,2576.00
2031.758,2864.00
2032.586,2528.00
2033.415,2590.00
2034.243,2218.00
2035.072,2020.00
2035.900,2497.00
2036.728,2320.00
2037.556,2373.00
2038.385,2388.00
2039.213,2200.00
2040.040,2158.00
2040.868,2149.00
2041.696,2175.00
2042.524,2208.00
2043.351,2416.00
2044.179,2225.00
2045.006,2019.00
