RamanScope Measure Spectrum Data V3.72

<< MEASURE CONDITION >>
Exposure Type,Aver
Exposure Time [sec],15
Exposure Count,4
Measure Time,2023/07/15 16:11:37
Data Name,""
Data Comment,""
Rayleigh Wave[nm],532.0

<< SAMPLE SPECTRUM >>
Wave[dcm-1],No161
146.591,1281.50
147.626,1513.50
148.664,1755.75
149.699,2007.25
150.737,2206.50
151.772,2480.50
152.809,2746.75
153.846,2917.75
154.881,3146.75
155.918,3262.25
156.953,3358.00
157.989,3528.75
159.026,3567.75
160.060,3650.00
161.096,3780.00
162.130,3811.25
163.167,3848.25
164.200,3918.25
165.236,3944.75
166.272,4013.00
167.305,4045.75
168.341,4209.75
169.374,4242.00
170.409,4332.00
171.445,4391.75
172.477,4503.50
173.512,4552.50
174.545,4560.50
175.580,4600.25
176.614,4633.00
177.647,4689.50
178.681,4606.00
179.713,4594.25
180.747,4577.25
181.781,4531.75
182.813,4511.75
183.847,4458.50
184.878,4491.00
185.912,4441.75
186.945,4532.00
187.976,4458.75
189.010,4496.50
190.043,4490.75
191.073,4538.00
192.106,4462.50
193.137,4567.00
194.170,4629.75
195.202,4658.50
196.232,4644.00
197.265,4711.00
198.297,4700.00
199.327,4802.50
200.359,4812.50
201.388,4895.75
202.420,4955.50
203.452,5041.50
204.481,5123.25
205.512,5153.75
206.544,5264.25
207.573,5328.00
208.604,5400.50
209.635,5441.75
210.663,5561.00
211.694,5653.25
212.725,5714.25
213.753,5766.75
214.783,5830.25
215.813,5869.50
216.841,5892.25
217.871,5882.75
218.899,5850.50
219.929,5903.00
220.959,5879.25
221.986,5777.50
223.016,5726.00
224.045,5681.75
225.072,5654.00
226.101,5555.00
227.130,5529.00
228.157,5483.50
229.185,5443.50
230.214,5450.25
231.241,5415.25
232.269,5326.25
233.297,5351.75
234.323,5353.25
235.351,5350.00
236.379,5302.25
237.407,5361.00
238.433,5384.25
239.460,5396.00
240.488,5472.25
241.513,5541.25
242.540,5551.25
243.568,5562.50
244.592,5629.75
245.619,5724.25
246.646,5616.75
247.671,5546.75
248.697,5535.25
249.724,5537.50
250.748,5542.75
251.774,5467.75
252.801,5416.50
253.827,5478.25
254.850,5469.75
255.876,5407.25
256.902,5483.50
257.925,5483.50
258.951,5483.50
259.976,5488.25
260.999,5491.00
262.024,5564.75
263.049,5512.25
264.074,5493.75
265.097,5657.25
266.122,5647.00
267.146,5602.50
268.168,5626.00
269.193,5671.50
270.217,5768.25
271.241,5772.25
272.263,5780.25
273.287,5784.00
274.311,5885.00
275.332,5835.25
276.356,5821.25
277.379,5812.75
278.402,5761.25
279.424,5785.50
280.447,5739.50
281.470,5706.50
282.492,5687.00
283.513,5622.00
284.536,5525.00
285.558,5522.25
286.581,5484.50
287.601,5378.25
288.623,5347.50
289.645,5329.25
290.665,5227.00
291.687,5200.50
292.709,5124.75
293.730,5051.50
294.750,5052.00
295.771,5017.50
296.792,4909.25
297.813,4965.75
298.832,4927.50
299.853,4871.25
300.874,4888.50
301.895,4809.25
302.913,4728.00
303.934,4695.75
304.954,4666.25
305.975,4687.50
306.993,4697.75
308.013,4603.25
309.033,4618.00
310.052,4489.25
311.072,4572.00
312.090,4550.50
313.109,4507.50
314.129,4535.50
315.148,4520.75
316.165,4459.50
317.184,4454.00
318.203,4457.00
319.222,4447.50
320.238,4382.00
321.257,4330.50
322.275,4367.75
323.294,4332.25
324.312,4318.00
325.328,4292.50
326.346,4270.75
327.364,4283.75
328.382,4280.50
329.397,4277.00
330.415,4269.50
331.432,4247.00
332.450,4283.75
333.467,4233.75
334.482,4216.50
335.499,4206.00
336.516,4246.75
337.533,4247.00
338.547,4154.50
339.564,4143.25
340.580,4176.25
341.597,4150.00
342.613,4207.25
343.627,4193.25
344.643,4121.00
345.659,4135.25
346.675,4149.25
347.690,4139.75
348.704,4097.00
349.719,4098.75
350.735,4066.75
351.750,4071.25
352.765,4062.00
353.778,4079.75
354.793,4061.25
355.808,4028.00
356.822,4100.75
357.837,4011.50
358.851,4031.25
359.864,4043.25
360.878,4089.50
361.892,4085.00
362.906,4094.25
363.920,4060.00
364.932,4049.25
365.945,4031.50
366.959,4023.50
367.972,4042.00
368.986,4103.25
369.999,4038.00
371.010,4037.75
372.023,4008.50
373.036,4097.25
374.049,4094.75
375.061,4089.75
376.072,4054.00
377.084,4064.50
378.097,4088.25
379.109,4085.25
380.121,4092.75
381.133,4081.25
382.143,4083.50
383.155,4065.75
384.166,4076.00
385.178,4062.25
386.189,4088.25
387.201,4032.50
388.212,4048.00
389.221,4129.25
390.232,4076.75
391.243,4077.50
392.254,4060.75
393.264,4095.25
394.275,4099.25
395.283,4001.25
396.294,4025.00
397.304,3995.25
398.314,4000.00
399.324,4031.25
400.334,3974.00
401.344,3964.50
402.351,3982.75
403.361,3913.25
404.370,3944.25
405.380,3917.50
406.389,3908.00
407.398,3914.25
408.407,3917.25
409.414,3873.00
410.423,3895.00
411.431,3879.50
412.440,3839.00
413.448,3844.00
414.457,3875.75
415.465,3891.25
416.471,3800.50
417.479,3842.50
418.487,3836.00
419.495,3821.25
420.503,3847.75
421.510,3822.00
422.518,3772.50
423.525,3798.25
424.530,3776.75
425.537,3836.00
426.544,3783.75
427.551,3753.50
428.558,3771.25
429.565,3762.00
430.571,3857.00
431.578,3799.25
432.582,3763.25
433.588,3800.25
434.595,3819.25
435.601,3739.25
436.607,3721.25
437.612,3766.25
438.618,3758.75
439.624,3747.00
440.627,3790.00
441.633,3757.25
442.638,3767.00
443.643,3776.00
444.648,3737.50
445.653,3773.75
446.658,3751.00
447.663,3768.50
448.667,3758.00
449.672,3787.75
450.674,3775.50
451.678,3759.25
452.682,3775.25
453.687,3760.25
454.690,3816.75
455.694,3780.25
456.698,3818.50
457.702,3813.00
458.705,3780.00
459.709,3808.25
460.710,3780.75
461.713,3775.75
462.716,3755.50
463.719,3763.00
464.722,3794.25
465.725,3835.00
466.727,3785.25
467.730,3854.75
468.732,3822.50
469.735,3830.25
470.737,3788.50
471.737,3826.00
472.739,3807.75
473.741,3802.50
474.742,3772.25
475.744,3823.75
476.746,3811.25
477.747,3883.50
478.748,3803.50
479.750,3796.50
480.751,3820.25
481.752,3780.00
482.753,3846.50
483.751,3865.25
484.752,3826.25
485.753,3852.75
486.753,3857.50
487.753,3848.25
488.754,3843.75
489.754,3800.25
490.754,3833.25
491.754,3853.00
492.754,3919.00
493.753,3840.75
494.753,3821.75
495.752,3829.00
496.752,3894.75
497.749,3850.50
498.748,3807.00
499.747,3774.00
500.746,3813.75
501.745,3823.25
502.744,3779.50
503.742,3777.75
504.741,3752.75
505.739,3755.75
506.737,3751.75
507.735,3785.75
508.734,3696.00
509.732,3703.50
510.729,3667.00
511.727,3690.50
512.725,3736.75
513.720,3661.75
514.718,3674.25
515.715,3609.50
516.712,3623.25
517.709,3656.75
518.706,3584.75
519.703,3592.00
520.700,3602.75
521.696,3606.50
522.693,3617.00
523.689,3594.25
524.686,3637.50
525.682,3578.75
526.678,3617.50
527.674,3632.00
528.670,3682.50
529.666,3621.75
530.661,3660.75
531.657,3058.75
532.652,3638.50
533.648,3661.25
534.641,3671.25
535.636,3598.00
536.631,3657.25
537.626,3661.50
538.621,3677.25
539.616,3654.00
540.610,3666.50
541.605,3604.00
542.599,3561.75
543.593,3658.75
544.587,3664.50
545.581,3614.50
546.575,3600.75
547.569,3566.00
548.563,3674.75
549.557,3614.25
550.550,3685.25
551.543,3552.75
552.537,3603.25
553.530,3617.25
554.523,3624.50
555.516,3605.50
556.509,3594.00
557.502,3634.00
558.494,3578.75
559.487,3692.75
560.479,3649.50
561.472,3618.00
562.464,3625.75
563.456,3612.75
564.448,3614.00
565.440,3649.75
566.432,3641.25
567.423,3658.25
568.415,3612.00
569.404,3621.25
570.396,3670.75
571.387,3640.75
572.378,3644.25
573.369,3691.50
574.360,3694.50
575.351,3772.00
576.341,3742.75
577.332,3732.75
578.323,3725.25
579.313,3737.75
580.303,3731.25
581.293,3792.75
582.283,3779.25
583.273,3767.00
584.263,3786.50
585.253,3808.75
586.243,3888.00
587.232,3863.75
588.222,3889.00
589.211,3845.50
590.200,3949.00
591.189,3909.25
592.178,3881.25
593.167,3907.00
594.156,3910.50
595.145,3884.50
596.133,3914.75
597.122,3958.75
598.110,3949.50
599.098,3940.25
600.086,4005.75
601.074,4001.25
602.062,4046.50
603.050,4024.00
604.038,3964.00
605.025,3989.75
606.013,4074.25
607.000,3996.75
607.987,4039.25
608.975,3998.25
609.962,4019.00
610.949,3992.25
611.936,3970.00
612.922,3961.00
613.909,3975.75
614.895,3873.50
615.882,3906.25
616.868,3902.50
617.854,3822.50
618.841,3863.75
619.826,3825.50
620.812,3732.25
621.798,3729.00
622.784,3745.00
623.769,3654.00
624.755,3668.75
625.740,3578.25
626.725,3645.50
627.711,3642.25
628.698,3510.75
629.683,3546.25
630.667,3391.00
631.652,3491.00
632.637,3504.00
633.621,3471.25
634.606,3417.00
635.590,3395.75
636.574,3399.25
637.558,3393.00
638.542,3352.50
639.526,3312.25
640.510,3320.25
641.493,3298.00
642.477,3254.25
643.460,3272.50
644.444,3241.00
645.427,3192.00
646.410,3217.50
647.393,3235.00
648.376,3234.50
649.359,3162.25
650.341,3184.75
651.324,3109.50
652.307,3153.50
653.289,3168.50
654.271,3159.75
655.253,3119.50
656.235,3118.50
657.217,3100.75
658.199,3135.25
659.181,3150.50
660.163,3084.50
661.144,3077.50
662.126,3099.50
663.107,3122.00
664.088,3052.75
665.069,3041.25
666.050,3097.00
667.033,3033.50
668.014,3025.75
668.995,3046.00
669.975,2975.50
670.956,2989.25
671.936,3006.00
672.916,2935.00
673.896,2947.50
674.876,2935.25
675.856,2916.00
676.836,2883.00
677.816,2868.25
678.795,2885.25
679.775,2833.50
680.754,2847.25
681.734,2761.50
682.713,2841.25
683.692,2770.25
684.671,2819.00
685.650,2791.25
686.629,2714.25
687.607,2722.00
688.586,2696.00
689.564,2695.00
690.543,2678.00
691.523,2657.50
692.501,2626.75
693.479,2676.50
694.457,2524.00
695.435,2610.50
696.413,2592.50
697.390,2573.00
698.368,2610.00
699.345,2599.75
700.322,2565.50
701.300,2621.00
702.277,2576.50
703.254,2528.75
704.231,2511.50
705.207,2478.25
706.184,2488.75
707.161,2537.75
708.137,2487.00
709.113,2507.25
710.090,2450.00
711.068,2477.25
712.044,2492.25
713.020,2416.50
713.996,2458.25
714.971,2405.75
715.947,2404.00
716.922,2407.50
717.898,2441.25
718.873,2390.00
719.848,2372.00
720.823,2404.25
721.798,2440.50
722.773,2365.00
723.748,2339.50
724.723,2330.00
725.697,2373.00
726.672,2307.00
727.646,2405.25
728.622,2333.50
729.596,2380.25
730.570,2340.50
731.544,2317.25
732.518,2279.25
733.492,2313.75
734.466,2292.25
735.439,2301.50
736.413,2261.50
737.386,2278.75
738.359,2287.25
739.332,2320.25
740.305,2286.25
741.278,2246.75
742.251,2286.00
743.224,2248.25
744.196,2250.75
745.171,2208.25
746.143,2251.75
747.115,2236.25
748.087,2192.25
749.059,2216.25
750.031,2201.25
751.003,2133.25
751.975,2138.00
752.947,2164.75
753.918,2158.00
754.890,2131.00
755.861,2116.00
756.832,2150.25
757.803,2157.75
758.774,2105.25
759.747,2140.25
760.718,2101.25
761.689,2073.50
762.659,2141.50
763.630,2044.00
764.600,2039.75
765.570,2072.75
766.540,2072.50
767.510,2090.50
768.480,2042.50
769.450,2036.25
770.420,2062.75
771.390,2026.25
772.359,2036.50
773.329,2051.50
774.300,2065.50
775.269,1987.25
776.238,2008.50
777.207,2000.75
778.176,2014.75
779.145,1983.50
780.114,2013.25
781.083,1960.50
782.051,1952.25
783.019,2014.00
783.988,1959.25
784.956,1899.00
785.924,1973.50
786.894,1943.25
787.862,1935.50
788.830,1973.75
789.797,1937.50
790.765,1950.00
791.732,1886.75
792.700,1932.50
793.667,1921.75
794.634,1875.50
795.601,1914.75
796.568,1897.75
797.535,1938.00
798.502,1895.75
799.468,1900.50
800.437,1888.50
801.403,1857.00
802.370,1874.75
803.336,1854.00
804.302,1841.75
805.268,1831.25
806.234,1833.75
807.200,1839.75
808.166,1844.50
809.131,1827.75
810.097,1808.25
811.062,1798.25
812.027,1751.75
812.994,1802.50
813.960,1822.25
814.925,1780.25
815.889,1786.75
816.854,1748.75
817.819,1768.50
818.783,1761.25
819.748,1786.50
820.712,1839.75
821.677,1795.75
822.641,1804.75
823.605,1742.75
824.571,1813.75
825.534,1779.75
826.498,1755.00
827.462,1760.75
828.425,1717.00
829.389,1764.25
830.352,1755.00
831.315,1727.25
832.279,1756.75
833.242,1711.25
834.204,1759.00
835.167,1774.50
836.132,1790.50
837.095,1724.00
838.057,1725.25
839.020,1700.75
839.982,1753.25
840.944,1719.00
841.906,1726.25
842.868,1751.00
843.830,1684.50
844.792,1696.00
845.753,1710.75
846.715,1705.25
847.679,1685.75
848.640,1723.50
849.601,1703.50
850.562,1685.25
851.523,1725.25
852.484,1714.00
853.445,1652.50
854.406,1653.25
855.367,1687.75
856.327,1696.25
857.288,1672.50
858.248,1637.75
859.210,1669.75
860.170,1670.00
861.130,1665.25
862.090,1648.50
863.050,1651.25
864.010,1662.50
864.969,1714.50
865.929,1655.00
866.888,1613.50
867.848,1653.00
868.807,1655.00
869.766,1684.75
870.727,1652.75
871.686,1667.25
872.645,1635.75
873.604,1639.25
874.562,1658.00
875.521,1640.00
876.479,1645.75
877.437,1640.00
878.396,1680.25
879.354,1694.00
880.312,1621.75
881.270,1633.25
882.229,1658.75
883.187,1652.00
884.145,1629.75
885.102,1671.00
886.059,1589.50
887.017,1602.00
887.974,1629.50
888.931,1681.00
889.888,1639.50
890.845,1624.50
891.802,1616.00
892.758,1621.50
893.717,1663.25
894.673,1675.75
895.630,1646.75
896.586,1580.50
897.542,1602.50
898.498,1636.25
899.454,1652.50
900.410,1628.75
901.366,1661.75
902.321,552.25
903.277,1605.75
904.232,1595.00
905.189,1633.00
906.145,1670.00
907.100,1608.00
908.055,1646.75
909.010,1659.50
909.965,1677.50
910.919,1664.25
911.874,1640.50
912.828,1653.50
913.783,1641.75
914.737,1677.50
915.693,1639.50
916.648,1673.75
917.602,1635.25
918.555,1634.75
919.509,1662.50
920.463,1646.75
921.417,1660.25
922.370,1623.25
923.324,1605.75
924.277,1633.50
925.230,1673.00
926.183,1645.00
927.138,1669.25
928.091,1615.00
929.044,1643.50
929.996,1638.25
930.949,1656.50
931.902,1651.25
932.854,1679.75
933.806,1680.50
934.758,1651.00
935.711,1681.25
936.663,1706.00
937.614,1684.75
938.568,1683.75
939.520,1668.50
940.471,1652.50
941.423,1637.50
942.374,1665.25
943.326,1662.00
944.277,1652.75
945.228,1660.50
946.179,1623.25
947.130,1594.00
948.080,1656.50
949.031,1628.25
949.984,1607.00
950.934,1610.25
951.884,1644.25
952.835,1635.50
953.785,1652.00
954.735,1625.25
955.685,1641.25
956.635,1635.75
957.585,1634.25
958.534,1606.75
959.484,1619.00
960.433,1616.25
961.383,1635.00
962.334,1609.25
963.283,1647.25
964.232,1608.50
965.181,1616.25
966.130,1644.50
967.079,1635.00
968.027,1646.00
968.976,1608.50
969.924,1586.75
970.873,1610.00
971.821,1631.50
972.769,1589.50
973.719,1602.00
974.667,1620.25
975.615,1602.25
976.562,1611.50
977.510,1598.25
978.458,1589.50
979.405,1594.25
980.352,1601.00
981.300,1555.25
982.247,1573.00
983.194,1604.50
984.141,1603.50
985.088,1611.50
986.036,1616.25
986.983,1592.25
987.930,1520.50
988.876,1592.50
989.822,1584.25
990.769,1596.00
991.715,1608.00
992.661,1613.75
993.607,1574.25
994.553,1576.00
995.498,1635.75
996.444,1580.25
997.389,1562.00
998.337,1600.50
999.282,1630.50
1000.227,1585.50
1001.173,1501.75
1002.118,1543.50
1003.062,1582.75
1004.007,1552.25
1004.952,1543.25
1005.897,1596.25
1006.841,1563.75
1007.786,1551.25
1008.730,1568.25
1009.674,1580.00
1010.618,1572.00
1011.564,1529.25
1012.508,1588.50
1013.452,1537.25
1014.396,1535.25
1015.339,1560.50
1016.283,1568.00
1017.226,1579.50
1018.170,1547.50
1019.113,1562.25
1020.056,1551.75
1020.999,1536.50
1021.942,1583.75
1022.885,1531.25
1023.828,1539.00
1024.770,1547.50
1025.715,1573.75
1026.657,1549.75
1027.600,1484.25
1028.542,1551.50
1029.484,1586.50
1030.426,1564.00
1031.368,1524.75
1032.310,1571.75
1033.251,1551.50
1034.193,1562.75
1035.135,1579.50
1036.076,1568.00
1037.017,1573.00
1037.959,1596.75
1038.900,1544.00
1039.843,1488.50
1040.784,1591.25
1041.725,1578.50
1042.665,1591.25
1043.606,1575.00
1044.547,1553.50
1045.487,1582.00
1046.427,1569.75
1047.368,1527.00
1048.308,1590.50
1049.248,1583.50
1050.188,1558.75
1051.128,1614.25
1052.067,1592.50
1053.007,1588.75
1053.947,1578.75
1054.886,1600.75
1055.827,1591.00
1056.766,1576.75
1057.706,1613.00
1058.645,1620.00
1059.584,1626.25
1060.522,1607.50
1061.461,1642.25
1062.400,1593.75
1063.338,1609.00
1064.277,1612.50
1065.215,1594.25
1066.154,1645.25
1067.092,1628.50
1068.030,1616.75
1068.968,1571.75
1069.906,1581.25
1070.843,1622.25
1071.781,1640.25
1072.720,1641.25
1073.658,1641.00
1074.595,1620.00
1075.533,1612.25
1076.470,1672.25
1077.407,1628.25
1078.344,1635.00
1079.281,1676.75
1080.217,1625.50
1081.154,1609.00
1082.091,1638.75
1083.027,1636.75
1083.964,1602.00
1084.900,1668.50
1085.836,1640.50
1086.772,1642.00
1087.708,1637.00
1088.644,1568.25
1089.580,1616.25
1090.515,1578.50
1091.451,1614.50
1092.388,1593.50
1093.324,1651.25
1094.259,1588.25
1095.194,1625.25
1096.129,1590.50
1097.064,1596.25
1097.999,1638.25
1098.934,1587.25
1099.869,1626.00
1100.803,1546.50
1101.738,1540.75
1102.672,1590.25
1103.607,1577.00
1104.541,1575.75
1105.475,1599.50
1106.409,1540.75
1107.343,1554.25
1108.277,1575.00
1109.210,1559.25
1110.144,1510.75
1111.078,1525.00
1112.011,1555.00
1112.944,1515.50
1113.878,1560.50
1114.811,1539.50
1115.744,1479.00
1116.678,1519.75
1117.611,1522.75
1118.544,1488.25
1119.477,1513.75
1120.409,1487.50
1121.342,1501.00
1122.274,1472.50
1123.206,1444.00
1124.138,1494.00
1125.070,1465.25
1126.002,1489.25
1126.934,1463.50
1127.866,1459.50
1128.798,1461.75
1129.729,1424.25
1130.661,1400.25
1131.592,1441.75
1132.523,1438.50
1133.454,1432.00
1134.385,1420.25
1135.317,1443.50
1136.247,1417.00
1137.178,1360.75
1138.109,1412.00
1139.039,1402.00
1139.970,1367.50
1140.900,1395.25
1141.831,1390.75
1142.761,1404.25
1143.691,1669.75
1144.621,1362.25
1145.551,1357.75
1146.480,1357.75
1147.410,1406.75
1148.340,1367.00
1149.269,1375.00
1150.199,1370.25
1151.128,1409.00
1152.057,1367.25
1152.979,1364.50
1153.898,1376.25
1154.819,1341.00
1155.739,1351.50
1156.658,1351.75
1157.579,1323.75
1158.498,1376.00
1159.419,1337.75
1160.338,1397.50
1161.256,1345.00
1162.177,1326.75
1163.095,1302.00
1164.016,1355.25
1164.934,1318.50
1165.852,1298.25
1166.772,1317.00
1167.690,1375.75
1168.610,1316.50
1169.528,1349.75
1170.446,1320.00
1171.365,1367.50
1172.283,1306.75
1173.202,1292.25
1174.120,1334.00
1175.037,1335.50
1175.956,1332.25
1176.873,1286.25
1177.792,1289.00
1178.709,1269.25
1179.626,1292.50
1180.544,1299.75
1181.461,1332.25
1182.379,1280.25
1183.296,1337.25
1184.212,1302.75
1185.130,1294.50
1186.046,1306.25
1186.962,1269.00
1187.880,1254.00
1188.796,1311.00
1189.714,1292.00
1190.629,1264.75
1191.545,1274.50
1192.462,1255.75
1193.378,1252.25
1194.295,1274.00
1195.210,1304.00
1196.125,1319.50
1197.042,1265.00
1197.957,1282.00
1198.872,1262.75
1199.788,1295.75
1200.703,1276.00
1201.619,1257.50
1202.534,1254.75
1203.448,1267.75
1204.364,1271.25
1205.278,1326.50
1206.192,1260.50
1207.108,1324.00
1208.022,1255.00
1208.938,1278.75
1209.851,1273.00
1210.765,1306.50
1211.680,1268.75
1212.594,1283.00
1213.507,1290.75
1214.422,1267.25
1215.335,1263.75
1216.248,1284.00
1217.163,1293.75
1218.076,1316.75
1218.990,1306.50
1219.903,1270.75
1220.816,1250.75
1221.730,1256.25
1222.642,1284.00
1223.554,1292.75
1224.469,1260.75
1225.380,1301.75
1226.292,1263.00
1227.206,1304.50
1228.118,1273.75
1229.032,1343.00
1229.943,1307.50
1230.855,1311.25
1231.768,1279.75
1232.679,1234.50
1233.590,1275.75
1234.503,1328.50
1235.414,1284.50
1236.325,1265.00
1237.238,1299.75
1238.149,1338.75
1239.059,1282.50
1239.972,1296.50
1240.882,1330.50
1241.793,1284.00
1242.705,1286.75
1243.615,1304.25
1244.525,1303.75
1245.437,1270.25
1246.347,1290.50
1247.259,1286.00
1248.168,1275.00
1249.078,1292.00
1249.989,1300.50
1250.899,1277.25
1251.808,1307.00
1252.719,1309.00
1253.628,1290.00
1254.537,1313.25
1255.448,1295.50
1256.357,1270.75
1257.266,1283.25
1258.176,1315.00
1259.085,1304.75
1259.993,1299.50
1260.904,1295.25
1261.812,1278.75
1262.720,1296.50
1263.630,1305.25
1264.538,1291.25
1265.446,1266.25
1266.356,1317.00
1267.263,1297.00
1268.171,1341.50
1269.080,1312.00
1269.988,1291.00
1270.895,1345.50
1271.804,1284.50
1272.711,1324.50
1273.619,1296.75
1274.527,1301.50
1275.434,1289.50
1276.341,1274.75
1277.248,1261.75
1278.156,1300.00
1279.063,1300.50
1279.969,1317.50
1280.877,1272.00
1281.783,1302.25
1282.690,1314.00
1283.598,1283.25
1284.503,1266.50
1285.409,1265.50
1286.317,1300.00
1287.223,1271.25
1288.128,1314.75
1289.036,1237.50
1289.941,1294.75
1290.846,1272.75
1291.751,1245.00
1292.658,1271.75
1293.563,1296.75
1294.468,1312.00
1295.375,1303.25
1296.280,1253.50
1297.184,1262.00
1298.091,1247.25
1298.995,1268.75
1299.900,1281.25
1300.806,1279.75
1301.710,1239.75
1302.614,1274.75
1303.518,1253.75
1304.424,1263.00
1305.327,1276.75
1306.231,1292.00
1307.137,1231.50
1308.040,1261.75
1308.943,1212.50
1309.847,1233.25
1310.752,1275.50
1311.655,1245.00
1312.558,1248.50
1313.463,1202.75
1314.366,1202.00
1315.269,1250.25
1316.171,1164.50
1317.076,1186.50
1317.978,1180.00
1318.881,1191.50
1319.785,1219.00
1320.687,1170.25
1321.589,1209.25
1322.491,1179.75
1323.395,1180.00
1324.297,1160.50
1325.198,1208.00
1326.102,1205.25
1327.004,1217.00
1327.905,1208.75
1328.806,1181.75
1329.709,1199.50
1330.611,1167.50
1331.512,1154.75
1332.413,1150.75
1333.316,1185.00
1334.216,1185.75
1335.117,1161.25
1336.020,1144.75
1336.920,1162.25
1337.821,1190.00
1338.721,1165.25
1339.623,1154.75
1340.523,1149.00
1341.423,1152.25
1342.323,1174.25
1343.225,1134.25
1344.125,1112.00
1345.025,1126.00
1345.924,1118.75
1346.826,1105.00
1347.725,1135.00
1348.624,1172.00
1349.524,1119.50
1350.425,1130.25
1351.324,1099.25
1352.223,1109.50
1353.121,1143.25
1354.022,1097.50
1354.921,1113.25
1355.819,1124.75
1356.718,1102.25
1357.618,1094.00
1358.516,1080.50
1359.415,1072.00
1360.313,1066.00
1361.213,1099.25
1362.111,1093.25
1363.008,1129.50
1363.906,1057.50
1364.806,1101.00
1365.703,1116.75
1366.601,1083.50
1367.498,1063.00
1368.397,1110.50
1369.295,1091.50
1370.192,1126.00
1371.089,1061.50
1371.987,1064.50
1372.884,1092.25
1373.781,1079.25
1374.678,1034.50
1375.574,1066.50
1376.473,1088.75
1377.369,1053.25
1378.265,1034.25
1379.161,1042.00
1380.059,1045.75
1380.955,1073.25
1381.851,1034.00
1382.747,1020.25
1383.643,1047.50
1384.540,1064.25
1385.436,1037.25
1386.331,1050.50
1387.227,1047.25
1388.124,975.50
1389.019,1056.00
1389.914,1051.75
1390.809,1046.50
1391.704,972.50
1392.601,981.25
1393.495,1097.50
1394.390,1032.00
1395.285,1034.50
1396.179,1000.25
1397.075,1047.00
1397.969,976.50
1398.864,1007.50
1399.758,1070.75
1400.652,1013.25
1401.547,971.50
1402.441,967.00
1403.335,983.50
1404.229,1005.50
1405.122,1017.25
1406.017,1014.50
1406.911,1030.75
1407.804,969.50
1408.697,986.00
1409.590,1002.50
1410.485,1017.50
1411.378,1039.00
1412.271,1005.25
1413.163,973.00
1414.056,1023.50
1414.949,1019.50
1415.843,980.50
1416.735,991.00
1417.627,990.50
1418.520,1032.75
1419.412,992.50
1420.306,972.00
1421.197,1012.75
1422.089,959.25
1422.981,976.75
1423.873,954.25
1424.764,976.25
1425.657,1005.75
1426.549,972.75
1427.440,992.00
1428.331,959.25
1429.222,980.00
1430.113,944.50
1431.006,954.75
1431.897,968.50
1432.787,940.00
1433.678,966.25
1434.568,937.75
1435.459,929.00
1436.351,995.25
1437.241,942.25
1438.131,979.00
1439.021,960.25
1439.911,968.75
1440.801,971.25
1441.693,952.25
1442.583,943.25
1443.472,980.00
1444.362,988.00
1445.251,923.00
1446.140,973.25
1447.030,965.25
1447.921,931.75
1448.810,930.50
1449.699,956.75
1450.588,928.50
1451.476,884.00
1452.365,944.75
1453.254,953.25
1454.144,904.00
1455.032,945.25
1455.921,955.50
1456.809,890.75
1457.697,947.25
1458.585,900.25
1459.473,933.00
1460.361,951.25
1461.251,934.00
1462.138,920.25
1463.026,961.00
1463.913,969.25
1464.801,950.00
1465.688,918.00
1466.575,930.75
1467.463,940.00
1468.351,961.75
1469.238,949.50
1470.125,893.25
1471.012,955.25
1471.899,896.25
1472.785,867.75
1473.672,948.25
1474.558,894.00
1475.446,928.50
1476.333,914.75
1477.219,900.25
1478.105,893.00
1478.991,952.50
1479.877,865.50
1480.762,881.75
1481.648,869.00
1482.534,908.75
1483.419,889.25
1484.307,910.75
1485.192,868.75
1486.077,940.50
1486.962,906.25
1487.847,873.25
1488.732,891.75
1489.617,898.75
1490.502,896.50
1491.387,854.75
1492.271,891.50
1493.156,894.25
1494.042,867.00
1494.927,879.25
1495.811,869.50
1496.695,874.50
1497.579,847.75
1498.463,822.75
1499.347,817.25
1500.231,850.25
1501.114,893.75
1501.998,856.25
1502.881,860.00
1503.765,864.75
1504.648,826.00
1505.533,847.25
1506.417,833.00
1507.300,852.75
1508.183,854.25
1509.066,820.25
1509.948,849.00
1510.831,872.50
1511.714,848.00
1512.596,773.50
1513.479,840.75
1514.361,853.50
1515.243,822.25
1516.125,865.25
1517.008,811.25
1517.890,877.25
1518.771,825.25
1519.655,816.00
1520.537,862.00
1521.419,814.50
1522.300,824.75
1523.182,853.75
1524.063,808.25
1524.944,824.25
1525.825,812.00
1526.707,831.75
1527.588,814.00
1528.468,828.00
1529.349,833.00
1530.230,814.75
1531.111,844.25
1531.991,846.50
1532.872,861.75
1533.752,791.75
1534.632,811.00
1535.513,854.50
1536.393,809.75
1537.273,844.75
1538.153,786.25
1539.032,805.50
1539.912,830.50
1540.792,804.00
1541.672,817.50
1542.551,807.50
1543.430,797.50
1544.310,802.75
1545.189,884.75
1546.068,833.25
1546.947,794.50
1547.826,824.75
1548.705,790.00
1549.584,789.00
1550.462,805.75
1551.341,785.00
1552.219,789.25
1553.098,804.50
1553.976,815.50
1554.854,786.00
1555.733,808.25
1556.611,798.50
1557.489,794.50
1558.367,817.00
1559.244,799.25
1560.122,789.25
1561.000,797.50
1561.877,769.75
1562.755,802.25
1563.632,797.00
1564.509,763.75
1565.386,790.25
1566.264,779.75
1567.141,816.00
1568.017,770.00
1568.894,777.25
1569.771,763.75
1570.648,765.00
1571.524,785.75
1572.401,808.50
1573.277,791.00
1574.153,772.50
1575.029,795.50
1575.906,805.00
1576.781,761.50
1577.657,817.75
1578.533,760.50
1579.409,756.00
1580.285,756.25
1581.160,769.75
1582.036,767.75
1582.911,776.75
1583.786,719.50
1584.662,775.00
1585.537,792.25
1586.412,762.75
1587.287,816.75
1588.160,747.50
1589.035,761.25
1589.909,816.75
1590.784,768.25
1591.658,757.00
1592.533,784.75
1593.407,767.00
1594.281,747.50
1595.155,732.25
1596.029,771.50
1596.903,776.00
1597.777,734.75
1598.651,756.50
1599.525,735.75
1600.398,729.75
1601.272,777.50
1602.144,800.00
1603.017,747.50
1603.890,769.25
1604.763,741.75
1605.636,786.50
1606.509,774.25
1607.382,731.50
1608.255,764.25
1609.128,746.00
1610.000,762.00
1610.873,732.50
1611.746,739.25
1612.616,730.25
1613.488,733.50
1614.361,774.50
1615.233,760.75
1616.105,748.00
1616.977,734.25
1617.849,705.75
1618.720,743.50
1619.592,744.00
1620.464,751.75
1621.333,756.75
1622.205,779.75
1623.076,747.25
1623.947,724.75
1624.818,713.25
1625.689,733.00
1626.560,735.00
1627.431,710.25
1628.302,726.75
1629.171,692.00
1630.042,730.50
1630.912,769.25
1631.782,790.00
1632.653,715.00
1633.523,720.00
1634.393,740.75
1635.263,767.00
1636.131,758.50
1637.001,751.00
1637.871,740.50
1638.741,743.25
1639.611,696.75
1640.480,752.00
1641.350,747.25
1642.219,708.50
1643.087,751.25
1643.956,735.50
1644.825,701.25
1645.694,698.00
1646.563,701.75
1647.432,791.25
1648.299,745.00
1649.167,707.00
1650.036,729.50
1650.904,676.00
1651.773,743.00
1652.641,744.25
1653.509,709.00
1654.376,734.50
1655.244,731.25
1656.112,707.25
1656.980,743.50
1657.847,728.75
1658.715,723.25
1659.581,728.00
1660.448,727.00
1661.316,748.50
1662.183,754.00
1663.051,699.25
1663.918,736.50
1664.783,692.25
1665.650,707.75
1666.517,746.75
1667.384,718.25
1668.251,729.50
1669.115,726.00
1669.982,744.75
1670.849,691.00
1671.715,709.00
1672.581,691.75
1673.446,730.00
1674.312,694.75
1675.178,683.25
1676.044,733.50
1676.910,686.00
1677.774,680.50
1678.639,654.00
1679.505,694.75
1680.370,736.25
1681.236,694.50
1682.099,720.25
1682.965,755.75
1683.830,719.00
1684.695,674.00
1685.560,697.25
1686.423,740.75
1687.288,722.75
1688.153,690.50
1689.017,655.00
1689.880,704.75
1690.745,691.00
1691.609,682.25
1692.473,696.25
1693.338,674.00
1694.200,694.00
1695.064,704.75
1695.928,700.25
1696.792,707.75
1697.654,712.75
1698.517,679.75
1699.381,670.75
1700.245,664.75
1701.106,738.00
1701.969,698.50
1702.833,699.75
1703.696,671.75
1704.557,653.25
1705.420,683.75
1706.283,726.75
1707.146,677.00
1708.007,715.00
1708.870,645.50
1709.732,648.50
1710.595,721.00
1711.455,691.75
1712.318,684.50
1713.180,683.75
1714.040,687.50
1714.902,677.50
1715.764,712.75
1716.626,671.25
1717.486,703.25
1718.348,684.50
1719.209,1460.50
1720.071,696.50
1720.930,712.25
1721.792,696.75
1722.653,675.50
1723.512,664.75
1724.374,651.50
1725.234,696.75
1726.095,669.00
1726.954,709.75
1727.815,697.50
1728.676,692.00
1729.535,698.25
1730.395,677.00
1731.256,695.50
1732.114,662.25
1732.974,671.75
1733.834,665.00
1734.693,659.50
1735.553,693.25
1736.413,660.50
1737.272,693.75
1738.130,698.50
1738.990,706.75
1739.849,658.75
1740.707,625.50
1741.566,658.25
1742.426,649.50
1743.283,721.75
1744.142,643.75
1745.001,664.25
1745.858,673.75
1746.717,690.50
1747.576,639.25
1748.433,670.00
1749.292,654.00
1750.150,673.75
1751.007,687.75
1751.865,688.00
1752.723,701.75
1753.579,695.50
1754.438,691.25
1755.296,658.25
1756.152,652.50
1757.010,670.00
1757.865,675.75
1758.723,650.75
1759.581,661.00
1760.436,670.00
1761.294,665.50
1762.151,654.50
1763.006,683.25
1763.864,690.00
1764.721,642.75
1765.576,681.50
1766.433,673.75
1767.288,682.00
1768.144,654.50
1769.001,696.00
1769.856,685.00
1770.712,671.00
1771.568,665.25
1772.423,660.75
1773.279,608.50
1774.133,652.50
1774.989,704.25
1775.845,707.75
1776.699,640.25
1777.555,595.75
1778.409,665.25
1779.265,675.00
1780.120,668.00
1780.974,678.25
1781.829,671.00
1782.682,650.50
1783.538,642.25
1784.393,628.75
1785.246,645.50
1786.101,663.50
1786.954,680.75
1787.808,679.25
1788.661,671.50
1789.516,674.75
1790.370,667.75
1791.223,657.50
1792.077,651.25
1792.930,629.50
1793.784,685.25
1794.636,641.75
1795.490,640.00
1796.344,658.00
1797.196,668.00
1798.049,674.25
1798.901,671.25
1799.755,658.25
1800.606,656.75
1801.460,680.25
1802.311,631.00
1803.165,639.25
1804.018,648.25
1804.869,660.25
1805.722,653.50
1806.573,675.75
1807.426,651.75
1808.276,636.25
1809.129,672.50
1809.980,667.25
1810.832,681.00
1811.683,649.25
1812.535,659.75
1813.385,628.25
1814.237,614.75
1815.089,644.50
1815.940,672.50
1816.791,644.75
1817.641,680.00
1818.493,648.50
1819.343,636.50
1820.194,643.75
1821.044,679.75
1821.895,666.75
1822.745,642.50
1823.596,649.75
1824.445,638.00
1825.296,609.75
1826.145,620.00
1826.996,635.50
1827.845,652.00
1828.695,633.25
1829.544,629.25
1830.395,670.50
1831.243,644.50
1832.094,646.25
1832.942,607.75
1833.792,641.75
1834.640,636.50
1835.490,665.00
1836.338,637.75
1837.186,652.00
1838.036,606.75
1838.884,683.75
1839.733,627.50
1840.581,624.25
1841.430,631.50
1842.278,639.25
1843.127,634.00
1843.974,651.50
1844.823,587.00
1845.671,619.00
1846.519,646.75
1847.366,601.50
1848.213,620.50
1849.062,626.25
1849.909,661.25
1850.757,603.25
1851.604,612.25
1852.452,654.75
1853.298,620.00
1854.146,641.00
1854.993,671.00
1855.839,592.00
1856.687,592.00
1857.532,607.25
1858.380,650.50
1859.226,666.25
1860.073,612.50
1860.919,629.50
1861.765,646.00
1862.612,654.50
1863.457,615.25
1864.304,636.50
1865.150,605.00
1865.995,645.75
1866.842,607.50
1867.686,623.25
1868.533,614.75
1869.378,626.50
1870.223,583.00
1871.069,636.50
1871.914,611.25
1872.760,590.25
1873.604,604.75
1874.448,598.75
1875.294,597.25
1876.139,600.25
1876.984,637.75
1877.828,591.25
1878.672,626.00
1879.518,589.25
1880.361,642.00
1881.205,626.00
1882.050,562.25
1882.894,654.00
1883.739,593.50
1884.582,614.50
1885.425,602.50
1886.270,628.50
1887.113,636.75
1887.956,624.00
1888.801,591.25
1889.644,619.50
1890.486,614.50
1891.331,617.25
1892.173,635.50
1893.017,594.25
1893.860,610.00
1894.702,621.25
1895.546,634.00
1896.388,630.25
1897.230,628.50
1898.074,596.25
1898.916,631.00
1899.757,575.50
1900.601,583.00
1901.443,601.50
1902.284,630.00
1903.125,595.75
1903.969,648.50
1904.810,620.50
1905.651,602.25
1906.494,588.00
1907.335,645.00
1908.176,647.50
1909.018,589.00
1909.859,636.25
1910.700,614.50
1911.542,550.50
1912.383,605.00
1913.223,632.00
1914.064,602.75
1914.906,594.00
1915.746,594.75
1916.586,577.75
1917.428,603.25
1918.268,598.75
1919.107,630.50
1919.947,586.25
1920.789,594.75
1921.628,619.50
1922.468,636.75
1923.309,623.25
1924.148,555.25
1924.988,592.25
1925.827,626.25
1926.667,617.00
1927.507,643.75
1928.345,617.25
1929.184,592.00
1930.025,618.25
1930.864,642.00
1931.702,611.00
1932.541,613.25
1933.381,579.00
1934.219,608.00
1935.057,622.50
1935.896,605.00
1936.735,610.75
1937.573,606.25
1938.411,630.25
1939.249,612.50
1940.089,579.25
1940.927,595.00
1941.764,636.25
1942.602,634.75
1943.439,606.25
1944.278,594.50
1945.115,618.00
1945.953,574.00
1946.790,633.25
1947.628,587.00
1948.465,594.75
1949.302,611.50
1950.139,560.50
1950.976,584.00
1951.814,609.50
1952.651,584.50
1953.487,606.75
1954.323,636.50
1955.160,582.50
1955.998,605.75
1956.834,597.50
1957.670,626.75
1958.506,581.50
1959.342,626.75
1960.177,597.75
1961.015,629.75
1961.850,601.25
1962.686,611.50
1963.521,589.00
1964.357,571.50
1965.192,600.00
1966.029,636.00
1966.864,579.50
1967.699,598.25
1968.534,607.50
1969.369,598.75
1970.204,607.75
1971.040,605.50
1971.875,636.25
1972.709,563.25
1973.544,590.00
1974.378,599.00
1975.212,613.75
1976.047,565.00
1976.882,631.75
1977.716,597.25
1978.550,606.25
1979.384,585.25
1980.218,624.00
1981.052,586.00
1981.885,599.00
1982.719,606.75
1983.554,553.50
1984.388,589.00
1985.221,617.75
1986.054,599.50
1986.887,611.00
1987.720,611.75
1988.553,607.25
1989.386,556.00
1990.219,607.00
1991.053,571.50
1991.886,606.50
1992.719,572.25
1993.551,634.25
1994.383,603.50
1995.216,595.75
1996.048,575.50
1996.880,590.00
1997.712,595.00
1998.544,580.25
1999.376,591.25
2000.208,608.75
2001.040,530.75
2001.873,595.25
2002.705,632.75
2003.536,564.50
2004.367,621.25
2005.199,598.25
2006.030,557.75
2006.861,566.25
2007.692,592.75
2008.523,609.00
2009.354,582.50
2010.185,578.25
2011.016,593.00
2011.846,564.00
2012.677,608.75
2013.507,548.25
2014.338,620.25
2015.168,582.25
2015.999,616.00
2016.829,568.25
2017.659,585.25
2018.489,586.00
2019.319,580.50
2020.149,575.50
2020.980,555.75
2021.810,594.75
2022.639,572.75
2023.469,603.50
2024.298,593.75
2025.128,621.00
2025.957,608.25
2026.786,584.50
2027.615,622.25
2028.444,609.00
2029.273,562.50
2030.102,591.25
2030.931,623.25
2031.758,593.50
2032.586,642.25
2033.415,590.50
2034.243,628.25
2035.072,635.50
2035.900,602.25
2036.728,582.75
2037.556,608.25
2038.385,596.00
2039.213,618.25
2040.040,576.25
2040.868,614.00
2041.696,621.00
2042.524,602.00
2043.351,586.75
2044.179,607.00
2045.006,588.25
2045.006,588.25

Max Intensity Wave.,219.929
Max Intensity Data,5903.00
Min Intensity Wave.,2001.040
Min Intensity Data,530.75
FWHM Wave.,601.640
FWHM Value,32.19
Pressure Wave.,684.671
Pressure Value [GPa],-24.91530
G/D Ratio,0.68369
G/D Gband Wave.,1545.289
G/D Gband Intensity,885.62
G/D Dband Wave.,1305.962
G/D Dband Intensity,1295.36

<< BACKGROUND SPECTRUM >>
Wave[dcm-1],No161
146.591,2274.00
147.626,2122.00
148.664,2091.00
149.699,2542.00
150.737,2329.00
151.772,2436.00
152.809,2400.00
153.846,2326.00
154.881,2404.00
155.918,1967.00
156.953,2309.00
157.989,2620.00
159.026,2493.00
160.060,2672.00
161.096,2850.00
162.130,2530.00
163.167,2621.00
164.200,2474.00
165.236,2700.00
166.272,2748.00
167.305,2320.00
168.341,2522.00
169.374,2804.00
170.409,2820.00
171.445,2785.00
172.477,2537.00
173.512,2425.00
174.545,2753.00
175.580,2884.00
176.614,3091.00
177.647,2830.00
178.681,3079.00
179.713,3386.00
180.747,2841.00
181.781,2779.00
182.813,3040.00
183.847,3134.00
184.878,2737.00
185.912,3007.00
186.945,3119.00
187.976,3092.00
189.010,2745.00
190.043,2870.00
191.073,2947.00
192.106,2778.00
193.137,3233.00
194.170,2570.00
195.202,2921.00
196.232,2734.00
197.265,3012.00
198.297,3127.00
199.327,2796.00
200.359,3018.00
201.388,3364.00
202.420,2920.00
203.452,3127.00
204.481,2684.00
205.512,3329.00
206.544,3101.00
207.573,3072.00
208.604,3406.00
209.635,3560.00
210.663,2962.00
211.694,2990.00
212.725,2864.00
213.753,2841.00
214.783,3420.00
215.813,3269.00
216.841,2997.00
217.871,3205.00
218.899,2943.00
219.929,3172.00
220.959,2899.00
221.986,3174.00
223.016,2783.00
224.045,3183.00
225.072,3145.00
226.101,3250.00
227.130,3296.00
228.157,2866.00
229.185,2358.00
230.214,3183.00
231.241,2824.00
232.269,2476.00
233.297,2712.00
234.323,3285.00
235.351,2847.00
236.379,3169.00
237.407,2792.00
238.433,2940.00
239.460,3167.00
240.488,3143.00
241.513,3230.00
242.540,3145.00
243.568,3269.00
244.592,3290.00
245.619,3198.00
246.646,2985.00
247.671,3015.00
248.697,2878.00
249.724,3069.00
250.748,3009.00
251.774,3035.00
252.801,3362.00
253.827,3144.00
254.850,3142.00
255.876,2730.00
256.902,3151.00
257.925,3025.00
258.951,2749.00
259.976,2813.00
260.999,3125.00
262.024,2811.00
263.049,3690.00
264.074,3174.00
265.097,3023.00
266.122,3106.00
267.146,3079.00
268.168,3265.00
269.193,2856.00
270.217,3226.00
271.241,2736.00
272.263,2878.00
273.287,3202.00
274.311,2793.00
275.332,3332.00
276.356,2896.00
277.379,3117.00
278.402,3189.00
279.424,2963.00
280.447,2960.00
281.470,2772.00
282.492,3107.00
283.513,2938.00
284.536,3202.00
285.558,3185.00
286.581,3136.00
287.601,2886.00
288.623,2824.00
289.645,3045.00
290.665,3166.00
291.687,3169.00
292.709,3157.00
293.730,3452.00
294.750,2954.00
295.771,2760.00
296.792,3151.00
297.813,2935.00
298.832,3029.00
299.853,2769.00
300.874,2980.00
301.895,3010.00
302.913,3015.00
303.934,3326.00
304.954,3102.00
305.975,3216.00
306.993,2737.00
308.013,3170.00
309.033,3037.00
310.052,3016.00
311.072,2920.00
312.090,3078.00
313.109,3301.00
314.129,3427.00
315.148,3008.00
316.165,3108.00
317.184,3277.00
318.203,2734.00
319.222,2759.00
320.238,3168.00
321.257,2901.00
322.275,2723.00
323.294,3012.00
324.312,3159.00
325.328,3309.00
326.346,3347.00
327.364,3282.00
328.382,3217.00
329.397,3178.00
330.415,3275.00
331.432,3262.00
332.450,3280.00
333.467,3506.00
334.482,2608.00
335.499,3403.00
336.516,2881.00
337.533,2557.00
338.547,2905.00
339.564,2877.00
340.580,3118.00
341.597,2998.00
342.613,3459.00
343.627,2995.00
344.643,3022.00
345.659,3108.00
346.675,2993.00
347.690,2954.00
348.704,3091.00
349.719,2913.00
350.735,2772.00
351.750,3247.00
352.765,3056.00
353.778,3022.00
354.793,3162.00
355.808,2876.00
356.822,3207.00
357.837,2717.00
358.851,3289.00
359.864,2972.00
360.878,2741.00
361.892,2955.00
362.906,3174.00
363.920,2615.00
364.932,3137.00
365.945,3071.00
366.959,3038.00
367.972,2997.00
368.986,2699.00
369.999,3415.00
371.010,2870.00
372.023,3433.00
373.036,2970.00
374.049,3414.00
375.061,3087.00
376.072,3033.00
377.084,2918.00
378.097,2724.00
379.109,3216.00
380.121,3027.00
381.133,2707.00
382.143,3192.00
383.155,2769.00
384.166,2925.00
385.178,3127.00
386.189,3223.00
387.201,2773.00
388.212,2970.00
389.221,2939.00
390.232,3055.00
391.243,2922.00
392.254,3070.00
393.264,2829.00
394.275,3210.00
395.283,3218.00
396.294,3660.00
397.304,3516.00
398.314,3167.00
399.324,3033.00
400.334,2708.00
401.344,3181.00
402.351,2688.00
403.361,3267.00
404.370,2978.00
405.380,2960.00
406.389,3391.00
407.398,3153.00
408.407,3130.00
409.414,3209.00
410.423,3329.00
411.431,2806.00
412.440,2707.00
413.448,3392.00
414.457,2902.00
415.465,2819.00
416.471,2929.00
417.479,3011.00
418.487,2845.00
419.495,3308.00
420.503,3110.00
421.510,2646.00
422.518,3175.00
423.525,3214.00
424.530,3464.00
425.537,2908.00
426.544,3264.00
427.551,2899.00
428.558,3604.00
429.565,3497.00
430.571,2860.00
431.578,2924.00
432.582,2907.00
433.588,2965.00
434.595,2618.00
435.601,3365.00
436.607,3316.00
437.612,2782.00
438.618,3354.00
439.624,2985.00
440.627,2962.00
441.633,3152.00
442.638,3605.00
443.643,3120.00
444.648,3075.00
445.653,3244.00
446.658,2913.00
447.663,3051.00
448.667,2905.00
449.672,2950.00
450.674,2996.00
451.678,2750.00
452.682,2914.00
453.687,2907.00
454.690,3600.00
455.694,3333.00
456.698,2576.00
457.702,2680.00
458.705,2835.00
459.709,2837.00
460.710,2918.00
461.713,3088.00
462.716,3128.00
463.719,3023.00
464.722,3266.00
465.725,2953.00
466.727,2908.00
467.730,3060.00
468.732,2794.00
469.735,3308.00
470.737,2971.00
471.737,2904.00
472.739,2936.00
473.741,2849.00
474.742,3105.00
475.744,3127.00
476.746,3072.00
477.747,2948.00
478.748,3215.00
479.750,2955.00
480.751,3050.00
481.752,3792.00
482.753,3112.00
483.751,3566.00
484.752,2638.00
485.753,3013.00
486.753,2889.00
487.753,3029.00
488.754,3433.00
489.754,2748.00
490.754,3327.00
491.754,3142.00
492.754,2687.00
493.753,3050.00
494.753,2933.00
495.752,3359.00
496.752,3041.00
497.749,2990.00
498.748,2893.00
499.747,3447.00
500.746,3134.00
501.745,2782.00
502.744,2792.00
503.742,3350.00
504.741,2938.00
505.739,2517.00
506.737,2905.00
507.735,3165.00
508.734,3408.00
509.732,3132.00
510.729,3387.00
511.727,2898.00
512.725,2906.00
513.720,2797.00
514.718,3273.00
515.715,2710.00
516.712,2648.00
517.709,3009.00
518.706,2951.00
519.703,3074.00
520.700,3217.00
521.696,3401.00
522.693,2959.00
523.689,2887.00
524.686,3169.00
525.682,2838.00
526.678,3494.00
527.674,2966.00
528.670,2599.00
529.666,3527.00
530.661,3452.00
531.657,3729.00
532.652,3201.00
533.648,3023.00
534.641,3226.00
535.636,3085.00
536.631,3130.00
537.626,3159.00
538.621,2759.00
539.616,2632.00
540.610,2534.00
541.605,3044.00
542.599,3142.00
543.593,2998.00
544.587,3909.00
545.581,2888.00
546.575,3080.00
547.569,3077.00
548.563,2680.00
549.557,2686.00
550.550,2748.00
551.543,2785.00
552.537,3167.00
553.530,2788.00
554.523,2769.00
555.516,3140.00
556.509,2978.00
557.502,2631.00
558.494,3228.00
559.487,2899.00
560.479,3181.00
561.472,3257.00
562.464,3143.00
563.456,3329.00
564.448,2974.00
565.440,3022.00
566.432,3386.00
567.423,2879.00
568.415,2947.00
569.404,3168.00
570.396,2840.00
571.387,3148.00
572.378,3090.00
573.369,3971.00
574.360,3721.00
575.351,2969.00
576.341,2841.00
577.332,2901.00
578.323,2718.00
579.313,2919.00
580.303,3294.00
581.293,3167.00
582.283,3019.00
583.273,3149.00
584.263,3063.00
585.253,3141.00
586.243,3167.00
587.232,2655.00
588.222,2979.00
589.211,3210.00
590.200,3066.00
591.189,2966.00
592.178,2986.00
593.167,3450.00
594.156,3309.00
595.145,2941.00
596.133,3509.00
597.122,3132.00
598.110,3245.00
599.098,3107.00
600.086,2986.00
601.074,3215.00
602.062,2845.00
603.050,2763.00
604.038,3171.00
605.025,2824.00
606.013,3183.00
607.000,3419.00
607.987,3050.00
608.975,3087.00
609.962,2781.00
610.949,3162.00
611.936,3299.00
612.922,3169.00
613.909,2715.00
614.895,3370.00
615.882,2832.00
616.868,3026.00
617.854,2803.00
618.841,2994.00
619.826,3128.00
620.812,3029.00
621.798,2829.00
622.784,3162.00
623.769,3137.00
624.755,2716.00
625.740,3110.00
626.725,2711.00
627.711,2816.00
628.698,3102.00
629.683,2796.00
630.667,3240.00
631.652,2786.00
632.637,2941.00
633.621,3172.00
634.606,2960.00
635.590,3144.00
636.574,2952.00
637.558,3058.00
638.542,3044.00
639.526,2857.00
640.510,2597.00
641.493,3053.00
642.477,3025.00
643.460,2712.00
644.444,3258.00
645.427,3315.00
646.410,2666.00
647.393,2975.00
648.376,3057.00
649.359,2945.00
650.341,3074.00
651.324,3149.00
652.307,3062.00
653.289,2955.00
654.271,2874.00
655.253,2909.00
656.235,3146.00
657.217,3264.00
658.199,2654.00
659.181,2749.00
660.163,3027.00
661.144,2909.00
662.126,2888.00
663.107,2792.00
664.088,4743.00
665.069,3254.00
666.050,2798.00
667.033,2713.00
668.014,3049.00
668.995,2575.00
669.975,3033.00
670.956,3020.00
671.936,3143.00
672.916,2991.00
673.896,3118.00
674.876,2930.00
675.856,2853.00
676.836,2767.00
677.816,2338.00
678.795,2820.00
679.775,2721.00
680.754,3051.00
681.734,3167.00
682.713,3132.00
683.692,2789.00
684.671,2611.00
685.650,2758.00
686.629,2874.00
687.607,2768.00
688.586,2798.00
689.564,2855.00
690.543,3261.00
691.523,2396.00
692.501,2849.00
693.479,2897.00
694.457,2866.00
695.435,2890.00
696.413,2681.00
697.390,2558.00
698.368,2671.00
699.345,3108.00
700.322,2944.00
701.300,3059.00
702.277,3033.00
703.254,3283.00
704.231,2609.00
705.207,2997.00
706.184,2819.00
707.161,2650.00
708.137,2883.00
709.113,2787.00
710.090,2843.00
711.068,2618.00
712.044,2600.00
713.020,2930.00
713.996,2602.00
714.971,2830.00
715.947,2873.00
716.922,2836.00
717.898,2704.00
718.873,2888.00
719.848,2765.00
720.823,2730.00
721.798,2965.00
722.773,2765.00
723.748,2545.00
724.723,3070.00
725.697,2849.00
726.672,2783.00
727.646,2494.00
728.622,2987.00
729.596,2613.00
730.570,2770.00
731.544,3094.00
732.518,3309.00
733.492,2802.00
734.466,2898.00
735.439,3016.00
736.413,3141.00
737.386,2495.00
738.359,2417.00
739.332,2512.00
740.305,2877.00
741.278,3342.00
742.251,2911.00
743.224,2742.00
744.196,2548.00
745.171,3162.00
746.143,3040.00
747.115,2778.00
748.087,2760.00
749.059,3113.00
750.031,2924.00
751.003,3756.00
751.975,3296.00
752.947,2728.00
753.918,3110.00
754.890,2613.00
755.861,2797.00
756.832,3068.00
757.803,2824.00
758.774,2876.00
759.747,2611.00
760.718,3214.00
761.689,2748.00
762.659,2593.00
763.630,3197.00
764.600,2622.00
765.570,3064.00
766.540,3145.00
767.510,2951.00
768.480,3059.00
769.450,2756.00
770.420,2828.00
771.390,2650.00
772.359,2755.00
773.329,2654.00
774.300,2485.00
775.269,2764.00
776.238,3013.00
777.207,3158.00
778.176,2517.00
779.145,2791.00
780.114,2672.00
781.083,2594.00
782.051,2800.00
783.019,2655.00
783.988,3102.00
784.956,2889.00
785.924,2956.00
786.894,2888.00
787.862,2731.00
788.830,3109.00
789.797,2627.00
790.765,2581.00
791.732,2789.00
792.700,2655.00
793.667,2594.00
794.634,2778.00
795.601,2734.00
796.568,2814.00
797.535,2827.00
798.502,3432.00
799.468,2901.00
800.437,2405.00
801.403,2681.00
802.370,3295.00
803.336,3009.00
804.302,2882.00
805.268,2478.00
806.234,2578.00
807.200,2750.00
808.166,2779.00
809.131,2580.00
810.097,3013.00
811.062,3672.00
812.027,3068.00
812.994,2623.00
813.960,2600.00
814.925,2974.00
815.889,2545.00
816.854,3076.00
817.819,2663.00
818.783,2744.00
819.748,3105.00
820.712,2730.00
821.677,2636.00
822.641,2694.00
823.605,2752.00
824.571,3118.00
825.534,2760.00
826.498,2696.00
827.462,2832.00
828.425,2669.00
829.389,3041.00
830.352,2821.00
831.315,2960.00
832.279,2505.00
833.242,2794.00
834.204,2646.00
835.167,2638.00
836.132,3045.00
837.095,2534.00
838.057,2725.00
839.020,2840.00
839.982,2856.00
840.944,2694.00
841.906,2636.00
842.868,2959.00
843.830,2576.00
844.792,3061.00
845.753,2692.00
846.715,2449.00
847.679,2634.00
848.640,2617.00
849.601,2754.00
850.562,3281.00
851.523,2710.00
852.484,2476.00
853.445,3023.00
854.406,2752.00
855.367,2743.00
856.327,3025.00
857.288,2525.00
858.248,2698.00
859.210,2696.00
860.170,2551.00
861.130,3035.00
862.090,2442.00
863.050,2616.00
864.010,2696.00
864.969,2863.00
865.929,2607.00
866.888,2564.00
867.848,2824.00
868.807,2685.00
869.766,2839.00
870.727,2734.00
871.686,2988.00
872.645,3017.00
873.604,3311.00
874.562,2758.00
875.521,2800.00
876.479,3360.00
877.437,2614.00
878.396,2563.00
879.354,3120.00
880.312,2636.00
881.270,2669.00
882.229,3121.00
883.187,2623.00
884.145,2689.00
885.102,2921.00
886.059,2874.00
887.017,2910.00
887.974,2958.00
888.931,3070.00
889.888,2506.00
890.845,2433.00
891.802,2353.00
892.758,2656.00
893.717,2429.00
894.673,2548.00
895.630,2615.00
896.586,2939.00
897.542,2716.00
898.498,2550.00
899.454,2856.00
900.410,2703.00
901.366,2647.00
902.321,3780.00
903.277,2712.00
904.232,2788.00
905.189,2478.00
906.145,2622.00
907.100,2236.00
908.055,2700.00
909.010,2928.00
909.965,2329.00
910.919,2769.00
911.874,2565.00
912.828,2768.00
913.783,2780.00
914.737,2327.00
915.693,2782.00
916.648,2887.00
917.602,2961.00
918.555,2793.00
919.509,2867.00
920.463,2761.00
921.417,2754.00
922.370,2594.00
923.324,2742.00
924.277,2694.00
925.230,2762.00
926.183,2417.00
927.138,2673.00
928.091,3009.00
929.044,2832.00
929.996,2692.00
930.949,2674.00
931.902,2851.00
932.854,2815.00
933.806,2600.00
934.758,2973.00
935.711,2973.00
936.663,2751.00
937.614,2774.00
938.568,2721.00
939.520,2386.00
940.471,2722.00
941.423,2775.00
942.374,2920.00
943.326,2754.00
944.277,2617.00
945.228,2837.00
946.179,2695.00
947.130,3088.00
948.080,2680.00
949.031,2578.00
949.984,2742.00
950.934,2726.00
951.884,2488.00
952.835,2713.00
953.785,2741.00
954.735,2617.00
955.685,2365.00
956.635,2629.00
957.585,2658.00
958.534,2655.00
959.484,2779.00
960.433,2622.00
961.383,2482.00
962.334,2981.00
963.283,2795.00
964.232,2851.00
965.181,2729.00
966.130,2768.00
967.079,2618.00
968.027,2703.00
968.976,2738.00
969.924,2638.00
970.873,2804.00
971.821,2729.00
972.769,2943.00
973.719,2857.00
974.667,2500.00
975.615,2708.00
976.562,2739.00
977.510,2446.00
978.458,2622.00
979.405,2845.00
980.352,2768.00
981.300,2999.00
982.247,2813.00
983.194,2536.00
984.141,2642.00
985.088,2752.00
986.036,2754.00
986.983,2998.00
987.930,3164.00
988.876,2380.00
989.822,2969.00
990.769,2537.00
991.715,2592.00
992.661,2428.00
993.607,2820.00
994.553,3267.00
995.498,2558.00
996.444,2288.00
997.389,2801.00
998.337,2529.00
999.282,2847.00
1000.227,2657.00
1001.173,2712.00
1002.118,2482.00
1003.062,2891.00
1004.007,2707.00
1004.952,3010.00
1005.897,2905.00
1006.841,2700.00
1007.786,2467.00
1008.730,2422.00
1009.674,3169.00
1010.618,2622.00
1011.564,2521.00
1012.508,2378.00
1013.452,2936.00
1014.396,2731.00
1015.339,2613.00
1016.283,2703.00
1017.226,2740.00
1018.170,2697.00
1019.113,2890.00
1020.056,2727.00
1020.999,2747.00
1021.942,2576.00
1022.885,2859.00
1023.828,2993.00
1024.770,2523.00
1025.715,2722.00
1026.657,2689.00
1027.600,2799.00
1028.542,2931.00
1029.484,2727.00
1030.426,2860.00
1031.368,2807.00
1032.310,2582.00
1033.251,2554.00
1034.193,2690.00
1035.135,2504.00
1036.076,2607.00
1037.017,2517.00
1037.959,2800.00
1038.900,2789.00
1039.843,2845.00
1040.784,2723.00
1041.725,2787.00
1042.665,2600.00
1043.606,2731.00
1044.547,2771.00
1045.487,2363.00
1046.427,2663.00
1047.368,2805.00
1048.308,2227.00
1049.248,2530.00
1050.188,2687.00
1051.128,2583.00
1052.067,2650.00
1053.007,2415.00
1053.947,2384.00
1054.886,2546.00
1055.827,2474.00
1056.766,2961.00
1057.706,2447.00
1058.645,2645.00
1059.584,2721.00
1060.522,2953.00
1061.461,2418.00
1062.400,2455.00
1063.338,2639.00
1064.277,2510.00
1065.215,2523.00
1066.154,2376.00
1067.092,2578.00
1068.030,2635.00
1068.968,2888.00
1069.906,3030.00
1070.843,2941.00
1071.781,2736.00
1072.720,2823.00
1073.658,2829.00
1074.595,2600.00
1075.533,2578.00
1076.470,2565.00
1077.407,2999.00
1078.344,2739.00
1079.281,2772.00
1080.217,2313.00
1081.154,2687.00
1082.091,2730.00
1083.027,2463.00
1083.964,2945.00
1084.900,2543.00
1085.836,2587.00
1086.772,2853.00
1087.708,2482.00
1088.644,2879.00
1089.580,2702.00
1090.515,2779.00
1091.451,2599.00
1092.388,2733.00
1093.324,2438.00
1094.259,3245.00
1095.194,2738.00
1096.129,2630.00
1097.064,2603.00
1097.999,2793.00
1098.934,2527.00
1099.869,2533.00
1100.803,2753.00
1101.738,2751.00
1102.672,2410.00
1103.607,2827.00
1104.541,2555.00
1105.475,2507.00
1106.409,2459.00
1107.343,2613.00
1108.277,2427.00
1109.210,2683.00
1110.144,2703.00
1111.078,2678.00
1112.011,2435.00
1112.944,2762.00
1113.878,2698.00
1114.811,2175.00
1115.744,2608.00
1116.678,2295.00
1117.611,2573.00
1118.544,2597.00
1119.477,2774.00
1120.409,2541.00
1121.342,3103.00
1122.274,2754.00
1123.206,3003.00
1124.138,2657.00
1125.070,2990.00
1126.002,2814.00
1126.934,2281.00
1127.866,2538.00
1128.798,2322.00
1129.729,2393.00
1130.661,2680.00
1131.592,2554.00
1132.523,2753.00
1133.454,2760.00
1134.385,2319.00
1135.317,2649.00
1136.247,2601.00
1137.178,2902.00
1138.109,2381.00
1139.039,3006.00
1139.970,2866.00
1140.900,2575.00
1141.831,2380.00
1142.761,2211.00
1143.691,2757.00
1144.621,2676.00
1145.551,2706.00
1146.480,2713.00
1147.410,2834.00
1148.340,2315.00
1149.269,2384.00
1150.199,2588.00
1151.128,3034.00
1152.057,2449.00
1152.979,2578.00
1153.898,2601.00
1154.819,2736.00
1155.739,2640.00
1156.658,2554.00
1157.579,2716.00
1158.498,2606.00
1159.419,2200.00
1160.338,2633.00
1161.256,2676.00
1162.177,2513.00
1163.095,2660.00
1164.016,2720.00
1164.934,2890.00
1165.852,2852.00
1166.772,2646.00
1167.690,2637.00
1168.610,2725.00
1169.528,2632.00
1170.446,2200.00
1171.365,2529.00
1172.283,2523.00
1173.202,2667.00
1174.120,2680.00
1175.037,2489.00
1175.956,2462.00
1176.873,2538.00
1177.792,2558.00
1178.709,3133.00
1179.626,2551.00
1180.544,2841.00
1181.461,2484.00
1182.379,2740.00
1183.296,2607.00
1184.212,2287.00
1185.130,2478.00
1186.046,2956.00
1186.962,2652.00
1187.880,2939.00
1188.796,2659.00
1189.714,2433.00
1190.629,2769.00
1191.545,2717.00
1192.462,2586.00
1193.378,2614.00
1194.295,2343.00
1195.210,2634.00
1196.125,2746.00
1197.042,2712.00
1197.957,2632.00
1198.872,2519.00
1199.788,2521.00
1200.703,2965.00
1201.619,2677.00
1202.534,2525.00
1203.448,2727.00
1204.364,2590.00
1205.278,2270.00
1206.192,2703.00
1207.108,3118.00
1208.022,3003.00
1208.938,2460.00
1209.851,2789.00
1210.765,2847.00
1211.680,2536.00
1212.594,2411.00
1213.507,2589.00
1214.422,3014.00
1215.335,2746.00
1216.248,2572.00
1217.163,2638.00
1218.076,3203.00
1218.990,2733.00
1219.903,2405.00
1220.816,2476.00
1221.730,2617.00
1222.642,2503.00
1223.554,2558.00
1224.469,2731.00
1225.380,2553.00
1226.292,2306.00
1227.206,2734.00
1228.118,2932.00
1229.032,2226.00
1229.943,2471.00
1230.855,2576.00
1231.768,2381.00
1232.679,2733.00
1233.590,2612.00
1234.503,2822.00
1235.414,2501.00
1236.325,2530.00
1237.238,2703.00
1238.149,2688.00
1239.059,2437.00
1239.972,2814.00
1240.882,2416.00
1241.793,2767.00
1242.705,2988.00
1243.615,2567.00
1244.525,2721.00
1245.437,2232.00
1246.347,2682.00
1247.259,2789.00
1248.168,3058.00
1249.078,2875.00
1249.989,2884.00
1250.899,2457.00
1251.808,2494.00
1252.719,2532.00
1253.628,2522.00
1254.537,2976.00
1255.448,2446.00
1256.357,2477.00
1257.266,2629.00
1258.176,2356.00
1259.085,2344.00
1259.993,2453.00
1260.904,2463.00
1261.812,2466.00
1262.720,3156.00
1263.630,2820.00
1264.538,2466.00
1265.446,2743.00
1266.356,2588.00
1267.263,2904.00
1268.171,2384.00
1269.080,2689.00
1269.988,2810.00
1270.895,2505.00
1271.804,2605.00
1272.711,2789.00
1273.619,2775.00
1274.527,2444.00
1275.434,2762.00
1276.341,2446.00
1277.248,2691.00
1278.156,2891.00
1279.063,2496.00
1279.969,2709.00
1280.877,3532.00
1281.783,2811.00
1282.690,2695.00
1283.598,2600.00
1284.503,2486.00
1285.409,2476.00
1286.317,2991.00
1287.223,3031.00
1288.128,2644.00
1289.036,2576.00
1289.941,2548.00
1290.846,2623.00
1291.751,2486.00
1292.658,2553.00
1293.563,3037.00
1294.468,2620.00
1295.375,2751.00
1296.280,2873.00
1297.184,3331.00
1298.091,2734.00
1298.995,2776.00
1299.900,3019.00
1300.806,2526.00
1301.710,2383.00
1302.614,2201.00
1303.518,2873.00
1304.424,2579.00
1305.327,2809.00
1306.231,2590.00
1307.137,2782.00
1308.040,2674.00
1308.943,2682.00
1309.847,2858.00
1310.752,2793.00
1311.655,2289.00
1312.558,2393.00
1313.463,2585.00
1314.366,2552.00
1315.269,2639.00
1316.171,2655.00
1317.076,2535.00
1317.978,2455.00
1318.881,2261.00
1319.785,2475.00
1320.687,2526.00
1321.589,2226.00
1322.491,2499.00
1323.395,2727.00
1324.297,3222.00
1325.198,2753.00
1326.102,2429.00
1327.004,2438.00
1327.905,3003.00
1328.806,2620.00
1329.709,2683.00
1330.611,2562.00
1331.512,2481.00
1332.413,3102.00
1333.316,2680.00
1334.216,2783.00
1335.117,2404.00
1336.020,2706.00
1336.920,2660.00
1337.821,2468.00
1338.721,2890.00
1339.623,2688.00
1340.523,2592.00
1341.423,2500.00
1342.323,2888.00
1343.225,2721.00
1344.125,2489.00
1345.025,2524.00
1345.924,2313.00
1346.826,2996.00
1347.725,3046.00
1348.624,2823.00
1349.524,2509.00
1350.425,2574.00
1351.324,2736.00
1352.223,2837.00
1353.121,2591.00
1354.022,2854.00
1354.921,3052.00
1355.819,2752.00
1356.718,2674.00
1357.618,2407.00
1358.516,2769.00
1359.415,3037.00
1360.313,2740.00
1361.213,2580.00
1362.111,2894.00
1363.008,3255.00
1363.906,2643.00
1364.806,2633.00
1365.703,2701.00
1366.601,2465.00
1367.498,2474.00
1368.397,2795.00
1369.295,2686.00
1370.192,2439.00
1371.089,2735.00
1371.987,2628.00
1372.884,2850.00
1373.781,2420.00
1374.678,2654.00
1375.574,2466.00
1376.473,2745.00
1377.369,2865.00
1378.265,2497.00
1379.161,2596.00
1380.059,2329.00
1380.955,2743.00
1381.851,2414.00
1382.747,2542.00
1383.643,2560.00
1384.540,2399.00
1385.436,2522.00
1386.331,2700.00
1387.227,2781.00
1388.124,2800.00
1389.019,2450.00
1389.914,2608.00
1390.809,2300.00
1391.704,3091.00
1392.601,2584.00
1393.495,2856.00
1394.390,2792.00
1395.285,2857.00
1396.179,2731.00
1397.075,2589.00
1397.969,2732.00
1398.864,2345.00
1399.758,2555.00
1400.652,2654.00
1401.547,2494.00
1402.441,2437.00
1403.335,2994.00
1404.229,2787.00
1405.122,2700.00
1406.017,2621.00
1406.911,2755.00
1407.804,3061.00
1408.697,2630.00
1409.590,2473.00
1410.485,2782.00
1411.378,2667.00
1412.271,2326.00
1413.163,2717.00
1414.056,2787.00
1414.949,3009.00
1415.843,2678.00
1416.735,2584.00
1417.627,2655.00
1418.520,2598.00
1419.412,2866.00
1420.306,2828.00
1421.197,2904.00
1422.089,2878.00
1422.981,3089.00
1423.873,2837.00
1424.764,2756.00
1425.657,2664.00
1426.549,2789.00
1427.440,2827.00
1428.331,2562.00
1429.222,2333.00
1430.113,2709.00
1431.006,2839.00
1431.897,2563.00
1432.787,2680.00
1433.678,2579.00
1434.568,2474.00
1435.459,2898.00
1436.351,2787.00
1437.241,2796.00
1438.131,2799.00
1439.021,2412.00
1439.911,2608.00
1440.801,2706.00
1441.693,2889.00
1442.583,2675.00
1443.472,2617.00
1444.362,2736.00
1445.251,2617.00
1446.140,2555.00
1447.030,2831.00
1447.921,2834.00
1448.810,2485.00
1449.699,2975.00
1450.588,2707.00
1451.476,2607.00
1452.365,2741.00
1453.254,2575.00
1454.144,2559.00
1455.032,2762.00
1455.921,2371.00
1456.809,2954.00
1457.697,2471.00
1458.585,2623.00
1459.473,2589.00
1460.361,2471.00
1461.251,2712.00
1462.138,2726.00
1463.026,2590.00
1463.913,2874.00
1464.801,2526.00
1465.688,2748.00
1466.575,2677.00
1467.463,3096.00
1468.351,2476.00
1469.238,2605.00
1470.125,2269.00
1471.012,2682.00
1471.899,2769.00
1472.785,2517.00
1473.672,2634.00
1474.558,2871.00
1475.446,2785.00
1476.333,2806.00
1477.219,2462.00
1478.105,2641.00
1478.991,2587.00
1479.877,2958.00
1480.762,2661.00
1481.648,2545.00
1482.534,2790.00
1483.419,2726.00
1484.307,2776.00
1485.192,2643.00
1486.077,2479.00
1486.962,2525.00
1487.847,2412.00
1488.732,2501.00
1489.617,2666.00
1490.502,2939.00
1491.387,2815.00
1492.271,2484.00
1493.156,2490.00
1494.042,2465.00
1494.927,2842.00
1495.811,2551.00
1496.695,2797.00
1497.579,2976.00
1498.463,2686.00
1499.347,2732.00
1500.231,2722.00
1501.114,2690.00
1501.998,2933.00
1502.881,2708.00
1503.765,2924.00
1504.648,3104.00
1505.533,2781.00
1506.417,2695.00
1507.300,2640.00
1508.183,2741.00
1509.066,2197.00
1509.948,2899.00
1510.831,3003.00
1511.714,2452.00
1512.596,2875.00
1513.479,2915.00
1514.361,2871.00
1515.243,2690.00
1516.125,2817.00
1517.008,2942.00
1517.890,2598.00
1518.771,2699.00
1519.655,2881.00
1520.537,2603.00
1521.419,2508.00
1522.300,2716.00
1523.182,2766.00
1524.063,2818.00
1524.944,2963.00
1525.825,2873.00
1526.707,2473.00
1527.588,2477.00
1528.468,2765.00
1529.349,2326.00
1530.230,2591.00
1531.111,2819.00
1531.991,2706.00
1532.872,2351.00
1533.752,2672.00
1534.632,2546.00
1535.513,2507.00
1536.393,2824.00
1537.273,2955.00
1538.153,3285.00
1539.032,2425.00
1539.912,2646.00
1540.792,2677.00
1541.672,2695.00
1542.551,2782.00
1543.430,3262.00
1544.310,2708.00
1545.189,2515.00
1546.068,3083.00
1546.947,2784.00
1547.826,2969.00
1548.705,2669.00
1549.584,2894.00
1550.462,2619.00
1551.341,2844.00
1552.219,2730.00
1553.098,2811.00
1553.976,2869.00
1554.854,3070.00
1555.733,2864.00
1556.611,2600.00
1557.489,2490.00
1558.367,2663.00
1559.244,2812.00
1560.122,2668.00
1561.000,2745.00
1561.877,2969.00
1562.755,2538.00
1563.632,2645.00
1564.509,2944.00
1565.386,3035.00
1566.264,2462.00
1567.141,2284.00
1568.017,2819.00
1568.894,2669.00
1569.771,2730.00
1570.648,2821.00
1571.524,2680.00
1572.401,2422.00
1573.277,2446.00
1574.153,2713.00
1575.029,2534.00
1575.906,3360.00
1576.781,2876.00
1577.657,2589.00
1578.533,2923.00
1579.409,2337.00
1580.285,2661.00
1581.160,3108.00
1582.036,2862.00
1582.911,2507.00
1583.786,3070.00
1584.662,2475.00
1585.537,2617.00
1586.412,2749.00
1587.287,2483.00
1588.160,2856.00
1589.035,2350.00
1589.909,2651.00
1590.784,2650.00
1591.658,2483.00
1592.533,2705.00
1593.407,2693.00
1594.281,2566.00
1595.155,3120.00
1596.029,2583.00
1596.903,2615.00
1597.777,2607.00
1598.651,2916.00
1599.525,2401.00
1600.398,2735.00
1601.272,2618.00
1602.144,3171.00
1603.017,2644.00
1603.890,2907.00
1604.763,2787.00
1605.636,2793.00
1606.509,2387.00
1607.382,2549.00
1608.255,2763.00
1609.128,2875.00
1610.000,2650.00
1610.873,2398.00
1611.746,2607.00
1612.616,2635.00
1613.488,2286.00
1614.361,2673.00
1615.233,2629.00
1616.105,2879.00
1616.977,2594.00
1617.849,2553.00
1618.720,3003.00
1619.592,2990.00
1620.464,2762.00
1621.333,3133.00
1622.205,2650.00
1623.076,2667.00
1623.947,2673.00
1624.818,2961.00
1625.689,2795.00
1626.560,2609.00
1627.431,2767.00
1628.302,3095.00
1629.171,2851.00
1630.042,3007.00
1630.912,3291.00
1631.782,3230.00
1632.653,2534.00
1633.523,2847.00
1634.393,2930.00
1635.263,2515.00
1636.131,2641.00
1637.001,2600.00
1637.871,2291.00
1638.741,2312.00
1639.611,2446.00
1640.480,2775.00
1641.350,2549.00
1642.219,2519.00
1643.087,2161.00
1643.956,3120.00
1644.825,2971.00
1645.694,2939.00
1646.563,2874.00
1647.432,2707.00
1648.299,2693.00
1649.167,2826.00
1650.036,2499.00
1650.904,2925.00
1651.773,2898.00
1652.641,2691.00
1653.509,2892.00
1654.376,2555.00
1655.244,2711.00
1656.112,2753.00
1656.980,2691.00
1657.847,2541.00
1658.715,2874.00
1659.581,2583.00
1660.448,2914.00
1661.316,2191.00
1662.183,2703.00
1663.051,2756.00
1663.918,2703.00
1664.783,2701.00
1665.650,2791.00
1666.517,2819.00
1667.384,2701.00
1668.251,2734.00
1669.115,2907.00
1669.982,2615.00
1670.849,2975.00
1671.715,2667.00
1672.581,2845.00
1673.446,2794.00
1674.312,2739.00
1675.178,3126.00
1676.044,2774.00
1676.910,2791.00
1677.774,2748.00
1678.639,2382.00
1679.505,2685.00
1680.370,2813.00
1681.236,3334.00
1682.099,2656.00
1682.965,2681.00
1683.830,2290.00
1684.695,2527.00
1685.560,2641.00
1686.423,2804.00
1687.288,2807.00
1688.153,2745.00
1689.017,2638.00
1689.880,2766.00
1690.745,2833.00
1691.609,2542.00
1692.473,2858.00
1693.338,2937.00
1694.200,2972.00
1695.064,2703.00
1695.928,2577.00
1696.792,2713.00
1697.654,3186.00
1698.517,2725.00
1699.381,2470.00
1700.245,2371.00
1701.106,2955.00
1701.969,2580.00
1702.833,2850.00
1703.696,2628.00
1704.557,2698.00
1705.420,2571.00
1706.283,2684.00
1707.146,2864.00
1708.007,2484.00
1708.870,2520.00
1709.732,2418.00
1710.595,2581.00
1711.455,2457.00
1712.318,2616.00
1713.180,2968.00
1714.040,2736.00
1714.902,2890.00
1715.764,2699.00
1716.626,2500.00
1717.486,2668.00
1718.348,2945.00
1719.209,4069.00
1720.071,2338.00
1720.930,2424.00
1721.792,2533.00
1722.653,2554.00
1723.512,2599.00
1724.374,2664.00
1725.234,2753.00
1726.095,2738.00
1726.954,2676.00
1727.815,2814.00
1728.676,2661.00
1729.535,2911.00
1730.395,2685.00
1731.256,2612.00
1732.114,2789.00
1732.974,2199.00
1733.834,3059.00
1734.693,2882.00
1735.553,2712.00
1736.413,3146.00
1737.272,2582.00
1738.130,2623.00
1738.990,2757.00
1739.849,2604.00
1740.707,3729.00
1741.566,2740.00
1742.426,2771.00
1743.283,3063.00
1744.142,2621.00
1745.001,2379.00
1745.858,2868.00
1746.717,2771.00
1747.576,2830.00
1748.433,2855.00
1749.292,3310.00
1750.150,3316.00
1751.007,2891.00
1751.865,2904.00
1752.723,2695.00
1753.579,2609.00
1754.438,2912.00
1755.296,2927.00
1756.152,2272.00
1757.010,2403.00
1757.865,2906.00
1758.723,2377.00
1759.581,3039.00
1760.436,2704.00
1761.294,3070.00
1762.151,2705.00
1763.006,2619.00
1763.864,2362.00
1764.721,2913.00
1765.576,2721.00
1766.433,2870.00
1767.288,2594.00
1768.144,2781.00
1769.001,2619.00
1769.856,2782.00
1770.712,2912.00
1771.568,2508.00
1772.423,2618.00
1773.279,2647.00
1774.133,2624.00
1774.989,3076.00
1775.845,3036.00
1776.699,2976.00
1777.555,2739.00
1778.409,3236.00
1779.265,2641.00
1780.120,2661.00
1780.974,2692.00
1781.829,2310.00
1782.682,2780.00
1783.538,2542.00
1784.393,2786.00
1785.246,2609.00
1786.101,2796.00
1786.954,2820.00
1787.808,2892.00
1788.661,2429.00
1789.516,2610.00
1790.370,2644.00
1791.223,2892.00
1792.077,2705.00
1792.930,2815.00
1793.784,2557.00
1794.636,2749.00
1795.490,2684.00
1796.344,2738.00
1797.196,2670.00
1798.049,2847.00
1798.901,2606.00
1799.755,2937.00
1800.606,2513.00
1801.460,3224.00
1802.311,3034.00
1803.165,3132.00
1804.018,3063.00
1804.869,2795.00
1805.722,3169.00
1806.573,2733.00
1807.426,2536.00
1808.276,2702.00
1809.129,2598.00
1809.980,2914.00
1810.832,2971.00
1811.683,2637.00
1812.535,3025.00
1813.385,2661.00
1814.237,3025.00
1815.089,2751.00
1815.940,2967.00
1816.791,2658.00
1817.641,2562.00
1818.493,2862.00
1819.343,2790.00
1820.194,2575.00
1821.044,2788.00
1821.895,2916.00
1822.745,2424.00
1823.596,2613.00
1824.445,3135.00
1825.296,2840.00
1826.145,2685.00
1826.996,2917.00
1827.845,2750.00
1828.695,2778.00
1829.544,2716.00
1830.395,2751.00
1831.243,2659.00
1832.094,2444.00
1832.942,3333.00
1833.792,2845.00
1834.640,2798.00
1835.490,2735.00
1836.338,2785.00
1837.186,2590.00
1838.036,2630.00
1838.884,2696.00
1839.733,3059.00
1840.581,2895.00
1841.430,2844.00
1842.278,3064.00
1843.127,2608.00
1843.974,2387.00
1844.823,3162.00
1845.671,2884.00
1846.519,2724.00
1847.366,2816.00
1848.213,2386.00
1849.062,2537.00
1849.909,2445.00
1850.757,3401.00
1851.604,2857.00
1852.452,2633.00
1853.298,2950.00
1854.146,2763.00
1854.993,2727.00
1855.839,3247.00
1856.687,2879.00
1857.532,2853.00
1858.380,2710.00
1859.226,2770.00
1860.073,2866.00
1860.919,2558.00
1861.765,2602.00
1862.612,2953.00
1863.457,2957.00
1864.304,2665.00
1865.150,2861.00
1865.995,2676.00
1866.842,2858.00
1867.686,2966.00
1868.533,2791.00
1869.378,2791.00
1870.223,2792.00
1871.069,2625.00
1871.914,2749.00
1872.760,2742.00
1873.604,2531.00
1874.448,2880.00
1875.294,2922.00
1876.139,2607.00
1876.984,2868.00
1877.828,2418.00
1878.672,2249.00
1879.518,2641.00
1880.361,2895.00
1881.205,2908.00
1882.050,2608.00
1882.894,3222.00
1883.739,2622.00
1884.582,2486.00
1885.425,2584.00
1886.270,2972.00
1887.113,2485.00
1887.956,2837.00
1888.801,2809.00
1889.644,2557.00
1890.486,2337.00
1891.331,2658.00
1892.173,2771.00
1893.017,2839.00
1893.860,3039.00
1894.702,3055.00
1895.546,2724.00
1896.388,3402.00
1897.230,3095.00
1898.074,2663.00
1898.916,2511.00
1899.757,2601.00
1900.601,3417.00
1901.443,3047.00
1902.284,3030.00
1903.125,3222.00
1903.969,2878.00
1904.810,2971.00
1905.651,2839.00
1906.494,3089.00
1907.335,3160.00
1908.176,2829.00
1909.018,2855.00
1909.859,2710.00
1910.700,2611.00
1911.542,3321.00
1912.383,2811.00
1913.223,2351.00
1914.064,2889.00
1914.906,3027.00
1915.746,3079.00
1916.586,3246.00
1917.428,2726.00
1918.268,2791.00
1919.107,2618.00
1919.947,2522.00
1920.789,2705.00
1921.628,2988.00
1922.468,2710.00
1923.309,2616.00
1924.148,3085.00
1924.988,2859.00
1925.827,2720.00
1926.667,2613.00
1927.507,2765.00
1928.345,2575.00
1929.184,2927.00
1930.025,2569.00
1930.864,2974.00
1931.702,3047.00
1932.541,2659.00
1933.381,2906.00
1934.219,2903.00
1935.057,3013.00
1935.896,2462.00
1936.735,2707.00
1937.573,2652.00
1938.411,2523.00
1939.249,2903.00
1940.089,2653.00
1940.927,3006.00
1941.764,3009.00
1942.602,2666.00
1943.439,2643.00
1944.278,2754.00
1945.115,2676.00
1945.953,2515.00
1946.790,2821.00
1947.628,3106.00
1948.465,2881.00
1949.302,2897.00
1950.139,2914.00
1950.976,2643.00
1951.814,2904.00
1952.651,2834.00
1953.487,2559.00
1954.323,2981.00
1955.160,2778.00
1955.998,3117.00
1956.834,2724.00
1957.670,2786.00
1958.506,2990.00
1959.342,2820.00
1960.177,2798.00
1961.015,2856.00
1961.850,2797.00
1962.686,2808.00
1963.521,2805.00
1964.357,3045.00
1965.192,2529.00
1966.029,2878.00
1966.864,2689.00
1967.699,2979.00
1968.534,2795.00
1969.369,3031.00
1970.204,2721.00
1971.040,2790.00
1971.875,2679.00
1972.709,2814.00
1973.544,2583.00
1974.378,2651.00
1975.212,2864.00
1976.047,2666.00
1976.882,2605.00
1977.716,3151.00
1978.550,2459.00
1979.384,2712.00
1980.218,2684.00
1981.052,2718.00
1981.885,2799.00
1982.719,2762.00
1983.554,2937.00
1984.388,3089.00
1985.221,2820.00
1986.054,2999.00
1986.887,2820.00
1987.720,2602.00
1988.553,3063.00
1989.386,2888.00
1990.219,2882.00
1991.053,3077.00
1991.886,2605.00
1992.719,2986.00
1993.551,2260.00
1994.383,2905.00
1995.216,2686.00
1996.048,2503.00
1996.880,2944.00
1997.712,2644.00
1998.544,2755.00
1999.376,2848.00
2000.208,3059.00
2001.040,3232.00
2001.873,2589.00
2002.705,2555.00
2003.536,2833.00
2004.367,2807.00
2005.199,2785.00
2006.030,2682.00
2006.861,2591.00
2007.692,2794.00
2008.523,2615.00
2009.354,2811.00
2010.185,2601.00
2011.016,2930.00
2011.846,2997.00
2012.677,2683.00
2013.507,3135.00
2014.338,3002.00
2015.168,2681.00
2015.999,3266.00
2016.829,2734.00
2017.659,3002.00
2018.489,3289.00
2019.319,2598.00
2020.149,2969.00
2020.980,2817.00
2021.810,2593.00
2022.639,2671.00
2023.469,2653.00
2024.298,2455.00
2025.128,2367.00
2025.957,2375.00
2026.786,2226.00
2027.615,2403.00
2028.444,2602.00
2029.273,2798.00
2030.102,2395.00
2030.931,2592.00
2031.758,2903.00
2032.586,2545.00
2033.415,2628.00
2034.243,2227.00
2035.072,2020.00
2035.900,2518.00
2036.728,2342.00
2037.556,2389.00
2038.385,2403.00
2039.213,2200.00
2040.040,2216.00
2040.868,2169.00
2041.696,2214.00
2042.524,2246.00
2043.351,2457.00
2044.179,2216.00
2045.006,2034.00
