RamanScope Measure Spectrum Data V3.72

<< MEASURE CONDITION >>
Exposure Type,Aver
Exposure Time [sec],15
Exposure Count,30
Measure Time,2023/07/05 09:34:11
Data Name,""
Data Comment,""
Rayleigh Wave[nm],532.0

<< SAMPLE SPECTRUM >>
Wave[dcm-1],No320
146.591,945.00
147.626,1123.13
148.664,1334.17
149.699,1503.83
150.737,1719.90
151.772,1931.37
152.809,2128.87
153.846,2294.07
154.881,2442.50
155.918,2625.17
156.953,2747.47
157.989,2850.47
159.026,2934.20
160.060,3027.23
161.096,3064.67
162.130,3135.47
163.167,3187.27
164.200,3238.47
165.236,3240.63
166.272,3324.77
167.305,3385.77
168.341,3504.50
169.374,3516.20
170.409,3594.77
171.445,3706.60
172.477,3789.27
173.512,3863.70
174.545,3915.37
175.580,3938.77
176.614,3938.67
177.647,3924.87
178.681,3989.37
179.713,3892.13
180.747,3873.77
181.781,3878.40
182.813,3824.13
183.847,3816.83
184.878,3797.20
185.912,3765.17
186.945,3792.83
187.976,3824.20
189.010,3861.97
190.043,3869.70
191.073,3878.63
192.106,3958.27
193.137,3990.27
194.170,4085.53
195.202,4087.93
196.232,4165.10
197.265,4220.40
198.297,4291.20
199.327,4382.93
200.359,4459.23
201.388,4543.17
202.420,4646.87
203.452,4801.17
204.481,4922.53
205.512,5099.13
206.544,5179.47
207.573,5377.73
208.604,5511.47
209.635,5737.10
210.663,5975.93
211.694,6119.90
212.725,6279.07
213.753,6544.27
214.783,6651.60
215.813,6739.77
216.841,6802.97
217.871,6806.40
218.899,6747.10
219.929,6703.63
220.959,6560.33
221.986,6381.53
223.016,6200.83
224.045,6054.33
225.072,5917.07
226.101,5764.07
227.130,5582.30
228.157,5435.93
229.185,5385.90
230.214,5296.37
231.241,5210.53
232.269,5070.63
233.297,5080.03
234.323,5018.60
235.351,5016.73
236.379,4947.57
237.407,4972.23
238.433,4918.27
239.460,4934.17
240.488,4981.57
241.513,5018.70
242.540,5059.20
243.568,5115.17
244.592,5122.93
245.619,5094.17
246.646,5127.30
247.671,5068.60
248.697,5085.20
249.724,5071.90
250.748,5090.67
251.774,5027.00
252.801,5025.53
253.827,5066.07
254.850,5112.70
255.876,5144.37
256.902,5196.47
257.925,5155.93
258.951,5235.73
259.976,5266.07
260.999,5320.80
262.024,5363.63
263.049,5368.17
264.074,5466.33
265.097,5552.53
266.122,5579.27
267.146,5664.70
268.168,5725.60
269.193,5781.57
270.217,5818.77
271.241,5911.37
272.263,5984.47
273.287,5969.03
274.311,5959.37
275.332,5993.30
276.356,5979.70
277.379,5934.37
278.402,5907.10
279.424,5843.17
280.447,5824.20
281.470,5718.33
282.492,5648.03
283.513,5515.07
284.536,5485.93
285.558,5381.97
286.581,5333.13
287.601,5260.57
288.623,5155.80
289.645,5095.33
290.665,5052.10
291.687,4926.80
292.709,4885.63
293.730,4742.37
294.750,4714.97
295.771,4652.73
296.792,4626.80
297.813,4563.30
298.832,4476.90
299.853,4429.10
300.874,4384.33
301.895,4322.33
302.913,4235.33
303.934,4190.83
304.954,4137.17
305.975,4137.87
306.993,4061.37
308.013,4001.60
309.033,3989.20
310.052,3959.97
311.072,3946.30
312.090,3905.40
313.109,3906.13
314.129,3850.37
315.148,3831.80
316.165,3809.50
317.184,3802.30
318.203,3764.70
319.222,3748.13
320.238,3744.33
321.257,3724.17
322.275,3701.27
323.294,3730.03
324.312,3662.40
325.328,3631.23
326.346,3633.57
327.364,3642.47
328.382,3625.50
329.397,3638.07
330.415,3612.97
331.432,3599.97
332.450,3602.70
333.467,3659.63
334.482,3562.37
335.499,3571.40
336.516,3585.13
337.533,3555.23
338.547,3575.27
339.564,3499.83
340.580,3537.23
341.597,3531.83
342.613,3528.53
343.627,3507.33
344.643,3481.30
345.659,3506.93
346.675,3478.57
347.690,3537.37
348.704,3543.63
349.719,3474.43
350.735,3464.07
351.750,3485.20
352.765,3496.97
353.778,3494.10
354.793,3494.27
355.808,3440.80
356.822,3478.80
357.837,3537.70
358.851,3535.50
359.864,3505.43
360.878,3492.37
361.892,3527.70
362.906,3587.60
363.920,3555.90
364.932,3549.00
365.945,3535.63
366.959,3530.07
367.972,3596.87
368.986,3612.10
369.999,3593.63
371.010,3601.80
372.023,3575.80
373.036,3570.60
374.049,3610.03
375.061,3659.10
376.072,3615.67
377.084,3607.43
378.097,3629.33
379.109,3695.17
380.121,3688.03
381.133,3643.13
382.143,3659.03
383.155,3689.93
384.166,3634.17
385.178,3621.47
386.189,3630.90
387.201,3653.00
388.212,3602.33
389.221,3630.60
390.232,3635.13
391.243,3610.23
392.254,3557.73
393.264,3618.80
394.275,3549.80
395.283,3572.50
396.294,3506.33
397.304,3477.07
398.314,3477.10
399.324,3476.50
400.334,3473.90
401.344,3449.10
402.351,3391.00
403.361,3406.17
404.370,3409.33
405.380,3381.97
406.389,3362.57
407.398,3325.77
408.407,3302.77
409.414,3302.00
410.423,3300.83
411.431,3258.07
412.440,3286.93
413.448,3252.90
414.457,3273.07
415.465,3250.27
416.471,3268.33
417.479,3181.07
418.487,3195.40
419.495,3225.47
420.503,3203.63
421.510,3179.27
422.518,3148.67
423.525,3146.67
424.530,3167.43
425.537,3187.50
426.544,3182.30
427.551,3174.03
428.558,3180.40
429.565,3133.30
430.571,3124.33
431.578,3113.43
432.582,3149.07
433.588,3046.43
434.595,3136.10
435.601,3126.17
436.607,3114.70
437.612,3127.97
438.618,3091.60
439.624,3123.77
440.627,3114.63
441.633,3130.00
442.638,3054.43
443.643,3103.43
444.648,3113.07
445.653,3103.00
446.658,3113.57
447.663,3118.20
448.667,3113.53
449.672,3162.67
450.674,3148.57
451.678,3151.83
452.682,3124.23
453.687,3155.43
454.690,3101.20
455.694,3140.77
456.698,3116.60
457.702,3134.13
458.705,3101.67
459.709,3157.17
460.710,3143.30
461.713,3184.03
462.716,3149.07
463.719,3122.10
464.722,3184.87
465.725,3168.23
466.727,3191.43
467.730,3195.23
468.732,3156.53
469.735,3208.37
470.737,3188.50
471.737,3186.70
472.739,3185.37
473.741,3244.30
474.742,3191.50
475.744,3197.20
476.746,3206.53
477.747,3181.80
478.748,3183.23
479.750,3216.47
480.751,3145.43
481.752,3180.43
482.753,3167.00
483.751,3202.83
484.752,3165.20
485.753,3210.43
486.753,3227.40
487.753,3185.33
488.754,3217.00
489.754,3192.40
490.754,3193.30
491.754,3243.70
492.754,3201.37
493.753,3196.57
494.753,3189.60
495.752,3121.73
496.752,3196.73
497.749,3152.63
498.748,3172.23
499.747,3172.63
500.746,3171.30
501.745,3161.23
502.744,3179.77
503.742,3139.87
504.741,3142.43
505.739,3124.87
506.737,3119.63
507.735,3120.63
508.734,3094.03
509.732,3067.83
510.729,3055.07
511.727,3032.23
512.725,3090.03
513.720,3057.73
514.718,3059.30
515.715,3017.07
516.712,3044.77
517.709,3051.13
518.706,3008.17
519.703,3032.37
520.700,3049.33
521.696,3034.17
522.693,3033.80
523.689,3029.97
524.686,3048.67
525.682,2863.23
526.678,3041.80
527.674,3020.43
528.670,3051.57
529.666,3083.03
530.661,3060.10
531.657,2746.80
532.652,3038.80
533.648,3030.27
534.641,3101.63
535.636,3012.13
536.631,3064.30
537.626,3093.67
538.621,3099.13
539.616,3073.00
540.610,3070.13
541.605,3066.70
542.599,3098.00
543.593,3093.77
544.587,3112.27
545.581,3081.53
546.575,3069.07
547.569,3100.53
548.563,3082.17
549.557,3058.67
550.550,3099.30
551.543,3121.37
552.537,3111.70
553.530,3132.27
554.523,3084.27
555.516,3075.87
556.509,3121.13
557.502,3112.40
558.494,3104.47
559.487,3128.63
560.479,3110.20
561.472,3147.03
562.464,3140.77
563.456,3070.53
564.448,3135.43
565.440,3133.17
566.432,3186.43
567.423,3181.97
568.415,3196.27
569.404,3165.30
570.396,3140.90
571.387,3216.93
572.378,3180.43
573.369,3195.33
574.360,3231.87
575.351,3228.00
576.341,3230.63
577.332,3210.30
578.323,3246.33
579.313,3234.50
580.303,3267.23
581.293,3267.53
582.283,3278.57
583.273,3256.83
584.263,3246.77
585.253,3270.17
586.243,3303.07
587.232,3293.40
588.222,3273.17
589.211,3259.10
590.200,3322.43
591.189,3356.40
592.178,3337.20
593.167,3284.77
594.156,3279.97
595.145,3340.23
596.133,3355.23
597.122,3342.73
598.110,3287.30
599.098,3260.30
600.086,3283.53
601.074,3300.20
602.062,3292.47
603.050,3307.67
604.038,3299.10
605.025,3277.30
606.013,3257.40
607.000,3279.53
607.987,3266.93
608.975,3218.97
609.962,3244.97
610.949,3212.73
611.936,3218.43
612.922,3169.13
613.909,3163.50
614.895,3132.40
615.882,3134.67
616.868,3111.97
617.854,3115.77
618.841,3076.03
619.826,3057.80
620.812,3044.73
621.798,3022.57
622.784,3036.50
623.769,2990.37
624.755,2980.63
625.740,2985.03
626.725,2973.10
627.711,2957.63
628.698,2959.67
629.683,2927.00
630.667,2862.97
631.652,2866.73
632.637,2878.67
633.621,2900.07
634.606,2861.63
635.590,2853.20
636.574,2831.70
637.558,2839.63
638.542,2844.77
639.526,2766.83
640.510,2757.83
641.493,2736.07
642.477,2734.40
643.460,2745.93
644.444,2726.27
645.427,2722.27
646.410,2678.70
647.393,2715.90
648.376,2713.83
649.359,2647.80
650.341,2660.60
651.324,2645.60
652.307,2610.50
653.289,2642.73
654.271,2611.67
655.253,2627.47
656.235,2583.60
657.217,2624.40
658.199,2593.87
659.181,2610.50
660.163,2605.93
661.144,2564.63
662.126,2567.87
663.107,2560.83
664.088,2622.67
665.069,2535.23
666.050,2485.97
667.033,2539.53
668.014,2521.17
668.995,2482.63
669.975,2487.00
670.956,2511.07
671.936,2455.73
672.916,2481.57
673.896,2450.33
674.876,2442.67
675.856,2381.43
676.836,2365.83
677.816,2401.07
678.795,2398.03
679.775,2378.43
680.754,2360.13
681.734,2368.77
682.713,2265.83
683.692,2340.23
684.671,2289.50
685.650,2281.80
686.629,2263.17
687.607,2282.73
688.586,2235.80
689.564,2256.67
690.543,2213.57
691.523,2231.20
692.501,2171.77
693.479,2181.33
694.457,2205.67
695.435,2181.37
696.413,2159.93
697.390,2159.63
698.368,2179.30
699.345,2124.53
700.322,2183.00
701.300,2137.13
702.277,2126.00
703.254,2166.03
704.231,2086.83
705.207,2102.07
706.184,2118.27
707.161,2098.60
708.137,2098.43
709.113,2104.23
710.090,2066.80
711.068,2119.00
712.044,2064.23
713.020,2045.47
713.996,2047.20
714.971,2049.60
715.947,2043.47
716.922,2091.70
717.898,2031.13
718.873,2016.73
719.848,2026.60
720.823,2037.27
721.798,2024.37
722.773,2010.77
723.748,2004.47
724.723,1971.97
725.697,2004.03
726.672,1982.60
727.646,1972.60
728.622,2014.53
729.596,1973.00
730.570,1992.13
731.544,1958.00
732.518,1967.17
733.492,1925.57
734.466,1938.87
735.439,1923.90
736.413,1950.07
737.386,1904.40
738.359,1951.97
739.332,1929.73
740.305,1920.27
741.278,1893.20
742.251,1904.87
743.224,1909.33
744.196,1901.27
745.171,1842.87
746.143,1876.90
747.115,1887.43
748.087,1852.53
749.059,1905.80
750.031,1863.60
751.003,1840.80
751.975,1871.73
752.947,1887.60
753.918,1856.53
754.890,1851.60
755.861,1837.33
756.832,1831.83
757.803,1821.97
758.774,1821.80
759.747,1840.67
760.718,1767.03
761.689,1780.93
762.659,1810.57
763.630,1777.37
764.600,1795.73
765.570,1785.03
766.540,1785.77
767.510,1808.93
768.480,1799.03
769.450,1819.63
770.420,1793.30
771.390,1770.00
772.359,1755.77
773.329,1761.03
774.300,1769.67
775.269,1749.23
776.238,1723.10
777.207,1730.87
778.176,1757.90
779.145,1752.90
780.114,1742.40
781.083,1710.93
782.051,1726.73
783.019,1772.27
783.988,1739.60
784.956,1729.43
785.924,1693.07
786.894,1702.23
787.862,1708.33
788.830,1724.80
789.797,1766.67
790.765,1692.37
791.732,1691.60
792.700,1647.37
793.667,1663.07
794.634,1684.03
795.601,1681.37
796.568,1678.23
797.535,1672.53
798.502,1639.50
799.468,1676.00
800.437,1648.03
801.403,1667.30
802.370,1650.63
803.336,1615.07
804.302,1661.83
805.268,1635.10
806.234,1640.00
807.200,1659.77
808.166,1643.37
809.131,1610.17
810.097,1634.43
811.062,1629.93
812.027,1618.23
812.994,1605.97
813.960,1620.67
814.925,1613.60
815.889,1620.70
816.854,1613.97
817.819,1581.80
818.783,1596.60
819.748,1598.67
820.712,1590.43
821.677,1603.20
822.641,1615.77
823.605,1542.70
824.571,1587.43
825.534,1631.93
826.498,1610.67
827.462,1573.90
828.425,1579.23
829.389,1570.50
830.352,1590.43
831.315,1572.33
832.279,1609.47
833.242,1569.87
834.204,1540.97
835.167,1545.40
836.132,1588.17
837.095,1559.93
838.057,1603.93
839.020,1533.70
839.982,1543.83
840.944,1546.77
841.906,1534.17
842.868,1525.90
843.830,1514.23
844.792,1539.73
845.753,1569.23
846.715,1521.40
847.679,1519.97
848.640,1545.67
849.601,1485.80
850.562,1493.83
851.523,1497.43
852.484,1529.97
853.445,1531.13
854.406,1534.53
855.367,1472.10
856.327,1534.27
857.288,1498.07
858.248,1498.07
859.210,1524.53
860.170,1520.83
861.130,1476.67
862.090,1484.73
863.050,1508.80
864.010,1481.03
864.969,1496.57
865.929,1477.03
866.888,1447.73
867.848,1465.13
868.807,1493.63
869.766,1488.43
870.727,1461.40
871.686,1442.87
872.645,1464.83
873.604,1485.47
874.562,1461.50
875.521,1457.33
876.479,1424.50
877.437,1476.77
878.396,1454.93
879.354,1478.93
880.312,1446.43
881.270,1442.27
882.229,1481.07
883.187,1457.37
884.145,1426.23
885.102,1482.67
886.059,1417.43
887.017,1416.17
887.974,1430.57
888.931,1427.27
889.888,1414.53
890.845,1456.10
891.802,1449.87
892.758,1433.50
893.717,1457.20
894.673,1452.80
895.630,1433.90
896.586,1446.97
897.542,1476.13
898.498,1434.87
899.454,1437.97
900.410,1435.77
901.366,1436.57
902.321,1434.50
903.277,1430.90
904.232,1447.27
905.189,1447.30
906.145,1448.23
907.100,1447.03
908.055,1416.93
909.010,1459.63
909.965,1482.07
910.919,1450.97
911.874,1454.93
912.828,1424.20
913.783,1425.90
914.737,1477.37
915.693,1430.60
916.648,1465.60
917.602,1428.17
918.555,1434.13
919.509,1458.23
920.463,1491.20
921.417,1428.13
922.370,1420.97
923.324,1456.90
924.277,1445.57
925.230,1447.33
926.183,1439.53
927.138,1442.20
928.091,1430.13
929.044,1476.37
929.996,1464.63
930.949,1436.97
931.902,1467.77
932.854,1488.67
933.806,1447.03
934.758,1478.00
935.711,1449.00
936.663,1439.17
937.614,1440.57
938.568,1435.23
939.520,1466.83
940.471,1466.23
941.423,1463.60
942.374,1444.37
943.326,1451.40
944.277,1474.27
945.228,1412.23
946.179,1477.43
947.130,1487.90
948.080,1459.40
949.031,1456.63
949.984,1490.77
950.934,1435.00
951.884,1440.03
952.835,1424.47
953.785,1436.43
954.735,1461.93
955.685,1446.57
956.635,1436.50
957.585,1467.10
958.534,1455.17
959.484,1447.50
960.433,1420.20
961.383,1441.93
962.334,1428.67
963.283,1437.43
964.232,1450.77
965.181,1442.73
966.130,1427.60
967.079,1430.83
968.027,1432.20
968.976,1434.90
969.924,1414.93
970.873,1410.97
971.821,1440.03
972.769,1408.23
973.719,1454.60
974.667,1422.23
975.615,1452.60
976.562,1438.73
977.510,1467.67
978.458,1460.60
979.405,1451.70
980.352,1449.10
981.300,1411.30
982.247,1417.60
983.194,1427.40
984.141,1459.23
985.088,1453.60
986.036,1402.07
986.983,1444.27
987.930,1411.23
988.876,1452.33
989.822,1428.87
990.769,1464.13
991.715,1476.53
992.661,1449.37
993.607,1473.93
994.553,1485.77
995.498,1426.13
996.444,1447.57
997.389,1409.90
998.337,1437.90
999.282,1426.03
1000.227,1462.90
1001.173,1431.90
1002.118,1407.97
1003.062,1441.27
1004.007,1438.80
1004.952,1494.13
1005.897,1419.60
1006.841,1463.47
1007.786,1430.90
1008.730,1408.33
1009.674,1452.73
1010.618,1441.83
1011.564,1454.37
1012.508,1466.53
1013.452,1409.90
1014.396,1478.17
1015.339,1471.47
1016.283,1431.47
1017.226,1442.30
1018.170,1438.50
1019.113,1432.93
1020.056,1431.40
1020.999,1464.40
1021.942,1451.50
1022.885,1439.10
1023.828,1441.23
1024.770,1458.00
1025.715,1426.53
1026.657,1467.77
1027.600,1448.73
1028.542,1463.53
1029.484,1466.63
1030.426,1461.93
1031.368,1478.70
1032.310,1433.43
1033.251,1465.87
1034.193,1438.00
1035.135,1500.73
1036.076,1460.13
1037.017,1484.77
1037.959,1447.57
1038.900,1477.20
1039.843,1473.90
1040.784,1449.40
1041.725,1470.43
1042.665,1466.30
1043.606,1441.40
1044.547,1497.17
1045.487,1511.80
1046.427,1488.17
1047.368,1528.80
1048.308,1491.67
1049.248,1464.90
1050.188,1522.17
1051.128,1497.67
1052.067,1507.17
1053.007,1514.07
1053.947,1520.40
1054.886,1503.73
1055.827,1480.70
1056.766,1469.47
1057.706,1516.93
1058.645,1518.70
1059.584,1501.47
1060.522,1503.83
1061.461,1539.73
1062.400,1506.67
1063.338,1510.67
1064.277,1542.13
1065.215,1541.90
1066.154,1560.83
1067.092,1557.80
1068.030,1581.53
1068.968,1537.77
1069.906,1558.03
1070.843,1578.87
1071.781,1551.97
1072.720,1594.13
1073.658,1538.37
1074.595,1564.57
1075.533,1557.63
1076.470,1572.10
1077.407,1555.10
1078.344,1565.37
1079.281,1569.07
1080.217,1566.37
1081.154,1559.23
1082.091,1571.90
1083.027,1611.37
1083.964,1560.73
1084.900,1572.83
1085.836,1595.17
1086.772,1559.00
1087.708,1551.77
1088.644,1551.07
1089.580,1577.63
1090.515,1607.90
1091.451,1548.53
1092.388,1563.73
1093.324,1533.93
1094.259,1591.33
1095.194,1602.17
1096.129,1579.73
1097.064,1569.10
1097.999,1570.00
1098.934,1553.70
1099.869,1528.07
1100.803,1536.10
1101.738,1557.20
1102.672,1558.47
1103.607,1514.53
1104.541,1540.23
1105.475,1574.83
1106.409,1551.90
1107.343,1561.17
1108.277,1512.73
1109.210,1487.53
1110.144,1537.57
1111.078,1506.50
1112.011,1482.07
1112.944,1508.73
1113.878,1505.40
1114.811,1520.73
1115.744,1510.00
1116.678,1510.87
1117.611,1493.87
1118.544,1511.37
1119.477,1478.47
1120.409,1502.50
1121.342,1484.97
1122.274,1462.77
1123.206,481.43
1124.138,1481.13
1125.070,1505.97
1126.002,1450.57
1126.934,1504.93
1127.866,1455.27
1128.798,1483.27
1129.729,1405.03
1130.661,1443.77
1131.592,1434.40
1132.523,1432.83
1133.454,1438.00
1134.385,1407.43
1135.317,1419.30
1136.247,1415.07
1137.178,1427.37
1138.109,1393.23
1139.039,1444.60
1139.970,1428.23
1140.900,1390.10
1141.831,1389.17
1142.761,1412.77
1143.691,1686.67
1144.621,1397.40
1145.551,1396.13
1146.480,1397.23
1147.410,1440.33
1148.340,1401.37
1149.269,1420.20
1150.199,1351.40
1151.128,1382.17
1152.057,1398.47
1152.979,1366.90
1153.898,1345.67
1154.819,1361.93
1155.739,1349.73
1156.658,1381.93
1157.579,1383.17
1158.498,1376.30
1159.419,1363.40
1160.338,1338.07
1161.256,1371.93
1162.177,1362.93
1163.095,1373.03
1164.016,1376.70
1164.934,1373.97
1165.852,1366.40
1166.772,1338.57
1167.690,1335.30
1168.610,1330.47
1169.528,1351.27
1170.446,1361.10
1171.365,1346.43
1172.283,1338.27
1173.202,1340.17
1174.120,1365.80
1175.037,1345.40
1175.956,1343.07
1176.873,1375.07
1177.792,1308.93
1178.709,1336.20
1179.626,1351.87
1180.544,1332.17
1181.461,1346.77
1182.379,1356.67
1183.296,1334.97
1184.212,1330.77
1185.130,1362.80
1186.046,1313.27
1186.962,1350.73
1187.880,1318.43
1188.796,1346.00
1189.714,1346.90
1190.629,1317.80
1191.545,1310.47
1192.462,1340.37
1193.378,1335.23
1194.295,1341.63
1195.210,1352.70
1196.125,1313.33
1197.042,1339.57
1197.957,1330.70
1198.872,1328.87
1199.788,1335.77
1200.703,1356.03
1201.619,1351.67
1202.534,1338.90
1203.448,1335.20
1204.364,1343.57
1205.278,1350.10
1206.192,1316.43
1207.108,1348.47
1208.022,1344.03
1208.938,1372.17
1209.851,1344.33
1210.765,1323.20
1211.680,1350.77
1212.594,1357.90
1213.507,1349.27
1214.422,1314.10
1215.335,1356.73
1216.248,1367.70
1217.163,1368.47
1218.076,1338.57
1218.990,1364.30
1219.903,1402.10
1220.816,1363.80
1221.730,1360.97
1222.642,1379.93
1223.554,1352.03
1224.469,1373.17
1225.380,1386.90
1226.292,1353.50
1227.206,1356.33
1228.118,1373.33
1229.032,1384.33
1229.943,1356.33
1230.855,1393.50
1231.768,1375.90
1232.679,1378.40
1233.590,1370.03
1234.503,1348.33
1235.414,1380.17
1236.325,1420.97
1237.238,1360.63
1238.149,1373.83
1239.059,1394.07
1239.972,1318.77
1240.882,1382.47
1241.793,1376.63
1242.705,1388.73
1243.615,1409.93
1244.525,1397.20
1245.437,1376.00
1246.347,1369.43
1247.259,1400.30
1248.168,1397.83
1249.078,1378.13
1249.989,1381.23
1250.899,1412.57
1251.808,1373.07
1252.719,1376.50
1253.628,1350.67
1254.537,1387.17
1255.448,1367.63
1256.357,1404.03
1257.266,1394.10
1258.176,1439.27
1259.085,1395.47
1259.993,1414.80
1260.904,1386.30
1261.812,1381.93
1262.720,1430.03
1263.630,1408.70
1264.538,1370.63
1265.446,1405.30
1266.356,1392.30
1267.263,1396.63
1268.171,1398.90
1269.080,1372.00
1269.988,1426.47
1270.895,1384.33
1271.804,1424.20
1272.711,1408.83
1273.619,1412.03
1274.527,1388.93
1275.434,1422.80
1276.341,1358.30
1277.248,1408.63
1278.156,1385.37
1279.063,1397.87
1279.969,1371.67
1280.877,1378.50
1281.783,1337.33
1282.690,1366.13
1283.598,1352.07
1284.503,1358.00
1285.409,1370.03
1286.317,1373.23
1287.223,1379.50
1288.128,1400.53
1289.036,1370.53
1289.941,1377.73
1290.846,1343.57
1291.751,1346.27
1292.658,1317.40
1293.563,1334.70
1294.468,1364.53
1295.375,1327.30
1296.280,1357.67
1297.184,1347.53
1298.091,1339.43
1298.995,1369.50
1299.900,1351.50
1300.806,1334.73
1301.710,1318.03
1302.614,1296.57
1303.518,1300.17
1304.424,1307.77
1305.327,1291.37
1306.231,1314.50
1307.137,1309.10
1308.040,1295.87
1308.943,1312.53
1309.847,1301.93
1310.752,1270.93
1311.655,1319.13
1312.558,1256.40
1313.463,1288.97
1314.366,1243.53
1315.269,1243.20
1316.171,1294.73
1317.076,1254.93
1317.978,1253.43
1318.881,1243.20
1319.785,1222.80
1320.687,1244.27
1321.589,1223.23
1322.491,1222.37
1323.395,1228.33
1324.297,1261.40
1325.198,1237.47
1326.102,1248.10
1327.004,1231.50
1327.905,1209.30
1328.806,1229.73
1329.709,1261.13
1330.611,1212.83
1331.512,1212.07
1332.413,1163.93
1333.316,1216.57
1334.216,1203.93
1335.117,1217.47
1336.020,1209.13
1336.920,1175.93
1337.821,1164.13
1338.721,1187.53
1339.623,1170.93
1340.523,1198.03
1341.423,1151.60
1342.323,1161.80
1343.225,1176.23
1344.125,1143.10
1345.025,1206.23
1345.924,1139.63
1346.826,1147.63
1347.725,1156.10
1348.624,1150.33
1349.524,1170.13
1350.425,1152.07
1351.324,1135.20
1352.223,1119.93
1353.121,1168.77
1354.022,1118.73
1354.921,1133.60
1355.819,1112.80
1356.718,1108.87
1357.618,1134.00
1358.516,1160.40
1359.415,1120.93
1360.313,1100.80
1361.213,1093.53
1362.111,1114.73
1363.008,1147.03
1363.906,1128.00
1364.806,1107.00
1365.703,1065.80
1366.601,1097.77
1367.498,1097.57
1368.397,1116.17
1369.295,1077.60
1370.192,1090.53
1371.089,1075.17
1371.987,1060.53
1372.884,1099.07
1373.781,1069.23
1374.678,1066.73
1375.574,1090.10
1376.473,1097.50
1377.369,1059.07
1378.265,1042.17
1379.161,1109.23
1380.059,1092.13
1380.955,1087.03
1381.851,1042.30
1382.747,1093.20
1383.643,1039.10
1384.540,1049.50
1385.436,1037.17
1386.331,1086.57
1387.227,1053.63
1388.124,1030.23
1389.019,1052.00
1389.914,1058.33
1390.809,1019.60
1391.704,1012.07
1392.601,1055.13
1393.495,1037.97
1394.390,1029.53
1395.285,1047.20
1396.179,1012.87
1397.075,1028.13
1397.969,987.10
1398.864,1050.90
1399.758,1028.07
1400.652,1004.27
1401.547,997.53
1402.441,1001.87
1403.335,993.57
1404.229,1036.37
1405.122,999.67
1406.017,1010.13
1406.911,997.40
1407.804,969.57
1408.697,996.37
1409.590,1014.70
1410.485,999.33
1411.378,1010.43
1412.271,1036.23
1413.163,976.73
1414.056,1015.57
1414.949,986.97
1415.843,1006.17
1416.735,1008.90
1417.627,1000.57
1418.520,1015.30
1419.412,979.70
1420.306,1003.40
1421.197,969.47
1422.089,1008.77
1422.981,990.20
1423.873,1002.87
1424.764,959.57
1425.657,1003.30
1426.549,969.90
1427.440,979.30
1428.331,999.83
1429.222,953.23
1430.113,987.47
1431.006,980.93
1431.897,986.47
1432.787,987.27
1433.678,957.17
1434.568,952.17
1435.459,976.93
1436.351,981.67
1437.241,974.13
1438.131,956.70
1439.021,949.70
1439.911,1002.83
1440.801,948.00
1441.693,958.73
1442.583,968.57
1443.472,961.27
1444.362,945.50
1445.251,950.03
1446.140,921.20
1447.030,945.47
1447.921,977.40
1448.810,972.03
1449.699,954.77
1450.588,948.37
1451.476,939.93
1452.365,921.50
1453.254,923.57
1454.144,913.73
1455.032,958.43
1455.921,945.47
1456.809,948.37
1457.697,932.10
1458.585,975.67
1459.473,966.37
1460.361,935.80
1461.251,952.10
1462.138,907.40
1463.026,953.73
1463.913,960.90
1464.801,915.77
1465.688,920.47
1466.575,945.00
1467.463,908.07
1468.351,929.40
1469.238,924.47
1470.125,936.27
1471.012,912.17
1471.899,940.03
1472.785,917.77
1473.672,940.37
1474.558,937.80
1475.446,923.93
1476.333,884.50
1477.219,930.17
1478.105,894.60
1478.991,920.93
1479.877,908.53
1480.762,923.67
1481.648,916.50
1482.534,892.67
1483.419,936.37
1484.307,870.23
1485.192,890.20
1486.077,900.73
1486.962,895.47
1487.847,928.80
1488.732,896.67
1489.617,874.00
1490.502,906.40
1491.387,873.80
1492.271,917.93
1493.156,873.37
1494.042,859.63
1494.927,903.57
1495.811,872.00
1496.695,883.57
1497.579,868.97
1498.463,902.17
1499.347,870.87
1500.231,892.37
1501.114,893.90
1501.998,886.60
1502.881,860.23
1503.765,848.33
1504.648,857.00
1505.533,859.40
1506.417,889.23
1507.300,827.80
1508.183,867.07
1509.066,843.63
1509.948,849.07
1510.831,861.00
1511.714,881.23
1512.596,857.00
1513.479,884.93
1514.361,839.10
1515.243,849.57
1516.125,849.37
1517.008,835.00
1517.890,890.57
1518.771,836.40
1519.655,866.77
1520.537,825.27
1521.419,863.87
1522.300,869.40
1523.182,842.70
1524.063,800.73
1524.944,836.83
1525.825,829.37
1526.707,864.67
1527.588,791.30
1528.468,840.60
1529.349,847.47
1530.230,852.23
1531.111,822.97
1531.991,815.93
1532.872,845.23
1533.752,818.67
1534.632,850.07
1535.513,832.83
1536.393,841.63
1537.273,805.37
1538.153,875.47
1539.032,819.03
1539.912,837.80
1540.792,832.40
1541.672,842.60
1542.551,807.13
1543.430,822.27
1544.310,867.20
1545.189,812.17
1546.068,836.47
1546.947,831.10
1547.826,850.27
1548.705,799.27
1549.584,826.00
1550.462,836.80
1551.341,841.60
1552.219,805.57
1553.098,837.90
1553.976,851.47
1554.854,842.00
1555.733,813.50
1556.611,799.20
1557.489,819.50
1558.367,809.00
1559.244,796.43
1560.122,829.30
1561.000,813.70
1561.877,803.50
1562.755,800.77
1563.632,783.10
1564.509,809.90
1565.386,846.57
1566.264,814.57
1567.141,788.33
1568.017,820.50
1568.894,798.87
1569.771,785.40
1570.648,803.03
1571.524,800.47
1572.401,778.47
1573.277,818.83
1574.153,802.50
1575.029,821.97
1575.906,803.83
1576.781,811.03
1577.657,845.93
1578.533,800.10
1579.409,817.40
1580.285,767.73
1581.160,801.13
1582.036,801.23
1582.911,782.97
1583.786,785.10
1584.662,803.07
1585.537,795.20
1586.412,773.47
1587.287,822.43
1588.160,809.10
1589.035,765.53
1589.909,812.07
1590.784,776.23
1591.658,770.40
1592.533,822.37
1593.407,810.57
1594.281,776.87
1595.155,791.67
1596.029,817.40
1596.903,779.63
1597.777,793.17
1598.651,767.70
1599.525,778.83
1600.398,820.47
1601.272,790.30
1602.144,831.37
1603.017,769.13
1603.890,785.33
1604.763,810.87
1605.636,754.23
1606.509,783.07
1607.382,795.60
1608.255,813.17
1609.128,803.23
1610.000,805.30
1610.873,785.90
1611.746,799.77
1612.616,790.53
1613.488,772.10
1614.361,780.33
1615.233,810.37
1616.105,749.83
1616.977,791.47
1617.849,781.83
1618.720,787.53
1619.592,772.30
1620.464,808.47
1621.333,750.50
1622.205,799.03
1623.076,766.37
1623.947,780.73
1624.818,817.57
1625.689,731.03
1626.560,744.20
1627.431,781.53
1628.302,773.03
1629.171,821.53
1630.042,786.10
1630.912,926.00
1631.782,765.97
1632.653,777.33
1633.523,775.97
1634.393,770.17
1635.263,767.03
1636.131,776.03
1637.001,757.00
1637.871,801.60
1638.741,748.17
1639.611,771.63
1640.480,716.00
1641.350,761.47
1642.219,770.37
1643.087,742.17
1643.956,739.43
1644.825,774.93
1645.694,736.63
1646.563,780.87
1647.432,769.63
1648.299,736.23
1649.167,731.60
1650.036,795.67
1650.904,802.23
1651.773,766.63
1652.641,777.47
1653.509,757.73
1654.376,765.50
1655.244,727.43
1656.112,730.17
1656.980,801.13
1657.847,763.00
1658.715,745.30
1659.581,756.07
1660.448,773.30
1661.316,787.53
1662.183,731.87
1663.051,731.03
1663.918,749.43
1664.783,737.97
1665.650,741.93
1666.517,776.70
1667.384,755.80
1668.251,737.87
1669.115,752.13
1669.982,756.37
1670.849,750.40
1671.715,745.47
1672.581,771.33
1673.446,760.43
1674.312,745.40
1675.178,741.13
1676.044,718.33
1676.910,773.37
1677.774,752.63
1678.639,715.87
1679.505,702.83
1680.370,743.20
1681.236,776.53
1682.099,802.33
1682.965,774.20
1683.830,730.47
1684.695,718.17
1685.560,701.97
1686.423,762.10
1687.288,724.57
1688.153,754.13
1689.017,734.70
1689.880,745.90
1690.745,762.47
1691.609,721.53
1692.473,741.83
1693.338,731.53
1694.200,737.33
1695.064,738.73
1695.928,730.80
1696.792,735.60
1697.654,721.07
1698.517,751.03
1699.381,717.70
1700.245,707.67
1701.106,714.67
1701.969,730.70
1702.833,763.20
1703.696,747.47
1704.557,722.10
1705.420,776.93
1706.283,750.77
1707.146,732.07
1708.007,739.70
1708.870,734.67
1709.732,735.53
1710.595,714.20
1711.455,718.23
1712.318,715.33
1713.180,740.93
1714.040,737.67
1714.902,737.20
1715.764,725.20
1716.626,742.40
1717.486,745.40
1718.348,753.40
1719.209,843.27
1720.071,709.63
1720.930,759.77
1721.792,740.53
1722.653,721.10
1723.512,729.73
1724.374,694.33
1725.234,708.30
1726.095,755.17
1726.954,718.93
1727.815,714.13
1728.676,704.50
1729.535,719.90
1730.395,725.47
1731.256,701.30
1732.114,769.50
1732.974,747.57
1733.834,702.37
1734.693,725.63
1735.553,698.50
1736.413,690.10
1737.272,731.17
1738.130,737.83
1738.990,718.43
1739.849,730.37
1740.707,708.90
1741.566,717.53
1742.426,698.33
1743.283,702.57
1744.142,746.03
1745.001,713.93
1745.858,683.10
1746.717,745.00
1747.576,727.43
1748.433,706.17
1749.292,709.00
1750.150,772.27
1751.007,718.20
1751.865,697.60
1752.723,730.97
1753.579,727.70
1754.438,747.37
1755.296,703.60
1756.152,727.40
1757.010,717.40
1757.865,685.03
1758.723,714.30
1759.581,753.23
1760.436,742.80
1761.294,717.40
1762.151,745.67
1763.006,730.20
1763.864,698.67
1764.721,671.17
1765.576,740.30
1766.433,708.80
1767.288,716.67
1768.144,721.43
1769.001,704.57
1769.856,716.23
1770.712,730.70
1771.568,687.03
1772.423,722.10
1773.279,734.57
1774.133,735.07
1774.989,701.33
1775.845,654.60
1776.699,719.07
1777.555,706.80
1778.409,691.00
1779.265,737.50
1780.120,700.10
1780.974,659.03
1781.829,718.57
1782.682,700.90
1783.538,700.90
1784.393,714.43
1785.246,693.50
1786.101,714.60
1786.954,725.13
1787.808,702.77
1788.661,680.93
1789.516,662.50
1790.370,704.40
1791.223,707.43
1792.077,721.20
1792.930,712.37
1793.784,736.40
1794.636,726.63
1795.490,695.97
1796.344,689.20
1797.196,679.70
1798.049,745.63
1798.901,709.73
1799.755,706.30
1800.606,713.60
1801.460,709.57
1802.311,701.53
1803.165,695.70
1804.018,732.07
1804.869,716.17
1805.722,670.00
1806.573,679.10
1807.426,700.37
1808.276,721.60
1809.129,692.60
1809.980,697.03
1810.832,704.90
1811.683,711.27
1812.535,735.73
1813.385,692.03
1814.237,723.97
1815.089,681.27
1815.940,681.47
1816.791,663.93
1817.641,693.53
1818.493,657.77
1819.343,716.23
1820.194,683.53
1821.044,706.87
1821.895,659.30
1822.745,702.57
1823.596,709.33
1824.445,688.60
1825.296,702.17
1826.145,723.63
1826.996,694.80
1827.845,698.20
1828.695,694.80
1829.544,700.53
1830.395,720.20
1831.243,697.97
1832.094,708.70
1832.942,691.53
1833.792,723.97
1834.640,681.40
1835.490,703.03
1836.338,688.83
1837.186,682.53
1838.036,678.10
1838.884,689.63
1839.733,720.63
1840.581,699.20
1841.430,706.23
1842.278,692.03
1843.127,685.23
1843.974,676.60
1844.823,704.17
1845.671,691.77
1846.519,709.83
1847.366,696.27
1848.213,704.37
1849.062,681.03
1849.909,682.27
1850.757,713.57
1851.604,674.70
1852.452,671.57
1853.298,673.20
1854.146,658.43
1854.993,691.27
1855.839,668.80
1856.687,669.93
1857.532,639.97
1858.380,665.40
1859.226,661.17
1860.073,676.33
1860.919,722.83
1861.765,686.30
1862.612,672.90
1863.457,661.80
1864.304,685.47
1865.150,704.83
1865.995,705.50
1866.842,689.03
1867.686,702.67
1868.533,695.77
1869.378,656.20
1870.223,672.03
1871.069,702.70
1871.914,686.03
1872.760,699.60
1873.604,657.47
1874.448,722.10
1875.294,678.57
1876.139,657.33
1876.984,653.50
1877.828,680.97
1878.672,688.43
1879.518,661.57
1880.361,695.53
1881.205,663.57
1882.050,673.00
1882.894,680.43
1883.739,665.67
1884.582,695.53
1885.425,642.30
1886.270,682.97
1887.113,661.57
1887.956,692.20
1888.801,692.90
1889.644,671.67
1890.486,709.73
1891.331,692.80
1892.173,668.10
1893.017,678.23
1893.860,707.07
1894.702,707.17
1895.546,716.67
1896.388,709.23
1897.230,676.30
1898.074,630.97
1898.916,661.87
1899.757,694.87
1900.601,679.20
1901.443,693.80
1902.284,707.63
1903.125,705.13
1903.969,670.17
1904.810,672.10
1905.651,696.93
1906.494,668.33
1907.335,691.20
1908.176,712.23
1909.018,644.47
1909.859,675.30
1910.700,667.70
1911.542,707.20
1912.383,630.43
1913.223,652.93
1914.064,646.30
1914.906,687.63
1915.746,672.43
1916.586,676.57
1917.428,657.13
1918.268,671.13
1919.107,644.33
1919.947,673.60
1920.789,673.07
1921.628,674.80
1922.468,703.53
1923.309,632.70
1924.148,677.40
1924.988,658.70
1925.827,649.40
1926.667,663.33
1927.507,666.77
1928.345,658.67
1929.184,693.03
1930.025,628.90
1930.864,668.23
1931.702,632.47
1932.541,671.90
1933.381,666.93
1934.219,681.87
1935.057,659.27
1935.896,645.77
1936.735,698.37
1937.573,657.83
1938.411,686.70
1939.249,678.83
1940.089,697.03
1940.927,692.83
1941.764,693.43
1942.602,698.83
1943.439,685.43
1944.278,688.07
1945.115,674.37
1945.953,665.93
1946.790,649.47
1947.628,678.43
1948.465,662.37
1949.302,673.33
1950.139,640.07
1950.976,660.20
1951.814,699.90
1952.651,654.07
1953.487,659.83
1954.323,666.30
1955.160,662.00
1955.998,643.57
1956.834,668.67
1957.670,629.90
1958.506,679.33
1959.342,691.03
1960.177,646.13
1961.015,713.37
1961.850,647.40
1962.686,653.90
1963.521,709.53
1964.357,700.43
1965.192,666.57
1966.029,686.90
1966.864,670.37
1967.699,704.43
1968.534,676.00
1969.369,658.00
1970.204,655.63
1971.040,684.13
1971.875,658.33
1972.709,664.80
1973.544,668.53
1974.378,642.43
1975.212,679.97
1976.047,703.27
1976.882,657.33
1977.716,689.97
1978.550,668.37
1979.384,669.33
1980.218,656.27
1981.052,675.10
1981.885,665.17
1982.719,654.27
1983.554,671.13
1984.388,666.17
1985.221,670.50
1986.054,669.23
1986.887,666.40
1987.720,654.80
1988.553,641.00
1989.386,677.67
1990.219,659.13
1991.053,645.63
1991.886,653.00
1992.719,665.60
1993.551,692.70
1994.383,653.53
1995.216,650.77
1996.048,656.33
1996.880,708.47
1997.712,640.10
1998.544,646.23
1999.376,703.77
2000.208,660.97
2001.040,657.83
2001.873,641.27
2002.705,704.67
2003.536,688.57
2004.367,636.60
2005.199,681.23
2006.030,680.47
2006.861,693.90
2007.692,689.63
2008.523,650.93
2009.354,697.23
2010.185,632.57
2011.016,601.33
2011.846,695.20
2012.677,655.23
2013.507,665.60
2014.338,657.03
2015.168,626.23
2015.999,649.83
2016.829,675.90
2017.659,666.17
2018.489,676.20
2019.319,676.80
2020.149,696.00
2020.980,705.17
2021.810,675.30
2022.639,668.13
2023.469,656.70
2024.298,704.67
2025.128,659.67
2025.957,670.60
2026.786,681.73
2027.615,705.37
2028.444,704.57
2029.273,688.27
2030.102,719.60
2030.931,635.53
2031.758,676.53
2032.586,709.73
2033.415,684.57
2034.243,701.07
2035.072,668.63
2035.900,681.07
2036.728,666.30
2037.556,697.60
2038.385,712.97
2039.213,697.37
2040.040,676.53
2040.868,695.83
2041.696,671.60
2042.524,700.50
2043.351,671.43
2044.179,690.50
2045.006,713.43
2045.006,713.43

Max Intensity Wave.,217.871
Max Intensity Data,6806.40
Min Intensity Wave.,1123.206
Min Intensity Data,481.43
FWHM Wave.,378.577
FWHM Value,44.26
Pressure Wave.,684.671
Pressure Value [GPa],-24.91530
G/D Ratio,0.69390
G/D Gband Wave.,1630.883
G/D Gband Intensity,926.17
G/D Dband Wave.,1300.806
G/D Dband Intensity,1334.73

<< BACKGROUND SPECTRUM >>
Wave[dcm-1],No320
146.591,2263.00
147.626,2106.00
148.664,2049.00
149.699,2543.00
150.737,2261.00
151.772,2398.00
152.809,2409.00
153.846,2330.00
154.881,2434.00
155.918,1971.00
156.953,2293.00
157.989,2626.00
159.026,2480.00
160.060,2641.00
161.096,2874.00
162.130,2515.00
163.167,2596.00
164.200,2468.00
165.236,2715.00
166.272,2709.00
167.305,2306.00
168.341,2533.00
169.374,2832.00
170.409,2830.00
171.445,2730.00
172.477,2524.00
173.512,2395.00
174.545,2688.00
175.580,2852.00
176.614,3065.00
177.647,2857.00
178.681,3026.00
179.713,3404.00
180.747,2828.00
181.781,2698.00
182.813,2982.00
183.847,3101.00
184.878,2725.00
185.912,3012.00
186.945,3152.00
187.976,3061.00
189.010,2727.00
190.043,2863.00
191.073,2961.00
192.106,2737.00
193.137,3210.00
194.170,2539.00
195.202,2954.00
196.232,2719.00
197.265,3006.00
198.297,3105.00
199.327,2799.00
200.359,2973.00
201.388,3362.00
202.420,2929.00
203.452,3111.00
204.481,2711.00
205.512,3294.00
206.544,3116.00
207.573,3070.00
208.604,3439.00
209.635,3566.00
210.663,2944.00
211.694,2992.00
212.725,2885.00
213.753,2786.00
214.783,3420.00
215.813,3285.00
216.841,3016.00
217.871,3198.00
218.899,2936.00
219.929,3144.00
220.959,2903.00
221.986,3188.00
223.016,2789.00
224.045,3165.00
225.072,3128.00
226.101,3195.00
227.130,3280.00
228.157,2874.00
229.185,2355.00
230.214,3216.00
231.241,2819.00
232.269,2524.00
233.297,2681.00
234.323,3271.00
235.351,2825.00
236.379,3150.00
237.407,2764.00
238.433,2975.00
239.460,3163.00
240.488,3147.00
241.513,3229.00
242.540,3124.00
243.568,3178.00
244.592,3230.00
245.619,3271.00
246.646,2942.00
247.671,2981.00
248.697,2805.00
249.724,3036.00
250.748,2994.00
251.774,3045.00
252.801,3339.00
253.827,3143.00
254.850,3085.00
255.876,2688.00
256.902,3107.00
257.925,3014.00
258.951,2742.00
259.976,2803.00
260.999,3116.00
262.024,2815.00
263.049,3700.00
264.074,3124.00
265.097,3031.00
266.122,3120.00
267.146,3062.00
268.168,3212.00
269.193,2857.00
270.217,3263.00
271.241,2708.00
272.263,2852.00
273.287,3181.00
274.311,2810.00
275.332,3315.00
276.356,2892.00
277.379,3132.00
278.402,3151.00
279.424,2972.00
280.447,2886.00
281.470,2756.00
282.492,3100.00
283.513,2975.00
284.536,3185.00
285.558,3216.00
286.581,3156.00
287.601,2861.00
288.623,2835.00
289.645,3087.00
290.665,3117.00
291.687,3184.00
292.709,3122.00
293.730,3458.00
294.750,2918.00
295.771,2798.00
296.792,3065.00
297.813,2933.00
298.832,3052.00
299.853,2732.00
300.874,2965.00
301.895,2963.00
302.913,2995.00
303.934,3285.00
304.954,3064.00
305.975,3218.00
306.993,2786.00
308.013,3179.00
309.033,3062.00
310.052,2952.00
311.072,2924.00
312.090,3089.00
313.109,3290.00
314.129,3440.00
315.148,3037.00
316.165,3088.00
317.184,3275.00
318.203,2796.00
319.222,2785.00
320.238,3138.00
321.257,2837.00
322.275,2743.00
323.294,2980.00
324.312,3186.00
325.328,3308.00
326.346,3322.00
327.364,3262.00
328.382,3200.00
329.397,3132.00
330.415,3245.00
331.432,3233.00
332.450,3281.00
333.467,3421.00
334.482,2612.00
335.499,3354.00
336.516,2874.00
337.533,2614.00
338.547,2851.00
339.564,2917.00
340.580,3104.00
341.597,2972.00
342.613,3425.00
343.627,3023.00
344.643,3062.00
345.659,3140.00
346.675,3029.00
347.690,2902.00
348.704,3083.00
349.719,2936.00
350.735,2809.00
351.750,3222.00
352.765,3041.00
353.778,3018.00
354.793,3173.00
355.808,2903.00
356.822,3228.00
357.837,2651.00
358.851,3293.00
359.864,2987.00
360.878,2778.00
361.892,2968.00
362.906,3162.00
363.920,2602.00
364.932,3110.00
365.945,3113.00
366.959,3041.00
367.972,2936.00
368.986,2709.00
369.999,3384.00
371.010,2843.00
372.023,3375.00
373.036,2989.00
374.049,3415.00
375.061,3076.00
376.072,3027.00
377.084,2914.00
378.097,2758.00
379.109,3186.00
380.121,2996.00
381.133,2702.00
382.143,3153.00
383.155,2704.00
384.166,2936.00
385.178,3153.00
386.189,3237.00
387.201,2715.00
388.212,2956.00
389.221,2964.00
390.232,3022.00
391.243,2930.00
392.254,3074.00
393.264,2817.00
394.275,3272.00
395.283,3185.00
396.294,3665.00
397.304,3532.00
398.314,3127.00
399.324,3061.00
400.334,2671.00
401.344,3159.00
402.351,2716.00
403.361,3234.00
404.370,2974.00
405.380,2935.00
406.389,3347.00
407.398,3152.00
408.407,3140.00
409.414,3192.00
410.423,3350.00
411.431,2806.00
412.440,2680.00
413.448,3361.00
414.457,2877.00
415.465,2841.00
416.471,2868.00
417.479,3060.00
418.487,2835.00
419.495,3311.00
420.503,3130.00
421.510,2649.00
422.518,3208.00
423.525,3218.00
424.530,3423.00
425.537,2904.00
426.544,3234.00
427.551,2856.00
428.558,3569.00
429.565,3463.00
430.571,2940.00
431.578,2941.00
432.582,2872.00
433.588,3027.00
434.595,2630.00
435.601,3313.00
436.607,3278.00
437.612,2761.00
438.618,3379.00
439.624,2976.00
440.627,2963.00
441.633,3136.00
442.638,3679.00
443.643,3115.00
444.648,3048.00
445.653,3226.00
446.658,2917.00
447.663,3059.00
448.667,2895.00
449.672,2889.00
450.674,2992.00
451.678,2734.00
452.682,2902.00
453.687,2826.00
454.690,3658.00
455.694,3309.00
456.698,2624.00
457.702,2705.00
458.705,2853.00
459.709,2821.00
460.710,2899.00
461.713,3040.00
462.716,3099.00
463.719,3059.00
464.722,3199.00
465.725,2975.00
466.727,2848.00
467.730,3055.00
468.732,2815.00
469.735,3271.00
470.737,2930.00
471.737,2917.00
472.739,2927.00
473.741,2774.00
474.742,3087.00
475.744,3112.00
476.746,3063.00
477.747,2998.00
478.748,3209.00
479.750,2926.00
480.751,3084.00
481.752,3778.00
482.753,3156.00
483.751,3570.00
484.752,2676.00
485.753,2984.00
486.753,2873.00
487.753,3048.00
488.754,3436.00
489.754,2725.00
490.754,3324.00
491.754,3099.00
492.754,2705.00
493.753,3036.00
494.753,2919.00
495.752,3400.00
496.752,3038.00
497.749,3035.00
498.748,2885.00
499.747,3390.00
500.746,3080.00
501.745,2773.00
502.744,2743.00
503.742,3346.00
504.741,2960.00
505.739,2484.00
506.737,2903.00
507.735,3151.00
508.734,3413.00
509.732,3184.00
510.729,3368.00
511.727,2943.00
512.725,2907.00
513.720,2819.00
514.718,3269.00
515.715,2708.00
516.712,2639.00
517.709,2987.00
518.706,2935.00
519.703,3067.00
520.700,3192.00
521.696,3350.00
522.693,2931.00
523.689,2874.00
524.686,3175.00
525.682,2984.00
526.678,3468.00
527.674,2943.00
528.670,2601.00
529.666,3479.00
530.661,3488.00
531.657,3661.00
532.652,3191.00
533.648,3050.00
534.641,3206.00
535.636,3092.00
536.631,3106.00
537.626,3158.00
538.621,2744.00
539.616,2624.00
540.610,2529.00
541.605,3020.00
542.599,3036.00
543.593,2993.00
544.587,3888.00
545.581,2855.00
546.575,3064.00
547.569,3028.00
548.563,2718.00
549.557,2708.00
550.550,2787.00
551.543,2729.00
552.537,3136.00
553.530,2749.00
554.523,2825.00
555.516,3159.00
556.509,2959.00
557.502,2645.00
558.494,3202.00
559.487,2930.00
560.479,3210.00
561.472,3251.00
562.464,3135.00
563.456,3353.00
564.448,2964.00
565.440,3045.00
566.432,3378.00
567.423,2871.00
568.415,2875.00
569.404,3149.00
570.396,2891.00
571.387,3128.00
572.378,3054.00
573.369,3966.00
574.360,3675.00
575.351,2986.00
576.341,2896.00
577.332,2920.00
578.323,2696.00
579.313,2922.00
580.303,3272.00
581.293,3156.00
582.283,2984.00
583.273,3137.00
584.263,3045.00
585.253,3141.00
586.243,3197.00
587.232,2685.00
588.222,3003.00
589.211,3242.00
590.200,3067.00
591.189,2930.00
592.178,2950.00
593.167,3463.00
594.156,3312.00
595.145,2902.00
596.133,3440.00
597.122,3117.00
598.110,3239.00
599.098,3120.00
600.086,3028.00
601.074,3200.00
602.062,2863.00
603.050,2763.00
604.038,3097.00
605.025,2792.00
606.013,3236.00
607.000,3382.00
607.987,3034.00
608.975,3078.00
609.962,2768.00
610.949,3148.00
611.936,3268.00
612.922,3212.00
613.909,2729.00
614.895,3360.00
615.882,2849.00
616.868,3036.00
617.854,2768.00
618.841,3054.00
619.826,3133.00
620.812,3015.00
621.798,2828.00
622.784,3197.00
623.769,3116.00
624.755,2731.00
625.740,3054.00
626.725,2752.00
627.711,2883.00
628.698,3096.00
629.683,2823.00
630.667,3208.00
631.652,2789.00
632.637,2974.00
633.621,3165.00
634.606,2926.00
635.590,3101.00
636.574,2950.00
637.558,3069.00
638.542,3011.00
639.526,2865.00
640.510,2663.00
641.493,3068.00
642.477,3022.00
643.460,2710.00
644.444,3250.00
645.427,3230.00
646.410,2685.00
647.393,2960.00
648.376,3057.00
649.359,2953.00
650.341,3089.00
651.324,3102.00
652.307,3073.00
653.289,2958.00
654.271,2918.00
655.253,2894.00
656.235,3148.00
657.217,3239.00
658.199,2656.00
659.181,2761.00
660.163,3009.00
661.144,2897.00
662.126,2891.00
663.107,2797.00
664.088,6183.00
665.069,3251.00
666.050,2862.00
667.033,2710.00
668.014,3054.00
668.995,2643.00
669.975,3031.00
670.956,2976.00
671.936,3160.00
672.916,2949.00
673.896,3102.00
674.876,2922.00
675.856,2920.00
676.836,2780.00
677.816,2307.00
678.795,2817.00
679.775,2693.00
680.754,3040.00
681.734,3137.00
682.713,3202.00
683.692,2758.00
684.671,2679.00
685.650,2772.00
686.629,2894.00
687.607,2737.00
688.586,2792.00
689.564,2858.00
690.543,3284.00
691.523,2385.00
692.501,2875.00
693.479,2980.00
694.457,2797.00
695.435,2880.00
696.413,2715.00
697.390,2543.00
698.368,2665.00
699.345,3142.00
700.322,2928.00
701.300,3102.00
702.277,3066.00
703.254,3222.00
704.231,2608.00
705.207,2993.00
706.184,2788.00
707.161,2681.00
708.137,2828.00
709.113,2796.00
710.090,2822.00
711.068,2569.00
712.044,2618.00
713.020,2905.00
713.996,2632.00
714.971,2833.00
715.947,2875.00
716.922,2776.00
717.898,2758.00
718.873,2901.00
719.848,2719.00
720.823,2682.00
721.798,2973.00
722.773,2761.00
723.748,2539.00
724.723,3042.00
725.697,2824.00
726.672,2774.00
727.646,2535.00
728.622,2959.00
729.596,2600.00
730.570,2716.00
731.544,3089.00
732.518,3267.00
733.492,2859.00
734.466,2888.00
735.439,3025.00
736.413,3114.00
737.386,2490.00
738.359,2406.00
739.332,2548.00
740.305,2850.00
741.278,3321.00
742.251,2929.00
743.224,2756.00
744.196,2557.00
745.171,3172.00
746.143,3046.00
747.115,2775.00
748.087,2752.00
749.059,3055.00
750.031,2908.00
751.003,3717.00
751.975,3247.00
752.947,2676.00
753.918,3094.00
754.890,2588.00
755.861,2774.00
756.832,3030.00
757.803,2864.00
758.774,2853.00
759.747,2616.00
760.718,3233.00
761.689,2772.00
762.659,2609.00
763.630,3178.00
764.600,2553.00
765.570,3063.00
766.540,3140.00
767.510,2922.00
768.480,3041.00
769.450,2695.00
770.420,2819.00
771.390,2649.00
772.359,2772.00
773.329,2683.00
774.300,2518.00
775.269,2762.00
776.238,3019.00
777.207,3185.00
778.176,2503.00
779.145,2792.00
780.114,2684.00
781.083,2610.00
782.051,2755.00
783.019,2650.00
783.988,3093.00
784.956,2841.00
785.924,3009.00
786.894,2875.00
787.862,2708.00
788.830,3127.00
789.797,2583.00
790.765,2619.00
791.732,2758.00
792.700,2697.00
793.667,2631.00
794.634,2758.00
795.601,2759.00
796.568,2776.00
797.535,2834.00
798.502,3470.00
799.468,2901.00
800.437,2422.00
801.403,2652.00
802.370,3269.00
803.336,3025.00
804.302,2855.00
805.268,2460.00
806.234,2569.00
807.200,2726.00
808.166,2762.00
809.131,2591.00
810.097,2968.00
811.062,3654.00
812.027,3032.00
812.994,2620.00
813.960,2606.00
814.925,2940.00
815.889,2517.00
816.854,3012.00
817.819,2664.00
818.783,2736.00
819.748,3100.00
820.712,2743.00
821.677,2681.00
822.641,2689.00
823.605,2765.00
824.571,3128.00
825.534,2706.00
826.498,2671.00
827.462,2822.00
828.425,2622.00
829.389,3068.00
830.352,2816.00
831.315,2911.00
832.279,2477.00
833.242,2760.00
834.204,2672.00
835.167,2676.00
836.132,3035.00
837.095,2531.00
838.057,2669.00
839.020,2836.00
839.982,2861.00
840.944,2698.00
841.906,2655.00
842.868,2978.00
843.830,2573.00
844.792,3039.00
845.753,2652.00
846.715,2459.00
847.679,2617.00
848.640,2619.00
849.601,2794.00
850.562,3265.00
851.523,2734.00
852.484,2479.00
853.445,2982.00
854.406,2685.00
855.367,2755.00
856.327,3020.00
857.288,2526.00
858.248,2700.00
859.210,2671.00
860.170,2506.00
861.130,3024.00
862.090,2445.00
863.050,2617.00
864.010,2694.00
864.969,2896.00
865.929,2617.00
866.888,2567.00
867.848,2842.00
868.807,2657.00
869.766,2844.00
870.727,2742.00
871.686,3015.00
872.645,3008.00
873.604,3291.00
874.562,2781.00
875.521,2817.00
876.479,3403.00
877.437,2576.00
878.396,2607.00
879.354,3175.00
880.312,2631.00
881.270,2694.00
882.229,3084.00
883.187,2623.00
884.145,2703.00
885.102,2915.00
886.059,2873.00
887.017,2945.00
887.974,2970.00
888.931,3110.00
889.888,2563.00
890.845,2438.00
891.802,2351.00
892.758,2653.00
893.717,2441.00
894.673,2578.00
895.630,2653.00
896.586,2910.00
897.542,2658.00
898.498,2547.00
899.454,2876.00
900.410,2698.00
901.366,2684.00
902.321,2628.00
903.277,2734.00
904.232,2748.00
905.189,2489.00
906.145,2665.00
907.100,2220.00
908.055,2741.00
909.010,2917.00
909.965,2314.00
910.919,2799.00
911.874,2568.00
912.828,2795.00
913.783,2795.00
914.737,2333.00
915.693,2775.00
916.648,2901.00
917.602,2971.00
918.555,2806.00
919.509,2835.00
920.463,2714.00
921.417,2795.00
922.370,2607.00
923.324,2673.00
924.277,2674.00
925.230,2768.00
926.183,2446.00
927.138,2707.00
928.091,2967.00
929.044,2780.00
929.996,2641.00
930.949,2672.00
931.902,2830.00
932.854,2815.00
933.806,2601.00
934.758,2950.00
935.711,2992.00
936.663,2817.00
937.614,2822.00
938.568,2758.00
939.520,2405.00
940.471,2704.00
941.423,2774.00
942.374,2900.00
943.326,2768.00
944.277,2579.00
945.228,2880.00
946.179,2704.00
947.130,2997.00
948.080,2665.00
949.031,2571.00
949.984,2644.00
950.934,2713.00
951.884,2491.00
952.835,2731.00
953.785,2775.00
954.735,2600.00
955.685,2354.00
956.635,2639.00
957.585,2626.00
958.534,2631.00
959.484,2740.00
960.433,2632.00
961.383,2474.00
962.334,2977.00
963.283,2786.00
964.232,2849.00
965.181,2728.00
966.130,2801.00
967.079,2626.00
968.027,2736.00
968.976,2746.00
969.924,2645.00
970.873,2826.00
971.821,2740.00
972.769,2957.00
973.719,2845.00
974.667,2510.00
975.615,2709.00
976.562,2713.00
977.510,2390.00
978.458,2602.00
979.405,2824.00
980.352,2766.00
981.300,2999.00
982.247,2820.00
983.194,2561.00
984.141,2624.00
985.088,2721.00
986.036,2819.00
986.983,3001.00
987.930,3155.00
988.876,2356.00
989.822,2967.00
990.769,2534.00
991.715,2579.00
992.661,2418.00
993.607,2764.00
994.553,3234.00
995.498,2609.00
996.444,2286.00
997.389,2804.00
998.337,2528.00
999.282,2880.00
1000.227,2634.00
1001.173,2725.00
1002.118,2493.00
1003.062,2905.00
1004.007,2692.00
1004.952,2937.00
1005.897,2962.00
1006.841,2674.00
1007.786,2470.00
1008.730,2468.00
1009.674,3162.00
1010.618,2660.00
1011.564,2508.00
1012.508,2369.00
1013.452,2972.00
1014.396,2685.00
1015.339,2597.00
1016.283,2709.00
1017.226,2750.00
1018.170,2716.00
1019.113,2903.00
1020.056,2759.00
1020.999,2715.00
1021.942,2600.00
1022.885,2860.00
1023.828,3010.00
1024.770,2510.00
1025.715,2778.00
1026.657,2680.00
1027.600,2757.00
1028.542,2916.00
1029.484,2737.00
1030.426,2848.00
1031.368,2765.00
1032.310,2606.00
1033.251,2521.00
1034.193,2722.00
1035.135,2469.00
1036.076,2647.00
1037.017,2529.00
1037.959,2855.00
1038.900,2777.00
1039.843,2803.00
1040.784,2774.00
1041.725,2810.00
1042.665,2635.00
1043.606,2810.00
1044.547,2742.00
1045.487,2352.00
1046.427,2673.00
1047.368,2731.00
1048.308,2245.00
1049.248,2548.00
1050.188,2676.00
1051.128,2611.00
1052.067,2667.00
1053.007,2398.00
1053.947,2392.00
1054.886,2585.00
1055.827,2515.00
1056.766,2934.00
1057.706,2460.00
1058.645,2681.00
1059.584,2770.00
1060.522,2978.00
1061.461,2445.00
1062.400,2496.00
1063.338,2678.00
1064.277,2500.00
1065.215,2521.00
1066.154,2386.00
1067.092,2577.00
1068.030,2592.00
1068.968,2873.00
1069.906,2995.00
1070.843,2936.00
1071.781,2751.00
1072.720,2776.00
1073.658,2843.00
1074.595,2603.00
1075.533,2572.00
1076.470,2574.00
1077.407,2980.00
1078.344,2782.00
1079.281,2810.00
1080.217,2325.00
1081.154,2685.00
1082.091,2736.00
1083.027,2428.00
1083.964,2944.00
1084.900,2562.00
1085.836,2587.00
1086.772,2893.00
1087.708,2477.00
1088.644,2841.00
1089.580,2684.00
1090.515,2719.00
1091.451,2634.00
1092.388,2726.00
1093.324,2495.00
1094.259,3229.00
1095.194,2730.00
1096.129,2608.00
1097.064,2577.00
1097.999,2814.00
1098.934,2551.00
1099.869,2576.00
1100.803,2733.00
1101.738,2706.00
1102.672,2381.00
1103.607,2843.00
1104.541,2552.00
1105.475,2518.00
1106.409,2408.00
1107.343,2579.00
1108.277,2443.00
1109.210,2740.00
1110.144,2669.00
1111.078,2689.00
1112.011,2482.00
1112.944,2774.00
1113.878,2729.00
1114.811,2175.00
1115.744,2579.00
1116.678,2305.00
1117.611,2565.00
1118.544,2582.00
1119.477,2742.00
1120.409,2531.00
1121.342,3123.00
1122.274,2758.00
1123.206,4260.00
1124.138,2669.00
1125.070,2931.00
1126.002,2854.00
1126.934,2257.00
1127.866,2568.00
1128.798,2295.00
1129.729,2406.00
1130.661,2660.00
1131.592,2571.00
1132.523,2741.00
1133.454,2762.00
1134.385,2317.00
1135.317,2656.00
1136.247,2587.00
1137.178,2855.00
1138.109,2396.00
1139.039,2975.00
1139.970,2809.00
1140.900,2586.00
1141.831,2366.00
1142.761,2224.00
1143.691,2746.00
1144.621,2638.00
1145.551,2689.00
1146.480,2693.00
1147.410,2812.00
1148.340,2297.00
1149.269,2340.00
1150.199,2610.00
1151.128,3038.00
1152.057,2428.00
1152.979,2587.00
1153.898,2661.00
1154.819,2748.00
1155.739,2653.00
1156.658,2540.00
1157.579,2666.00
1158.498,2622.00
1159.419,2196.00
1160.338,2706.00
1161.256,2693.00
1162.177,2480.00
1163.095,2608.00
1164.016,2692.00
1164.934,2881.00
1165.852,2807.00
1166.772,2637.00
1167.690,2656.00
1168.610,2733.00
1169.528,2651.00
1170.446,2187.00
1171.365,2567.00
1172.283,2528.00
1173.202,2642.00
1174.120,2662.00
1175.037,2499.00
1175.956,2466.00
1176.873,2484.00
1177.792,2568.00
1178.709,3120.00
1179.626,2531.00
1180.544,2865.00
1181.461,2505.00
1182.379,2712.00
1183.296,2640.00
1184.212,2279.00
1185.130,2471.00
1186.046,2999.00
1186.962,2624.00
1187.880,2925.00
1188.796,2675.00
1189.714,2430.00
1190.629,2790.00
1191.545,2713.00
1192.462,2554.00
1193.378,2602.00
1194.295,2361.00
1195.210,2645.00
1196.125,2795.00
1197.042,2716.00
1197.957,2641.00
1198.872,2526.00
1199.788,2551.00
1200.703,2946.00
1201.619,2633.00
1202.534,2495.00
1203.448,2712.00
1204.364,2555.00
1205.278,2292.00
1206.192,2711.00
1207.108,3123.00
1208.022,2988.00
1208.938,2459.00
1209.851,2784.00
1210.765,2886.00
1211.680,2523.00
1212.594,2409.00
1213.507,2567.00
1214.422,3053.00
1215.335,2756.00
1216.248,2546.00
1217.163,2639.00
1218.076,3242.00
1218.990,2734.00
1219.903,2364.00
1220.816,2448.00
1221.730,2595.00
1222.642,2476.00
1223.554,2549.00
1224.469,2697.00
1225.380,2552.00
1226.292,2318.00
1227.206,2765.00
1228.118,2939.00
1229.032,2242.00
1229.943,2521.00
1230.855,2560.00
1231.768,2374.00
1232.679,2702.00
1233.590,2597.00
1234.503,2874.00
1235.414,2484.00
1236.325,2477.00
1237.238,2716.00
1238.149,2731.00
1239.059,2432.00
1239.972,2868.00
1240.882,2438.00
1241.793,2757.00
1242.705,2971.00
1243.615,2561.00
1244.525,2697.00
1245.437,2220.00
1246.347,2707.00
1247.259,2779.00
1248.168,3055.00
1249.078,2886.00
1249.989,2897.00
1250.899,2419.00
1251.808,2519.00
1252.719,2595.00
1253.628,2532.00
1254.537,3006.00
1255.448,2486.00
1256.357,2450.00
1257.266,2635.00
1258.176,2333.00
1259.085,2348.00
1259.993,2428.00
1260.904,2481.00
1261.812,2463.00
1262.720,3203.00
1263.630,2776.00
1264.538,2489.00
1265.446,2715.00
1266.356,2626.00
1267.263,2883.00
1268.171,2432.00
1269.080,2710.00
1269.988,2771.00
1270.895,2544.00
1271.804,2563.00
1272.711,2789.00
1273.619,2752.00
1274.527,2443.00
1275.434,2709.00
1276.341,2459.00
1277.248,2634.00
1278.156,2904.00
1279.063,2486.00
1279.969,2730.00
1280.877,3518.00
1281.783,2877.00
1282.690,2697.00
1283.598,2620.00
1284.503,2505.00
1285.409,2465.00
1286.317,2999.00
1287.223,3007.00
1288.128,2649.00
1289.036,2506.00
1289.941,2559.00
1290.846,2662.00
1291.751,2467.00
1292.658,2571.00
1293.563,3077.00
1294.468,2639.00
1295.375,2805.00
1296.280,2854.00
1297.184,3319.00
1298.091,2719.00
1298.995,2750.00
1299.900,2990.00
1300.806,2516.00
1301.710,2399.00
1302.614,2231.00
1303.518,2893.00
1304.424,2581.00
1305.327,2841.00
1306.231,2614.00
1307.137,2771.00
1308.040,2695.00
1308.943,2646.00
1309.847,2835.00
1310.752,2845.00
1311.655,2259.00
1312.558,2439.00
1313.463,2556.00
1314.366,2551.00
1315.269,2699.00
1316.171,2590.00
1317.076,2531.00
1317.978,2441.00
1318.881,2255.00
1319.785,2527.00
1320.687,2509.00
1321.589,2266.00
1322.491,2482.00
1323.395,2718.00
1324.297,3170.00
1325.198,2770.00
1326.102,2428.00
1327.004,2460.00
1327.905,3040.00
1328.806,2605.00
1329.709,2660.00
1330.611,2564.00
1331.512,2456.00
1332.413,3132.00
1333.316,2674.00
1334.216,2812.00
1335.117,2356.00
1336.020,2653.00
1336.920,2656.00
1337.821,2520.00
1338.721,2892.00
1339.623,2700.00
1340.523,2582.00
1341.423,2532.00
1342.323,2908.00
1343.225,2716.00
1344.125,2489.00
1345.025,2481.00
1345.924,2325.00
1346.826,2980.00
1347.725,3040.00
1348.624,2870.00
1349.524,2479.00
1350.425,2575.00
1351.324,2744.00
1352.223,2824.00
1353.121,2596.00
1354.022,2839.00
1354.921,3023.00
1355.819,2765.00
1356.718,2700.00
1357.618,2376.00
1358.516,2719.00
1359.415,3023.00
1360.313,2735.00
1361.213,2604.00
1362.111,2904.00
1363.008,3230.00
1363.906,2591.00
1364.806,2647.00
1365.703,2761.00
1366.601,2461.00
1367.498,2461.00
1368.397,2799.00
1369.295,2714.00
1370.192,2478.00
1371.089,2722.00
1371.987,2646.00
1372.884,2874.00
1373.781,2445.00
1374.678,2637.00
1375.574,2453.00
1376.473,2729.00
1377.369,2869.00
1378.265,2503.00
1379.161,2546.00
1380.059,2326.00
1380.955,2731.00
1381.851,2426.00
1382.747,2486.00
1383.643,2580.00
1384.540,2445.00
1385.436,2543.00
1386.331,2660.00
1387.227,2777.00
1388.124,2753.00
1389.019,2438.00
1389.914,2595.00
1390.809,2305.00
1391.704,3075.00
1392.601,2522.00
1393.495,2908.00
1394.390,2802.00
1395.285,2863.00
1396.179,2734.00
1397.075,2600.00
1397.969,2741.00
1398.864,2300.00
1399.758,2574.00
1400.652,2673.00
1401.547,2477.00
1402.441,2431.00
1403.335,3001.00
1404.229,2660.00
1405.122,2738.00
1406.017,2626.00
1406.911,2794.00
1407.804,3086.00
1408.697,2637.00
1409.590,2456.00
1410.485,2816.00
1411.378,2688.00
1412.271,2324.00
1413.163,2722.00
1414.056,2772.00
1414.949,3033.00
1415.843,2673.00
1416.735,2581.00
1417.627,2645.00
1418.520,2600.00
1419.412,2870.00
1420.306,2795.00
1421.197,2931.00
1422.089,2839.00
1422.981,3077.00
1423.873,2797.00
1424.764,2763.00
1425.657,2651.00
1426.549,2798.00
1427.440,2846.00
1428.331,2530.00
1429.222,2359.00
1430.113,2675.00
1431.006,2820.00
1431.897,2540.00
1432.787,2652.00
1433.678,2591.00
1434.568,2483.00
1435.459,2857.00
1436.351,2804.00
1437.241,2781.00
1438.131,2807.00
1439.021,2422.00
1439.911,2575.00
1440.801,2724.00
1441.693,2875.00
1442.583,2647.00
1443.472,2652.00
1444.362,2763.00
1445.251,2605.00
1446.140,2602.00
1447.030,2843.00
1447.921,2825.00
1448.810,2451.00
1449.699,3002.00
1450.588,2680.00
1451.476,2563.00
1452.365,2774.00
1453.254,2567.00
1454.144,2560.00
1455.032,2769.00
1455.921,2375.00
1456.809,2928.00
1457.697,2451.00
1458.585,2556.00
1459.473,2570.00
1460.361,2487.00
1461.251,2693.00
1462.138,2750.00
1463.026,2580.00
1463.913,2849.00
1464.801,2570.00
1465.688,2735.00
1466.575,2645.00
1467.463,3116.00
1468.351,2510.00
1469.238,2617.00
1470.125,2238.00
1471.012,2710.00
1471.899,2704.00
1472.785,2477.00
1473.672,2626.00
1474.558,2841.00
1475.446,2773.00
1476.333,2825.00
1477.219,2439.00
1478.105,2637.00
1478.991,2594.00
1479.877,2931.00
1480.762,2626.00
1481.648,2503.00
1482.534,2787.00
1483.419,2676.00
1484.307,2802.00
1485.192,2636.00
1486.077,2502.00
1486.962,2519.00
1487.847,2368.00
1488.732,2484.00
1489.617,2672.00
1490.502,2901.00
1491.387,2798.00
1492.271,2469.00
1493.156,2504.00
1494.042,2485.00
1494.927,2831.00
1495.811,2557.00
1496.695,2807.00
1497.579,2945.00
1498.463,2635.00
1499.347,2707.00
1500.231,2667.00
1501.114,2706.00
1501.998,2903.00
1502.881,2710.00
1503.765,2970.00
1504.648,3071.00
1505.533,2785.00
1506.417,2647.00
1507.300,2656.00
1508.183,2736.00
1509.066,2175.00
1509.948,2903.00
1510.831,3007.00
1511.714,2424.00
1512.596,2797.00
1513.479,2878.00
1514.361,2882.00
1515.243,2706.00
1516.125,2828.00
1517.008,2934.00
1517.890,2584.00
1518.771,2708.00
1519.655,2856.00
1520.537,2644.00
1521.419,2500.00
1522.300,2684.00
1523.182,2805.00
1524.063,2848.00
1524.944,2961.00
1525.825,2868.00
1526.707,2472.00
1527.588,2491.00
1528.468,2748.00
1529.349,2331.00
1530.230,2576.00
1531.111,2872.00
1531.991,2727.00
1532.872,2376.00
1533.752,2651.00
1534.632,2521.00
1535.513,2545.00
1536.393,2814.00
1537.273,2996.00
1538.153,3270.00
1539.032,2423.00
1539.912,2643.00
1540.792,2677.00
1541.672,2656.00
1542.551,2800.00
1543.430,3270.00
1544.310,2655.00
1545.189,2582.00
1546.068,3077.00
1546.947,2785.00
1547.826,2953.00
1548.705,2702.00
1549.584,2889.00
1550.462,2618.00
1551.341,2814.00
1552.219,2750.00
1553.098,2805.00
1553.976,2858.00
1554.854,3057.00
1555.733,2873.00
1556.611,2620.00
1557.489,2475.00
1558.367,2684.00
1559.244,2851.00
1560.122,2646.00
1561.000,2740.00
1561.877,2979.00
1562.755,2568.00
1563.632,2671.00
1564.509,2944.00
1565.386,3009.00
1566.264,2427.00
1567.141,2321.00
1568.017,2803.00
1568.894,2669.00
1569.771,2739.00
1570.648,2794.00
1571.524,2703.00
1572.401,2454.00
1573.277,2443.00
1574.153,2722.00
1575.029,2512.00
1575.906,3378.00
1576.781,2828.00
1577.657,2574.00
1578.533,2917.00
1579.409,2308.00
1580.285,2673.00
1581.160,3089.00
1582.036,2841.00
1582.911,2522.00
1583.786,3021.00
1584.662,2470.00
1585.537,2638.00
1586.412,2738.00
1587.287,2488.00
1588.160,2834.00
1589.035,2356.00
1589.909,2688.00
1590.784,2668.00
1591.658,2500.00
1592.533,2709.00
1593.407,2680.00
1594.281,2585.00
1595.155,3069.00
1596.029,2565.00
1596.903,2638.00
1597.777,2596.00
1598.651,2950.00
1599.525,2399.00
1600.398,2674.00
1601.272,2633.00
1602.144,3177.00
1603.017,2640.00
1603.890,2923.00
1604.763,2760.00
1605.636,2858.00
1606.509,2398.00
1607.382,2493.00
1608.255,2723.00
1609.128,2885.00
1610.000,2628.00
1610.873,2380.00
1611.746,2554.00
1612.616,2611.00
1613.488,2271.00
1614.361,2680.00
1615.233,2612.00
1616.105,2921.00
1616.977,2590.00
1617.849,2514.00
1618.720,2976.00
1619.592,2985.00
1620.464,2739.00
1621.333,3148.00
1622.205,2656.00
1623.076,2669.00
1623.947,2650.00
1624.818,2875.00
1625.689,2837.00
1626.560,2609.00
1627.431,2718.00
1628.302,3060.00
1629.171,2767.00
1630.042,2978.00
1630.912,3486.00
1631.782,3260.00
1632.653,2497.00
1633.523,2827.00
1634.393,2912.00
1635.263,2553.00
1636.131,2648.00
1637.001,2611.00
1637.871,2275.00
1638.741,2337.00
1639.611,2418.00
1640.480,2848.00
1641.350,2551.00
1642.219,2514.00
1643.087,2207.00
1643.956,3124.00
1644.825,2908.00
1645.694,2906.00
1646.563,2824.00
1647.432,2718.00
1648.299,2732.00
1649.167,2845.00
1650.036,2465.00
1650.904,2848.00
1651.773,2900.00
1652.641,2696.00
1653.509,2883.00
1654.376,2538.00
1655.244,2764.00
1656.112,2752.00
1656.980,2660.00
1657.847,2535.00
1658.715,2852.00
1659.581,2588.00
1660.448,2897.00
1661.316,2169.00
1662.183,2739.00
1663.051,2753.00
1663.918,2716.00
1664.783,2715.00
1665.650,2790.00
1666.517,2823.00
1667.384,2694.00
1668.251,2733.00
1669.115,2890.00
1669.982,2645.00
1670.849,2955.00
1671.715,2672.00
1672.581,2814.00
1673.446,2784.00
1674.312,2715.00
1675.178,3082.00
1676.044,2805.00
1676.910,2740.00
1677.774,2717.00
1678.639,2370.00
1679.505,2720.00
1680.370,2830.00
1681.236,3297.00
1682.099,2574.00
1682.965,2684.00
1683.830,2309.00
1684.695,2536.00
1685.560,2651.00
1686.423,2813.00
1687.288,2837.00
1688.153,2715.00
1689.017,2628.00
1689.880,2759.00
1690.745,2818.00
1691.609,2546.00
1692.473,2839.00
1693.338,2917.00
1694.200,2955.00
1695.064,2700.00
1695.928,2609.00
1696.792,2706.00
1697.654,3210.00
1698.517,2710.00
1699.381,2456.00
1700.245,2383.00
1701.106,3001.00
1701.969,2589.00
1702.833,2809.00
1703.696,2588.00
1704.557,2666.00
1705.420,2511.00
1706.283,2695.00
1707.146,2838.00
1708.007,2489.00
1708.870,2489.00
1709.732,2382.00
1710.595,2590.00
1711.455,2473.00
1712.318,2635.00
1713.180,2935.00
1714.040,2729.00
1714.902,2861.00
1715.764,2707.00
1716.626,2470.00
1717.486,2651.00
1718.348,2930.00
1719.209,4811.00
1720.071,2378.00
1720.930,2409.00
1721.792,2523.00
1722.653,2556.00
1723.512,2587.00
1724.374,2681.00
1725.234,2763.00
1726.095,2690.00
1726.954,2701.00
1727.815,2831.00
1728.676,2723.00
1729.535,2919.00
1730.395,2669.00
1731.256,2630.00
1732.114,2714.00
1732.974,2155.00
1733.834,3078.00
1734.693,2858.00
1735.553,2729.00
1736.413,3136.00
1737.272,2574.00
1738.130,2616.00
1738.990,2788.00
1739.849,2587.00
1740.707,3696.00
1741.566,2733.00
1742.426,2761.00
1743.283,3116.00
1744.142,2562.00
1745.001,2365.00
1745.858,2894.00
1746.717,2738.00
1747.576,2792.00
1748.433,2864.00
1749.292,3274.00
1750.150,3264.00
1751.007,2888.00
1751.865,2928.00
1752.723,2709.00
1753.579,2613.00
1754.438,2892.00
1755.296,2928.00
1756.152,2260.00
1757.010,2382.00
1757.865,2931.00
1758.723,2361.00
1759.581,2977.00
1760.436,2644.00
1761.294,3069.00
1762.151,2654.00
1763.006,2610.00
1763.864,2359.00
1764.721,2941.00
1765.576,2719.00
1766.433,2853.00
1767.288,2604.00
1768.144,2742.00
1769.001,2666.00
1769.856,2779.00
1770.712,2899.00
1771.568,2513.00
1772.423,2600.00
1773.279,2592.00
1774.133,2575.00
1774.989,3110.00
1775.845,3143.00
1776.699,2940.00
1777.555,2693.00
1778.409,3262.00
1779.265,2632.00
1780.120,2663.00
1780.974,2736.00
1781.829,2299.00
1782.682,2761.00
1783.538,2529.00
1784.393,2746.00
1785.246,2609.00
1786.101,2799.00
1786.954,2826.00
1787.808,2927.00
1788.661,2444.00
1789.516,2663.00
1790.370,2642.00
1791.223,2892.00
1792.077,2691.00
1792.930,2784.00
1793.784,2555.00
1794.636,2712.00
1795.490,2680.00
1796.344,2738.00
1797.196,2716.00
1798.049,2839.00
1798.901,2584.00
1799.755,2929.00
1800.606,2496.00
1801.460,3220.00
1802.311,3014.00
1803.165,3124.00
1804.018,3026.00
1804.869,2780.00
1805.722,3193.00
1806.573,2772.00
1807.426,2544.00
1808.276,2688.00
1809.129,2620.00
1809.980,2915.00
1810.832,2996.00
1811.683,2617.00
1812.535,3008.00
1813.385,2652.00
1814.237,2974.00
1815.089,2772.00
1815.940,2995.00
1816.791,2701.00
1817.641,2585.00
1818.493,2892.00
1819.343,2773.00
1820.194,2606.00
1821.044,2806.00
1821.895,2966.00
1822.745,2429.00
1823.596,2583.00
1824.445,3129.00
1825.296,2824.00
1826.145,2660.00
1826.996,2907.00
1827.845,2755.00
1828.695,2783.00
1829.544,2692.00
1830.395,2740.00
1831.243,2639.00
1832.094,2447.00
1832.942,3330.00
1833.792,2812.00
1834.640,2788.00
1835.490,2719.00
1836.338,2783.00
1837.186,2624.00
1838.036,2597.00
1838.884,2713.00
1839.733,3019.00
1840.581,2891.00
1841.430,2828.00
1842.278,3058.00
1843.127,2614.00
1843.974,2418.00
1844.823,3134.00
1845.671,2868.00
1846.519,2709.00
1847.366,2777.00
1848.213,2344.00
1849.062,2541.00
1849.909,2453.00
1850.757,3335.00
1851.604,2846.00
1852.452,2665.00
1853.298,2927.00
1854.146,2803.00
1854.993,2754.00
1855.839,3252.00
1856.687,2867.00
1857.532,2890.00
1858.380,2759.00
1859.226,2817.00
1860.073,2848.00
1860.919,2527.00
1861.765,2613.00
1862.612,2979.00
1863.457,2966.00
1864.304,2676.00
1865.150,2830.00
1865.995,2675.00
1866.842,2835.00
1867.686,2940.00
1868.533,2793.00
1869.378,2804.00
1870.223,2758.00
1871.069,2603.00
1871.914,2744.00
1872.760,2699.00
1873.604,2545.00
1874.448,2840.00
1875.294,2911.00
1876.139,2612.00
1876.984,2883.00
1877.828,2399.00
1878.672,2249.00
1879.518,2619.00
1880.361,2901.00
1881.205,2898.00
1882.050,2551.00
1882.894,3235.00
1883.739,2614.00
1884.582,2486.00
1885.425,2588.00
1886.270,2971.00
1887.113,2506.00
1887.956,2820.00
1888.801,2768.00
1889.644,2556.00
1890.486,2303.00
1891.331,2645.00
1892.173,2788.00
1893.017,2804.00
1893.860,2981.00
1894.702,3006.00
1895.546,2711.00
1896.388,3401.00
1897.230,3093.00
1898.074,2679.00
1898.916,2537.00
1899.757,2547.00
1900.601,3399.00
1901.443,3015.00
1902.284,3006.00
1903.125,3175.00
1903.969,2939.00
1904.810,2971.00
1905.651,2814.00
1906.494,3056.00
1907.335,3163.00
1908.176,2823.00
1909.018,2855.00
1909.859,2692.00
1910.700,2608.00
1911.542,3235.00
1912.383,2862.00
1913.223,2391.00
1914.064,2896.00
1914.906,2980.00
1915.746,3074.00
1916.586,3204.00
1917.428,2742.00
1918.268,2780.00
1919.107,2664.00
1919.947,2512.00
1920.789,2668.00
1921.628,2972.00
1922.468,2704.00
1923.309,2625.00
1924.148,3044.00
1924.988,2828.00
1925.827,2741.00
1926.667,2633.00
1927.507,2795.00
1928.345,2581.00
1929.184,2889.00
1930.025,2607.00
1930.864,2990.00
1931.702,3098.00
1932.541,2651.00
1933.381,2879.00
1934.219,2894.00
1935.057,3048.00
1935.896,2476.00
1936.735,2679.00
1937.573,2667.00
1938.411,2529.00
1939.249,2904.00
1940.089,2596.00
1940.927,2974.00
1941.764,3007.00
1942.602,2643.00
1943.439,2625.00
1944.278,2693.00
1945.115,2668.00
1945.953,2486.00
1946.790,2839.00
1947.628,3078.00
1948.465,2862.00
1949.302,2885.00
1950.139,2920.00
1950.976,2630.00
1951.814,2880.00
1952.651,2821.00
1953.487,2558.00
1954.323,3012.00
1955.160,2744.00
1955.998,3129.00
1956.834,2731.00
1957.670,2864.00
1958.506,2957.00
1959.342,2817.00
1960.177,2815.00
1961.015,2838.00
1961.850,2808.00
1962.686,2815.00
1963.521,2758.00
1964.357,2994.00
1965.192,2537.00
1966.029,2881.00
1966.864,2671.00
1967.699,2941.00
1968.534,2780.00
1969.369,3038.00
1970.204,2727.00
1971.040,2779.00
1971.875,2691.00
1972.709,2792.00
1973.544,2593.00
1974.378,2678.00
1975.212,2835.00
1976.047,2602.00
1976.882,2636.00
1977.716,3115.00
1978.550,2457.00
1979.384,2706.00
1980.218,2721.00
1981.052,2681.00
1981.885,2783.00
1982.719,2770.00
1983.554,2905.00
1984.388,3046.00
1985.221,2823.00
1986.054,3003.00
1986.887,2800.00
1987.720,2619.00
1988.553,3081.00
1989.386,2831.00
1990.219,2902.00
1991.053,3089.00
1991.886,2651.00
1992.719,2962.00
1993.551,2250.00
1994.383,2917.00
1995.216,2683.00
1996.048,2482.00
1996.880,2868.00
1997.712,2672.00
1998.544,2790.00
1999.376,2786.00
2000.208,3045.00
2001.040,3192.00
2001.873,2604.00
2002.705,2541.00
2003.536,2789.00
2004.367,2838.00
2005.199,2780.00
2006.030,2625.00
2006.861,2530.00
2007.692,2747.00
2008.523,2633.00
2009.354,2768.00
2010.185,2603.00
2011.016,2972.00
2011.846,2946.00
2012.677,2719.00
2013.507,3097.00
2014.338,2999.00
2015.168,2733.00
2015.999,3297.00
2016.829,2690.00
2017.659,2990.00
2018.489,3278.00
2019.319,2575.00
2020.149,2911.00
2020.980,2752.00
2021.810,2572.00
2022.639,2636.00
2023.469,2662.00
2024.298,2422.00
2025.128,2397.00
2025.957,2401.00
2026.786,2200.00
2027.615,2392.00
2028.444,2593.00
2029.273,2778.00
2030.102,2335.00
2030.931,2653.00
2031.758,2893.00
2032.586,2522.00
2033.415,2617.00
2034.243,2215.00
2035.072,2050.00
2035.900,2511.00
2036.728,2353.00
2037.556,2355.00
2038.385,2362.00
2039.213,2184.00
2040.040,2195.00
2040.868,2146.00
2041.696,2227.00
2042.524,2228.00
2043.351,2441.00
2044.179,2206.00
2045.006,1977.00
