RamanScope Measure Spectrum Data V3.72

<< MEASURE CONDITION >>
Exposure Type,Aver
Exposure Time [sec],15
Exposure Count,4
Measure Time,2023/07/15 15:14:54
Data Name,""
Data Comment,""
Rayleigh Wave[nm],532.0

<< SAMPLE SPECTRUM >>
Wave[dcm-1],No132
146.591,497.25
147.626,568.00
148.664,671.00
149.699,733.75
150.737,861.00
151.772,931.00
152.809,1011.50
153.846,1100.25
154.881,1162.50
155.918,1215.50
156.953,1293.00
157.989,1329.00
159.026,1362.25
160.060,1407.25
161.096,1425.50
162.130,1445.00
163.167,1460.75
164.200,1595.00
165.236,1565.75
166.272,1520.75
167.305,1577.50
168.341,1655.00
169.374,1661.50
170.409,1703.25
171.445,1686.00
172.477,1801.25
173.512,1732.25
174.545,1804.00
175.580,1823.00
176.614,1794.75
177.647,1836.00
178.681,1874.00
179.713,1882.50
180.747,1857.50
181.781,1865.00
182.813,1854.50
183.847,1859.50
184.878,1932.75
185.912,1938.25
186.945,1925.00
187.976,1933.75
189.010,2018.00
190.043,2009.00
191.073,2054.00
192.106,2039.25
193.137,2107.00
194.170,2128.50
195.202,2166.75
196.232,2231.75
197.265,2305.00
198.297,2366.50
199.327,2383.00
200.359,2514.00
201.388,2575.00
202.420,2662.25
203.452,2776.50
204.481,2886.50
205.512,3044.75
206.544,3119.50
207.573,3388.50
208.604,3552.75
209.635,3722.50
210.663,4013.25
211.694,4267.00
212.725,4502.50
213.753,4797.50
214.783,5112.00
215.813,5396.00
216.841,5444.50
217.871,5610.25
218.899,5795.50
219.929,5745.50
220.959,5658.50
221.986,5496.25
223.016,5322.00
224.045,5020.50
225.072,4747.75
226.101,4490.50
227.130,4220.00
228.157,3976.50
229.185,3735.50
230.214,3633.00
231.241,3418.75
232.269,3322.00
233.297,3201.50
234.323,3169.50
235.351,3024.50
236.379,2998.75
237.407,2949.50
238.433,2903.00
239.460,2884.25
240.488,2860.50
241.513,2810.00
242.540,2914.25
243.568,2808.25
244.592,2808.00
245.619,2824.25
246.646,2832.25
247.671,2801.25
248.697,2876.75
249.724,2860.75
250.748,2837.00
251.774,2877.75
252.801,2916.75
253.827,2938.00
254.850,2986.25
255.876,2965.75
256.902,3049.25
257.925,3061.75
258.951,3174.25
259.976,3247.75
260.999,3247.25
262.024,3381.50
263.049,3426.75
264.074,3510.25
265.097,3640.75
266.122,3659.75
267.146,3784.75
268.168,3812.00
269.193,3923.50
270.217,4022.25
271.241,4088.25
272.263,4105.75
273.287,4255.50
274.311,4295.50
275.332,4362.00
276.356,4331.00
277.379,4357.25
278.402,4401.25
279.424,4369.00
280.447,4369.50
281.470,4288.50
282.492,4200.25
283.513,4160.75
284.536,4084.25
285.558,4020.50
286.581,3932.00
287.601,3787.75
288.623,3759.25
289.645,3677.75
290.665,3567.50
291.687,3465.00
292.709,3331.00
293.730,3312.50
294.750,3168.50
295.771,3131.75
296.792,3029.75
297.813,2938.75
298.832,2800.25
299.853,2800.25
300.874,2708.75
301.895,2675.25
302.913,2525.50
303.934,2505.00
304.954,2428.25
305.975,2401.00
306.993,2367.00
308.013,2284.50
309.033,2236.75
310.052,2179.25
311.072,2172.00
312.090,2176.25
313.109,2139.50
314.129,2088.75
315.148,2059.00
316.165,2038.50
317.184,2034.25
318.203,2024.50
319.222,1989.00
320.238,1969.25
321.257,1950.25
322.275,1965.75
323.294,1940.50
324.312,1909.00
325.328,1812.50
326.346,1890.75
327.364,1890.25
328.382,1849.00
329.397,1797.25
330.415,1825.00
331.432,1861.00
332.450,1776.25
333.467,1846.50
334.482,1821.25
335.499,1743.00
336.516,1850.50
337.533,1819.00
338.547,1796.50
339.564,1751.25
340.580,1816.00
341.597,1796.50
342.613,1758.50
343.627,1803.50
344.643,1782.00
345.659,1795.25
346.675,1731.25
347.690,1830.25
348.704,1797.25
349.719,1744.25
350.735,1738.75
351.750,1753.00
352.765,1769.00
353.778,1790.25
354.793,1774.75
355.808,1788.00
356.822,1791.75
357.837,1847.50
358.851,1828.50
359.864,1852.50
360.878,1878.50
361.892,1822.00
362.906,1824.50
363.920,1868.50
364.932,1870.75
365.945,1835.50
366.959,1866.50
367.972,1918.75
368.986,1952.50
369.999,1915.50
371.010,1949.00
372.023,1962.75
373.036,1944.75
374.049,1972.75
375.061,1981.50
376.072,1969.00
377.084,1999.25
378.097,2045.00
379.109,2031.25
380.121,2036.00
381.133,2075.50
382.143,2082.00
383.155,2054.50
384.166,2089.00
385.178,2122.50
386.189,2069.00
387.201,2055.50
388.212,2100.00
389.221,2090.50
390.232,2090.75
391.243,2055.50
392.254,2098.50
393.264,2057.50
394.275,2007.50
395.283,1997.00
396.294,1997.50
397.304,2010.75
398.314,1991.25
399.324,1955.75
400.334,1956.75
401.344,1900.25
402.351,1897.00
403.361,1863.75
404.370,1858.00
405.380,1837.00
406.389,1788.25
407.398,1824.50
408.407,1794.00
409.414,1798.75
410.423,1765.50
411.431,1733.00
412.440,1714.25
413.448,1715.50
414.457,1704.50
415.465,1653.50
416.471,1688.50
417.479,1670.00
418.487,1653.50
419.495,1661.00
420.503,1657.00
421.510,1634.50
422.518,1562.25
423.525,1612.25
424.530,1611.25
425.537,1596.50
426.544,1571.00
427.551,1579.75
428.558,1533.75
429.565,1573.00
430.571,1568.75
431.578,1512.00
432.582,1554.00
433.588,1575.25
434.595,1526.25
435.601,1543.00
436.607,1542.25
437.612,1531.50
438.618,1571.00
439.624,1569.75
440.627,1574.50
441.633,1525.00
442.638,1529.25
443.643,1548.50
444.648,1524.00
445.653,1540.25
446.658,1534.00
447.663,1524.75
448.667,1545.00
449.672,1527.25
450.674,1576.25
451.678,1518.00
452.682,1574.00
453.687,1547.50
454.690,1543.00
455.694,1534.25
456.698,1558.50
457.702,1541.50
458.705,1559.50
459.709,1571.75
460.710,1573.50
461.713,1552.75
462.716,1592.75
463.719,1564.50
464.722,1576.00
465.725,1588.25
466.727,1589.00
467.730,1640.25
468.732,1585.25
469.735,1597.50
470.737,1610.00
471.737,1579.25
472.739,1600.25
473.741,1566.00
474.742,1604.50
475.744,1624.50
476.746,1607.00
477.747,1633.00
478.748,1645.00
479.750,1586.00
480.751,1687.75
481.752,1619.50
482.753,1628.50
483.751,1703.75
484.752,1627.75
485.753,1591.00
486.753,1672.50
487.753,1616.00
488.754,1569.00
489.754,1608.00
490.754,1609.25
491.754,1601.50
492.754,1616.25
493.753,1605.50
494.753,1620.00
495.752,1610.75
496.752,1607.25
497.749,1608.75
498.748,1587.25
499.747,1604.75
500.746,1580.75
501.745,1605.75
502.744,1616.25
503.742,1538.25
504.741,1555.75
505.739,1549.50
506.737,1557.75
507.735,1549.75
508.734,1590.25
509.732,1515.00
510.729,1544.25
511.727,1559.25
512.725,1567.00
513.720,1579.25
514.718,1544.75
515.715,1526.25
516.712,1512.75
517.709,1563.50
518.706,1515.75
519.703,1556.25
520.700,1542.25
521.696,1505.00
522.693,1567.50
523.689,1584.50
524.686,1562.25
525.682,1527.75
526.678,1590.75
527.674,1516.50
528.670,1501.50
529.666,1506.50
530.661,1511.00
531.657,1521.75
532.652,1536.75
533.648,1522.25
534.641,1493.75
535.636,1469.50
536.631,1553.00
537.626,1543.75
538.621,1591.25
539.616,1528.25
540.610,1543.00
541.605,1557.50
542.599,1556.75
543.593,1538.25
544.587,1600.75
545.581,1551.50
546.575,1566.75
547.569,1563.25
548.563,1534.00
549.557,1598.50
550.550,1575.50
551.543,1554.25
552.537,1555.00
553.530,1592.50
554.523,1608.25
555.516,1524.00
556.509,1575.75
557.502,1626.50
558.494,1585.25
559.487,1601.00
560.479,1623.50
561.472,1592.25
562.464,1620.25
563.456,1598.75
564.448,1627.50
565.440,1633.75
566.432,1617.25
567.423,1618.25
568.415,1618.00
569.404,1678.00
570.396,1669.25
571.387,1678.75
572.378,1667.75
573.369,1661.25
574.360,1692.25
575.351,1704.25
576.341,1684.00
577.332,1680.25
578.323,1689.75
579.313,1710.25
580.303,1700.25
581.293,1743.50
582.283,1726.75
583.273,1697.00
584.263,1714.50
585.253,1747.75
586.243,1734.75
587.232,1734.25
588.222,1731.50
589.211,1738.25
590.200,1726.50
591.189,1707.75
592.178,1643.50
593.167,1650.50
594.156,1624.25
595.145,1669.25
596.133,1687.25
597.122,1629.50
598.110,1631.50
599.098,1634.00
600.086,1559.25
601.074,1599.00
602.062,1645.75
603.050,1638.00
604.038,1610.75
605.025,1588.00
606.013,1588.50
607.000,1599.00
607.987,1558.50
608.975,1561.00
609.962,1508.75
610.949,1553.25
611.936,1536.25
612.922,1484.25
613.909,1532.00
614.895,1474.75
615.882,1514.00
616.868,1497.50
617.854,1480.25
618.841,1474.75
619.826,1417.25
620.812,1454.00
621.798,1481.75
622.784,1438.25
623.769,1447.00
624.755,1429.00
625.740,1441.75
626.725,1444.25
627.711,1402.00
628.698,1444.00
629.683,1434.75
630.667,1396.00
631.652,1374.00
632.637,1370.25
633.621,1395.50
634.606,1408.75
635.590,1347.00
636.574,1400.75
637.558,1402.00
638.542,1372.00
639.526,1313.00
640.510,1314.50
641.493,1351.50
642.477,1367.75
643.460,1328.25
644.444,1349.25
645.427,1293.75
646.410,1350.50
647.393,1348.00
648.376,1321.25
649.359,1305.00
650.341,1295.25
651.324,1278.00
652.307,1295.50
653.289,1269.25
654.271,1285.75
655.253,1253.00
656.235,1259.25
657.217,1400.50
658.199,1259.50
659.181,1241.50
660.163,1258.50
661.144,1217.75
662.126,1258.50
663.107,1284.50
664.088,1253.75
665.069,1187.50
666.050,1183.00
667.033,1239.50
668.014,1254.75
668.995,1202.25
669.975,1268.75
670.956,1195.25
671.936,1220.75
672.916,1155.00
673.896,1199.25
674.876,1169.00
675.856,1192.00
676.836,1202.75
677.816,1196.75
678.795,1167.75
679.775,1160.25
680.754,1169.00
681.734,1156.75
682.713,1122.25
683.692,1168.50
684.671,1180.75
685.650,1144.50
686.629,1181.00
687.607,1201.75
688.586,1154.25
689.564,1140.00
690.543,1145.75
691.523,1103.75
692.501,1163.75
693.479,1161.00
694.457,1126.50
695.435,1138.00
696.413,1130.75
697.390,1125.00
698.368,1099.25
699.345,1119.75
700.322,1102.50
701.300,1101.00
702.277,1099.50
703.254,1085.75
704.231,1095.25
705.207,1079.50
706.184,1073.50
707.161,1100.50
708.137,1078.00
709.113,1068.25
710.090,1062.50
711.068,1065.00
712.044,1084.50
713.020,1096.75
713.996,1074.00
714.971,1101.75
715.947,1015.00
716.922,1099.25
717.898,1038.75
718.873,1037.50
719.848,1063.25
720.823,1038.50
721.798,1041.00
722.773,1082.00
723.748,1060.25
724.723,1067.00
725.697,1034.50
726.672,1069.75
727.646,1073.75
728.622,1016.75
729.596,1022.75
730.570,968.25
731.544,1000.25
732.518,993.75
733.492,1009.00
734.466,1020.25
735.439,986.25
736.413,1091.00
737.386,1052.00
738.359,1009.25
739.332,1001.75
740.305,982.00
741.278,1002.50
742.251,1040.00
743.224,1019.50
744.196,1044.25
745.171,1027.50
746.143,1060.50
747.115,970.25
748.087,973.75
749.059,1045.00
750.031,1008.75
751.003,975.50
751.975,976.75
752.947,984.50
753.918,1041.25
754.890,1020.00
755.861,959.25
756.832,983.00
757.803,976.50
758.774,1008.00
759.747,982.75
760.718,957.00
761.689,980.50
762.659,981.50
763.630,989.75
764.600,989.00
765.570,1010.00
766.540,989.75
767.510,941.50
768.480,940.75
769.450,999.25
770.420,979.50
771.390,994.00
772.359,977.50
773.329,998.50
774.300,1001.75
775.269,952.50
776.238,924.25
777.207,936.75
778.176,998.25
779.145,936.75
780.114,992.50
781.083,952.25
782.051,950.75
783.019,903.50
783.988,975.00
784.956,958.25
785.924,939.00
786.894,971.00
787.862,940.50
788.830,966.50
789.797,941.00
790.765,941.25
791.732,1016.50
792.700,939.75
793.667,949.00
794.634,924.50
795.601,947.75
796.568,919.50
797.535,919.00
798.502,902.50
799.468,904.50
800.437,963.75
801.403,923.75
802.370,982.25
803.336,896.00
804.302,894.75
805.268,898.00
806.234,976.75
807.200,919.25
808.166,934.50
809.131,927.00
810.097,915.25
811.062,933.50
812.027,939.00
812.994,946.75
813.960,868.50
814.925,868.75
815.889,905.75
816.854,855.75
817.819,892.75
818.783,862.25
819.748,934.00
820.712,897.75
821.677,860.25
822.641,898.00
823.605,841.75
824.571,956.50
825.534,888.25
826.498,917.00
827.462,889.50
828.425,869.50
829.389,890.50
830.352,883.25
831.315,876.75
832.279,895.00
833.242,882.25
834.204,894.50
835.167,905.50
836.132,918.75
837.095,905.75
838.057,912.00
839.020,848.50
839.982,849.00
840.944,884.25
841.906,925.75
842.868,847.25
843.830,878.75
844.792,907.50
845.753,873.00
846.715,847.25
847.679,914.25
848.640,853.00
849.601,881.50
850.562,883.25
851.523,869.00
852.484,872.00
853.445,859.75
854.406,881.75
855.367,894.25
856.327,847.25
857.288,839.50
858.248,870.25
859.210,867.75
860.170,860.25
861.130,871.50
862.090,833.75
863.050,854.25
864.010,854.50
864.969,847.00
865.929,823.00
866.888,790.75
867.848,828.75
868.807,850.50
869.766,850.75
870.727,826.50
871.686,850.25
872.645,832.75
873.604,851.50
874.562,892.00
875.521,817.25
876.479,811.00
877.437,854.75
878.396,858.50
879.354,807.25
880.312,840.00
881.270,838.50
882.229,843.00
883.187,792.25
884.145,807.25
885.102,807.50
886.059,803.00
887.017,831.50
887.974,831.00
888.931,821.00
889.888,865.50
890.845,868.75
891.802,817.25
892.758,811.50
893.717,799.00
894.673,870.25
895.630,869.25
896.586,890.75
897.542,835.25
898.498,855.75
899.454,831.00
900.410,872.25
901.366,841.00
902.321,801.50
903.277,836.50
904.232,852.50
905.189,827.00
906.145,852.50
907.100,835.25
908.055,812.25
909.010,845.00
909.965,822.75
910.919,869.75
911.874,807.00
912.828,790.75
913.783,809.75
914.737,817.25
915.693,845.00
916.648,816.25
917.602,774.25
918.555,764.25
919.509,852.00
920.463,799.50
921.417,863.00
922.370,841.25
923.324,804.00
924.277,831.25
925.230,800.75
926.183,839.50
927.138,803.25
928.091,801.75
929.044,870.50
929.996,830.75
930.949,811.50
931.902,804.25
932.854,840.25
933.806,815.25
934.758,822.00
935.711,775.25
936.663,792.50
937.614,804.25
938.568,824.00
939.520,803.50
940.471,798.00
941.423,786.25
942.374,819.75
943.326,842.00
944.277,806.75
945.228,807.25
946.179,811.25
947.130,812.75
948.080,795.50
949.031,823.00
949.984,779.75
950.934,793.25
951.884,817.75
952.835,778.75
953.785,802.00
954.735,816.75
955.685,754.50
956.635,831.75
957.585,825.00
958.534,805.50
959.484,808.00
960.433,785.50
961.383,831.25
962.334,810.50
963.283,815.00
964.232,766.75
965.181,837.25
966.130,790.75
967.079,782.75
968.027,777.50
968.976,827.00
969.924,774.50
970.873,817.75
971.821,815.00
972.769,780.50
973.719,781.50
974.667,794.25
975.615,839.25
976.562,795.75
977.510,844.75
978.458,803.50
979.405,798.25
980.352,789.00
981.300,821.50
982.247,816.75
983.194,827.50
984.141,779.00
985.088,875.50
986.036,806.50
986.983,830.00
987.930,787.25
988.876,784.75
989.822,774.25
990.769,833.50
991.715,804.25
992.661,839.25
993.607,789.00
994.553,773.00
995.498,831.75
996.444,784.00
997.389,838.00
998.337,821.50
999.282,776.75
1000.227,827.75
1001.173,867.25
1002.118,818.25
1003.062,781.50
1004.007,813.75
1004.952,812.25
1005.897,784.25
1006.841,812.25
1007.786,814.25
1008.730,813.25
1009.674,823.75
1010.618,835.25
1011.564,811.00
1012.508,803.00
1013.452,805.00
1014.396,793.00
1015.339,838.25
1016.283,832.25
1017.226,860.50
1018.170,826.25
1019.113,809.50
1020.056,796.50
1020.999,835.25
1021.942,837.00
1022.885,839.25
1023.828,751.50
1024.770,867.25
1025.715,811.00
1026.657,833.00
1027.600,827.00
1028.542,876.25
1029.484,845.25
1030.426,852.25
1031.368,869.00
1032.310,856.50
1033.251,824.00
1034.193,799.25
1035.135,839.00
1036.076,817.50
1037.017,805.25
1037.959,802.00
1038.900,850.75
1039.843,831.00
1040.784,824.50
1041.725,821.50
1042.665,800.50
1043.606,855.00
1044.547,820.75
1045.487,802.50
1046.427,837.75
1047.368,860.25
1048.308,854.75
1049.248,833.75
1050.188,847.25
1051.128,857.75
1052.067,865.50
1053.007,848.00
1053.947,836.50
1054.886,868.50
1055.827,863.00
1056.766,851.50
1057.706,885.75
1058.645,808.00
1059.584,843.50
1060.522,856.50
1061.461,825.00
1062.400,898.75
1063.338,872.50
1064.277,868.50
1065.215,866.25
1066.154,884.50
1067.092,897.50
1068.030,888.00
1068.968,820.50
1069.906,849.75
1070.843,843.75
1071.781,894.25
1072.720,892.50
1073.658,862.00
1074.595,839.00
1075.533,849.00
1076.470,872.00
1077.407,823.50
1078.344,862.50
1079.281,858.50
1080.217,861.50
1081.154,868.75
1082.091,852.50
1083.027,869.50
1083.964,844.75
1084.900,904.50
1085.836,874.25
1086.772,832.75
1087.708,859.50
1088.644,882.00
1089.580,845.25
1090.515,895.00
1091.451,827.00
1092.388,866.75
1093.324,872.25
1094.259,873.75
1095.194,832.00
1096.129,929.75
1097.064,869.25
1097.999,868.00
1098.934,837.75
1099.869,833.25
1100.803,873.50
1101.738,859.25
1102.672,865.25
1103.607,855.00
1104.541,882.00
1105.475,886.75
1106.409,924.00
1107.343,878.25
1108.277,879.75
1109.210,859.75
1110.144,917.50
1111.078,881.75
1112.011,882.25
1112.944,843.75
1113.878,888.75
1114.811,869.25
1115.744,850.00
1116.678,817.00
1117.611,873.50
1118.544,850.00
1119.477,848.75
1120.409,851.75
1121.342,879.50
1122.274,899.50
1123.206,884.50
1124.138,857.00
1125.070,849.75
1126.002,874.25
1126.934,857.00
1127.866,818.25
1128.798,854.50
1129.729,832.00
1130.661,863.00
1131.592,831.75
1132.523,872.25
1133.454,816.50
1134.385,818.00
1135.317,838.50
1136.247,870.75
1137.178,856.75
1138.109,849.75
1139.039,835.75
1139.970,847.25
1140.900,834.25
1141.831,809.25
1142.761,861.00
1143.691,939.00
1144.621,847.25
1145.551,888.50
1146.480,881.00
1147.410,851.25
1148.340,840.25
1149.269,872.25
1150.199,825.25
1151.128,867.50
1152.057,845.75
1152.979,862.25
1153.898,818.50
1154.819,840.00
1155.739,860.50
1156.658,859.00
1157.579,853.00
1158.498,856.00
1159.419,850.75
1160.338,878.25
1161.256,874.75
1162.177,817.00
1163.095,822.00
1164.016,840.50
1164.934,826.25
1165.852,825.00
1166.772,860.50
1167.690,862.50
1168.610,870.50
1169.528,840.00
1170.446,862.25
1171.365,865.75
1172.283,885.25
1173.202,895.50
1174.120,888.75
1175.037,869.00
1175.956,862.75
1176.873,857.75
1177.792,854.00
1178.709,869.75
1179.626,865.25
1180.544,887.00
1181.461,862.75
1182.379,845.50
1183.296,857.25
1184.212,873.00
1185.130,875.50
1186.046,880.25
1186.962,843.50
1187.880,880.25
1188.796,871.25
1189.714,906.50
1190.629,881.75
1191.545,922.75
1192.462,833.00
1193.378,891.00
1194.295,906.50
1195.210,884.25
1196.125,898.00
1197.042,876.75
1197.957,876.75
1198.872,892.25
1199.788,880.00
1200.703,830.25
1201.619,865.00
1202.534,872.25
1203.448,896.75
1204.364,884.25
1205.278,904.25
1206.192,871.50
1207.108,906.25
1208.022,915.25
1208.938,861.75
1209.851,918.75
1210.765,920.00
1211.680,888.00
1212.594,911.75
1213.507,904.75
1214.422,970.75
1215.335,902.25
1216.248,906.25
1217.163,897.25
1218.076,916.00
1218.990,910.25
1219.903,885.00
1220.816,921.25
1221.730,942.00
1222.642,913.50
1223.554,929.00
1224.469,906.00
1225.380,923.75
1226.292,955.25
1227.206,901.75
1228.118,955.00
1229.032,932.75
1229.943,934.00
1230.855,918.75
1231.768,941.50
1232.679,969.25
1233.590,973.75
1234.503,947.50
1235.414,927.00
1236.325,959.50
1237.238,940.75
1238.149,968.75
1239.059,951.75
1239.972,978.50
1240.882,990.25
1241.793,950.00
1242.705,970.00
1243.615,919.00
1244.525,1014.00
1245.437,971.00
1246.347,1003.00
1247.259,1026.00
1248.168,1028.25
1249.078,976.25
1249.989,1040.75
1250.899,990.75
1251.808,996.50
1252.719,989.25
1253.628,992.00
1254.537,970.00
1255.448,965.50
1256.357,983.75
1257.266,994.00
1258.176,983.50
1259.085,978.25
1259.993,1012.75
1260.904,978.25
1261.812,985.00
1262.720,1035.75
1263.630,1049.00
1264.538,1039.00
1265.446,1019.25
1266.356,1011.50
1267.263,1001.00
1268.171,970.75
1269.080,983.50
1269.988,1008.00
1270.895,976.00
1271.804,1026.25
1272.711,998.25
1273.619,959.25
1274.527,1018.25
1275.434,962.00
1276.341,971.25
1277.248,1013.25
1278.156,1013.50
1279.063,1003.00
1279.969,969.75
1280.877,956.00
1281.783,1026.25
1282.690,1026.50
1283.598,988.75
1284.503,961.75
1285.409,997.25
1286.317,1046.25
1287.223,963.25
1288.128,974.00
1289.036,984.75
1289.941,965.25
1290.846,968.25
1291.751,952.25
1292.658,947.25
1293.563,990.75
1294.468,974.00
1295.375,958.00
1296.280,972.00
1297.184,962.75
1298.091,936.00
1298.995,946.25
1299.900,950.50
1300.806,933.50
1301.710,951.25
1302.614,954.75
1303.518,956.00
1304.424,961.00
1305.327,966.75
1306.231,912.25
1307.137,911.75
1308.040,905.50
1308.943,946.50
1309.847,915.00
1310.752,920.50
1311.655,902.75
1312.558,897.75
1313.463,894.75
1314.366,880.00
1315.269,940.00
1316.171,908.50
1317.076,901.00
1317.978,867.00
1318.881,858.50
1319.785,911.75
1320.687,852.00
1321.589,851.25
1322.491,861.75
1323.395,865.50
1324.297,876.00
1325.198,858.50
1326.102,859.00
1327.004,856.00
1327.905,823.75
1328.806,851.75
1329.709,856.75
1330.611,826.75
1331.512,864.75
1332.413,793.75
1333.316,847.25
1334.216,811.00
1335.117,824.00
1336.020,815.50
1336.920,828.00
1337.821,840.00
1338.721,765.00
1339.623,789.50
1340.523,792.50
1341.423,814.50
1342.323,800.75
1343.225,781.50
1344.125,812.75
1345.025,781.50
1345.924,785.50
1346.826,759.25
1347.725,820.50
1348.624,773.50
1349.524,785.75
1350.425,772.75
1351.324,778.25
1352.223,786.50
1353.121,751.00
1354.022,786.00
1354.921,770.75
1355.819,737.25
1356.718,752.00
1357.618,744.25
1358.516,765.75
1359.415,734.00
1360.313,736.25
1361.213,723.25
1362.111,736.00
1363.008,718.25
1363.906,714.25
1364.806,741.75
1365.703,716.75
1366.601,699.50
1367.498,698.75
1368.397,698.25
1369.295,653.75
1370.192,718.75
1371.089,688.75
1371.987,708.50
1372.884,721.00
1373.781,748.00
1374.678,665.00
1375.574,715.00
1376.473,695.50
1377.369,722.75
1378.265,660.25
1379.161,730.50
1380.059,666.50
1380.955,661.50
1381.851,660.00
1382.747,647.25
1383.643,652.75
1384.540,676.00
1385.436,688.50
1386.331,673.00
1387.227,661.25
1388.124,714.25
1389.019,682.50
1389.914,701.50
1390.809,648.00
1391.704,658.75
1392.601,638.75
1393.495,629.75
1394.390,662.75
1395.285,642.25
1396.179,647.25
1397.075,647.25
1397.969,646.75
1398.864,646.75
1399.758,629.00
1400.652,619.00
1401.547,651.75
1402.441,653.50
1403.335,652.00
1404.229,632.25
1405.122,658.25
1406.017,634.25
1406.911,610.75
1407.804,648.25
1408.697,614.75
1409.590,602.00
1410.485,600.00
1411.378,618.75
1412.271,621.50
1413.163,645.00
1414.056,609.00
1414.949,645.75
1415.843,652.75
1416.735,600.75
1417.627,606.50
1418.520,589.00
1419.412,611.00
1420.306,627.25
1421.197,625.25
1422.089,607.50
1422.981,595.25
1423.873,593.50
1424.764,604.00
1425.657,609.25
1426.549,634.25
1427.440,599.25
1428.331,595.50
1429.222,585.50
1430.113,579.50
1431.006,585.75
1431.897,585.00
1432.787,632.50
1433.678,587.50
1434.568,580.50
1435.459,592.50
1436.351,615.50
1437.241,635.25
1438.131,568.75
1439.021,589.75
1439.911,593.25
1440.801,602.25
1441.693,588.75
1442.583,571.00
1443.472,607.00
1444.362,600.75
1445.251,603.75
1446.140,617.50
1447.030,586.75
1447.921,601.00
1448.810,593.75
1449.699,581.50
1450.588,564.50
1451.476,571.25
1452.365,595.00
1453.254,601.25
1454.144,618.75
1455.032,578.50
1455.921,568.75
1456.809,580.25
1457.697,568.00
1458.585,597.25
1459.473,588.00
1460.361,594.25
1461.251,580.00
1462.138,583.25
1463.026,558.00
1463.913,591.25
1464.801,567.25
1465.688,597.50
1466.575,560.00
1467.463,575.50
1468.351,569.00
1469.238,537.75
1470.125,551.50
1471.012,567.75
1471.899,537.25
1472.785,576.00
1473.672,534.00
1474.558,514.75
1475.446,546.75
1476.333,543.75
1477.219,546.25
1478.105,559.50
1478.991,539.00
1479.877,581.75
1480.762,551.25
1481.648,543.00
1482.534,571.00
1483.419,527.25
1484.307,524.75
1485.192,583.00
1486.077,514.50
1486.962,557.50
1487.847,575.00
1488.732,559.50
1489.617,554.50
1490.502,557.50
1491.387,539.25
1492.271,571.50
1493.156,532.75
1494.042,545.00
1494.927,568.50
1495.811,554.25
1496.695,539.75
1497.579,557.25
1498.463,551.50
1499.347,538.50
1500.231,533.25
1501.114,558.00
1501.998,561.25
1502.881,515.50
1503.765,509.50
1504.648,520.75
1505.533,518.75
1506.417,533.75
1507.300,524.25
1508.183,486.75
1509.066,528.75
1509.948,526.25
1510.831,536.25
1511.714,536.25
1512.596,510.75
1513.479,524.00
1514.361,555.25
1515.243,528.00
1516.125,548.00
1517.008,537.75
1517.890,499.75
1518.771,486.75
1519.655,484.50
1520.537,536.25
1521.419,528.75
1522.300,500.75
1523.182,497.25
1524.063,518.50
1524.944,548.75
1525.825,504.25
1526.707,530.25
1527.588,520.00
1528.468,529.00
1529.349,498.00
1530.230,551.25
1531.111,531.25
1531.991,524.75
1532.872,497.50
1533.752,524.50
1534.632,509.00
1535.513,554.50
1536.393,439.75
1537.273,505.50
1538.153,487.50
1539.032,512.50
1539.912,491.25
1540.792,541.75
1541.672,462.50
1542.551,486.50
1543.430,515.50
1544.310,547.25
1545.189,490.75
1546.068,553.50
1546.947,505.50
1547.826,510.50
1548.705,515.25
1549.584,511.50
1550.462,526.50
1551.341,486.75
1552.219,486.75
1553.098,523.25
1553.976,512.00
1554.854,502.75
1555.733,497.75
1556.611,496.00
1557.489,496.75
1558.367,471.50
1559.244,489.00
1560.122,504.75
1561.000,479.50
1561.877,476.25
1562.755,543.00
1563.632,452.50
1564.509,536.75
1565.386,482.50
1566.264,515.75
1567.141,516.00
1568.017,502.50
1568.894,513.25
1569.771,530.50
1570.648,494.25
1571.524,494.75
1572.401,495.00
1573.277,510.00
1574.153,481.50
1575.029,472.75
1575.906,529.00
1576.781,508.25
1577.657,469.50
1578.533,529.50
1579.409,480.00
1580.285,475.00
1581.160,451.50
1582.036,448.75
1582.911,477.50
1583.786,464.75
1584.662,528.75
1585.537,459.50
1586.412,480.00
1587.287,455.75
1588.160,495.75
1589.035,467.00
1589.909,492.75
1590.784,482.50
1591.658,467.00
1592.533,481.00
1593.407,471.25
1594.281,514.00
1595.155,496.50
1596.029,502.75
1596.903,472.75
1597.777,504.00
1598.651,504.00
1599.525,511.75
1600.398,501.00
1601.272,484.00
1602.144,487.75
1603.017,480.50
1603.890,486.25
1604.763,510.25
1605.636,512.75
1606.509,447.00
1607.382,490.25
1608.255,449.25
1609.128,488.25
1610.000,441.00
1610.873,503.75
1611.746,448.00
1612.616,453.00
1613.488,486.75
1614.361,504.50
1615.233,450.75
1616.105,500.25
1616.977,480.00
1617.849,505.00
1618.720,456.50
1619.592,491.00
1620.464,473.00
1621.333,492.75
1622.205,500.50
1623.076,531.50
1623.947,484.50
1624.818,471.50
1625.689,506.75
1626.560,514.25
1627.431,463.75
1628.302,495.75
1629.171,470.50
1630.042,472.50
1630.912,518.00
1631.782,526.00
1632.653,522.25
1633.523,489.50
1634.393,446.50
1635.263,496.50
1636.131,448.00
1637.001,453.75
1637.871,465.75
1638.741,453.00
1639.611,492.25
1640.480,482.75
1641.350,492.00
1642.219,467.25
1643.087,492.50
1643.956,432.00
1644.825,472.25
1645.694,453.00
1646.563,446.00
1647.432,468.50
1648.299,521.25
1649.167,475.25
1650.036,462.25
1650.904,418.25
1651.773,540.75
1652.641,507.25
1653.509,458.25
1654.376,512.00
1655.244,479.75
1656.112,475.25
1656.980,460.00
1657.847,451.25
1658.715,489.00
1659.581,458.75
1660.448,501.25
1661.316,441.75
1662.183,449.00
1663.051,481.75
1663.918,473.00
1664.783,447.00
1665.650,445.25
1666.517,456.25
1667.384,446.00
1668.251,508.75
1669.115,479.25
1669.982,459.75
1670.849,467.00
1671.715,469.50
1672.581,447.50
1673.446,493.25
1674.312,444.75
1675.178,468.75
1676.044,469.25
1676.910,490.50
1677.774,458.00
1678.639,486.25
1679.505,465.25
1680.370,470.00
1681.236,434.00
1682.099,435.50
1682.965,484.25
1683.830,443.00
1684.695,478.75
1685.560,456.25
1686.423,452.50
1687.288,442.00
1688.153,454.00
1689.017,438.00
1689.880,423.25
1690.745,485.25
1691.609,462.75
1692.473,513.75
1693.338,501.25
1694.200,476.25
1695.064,421.50
1695.928,422.00
1696.792,461.00
1697.654,470.75
1698.517,496.00
1699.381,453.50
1700.245,479.50
1701.106,496.25
1701.969,454.00
1702.833,472.50
1703.696,441.75
1704.557,448.75
1705.420,463.00
1706.283,443.50
1707.146,480.50
1708.007,470.50
1708.870,439.00
1709.732,467.50
1710.595,431.50
1711.455,452.75
1712.318,489.75
1713.180,426.75
1714.040,442.50
1714.902,484.50
1715.764,443.00
1716.626,449.00
1717.486,479.00
1718.348,482.50
1719.209,543.25
1720.071,499.00
1720.930,461.00
1721.792,494.25
1722.653,474.25
1723.512,473.00
1724.374,476.75
1725.234,462.50
1726.095,460.75
1726.954,465.25
1727.815,461.50
1728.676,471.75
1729.535,450.25
1730.395,456.00
1731.256,416.75
1732.114,414.25
1732.974,491.75
1733.834,506.00
1734.693,617.00
1735.553,444.75
1736.413,514.00
1737.272,462.00
1738.130,454.25
1738.990,444.50
1739.849,423.00
1740.707,481.00
1741.566,457.50
1742.426,467.00
1743.283,480.25
1744.142,453.75
1745.001,459.00
1745.858,485.50
1746.717,416.25
1747.576,453.75
1748.433,443.25
1749.292,486.75
1750.150,462.50
1751.007,456.00
1751.865,464.75
1752.723,469.75
1753.579,424.75
1754.438,442.50
1755.296,470.25
1756.152,462.25
1757.010,433.75
1757.865,489.25
1758.723,420.75
1759.581,417.50
1760.436,477.75
1761.294,445.75
1762.151,481.50
1763.006,497.25
1763.864,457.25
1764.721,457.75
1765.576,469.00
1766.433,502.25
1767.288,458.25
1768.144,437.75
1769.001,432.00
1769.856,478.50
1770.712,454.00
1771.568,432.00
1772.423,451.00
1773.279,504.75
1774.133,470.25
1774.989,476.75
1775.845,455.75
1776.699,396.50
1777.555,476.00
1778.409,461.00
1779.265,417.25
1780.120,496.75
1780.974,419.50
1781.829,466.50
1782.682,446.50
1783.538,447.00
1784.393,453.25
1785.246,470.75
1786.101,426.25
1786.954,448.25
1787.808,489.50
1788.661,457.00
1789.516,483.00
1790.370,423.00
1791.223,470.50
1792.077,419.00
1792.930,448.00
1793.784,438.50
1794.636,482.25
1795.490,437.25
1796.344,402.75
1797.196,451.50
1798.049,429.25
1798.901,418.25
1799.755,442.50
1800.606,455.50
1801.460,452.50
1802.311,461.00
1803.165,422.00
1804.018,463.00
1804.869,489.00
1805.722,455.25
1806.573,480.25
1807.426,457.25
1808.276,426.50
1809.129,425.75
1809.980,486.25
1810.832,479.00
1811.683,420.25
1812.535,496.25
1813.385,412.00
1814.237,489.25
1815.089,430.25
1815.940,460.75
1816.791,449.00
1817.641,415.50
1818.493,447.75
1819.343,455.75
1820.194,419.75
1821.044,476.25
1821.895,419.75
1822.745,455.75
1823.596,448.75
1824.445,483.75
1825.296,452.25
1826.145,445.75
1826.996,421.50
1827.845,421.00
1828.695,463.00
1829.544,428.00
1830.395,444.75
1831.243,456.25
1832.094,492.50
1832.942,427.50
1833.792,464.50
1834.640,472.00
1835.490,482.75
1836.338,443.25
1837.186,424.25
1838.036,435.25
1838.884,494.75
1839.733,448.00
1840.581,437.50
1841.430,432.00
1842.278,417.75
1843.127,437.25
1843.974,448.25
1844.823,383.50
1845.671,386.50
1846.519,428.00
1847.366,418.75
1848.213,474.00
1849.062,445.50
1849.909,416.75
1850.757,418.50
1851.604,400.75
1852.452,494.50
1853.298,441.50
1854.146,446.75
1854.993,439.00
1855.839,457.50
1856.687,444.50
1857.532,431.75
1858.380,464.25
1859.226,431.75
1860.073,423.50
1860.919,421.75
1861.765,423.25
1862.612,462.50
1863.457,422.00
1864.304,439.50
1865.150,495.25
1865.995,441.00
1866.842,454.50
1867.686,434.25
1868.533,433.25
1869.378,454.00
1870.223,405.75
1871.069,455.00
1871.914,456.00
1872.760,434.00
1873.604,476.50
1874.448,379.00
1875.294,442.25
1876.139,470.50
1876.984,488.50
1877.828,412.25
1878.672,449.25
1879.518,408.25
1880.361,486.50
1881.205,497.25
1882.050,455.50
1882.894,412.75
1883.739,445.25
1884.582,493.50
1885.425,451.25
1886.270,455.50
1887.113,423.00
1887.956,473.25
1888.801,431.75
1889.644,472.25
1890.486,461.75
1891.331,471.00
1892.173,455.75
1893.017,403.75
1893.860,466.00
1894.702,470.25
1895.546,434.25
1896.388,415.75
1897.230,462.25
1898.074,465.75
1898.916,426.50
1899.757,492.00
1900.601,432.00
1901.443,446.00
1902.284,432.75
1903.125,458.50
1903.969,438.75
1904.810,412.50
1905.651,454.50
1906.494,393.00
1907.335,448.00
1908.176,424.00
1909.018,395.25
1909.859,459.25
1910.700,443.75
1911.542,422.50
1912.383,493.25
1913.223,434.00
1914.064,428.75
1914.906,470.25
1915.746,450.75
1916.586,441.50
1917.428,431.50
1918.268,471.00
1919.107,439.25
1919.947,489.00
1920.789,427.50
1921.628,476.75
1922.468,460.50
1923.309,445.75
1924.148,464.75
1924.988,394.75
1925.827,437.75
1926.667,482.25
1927.507,382.75
1928.345,425.25
1929.184,435.75
1930.025,477.50
1930.864,431.50
1931.702,390.00
1932.541,452.00
1933.381,461.25
1934.219,456.00
1935.057,431.25
1935.896,458.50
1936.735,466.75
1937.573,424.75
1938.411,453.50
1939.249,479.25
1940.089,449.00
1940.927,455.00
1941.764,451.25
1942.602,438.25
1943.439,437.50
1944.278,405.50
1945.115,442.50
1945.953,435.25
1946.790,446.75
1947.628,487.25
1948.465,464.50
1949.302,412.50
1950.139,453.00
1950.976,435.00
1951.814,478.00
1952.651,364.50
1953.487,484.50
1954.323,487.75
1955.160,447.50
1955.998,441.75
1956.834,485.25
1957.670,422.75
1958.506,448.00
1959.342,442.75
1960.177,454.50
1961.015,440.00
1961.850,441.25
1962.686,415.75
1963.521,455.75
1964.357,446.75
1965.192,429.25
1966.029,425.25
1966.864,445.50
1967.699,447.00
1968.534,436.00
1969.369,412.00
1970.204,434.00
1971.040,433.00
1971.875,441.00
1972.709,430.50
1973.544,466.50
1974.378,405.50
1975.212,417.25
1976.047,472.00
1976.882,399.25
1977.716,461.00
1978.550,435.25
1979.384,471.25
1980.218,462.75
1981.052,417.75
1981.885,440.75
1982.719,403.00
1983.554,450.00
1984.388,420.50
1985.221,442.25
1986.054,470.25
1986.887,451.25
1987.720,474.75
1988.553,452.25
1989.386,454.25
1990.219,471.25
1991.053,454.25
1991.886,453.75
1992.719,496.25
1993.551,470.75
1994.383,412.75
1995.216,454.75
1996.048,489.00
1996.880,442.25
1997.712,446.00
1998.544,444.00
1999.376,434.00
2000.208,478.75
2001.040,474.75
2001.873,481.75
2002.705,415.00
2003.536,434.25
2004.367,441.25
2005.199,444.50
2006.030,477.50
2006.861,441.50
2007.692,402.25
2008.523,453.75
2009.354,461.75
2010.185,464.50
2011.016,449.50
2011.846,446.50
2012.677,445.75
2013.507,476.75
2014.338,402.25
2015.168,449.50
2015.999,502.50
2016.829,442.75
2017.659,424.25
2018.489,473.00
2019.319,469.25
2020.149,493.25
2020.980,475.25
2021.810,443.00
2022.639,467.00
2023.469,446.25
2024.298,431.25
2025.128,452.75
2025.957,454.25
2026.786,461.25
2027.615,456.75
2028.444,406.00
2029.273,442.00
2030.102,484.00
2030.931,444.00
2031.758,434.00
2032.586,464.50
2033.415,473.25
2034.243,475.25
2035.072,482.25
2035.900,505.75
2036.728,482.75
2037.556,434.00
2038.385,472.00
2039.213,441.25
2040.040,501.25
2040.868,475.25
2041.696,450.00
2042.524,503.75
2043.351,498.75
2044.179,478.25
2045.006,477.00
2045.006,477.00

Max Intensity Wave.,218.899
Max Intensity Data,5795.50
Min Intensity Wave.,1952.651
Min Intensity Data,364.50
FWHM Wave.,385.713
FWHM Value,29.68
Pressure Wave.,687.415
Pressure Value [GPa],-17.72515
G/D Ratio,0.56988
G/D Gband Wave.,1546.127
G/D Gband Intensity,553.75
G/D Dband Wave.,1304.962
G/D Dband Intensity,971.68

<< BACKGROUND SPECTRUM >>
Wave[dcm-1],No132
146.591,2332.00
147.626,2191.00
148.664,2098.00
149.699,2656.00
150.737,2332.00
151.772,2496.00
152.809,2487.00
153.846,2401.00
154.881,2508.00
155.918,2044.00
156.953,2364.00
157.989,2715.00
159.026,2539.00
160.060,2744.00
161.096,2984.00
162.130,2617.00
163.167,2703.00
164.200,2487.00
165.236,2736.00
166.272,2812.00
167.305,2390.00
168.341,2622.00
169.374,2894.00
170.409,2873.00
171.445,2845.00
172.477,2597.00
173.512,2517.00
174.545,2776.00
175.580,2986.00
176.614,3166.00
177.647,2927.00
178.681,3158.00
179.713,3468.00
180.747,2932.00
181.781,2817.00
182.813,3115.00
183.847,3224.00
184.878,2789.00
185.912,3100.00
186.945,3239.00
187.976,3195.00
189.010,2780.00
190.043,2955.00
191.073,3016.00
192.106,2851.00
193.137,3326.00
194.170,2645.00
195.202,3018.00
196.232,2792.00
197.265,3083.00
198.297,3180.00
199.327,2894.00
200.359,3044.00
201.388,3477.00
202.420,3019.00
203.452,3204.00
204.481,2792.00
205.512,3412.00
206.544,3243.00
207.573,3158.00
208.604,3520.00
209.635,3664.00
210.663,3056.00
211.694,3091.00
212.725,2964.00
213.753,2912.00
214.783,3512.00
215.813,3336.00
216.841,3167.00
217.871,3304.00
218.899,2981.00
219.929,3261.00
220.959,3029.00
221.986,3254.00
223.016,2857.00
224.045,3250.00
225.072,3239.00
226.101,3322.00
227.130,3364.00
228.157,2935.00
229.185,2457.00
230.214,3291.00
231.241,2948.00
232.269,2545.00
233.297,2786.00
234.323,3347.00
235.351,2950.00
236.379,3209.00
237.407,2863.00
238.433,3041.00
239.460,3222.00
240.488,3220.00
241.513,3354.00
242.540,3190.00
243.568,3335.00
244.592,3332.00
245.619,3336.00
246.646,3045.00
247.671,3093.00
248.697,2878.00
249.724,3124.00
250.748,3149.00
251.774,3131.00
252.801,3431.00
253.827,3229.00
254.850,3213.00
255.876,2827.00
256.902,3258.00
257.925,3119.00
258.951,2834.00
259.976,2874.00
260.999,3234.00
262.024,2904.00
263.049,3770.00
264.074,3228.00
265.097,3105.00
266.122,3205.00
267.146,3117.00
268.168,3360.00
269.193,2957.00
270.217,3378.00
271.241,2799.00
272.263,3003.00
273.287,3260.00
274.311,2874.00
275.332,3424.00
276.356,2998.00
277.379,3246.00
278.402,3260.00
279.424,3060.00
280.447,2980.00
281.470,2808.00
282.492,3241.00
283.513,2988.00
284.536,3289.00
285.558,3256.00
286.581,3241.00
287.601,2978.00
288.623,2901.00
289.645,3174.00
290.665,3220.00
291.687,3235.00
292.709,3252.00
293.730,3483.00
294.750,3013.00
295.771,2857.00
296.792,3207.00
297.813,3025.00
298.832,3190.00
299.853,2826.00
300.874,3102.00
301.895,3051.00
302.913,3131.00
303.934,3389.00
304.954,3160.00
305.975,3304.00
306.993,2830.00
308.013,3254.00
309.033,3123.00
310.052,3072.00
311.072,3021.00
312.090,3141.00
313.109,3389.00
314.129,3551.00
315.148,3108.00
316.165,3194.00
317.184,3359.00
318.203,2831.00
319.222,2858.00
320.238,3249.00
321.257,2917.00
322.275,2754.00
323.294,3067.00
324.312,3220.00
325.328,3447.00
326.346,3406.00
327.364,3324.00
328.382,3271.00
329.397,3292.00
330.415,3371.00
331.432,3288.00
332.450,3433.00
333.467,3582.00
334.482,2676.00
335.499,3526.00
336.516,2956.00
337.533,2666.00
338.547,2932.00
339.564,2964.00
340.580,3161.00
341.597,3073.00
342.613,3580.00
343.627,3093.00
344.643,3128.00
345.659,3226.00
346.675,3119.00
347.690,2965.00
348.704,3182.00
349.719,3008.00
350.735,2869.00
351.750,3327.00
352.765,3139.00
353.778,3093.00
354.793,3260.00
355.808,2959.00
356.822,3310.00
357.837,2722.00
358.851,3366.00
359.864,3053.00
360.878,2807.00
361.892,3093.00
362.906,3292.00
363.920,2684.00
364.932,3222.00
365.945,3222.00
366.959,3118.00
367.972,3041.00
368.986,2784.00
369.999,3521.00
371.010,2940.00
372.023,3472.00
373.036,3083.00
374.049,3513.00
375.061,3203.00
376.072,3113.00
377.084,3001.00
378.097,2779.00
379.109,3303.00
380.121,3090.00
381.133,2755.00
382.143,3250.00
383.155,2851.00
384.166,3006.00
385.178,3172.00
386.189,3351.00
387.201,2844.00
388.212,3031.00
389.221,3044.00
390.232,3113.00
391.243,3030.00
392.254,3125.00
393.264,2931.00
394.275,3361.00
395.283,3307.00
396.294,3744.00
397.304,3602.00
398.314,3215.00
399.324,3142.00
400.334,2738.00
401.344,3297.00
402.351,2772.00
403.361,3338.00
404.370,3069.00
405.380,3021.00
406.389,3478.00
407.398,3232.00
408.407,3189.00
409.414,3831.00
410.423,3439.00
411.431,2893.00
412.440,2784.00
413.448,3455.00
414.457,2986.00
415.465,2926.00
416.471,2962.00
417.479,3144.00
418.487,2922.00
419.495,3388.00
420.503,3216.00
421.510,2705.00
422.518,3293.00
423.525,3280.00
424.530,3516.00
425.537,3004.00
426.544,3370.00
427.551,2955.00
428.558,3737.00
429.565,3580.00
430.571,2993.00
431.578,3052.00
432.582,3007.00
433.588,3051.00
434.595,2712.00
435.601,3431.00
436.607,3353.00
437.612,2867.00
438.618,3431.00
439.624,3040.00
440.627,3014.00
441.633,3238.00
442.638,3751.00
443.643,3207.00
444.648,3133.00
445.653,3292.00
446.658,2997.00
447.663,3167.00
448.667,2963.00
449.672,3022.00
450.674,3056.00
451.678,2818.00
452.682,2950.00
453.687,2942.00
454.690,3737.00
455.694,3412.00
456.698,2641.00
457.702,2773.00
458.705,2892.00
459.709,2894.00
460.710,2985.00
461.713,3138.00
462.716,3154.00
463.719,3105.00
464.722,3329.00
465.725,3091.00
466.727,2960.00
467.730,3137.00
468.732,2863.00
469.735,3414.00
470.737,3022.00
471.737,3033.00
472.739,3026.00
473.741,2942.00
474.742,3188.00
475.744,3209.00
476.746,3171.00
477.747,3069.00
478.748,3260.00
479.750,3073.00
480.751,3094.00
481.752,3906.00
482.753,3207.00
483.751,3617.00
484.752,2707.00
485.753,3097.00
486.753,2928.00
487.753,3106.00
488.754,3579.00
489.754,2798.00
490.754,3438.00
491.754,3244.00
492.754,2788.00
493.753,3126.00
494.753,3009.00
495.752,3453.00
496.752,3140.00
497.749,3092.00
498.748,2960.00
499.747,3519.00
500.746,3210.00
501.745,2856.00
502.744,2837.00
503.742,3473.00
504.741,3058.00
505.739,2580.00
506.737,2980.00
507.735,3278.00
508.734,3434.00
509.732,3276.00
510.729,3464.00
511.727,2997.00
512.725,2985.00
513.720,2836.00
514.718,3360.00
515.715,2780.00
516.712,2759.00
517.709,3071.00
518.706,3045.00
519.703,3121.00
520.700,3289.00
521.696,3498.00
522.693,2994.00
523.689,2898.00
524.686,3226.00
525.682,2879.00
526.678,3529.00
527.674,3020.00
528.670,2693.00
529.666,3636.00
530.661,3579.00
531.657,3262.00
532.652,3273.00
533.648,3102.00
534.641,3349.00
535.636,3198.00
536.631,3196.00
537.626,3263.00
538.621,2813.00
539.616,2703.00
540.610,2624.00
541.605,3093.00
542.599,3167.00
543.593,3122.00
544.587,4019.00
545.581,2949.00
546.575,3131.00
547.569,3142.00
548.563,2804.00
549.557,2726.00
550.550,2842.00
551.543,2846.00
552.537,3297.00
553.530,2852.00
554.523,2853.00
555.516,3269.00
556.509,3061.00
557.502,2703.00
558.494,3288.00
559.487,3031.00
560.479,3282.00
561.472,3375.00
562.464,3215.00
563.456,3424.00
564.448,3067.00
565.440,3108.00
566.432,3518.00
567.423,3003.00
568.415,3025.00
569.404,3214.00
570.396,2893.00
571.387,3229.00
572.378,3135.00
573.369,4122.00
574.360,3808.00
575.351,3054.00
576.341,2947.00
577.332,2998.00
578.323,2793.00
579.313,3005.00
580.303,3364.00
581.293,3227.00
582.283,3069.00
583.273,3235.00
584.263,3115.00
585.253,3196.00
586.243,3279.00
587.232,2723.00
588.222,3047.00
589.211,3259.00
590.200,3140.00
591.189,3042.00
592.178,3131.00
593.167,3566.00
594.156,3395.00
595.145,2969.00
596.133,3556.00
597.122,3239.00
598.110,3344.00
599.098,3171.00
600.086,3134.00
601.074,3332.00
602.062,2886.00
603.050,2804.00
604.038,3206.00
605.025,2885.00
606.013,3292.00
607.000,3468.00
607.987,3153.00
608.975,3140.00
609.962,2883.00
610.949,3269.00
611.936,3368.00
612.922,3315.00
613.909,2801.00
614.895,3511.00
615.882,2918.00
616.868,3089.00
617.854,2854.00
618.841,3114.00
619.826,3239.00
620.812,3093.00
621.798,2870.00
622.784,3292.00
623.769,3197.00
624.755,2815.00
625.740,3151.00
626.725,2792.00
627.711,2964.00
628.698,3146.00
629.683,2878.00
630.667,3283.00
631.652,2885.00
632.637,3064.00
633.621,3252.00
634.606,3021.00
635.590,3234.00
636.574,3031.00
637.558,3157.00
638.542,3132.00
639.526,2963.00
640.510,2716.00
641.493,3158.00
642.477,3046.00
643.460,2777.00
644.444,3314.00
645.427,3408.00
646.410,2752.00
647.393,3037.00
648.376,3166.00
649.359,3008.00
650.341,3205.00
651.324,3197.00
652.307,3131.00
653.289,3056.00
654.271,2956.00
655.253,2999.00
656.235,3234.00
657.217,3335.00
658.199,2720.00
659.181,2860.00
660.163,3090.00
661.144,2976.00
662.126,2950.00
663.107,2845.00
664.088,4860.00
665.069,3373.00
666.050,2936.00
667.033,2781.00
668.014,3119.00
668.995,2697.00
669.975,3046.00
670.956,3108.00
671.936,3247.00
672.916,3107.00
673.896,3211.00
674.876,3041.00
675.856,2949.00
676.836,2819.00
677.816,2390.00
678.795,2918.00
679.775,2799.00
680.754,3127.00
681.734,3254.00
682.713,3304.00
683.692,2868.00
684.671,2711.00
685.650,2847.00
686.629,2949.00
687.607,2797.00
688.586,2844.00
689.564,2931.00
690.543,3354.00
691.523,2458.00
692.501,2907.00
693.479,2992.00
694.457,2879.00
695.435,2960.00
696.413,2732.00
697.390,2567.00
698.368,2792.00
699.345,3170.00
700.322,3017.00
701.300,3180.00
702.277,3135.00
703.254,3376.00
704.231,2672.00
705.207,3059.00
706.184,2873.00
707.161,2739.00
708.137,2944.00
709.113,2889.00
710.090,2899.00
711.068,2714.00
712.044,2663.00
713.020,2968.00
713.996,2698.00
714.971,2858.00
715.947,2977.00
716.922,2874.00
717.898,2849.00
718.873,2993.00
719.848,2809.00
720.823,2806.00
721.798,3085.00
722.773,2798.00
723.748,2587.00
724.723,3079.00
725.697,2945.00
726.672,2823.00
727.646,2552.00
728.622,3098.00
729.596,2711.00
730.570,2874.00
731.544,3182.00
732.518,3396.00
733.492,2932.00
734.466,2978.00
735.439,3105.00
736.413,3156.00
737.386,2517.00
738.359,2524.00
739.332,2617.00
740.305,2967.00
741.278,3437.00
742.251,2999.00
743.224,2809.00
744.196,2611.00
745.171,3246.00
746.143,3095.00
747.115,2862.00
748.087,2810.00
749.059,3163.00
750.031,2976.00
751.003,3834.00
751.975,3372.00
752.947,2805.00
753.918,3150.00
754.890,2637.00
755.861,2868.00
756.832,3177.00
757.803,2906.00
758.774,2897.00
759.747,2695.00
760.718,3325.00
761.689,2807.00
762.659,2668.00
763.630,3243.00
764.600,2643.00
765.570,3122.00
766.540,3227.00
767.510,3037.00
768.480,3162.00
769.450,2778.00
770.420,2921.00
771.390,2711.00
772.359,2819.00
773.329,2729.00
774.300,2556.00
775.269,2822.00
776.238,3114.00
777.207,3286.00
778.176,2559.00
779.145,2900.00
780.114,2729.00
781.083,2641.00
782.051,2833.00
783.019,2787.00
783.988,3161.00
784.956,2923.00
785.924,3075.00
786.894,2946.00
787.862,2763.00
788.830,3227.00
789.797,2699.00
790.765,2683.00
791.732,2809.00
792.700,2730.00
793.667,2662.00
794.634,2851.00
795.601,2794.00
796.568,2910.00
797.535,2933.00
798.502,3545.00
799.468,3035.00
800.437,2460.00
801.403,2716.00
802.370,3379.00
803.336,3119.00
804.302,2982.00
805.268,2525.00
806.234,2589.00
807.200,2830.00
808.166,2835.00
809.131,2653.00
810.097,3070.00
811.062,3750.00
812.027,3097.00
812.994,2650.00
813.960,2730.00
814.925,3073.00
815.889,2592.00
816.854,3163.00
817.819,2732.00
818.783,2836.00
819.748,3150.00
820.712,2821.00
821.677,2742.00
822.641,2776.00
823.605,2849.00
824.571,3181.00
825.534,2843.00
826.498,2729.00
827.462,2869.00
828.425,2718.00
829.389,3155.00
830.352,2895.00
831.315,2995.00
832.279,2563.00
833.242,2833.00
834.204,2738.00
835.167,2718.00
836.132,3115.00
837.095,2571.00
838.057,2747.00
839.020,2925.00
839.982,2968.00
840.944,2743.00
841.906,2674.00
842.868,3087.00
843.830,2610.00
844.792,3116.00
845.753,2766.00
846.715,2529.00
847.679,2610.00
848.640,2696.00
849.601,2817.00
850.562,3344.00
851.523,2806.00
852.484,2548.00
853.445,3088.00
854.406,2782.00
855.367,2768.00
856.327,3156.00
857.288,2592.00
858.248,2733.00
859.210,2765.00
860.170,2600.00
861.130,3121.00
862.090,2509.00
863.050,2674.00
864.010,2742.00
864.969,2973.00
865.929,2695.00
866.888,2634.00
867.848,2924.00
868.807,2728.00
869.766,2939.00
870.727,2838.00
871.686,3069.00
872.645,3116.00
873.604,3372.00
874.562,2802.00
875.521,2893.00
876.479,3475.00
877.437,2665.00
878.396,2644.00
879.354,3316.00
880.312,2694.00
881.270,2747.00
882.229,3214.00
883.187,2736.00
884.145,2788.00
885.102,3032.00
886.059,2926.00
887.017,2969.00
887.974,3057.00
888.931,3152.00
889.888,2561.00
890.845,2484.00
891.802,2423.00
892.758,2734.00
893.717,2528.00
894.673,2606.00
895.630,2672.00
896.586,2935.00
897.542,2761.00
898.498,2585.00
899.454,2929.00
900.410,2733.00
901.366,2747.00
902.321,3886.00
903.277,2774.00
904.232,2818.00
905.189,2550.00
906.145,2691.00
907.100,2269.00
908.055,2813.00
909.010,2992.00
909.965,2400.00
910.919,2847.00
911.874,2654.00
912.828,2875.00
913.783,2853.00
914.737,2413.00
915.693,2811.00
916.648,2976.00
917.602,3058.00
918.555,2910.00
919.509,2907.00
920.463,2842.00
921.417,2808.00
922.370,2617.00
923.324,2768.00
924.277,2730.00
925.230,2861.00
926.183,2469.00
927.138,2771.00
928.091,3040.00
929.044,2884.00
929.996,2731.00
930.949,2738.00
931.902,2922.00
932.854,2904.00
933.806,2661.00
934.758,3054.00
935.711,3093.00
936.663,2869.00
937.614,2888.00
938.568,2795.00
939.520,2469.00
940.471,2803.00
941.423,2874.00
942.374,2964.00
943.326,2803.00
944.277,2675.00
945.228,2907.00
946.179,2765.00
947.130,3132.00
948.080,2742.00
949.031,2615.00
949.984,2770.00
950.934,2798.00
951.884,2520.00
952.835,2805.00
953.785,2826.00
954.735,2669.00
955.685,2468.00
956.635,2669.00
957.585,2695.00
958.534,2709.00
959.484,2839.00
960.433,2713.00
961.383,2514.00
962.334,3015.00
963.283,2859.00
964.232,2966.00
965.181,2750.00
966.130,2888.00
967.079,2726.00
968.027,2822.00
968.976,2808.00
969.924,2712.00
970.873,2877.00
971.821,2801.00
972.769,3032.00
973.719,2952.00
974.667,2572.00
975.615,2751.00
976.562,2802.00
977.510,2485.00
978.458,2685.00
979.405,2917.00
980.352,2867.00
981.300,3033.00
982.247,2875.00
983.194,2595.00
984.141,2727.00
985.088,2770.00
986.036,2855.00
986.983,3075.00
987.930,3235.00
988.876,2442.00
989.822,3084.00
990.769,2614.00
991.715,2695.00
992.661,2475.00
993.607,2901.00
994.553,3409.00
995.498,2661.00
996.444,2374.00
997.389,2826.00
998.337,2606.00
999.282,3002.00
1000.227,2735.00
1001.173,2728.00
1002.118,2508.00
1003.062,3013.00
1004.007,2760.00
1004.952,3070.00
1005.897,3049.00
1006.841,2792.00
1007.786,2530.00
1008.730,2500.00
1009.674,3280.00
1010.618,2718.00
1011.564,2584.00
1012.508,2465.00
1013.452,3021.00
1014.396,2825.00
1015.339,2681.00
1016.283,2757.00
1017.226,2799.00
1018.170,2775.00
1019.113,2983.00
1020.056,2806.00
1020.999,2790.00
1021.942,2662.00
1022.885,2939.00
1023.828,3142.00
1024.770,2557.00
1025.715,2844.00
1026.657,2768.00
1027.600,2830.00
1028.542,2965.00
1029.484,2822.00
1030.426,2901.00
1031.368,2840.00
1032.310,2633.00
1033.251,2606.00
1034.193,2785.00
1035.135,2562.00
1036.076,2704.00
1037.017,2615.00
1037.959,2936.00
1038.900,2834.00
1039.843,2877.00
1040.784,2844.00
1041.725,2890.00
1042.665,2709.00
1043.606,2821.00
1044.547,2823.00
1045.487,2464.00
1046.427,2729.00
1047.368,2842.00
1048.308,2282.00
1049.248,2602.00
1050.188,2765.00
1051.128,2671.00
1052.067,2724.00
1053.007,2472.00
1053.947,2449.00
1054.886,2631.00
1055.827,2538.00
1056.766,3052.00
1057.706,2493.00
1058.645,2739.00
1059.584,2799.00
1060.522,3057.00
1061.461,2536.00
1062.400,2498.00
1063.338,2715.00
1064.277,2567.00
1065.215,2575.00
1066.154,2417.00
1067.092,2629.00
1068.030,2667.00
1068.968,2974.00
1069.906,3099.00
1070.843,3034.00
1071.781,2791.00
1072.720,2854.00
1073.658,2896.00
1074.595,2687.00
1075.533,2641.00
1076.470,2639.00
1077.407,3085.00
1078.344,2849.00
1079.281,2886.00
1080.217,2346.00
1081.154,2719.00
1082.091,2814.00
1083.027,2518.00
1083.964,3013.00
1084.900,2601.00
1085.836,2675.00
1086.772,2989.00
1087.708,2525.00
1088.644,2891.00
1089.580,2787.00
1090.515,2795.00
1091.451,2703.00
1092.388,2762.00
1093.324,2507.00
1094.259,3334.00
1095.194,2842.00
1096.129,2642.00
1097.064,2649.00
1097.999,2886.00
1098.934,2612.00
1099.869,2641.00
1100.803,2796.00
1101.738,2794.00
1102.672,2468.00
1103.607,2873.00
1104.541,2606.00
1105.475,2609.00
1106.409,2440.00
1107.343,2664.00
1108.277,2483.00
1109.210,2768.00
1110.144,2706.00
1111.078,2729.00
1112.011,2528.00
1112.944,2854.00
1113.878,2757.00
1114.811,2220.00
1115.744,2659.00
1116.678,2409.00
1117.611,2613.00
1118.544,2654.00
1119.477,2828.00
1120.409,2607.00
1121.342,3199.00
1122.274,2803.00
1123.206,4285.00
1124.138,2752.00
1125.070,3074.00
1126.002,2926.00
1126.934,2358.00
1127.866,2647.00
1128.798,2372.00
1129.729,2433.00
1130.661,2712.00
1131.592,2640.00
1132.523,2798.00
1133.454,2865.00
1134.385,2370.00
1135.317,2705.00
1136.247,2640.00
1137.178,2936.00
1138.109,2418.00
1139.039,3084.00
1139.970,2910.00
1140.900,2660.00
1141.831,2421.00
1142.761,2273.00
1143.691,3268.00
1144.621,2721.00
1145.551,2745.00
1146.480,2738.00
1147.410,2914.00
1148.340,2360.00
1149.269,2403.00
1150.199,2671.00
1151.128,3096.00
1152.057,2492.00
1152.979,2637.00
1153.898,2699.00
1154.819,2819.00
1155.739,2692.00
1156.658,2601.00
1157.579,2734.00
1158.498,2690.00
1159.419,2230.00
1160.338,2713.00
1161.256,2735.00
1162.177,2577.00
1163.095,2708.00
1164.016,2780.00
1164.934,2987.00
1165.852,2906.00
1166.772,2667.00
1167.690,2709.00
1168.610,2756.00
1169.528,2726.00
1170.446,2228.00
1171.365,2607.00
1172.283,2542.00
1173.202,2668.00
1174.120,2712.00
1175.037,2561.00
1175.956,2522.00
1176.873,2560.00
1177.792,2601.00
1178.709,3173.00
1179.626,2590.00
1180.544,2872.00
1181.461,2572.00
1182.379,2807.00
1183.296,2706.00
1184.212,2340.00
1185.130,2513.00
1186.046,3045.00
1186.962,2735.00
1187.880,2965.00
1188.796,2748.00
1189.714,2475.00
1190.629,2835.00
1191.545,2735.00
1192.462,2658.00
1193.378,2672.00
1194.295,2363.00
1195.210,2711.00
1196.125,2835.00
1197.042,2776.00
1197.957,2709.00
1198.872,2554.00
1199.788,2603.00
1200.703,3099.00
1201.619,2752.00
1202.534,2582.00
1203.448,2772.00
1204.364,2643.00
1205.278,2354.00
1206.192,2761.00
1207.108,3232.00
1208.022,3064.00
1208.938,2567.00
1209.851,2860.00
1210.765,2946.00
1211.680,2624.00
1212.594,2460.00
1213.507,2662.00
1214.422,3064.00
1215.335,2825.00
1216.248,2637.00
1217.163,2752.00
1218.076,3321.00
1218.990,2821.00
1219.903,2503.00
1220.816,2543.00
1221.730,2660.00
1222.642,2567.00
1223.554,2631.00
1224.469,2783.00
1225.380,2654.00
1226.292,2344.00
1227.206,2863.00
1228.118,3023.00
1229.032,2318.00
1229.943,2580.00
1230.855,2664.00
1231.768,2430.00
1232.679,2795.00
1233.590,2661.00
1234.503,2937.00
1235.414,2564.00
1236.325,2600.00
1237.238,2782.00
1238.149,2782.00
1239.059,2494.00
1239.972,2885.00
1240.882,2484.00
1241.793,2844.00
1242.705,3045.00
1243.615,2692.00
1244.525,2751.00
1245.437,2261.00
1246.347,2696.00
1247.259,2835.00
1248.168,3116.00
1249.078,2931.00
1249.989,2939.00
1250.899,2496.00
1251.808,2550.00
1252.719,2612.00
1253.628,2563.00
1254.537,3095.00
1255.448,2548.00
1256.357,2521.00
1257.266,2697.00
1258.176,2447.00
1259.085,2426.00
1259.993,2504.00
1260.904,2538.00
1261.812,2543.00
1262.720,3234.00
1263.630,2857.00
1264.538,2512.00
1265.446,2808.00
1266.356,2698.00
1267.263,2984.00
1268.171,2534.00
1269.080,2773.00
1269.988,2872.00
1270.895,2645.00
1271.804,2633.00
1272.711,2896.00
1273.619,2886.00
1274.527,2508.00
1275.434,2855.00
1276.341,2518.00
1277.248,2716.00
1278.156,2972.00
1279.063,2548.00
1279.969,2814.00
1280.877,3636.00
1281.783,2873.00
1282.690,2745.00
1283.598,2657.00
1284.503,2565.00
1285.409,2532.00
1286.317,3047.00
1287.223,3126.00
1288.128,2783.00
1289.036,2606.00
1289.941,2653.00
1290.846,2722.00
1291.751,2536.00
1292.658,2658.00
1293.563,3132.00
1294.468,2718.00
1295.375,2861.00
1296.280,2933.00
1297.184,3437.00
1298.091,2809.00
1298.995,2864.00
1299.900,3086.00
1300.806,2618.00
1301.710,2431.00
1302.614,2243.00
1303.518,2953.00
1304.424,2617.00
1305.327,2881.00
1306.231,2687.00
1307.137,2859.00
1308.040,2770.00
1308.943,2707.00
1309.847,2898.00
1310.752,2898.00
1311.655,2386.00
1312.558,2480.00
1313.463,2631.00
1314.366,2601.00
1315.269,2701.00
1316.171,2680.00
1317.076,2580.00
1317.978,2515.00
1318.881,2298.00
1319.785,2522.00
1320.687,2569.00
1321.589,2309.00
1322.491,2531.00
1323.395,2776.00
1324.297,3241.00
1325.198,2827.00
1326.102,2478.00
1327.004,2507.00
1327.905,3125.00
1328.806,2662.00
1329.709,2743.00
1330.611,2632.00
1331.512,2482.00
1332.413,3166.00
1333.316,2725.00
1334.216,2895.00
1335.117,2433.00
1336.020,2741.00
1336.920,2701.00
1337.821,2543.00
1338.721,3006.00
1339.623,2770.00
1340.523,2659.00
1341.423,2555.00
1342.323,2987.00
1343.225,2805.00
1344.125,2493.00
1345.025,2567.00
1345.924,2342.00
1346.826,3071.00
1347.725,3091.00
1348.624,2935.00
1349.524,2555.00
1350.425,2645.00
1351.324,2790.00
1352.223,2867.00
1353.121,2690.00
1354.022,2859.00
1354.921,3122.00
1355.819,2820.00
1356.718,2739.00
1357.618,2428.00
1358.516,2810.00
1359.415,3101.00
1360.313,2816.00
1361.213,2655.00
1362.111,2992.00
1363.008,3360.00
1363.906,2679.00
1364.806,2712.00
1365.703,2798.00
1366.601,2525.00
1367.498,2516.00
1368.397,2907.00
1369.295,2801.00
1370.192,2528.00
1371.089,2823.00
1371.987,2665.00
1372.884,2946.00
1373.781,2454.00
1374.678,2745.00
1375.574,2507.00
1376.473,2834.00
1377.369,2908.00
1378.265,2552.00
1379.161,2634.00
1380.059,2403.00
1380.955,2857.00
1381.851,2472.00
1382.747,2608.00
1383.643,2657.00
1384.540,2475.00
1385.436,2579.00
1386.331,2753.00
1387.227,2860.00
1388.124,2774.00
1389.019,2515.00
1389.914,2671.00
1390.809,2358.00
1391.704,3149.00
1392.601,2636.00
1393.495,2998.00
1394.390,2859.00
1395.285,2957.00
1396.179,2799.00
1397.075,2685.00
1397.969,2741.00
1398.864,2394.00
1399.758,2658.00
1400.652,2742.00
1401.547,2519.00
1402.441,2458.00
1403.335,3056.00
1404.229,2860.00
1405.122,2761.00
1406.017,2698.00
1406.911,2876.00
1407.804,3097.00
1408.697,2700.00
1409.590,2543.00
1410.485,2892.00
1411.378,2784.00
1412.271,2403.00
1413.163,2745.00
1414.056,2862.00
1414.949,3096.00
1415.843,2716.00
1416.735,2666.00
1417.627,2746.00
1418.520,2692.00
1419.412,2948.00
1420.306,2864.00
1421.197,2981.00
1422.089,2945.00
1422.981,3173.00
1423.873,2885.00
1424.764,2800.00
1425.657,2746.00
1426.549,2826.00
1427.440,2934.00
1428.331,2627.00
1429.222,2397.00
1430.113,2772.00
1431.006,2904.00
1431.897,2637.00
1432.787,2711.00
1433.678,2659.00
1434.568,2533.00
1435.459,2929.00
1436.351,2878.00
1437.241,2838.00
1438.131,2878.00
1439.021,2463.00
1439.911,2683.00
1440.801,2785.00
1441.693,2952.00
1442.583,2764.00
1443.472,2683.00
1444.362,2830.00
1445.251,2662.00
1446.140,2625.00
1447.030,2917.00
1447.921,2923.00
1448.810,2532.00
1449.699,3084.00
1450.588,2747.00
1451.476,2626.00
1452.365,2831.00
1453.254,2592.00
1454.144,2564.00
1455.032,2867.00
1455.921,2444.00
1456.809,3002.00
1457.697,2529.00
1458.585,2661.00
1459.473,2631.00
1460.361,2544.00
1461.251,2797.00
1462.138,2783.00
1463.026,2686.00
1463.913,2970.00
1464.801,2624.00
1465.688,2790.00
1466.575,2739.00
1467.463,3189.00
1468.351,2572.00
1469.238,2709.00
1470.125,2333.00
1471.012,2779.00
1471.899,2826.00
1472.785,2525.00
1473.672,2734.00
1474.558,2974.00
1475.446,2870.00
1476.333,2909.00
1477.219,2526.00
1478.105,2693.00
1478.991,2692.00
1479.877,2992.00
1480.762,2723.00
1481.648,2592.00
1482.534,2871.00
1483.419,2805.00
1484.307,2876.00
1485.192,2682.00
1486.077,2592.00
1486.962,2579.00
1487.847,2435.00
1488.732,2552.00
1489.617,2725.00
1490.502,2996.00
1491.387,2878.00
1492.271,2511.00
1493.156,2576.00
1494.042,2535.00
1494.927,2921.00
1495.811,2613.00
1496.695,2878.00
1497.579,3016.00
1498.463,2719.00
1499.347,2783.00
1500.231,2750.00
1501.114,2792.00
1501.998,2992.00
1502.881,2782.00
1503.765,3023.00
1504.648,3164.00
1505.533,2852.00
1506.417,2740.00
1507.300,2709.00
1508.183,2843.00
1509.066,2208.00
1509.948,2993.00
1510.831,3076.00
1511.714,2494.00
1512.596,2906.00
1513.479,2989.00
1514.361,2906.00
1515.243,2753.00
1516.125,2877.00
1517.008,3000.00
1517.890,2715.00
1518.771,2788.00
1519.655,2967.00
1520.537,2651.00
1521.419,2564.00
1522.300,2782.00
1523.182,2904.00
1524.063,2883.00
1524.944,3015.00
1525.825,2936.00
1526.707,2524.00
1527.588,2532.00
1528.468,2827.00
1529.349,2414.00
1530.230,2632.00
1531.111,2908.00
1531.991,2780.00
1532.872,2443.00
1533.752,2713.00
1534.632,2617.00
1535.513,2569.00
1536.393,2952.00
1537.273,3083.00
1538.153,3435.00
1539.032,2471.00
1539.912,2731.00
1540.792,2744.00
1541.672,2795.00
1542.551,2863.00
1543.430,3355.00
1544.310,2742.00
1545.189,2660.00
1546.068,3151.00
1546.947,2858.00
1547.826,3051.00
1548.705,2704.00
1549.584,2957.00
1550.462,2675.00
1551.341,2917.00
1552.219,2806.00
1553.098,2864.00
1553.976,2950.00
1554.854,3162.00
1555.733,2962.00
1556.611,2684.00
1557.489,2556.00
1558.367,2765.00
1559.244,2928.00
1560.122,2748.00
1561.000,2825.00
1561.877,3064.00
1562.755,2579.00
1563.632,2741.00
1564.509,2976.00
1565.386,3139.00
1566.264,2492.00
1567.141,2347.00
1568.017,2903.00
1568.894,2725.00
1569.771,2755.00
1570.648,2888.00
1571.524,2767.00
1572.401,2503.00
1573.277,2526.00
1574.153,2798.00
1575.029,2628.00
1575.906,3443.00
1576.781,2911.00
1577.657,2693.00
1578.533,2976.00
1579.409,2380.00
1580.285,2731.00
1581.160,3215.00
1582.036,2951.00
1582.911,2581.00
1583.786,3140.00
1584.662,2503.00
1585.537,2727.00
1586.412,2819.00
1587.287,2611.00
1588.160,2944.00
1589.035,2423.00
1589.909,2763.00
1590.784,2742.00
1591.658,2551.00
1592.533,2820.00
1593.407,2782.00
1594.281,2611.00
1595.155,3145.00
1596.029,2631.00
1596.903,2704.00
1597.777,2657.00
1598.651,3011.00
1599.525,2422.00
1600.398,2786.00
1601.272,2724.00
1602.144,3314.00
1603.017,2714.00
1603.890,3004.00
1604.763,2840.00
1605.636,2857.00
1606.509,2476.00
1607.382,2592.00
1608.255,2869.00
1609.128,2968.00
1610.000,2747.00
1610.873,2449.00
1611.746,2672.00
1612.616,2694.00
1613.488,2337.00
1614.361,2743.00
1615.233,2727.00
1616.105,2961.00
1616.977,2657.00
1617.849,2567.00
1618.720,3078.00
1619.592,3051.00
1620.464,2851.00
1621.333,3187.00
1622.205,2742.00
1623.076,2684.00
1623.947,2722.00
1624.818,3007.00
1625.689,2871.00
1626.560,2625.00
1627.431,2809.00
1628.302,3164.00
1629.171,2902.00
1630.042,3063.00
1630.912,3399.00
1631.782,3334.00
1632.653,2549.00
1633.523,2924.00
1634.393,3047.00
1635.263,2607.00
1636.131,2772.00
1637.001,2691.00
1637.871,2385.00
1638.741,2410.00
1639.611,2475.00
1640.480,2860.00
1641.350,2626.00
1642.219,2587.00
1643.087,2228.00
1643.956,3239.00
1644.825,3012.00
1645.694,2997.00
1646.563,2959.00
1647.432,2816.00
1648.299,2739.00
1649.167,2901.00
1650.036,2575.00
1650.904,2942.00
1651.773,2929.00
1652.641,2743.00
1653.509,2955.00
1654.376,2611.00
1655.244,2784.00
1656.112,2803.00
1656.980,2779.00
1657.847,2647.00
1658.715,2903.00
1659.581,2673.00
1660.448,2974.00
1661.316,2299.00
1662.183,2826.00
1663.051,2803.00
1663.918,2783.00
1664.783,2781.00
1665.650,2875.00
1666.517,2936.00
1667.384,2807.00
1668.251,2783.00
1669.115,2975.00
1669.982,2743.00
1670.849,3049.00
1671.715,2727.00
1672.581,2926.00
1673.446,2871.00
1674.312,2819.00
1675.178,3202.00
1676.044,2875.00
1676.910,2820.00
1677.774,2830.00
1678.639,2399.00
1679.505,2752.00
1680.370,2910.00
1681.236,3469.00
1682.099,2741.00
1682.965,2770.00
1683.830,2372.00
1684.695,2569.00
1685.560,2690.00
1686.423,2918.00
1687.288,2913.00
1688.153,2805.00
1689.017,2718.00
1689.880,2889.00
1690.745,2909.00
1691.609,2610.00
1692.473,2887.00
1693.338,2965.00
1694.200,3039.00
1695.064,2803.00
1695.928,2701.00
1696.792,2794.00
1697.654,3267.00
1698.517,2778.00
1699.381,2503.00
1700.245,2403.00
1701.106,3037.00
1701.969,2646.00
1702.833,2917.00
1703.696,2687.00
1704.557,2747.00
1705.420,2646.00
1706.283,2817.00
1707.146,2878.00
1708.007,2571.00
1708.870,2583.00
1709.732,2420.00
1710.595,2682.00
1711.455,2525.00
1712.318,2662.00
1713.180,3055.00
1714.040,2833.00
1714.902,2948.00
1715.764,2799.00
1716.626,2577.00
1717.486,2750.00
1718.348,3030.00
1719.209,4357.00
1720.071,2395.00
1720.930,2506.00
1721.792,2577.00
1722.653,2593.00
1723.512,2655.00
1724.374,2727.00
1725.234,2829.00
1726.095,2807.00
1726.954,2774.00
1727.815,2903.00
1728.676,2746.00
1729.535,2986.00
1730.395,2759.00
1731.256,2713.00
1732.114,2859.00
1732.974,2217.00
1733.834,3112.00
1734.693,2955.00
1735.553,2827.00
1736.413,3167.00
1737.272,2647.00
1738.130,2705.00
1738.990,2862.00
1739.849,2682.00
1740.707,3787.00
1741.566,2814.00
1742.426,2819.00
1743.283,3161.00
1744.142,2664.00
1745.001,2423.00
1745.858,2945.00
1746.717,2870.00
1747.576,2899.00
1748.433,2960.00
1749.292,3350.00
1750.150,3398.00
1751.007,2981.00
1751.865,2982.00
1752.723,2784.00
1753.579,2705.00
1754.438,3036.00
1755.296,2987.00
1756.152,2305.00
1757.010,2460.00
1757.865,2979.00
1758.723,2469.00
1759.581,3134.00
1760.436,2726.00
1761.294,3156.00
1762.151,2734.00
1763.006,2663.00
1763.864,2436.00
1764.721,3008.00
1765.576,2784.00
1766.433,2912.00
1767.288,2670.00
1768.144,2857.00
1769.001,2752.00
1769.856,2865.00
1770.712,3004.00
1771.568,2581.00
1772.423,2667.00
1773.279,2649.00
1774.133,2682.00
1774.989,3157.00
1775.845,3186.00
1776.699,3074.00
1777.555,2727.00
1778.409,3321.00
1779.265,2750.00
1780.120,2701.00
1780.974,2788.00
1781.829,2387.00
1782.682,2850.00
1783.538,2613.00
1784.393,2819.00
1785.246,2653.00
1786.101,2906.00
1786.954,2928.00
1787.808,2966.00
1788.661,2495.00
1789.516,2666.00
1790.370,2733.00
1791.223,2965.00
1792.077,2789.00
1792.930,2859.00
1793.784,2665.00
1794.636,2811.00
1795.490,2750.00
1796.344,2843.00
1797.196,2762.00
1798.049,2955.00
1798.901,2703.00
1799.755,3036.00
1800.606,2566.00
1801.460,3341.00
1802.311,3099.00
1803.165,3230.00
1804.018,3120.00
1804.869,2845.00
1805.722,3250.00
1806.573,2818.00
1807.426,2580.00
1808.276,2805.00
1809.129,2695.00
1809.980,2984.00
1810.832,3044.00
1811.683,2737.00
1812.535,3078.00
1813.385,2758.00
1814.237,3057.00
1815.089,2864.00
1815.940,3058.00
1816.791,2752.00
1817.641,2684.00
1818.493,2939.00
1819.343,2856.00
1820.194,2672.00
1821.044,2860.00
1821.895,3053.00
1822.745,2514.00
1823.596,2688.00
1824.445,3188.00
1825.296,2905.00
1826.145,2750.00
1826.996,3029.00
1827.845,2844.00
1828.695,2845.00
1829.544,2807.00
1830.395,2848.00
1831.243,2710.00
1832.094,2476.00
1832.942,3426.00
1833.792,2899.00
1834.640,2841.00
1835.490,2784.00
1836.338,2884.00
1837.186,2684.00
1838.036,2651.00
1838.884,2747.00
1839.733,3116.00
1840.581,2988.00
1841.430,2928.00
1842.278,3175.00
1843.127,2710.00
1843.974,2469.00
1844.823,3284.00
1845.671,3029.00
1846.519,2819.00
1847.366,2893.00
1848.213,2419.00
1849.062,2600.00
1849.909,2551.00
1850.757,3503.00
1851.604,2971.00
1852.452,2678.00
1853.298,2988.00
1854.146,2854.00
1854.993,2850.00
1855.839,3326.00
1856.687,2913.00
1857.532,2929.00
1858.380,2777.00
1859.226,2893.00
1860.073,2957.00
1860.919,2654.00
1861.765,2710.00
1862.612,3046.00
1863.457,3034.00
1864.304,2727.00
1865.150,2884.00
1865.995,2777.00
1866.842,2941.00
1867.686,3056.00
1868.533,2879.00
1869.378,2845.00
1870.223,2851.00
1871.069,2699.00
1871.914,2829.00
1872.760,2803.00
1873.604,2554.00
1874.448,2990.00
1875.294,2990.00
1876.139,2643.00
1876.984,2903.00
1877.828,2488.00
1878.672,2301.00
1879.518,2705.00
1880.361,2938.00
1881.205,2927.00
1882.050,2608.00
1882.894,3359.00
1883.739,2670.00
1884.582,2521.00
1885.425,2615.00
1886.270,3065.00
1887.113,2575.00
1887.956,2889.00
1888.801,2870.00
1889.644,2599.00
1890.486,2383.00
1891.331,2718.00
1892.173,2843.00
1893.017,2909.00
1893.860,3090.00
1894.702,3086.00
1895.546,2820.00
1896.388,3535.00
1897.230,3174.00
1898.074,2692.00
1898.916,2620.00
1899.757,2600.00
1900.601,3514.00
1901.443,3113.00
1902.284,3144.00
1903.125,3281.00
1903.969,3013.00
1904.810,3077.00
1905.651,2907.00
1906.494,3193.00
1907.335,3275.00
1908.176,2947.00
1909.018,2927.00
1909.859,2762.00
1910.700,2675.00
1911.542,3375.00
1912.383,2855.00
1913.223,2439.00
1914.064,2961.00
1914.906,3082.00
1915.746,3174.00
1916.586,3286.00
1917.428,2806.00
1918.268,2851.00
1919.107,2697.00
1919.947,2529.00
1920.789,2756.00
1921.628,3036.00
1922.468,2827.00
1923.309,2683.00
1924.148,3118.00
1924.988,2949.00
1925.827,2821.00
1926.667,2670.00
1927.507,2907.00
1928.345,2657.00
1929.184,2994.00
1930.025,2607.00
1930.864,3096.00
1931.702,3162.00
1932.541,2719.00
1933.381,2956.00
1934.219,2962.00
1935.057,3129.00
1935.896,2521.00
1936.735,2775.00
1937.573,2768.00
1938.411,2616.00
1939.249,2951.00
1940.089,2694.00
1940.927,3078.00
1941.764,3116.00
1942.602,2753.00
1943.439,2722.00
1944.278,2824.00
1945.115,2740.00
1945.953,2572.00
1946.790,2906.00
1947.628,3153.00
1948.465,2928.00
1949.302,3008.00
1950.139,2948.00
1950.976,2708.00
1951.814,2975.00
1952.651,2945.00
1953.487,2572.00
1954.323,3072.00
1955.160,2800.00
1955.998,3206.00
1956.834,2782.00
1957.670,2916.00
1958.506,3049.00
1959.342,2921.00
1960.177,2868.00
1961.015,2984.00
1961.850,2876.00
1962.686,2899.00
1963.521,2870.00
1964.357,3145.00
1965.192,2596.00
1966.029,3001.00
1966.864,2770.00
1967.699,3061.00
1968.534,2879.00
1969.369,3137.00
1970.204,2802.00
1971.040,2876.00
1971.875,2758.00
1972.709,2874.00
1973.544,2638.00
1974.378,2757.00
1975.212,2977.00
1976.047,2685.00
1976.882,2756.00
1977.716,3252.00
1978.550,2530.00
1979.384,2762.00
1980.218,2766.00
1981.052,2805.00
1981.885,2873.00
1982.719,2893.00
1983.554,2993.00
1984.388,3188.00
1985.221,2927.00
1986.054,3066.00
1986.887,2886.00
1987.720,2666.00
1988.553,3144.00
1989.386,2906.00
1990.219,2944.00
1991.053,3165.00
1991.886,2697.00
1992.719,3025.00
1993.551,2320.00
1994.383,3024.00
1995.216,2771.00
1996.048,2498.00
1996.880,2998.00
1997.712,2708.00
1998.544,2829.00
1999.376,2919.00
2000.208,3105.00
2001.040,3272.00
2001.873,2637.00
2002.705,2691.00
2003.536,2910.00
2004.367,2891.00
2005.199,2900.00
2006.030,2702.00
2006.861,2630.00
2007.692,2905.00
2008.523,2679.00
2009.354,2853.00
2010.185,2628.00
2011.016,3004.00
2011.846,3079.00
2012.677,2794.00
2013.507,3174.00
2014.338,3132.00
2015.168,2761.00
2015.999,3330.00
2016.829,2785.00
2017.659,3092.00
2018.489,3385.00
2019.319,2635.00
2020.149,3000.00
2020.980,2863.00
2021.810,2648.00
2022.639,2706.00
2023.469,2731.00
2024.298,2545.00
2025.128,2454.00
2025.957,2424.00
2026.786,2280.00
2027.615,2467.00
2028.444,2726.00
2029.273,2876.00
2030.102,2433.00
2030.931,2705.00
2031.758,2999.00
2032.586,2609.00
2033.415,2704.00
2034.243,2306.00
2035.072,2070.00
2035.900,2554.00
2036.728,2403.00
2037.556,2472.00
2038.385,2453.00
2039.213,2269.00
2040.040,2220.00
2040.868,2206.00
2041.696,2297.00
2042.524,2259.00
2043.351,2483.00
2044.179,2277.00
2045.006,2045.00
