RamanScope Measure Spectrum Data V3.72

<< MEASURE CONDITION >>
Exposure Type,Aver
Exposure Time [sec],15
Exposure Count,4
Measure Time,2023/07/15 15:37:33
Data Name,""
Data Comment,""
Rayleigh Wave[nm],532.0

<< SAMPLE SPECTRUM >>
Wave[dcm-1],No146
146.591,1178.50
147.626,1348.00
148.664,1614.50
149.699,1853.25
150.737,2107.00
151.772,2320.75
152.809,2519.75
153.846,2732.50
154.881,2958.25
155.918,3073.25
156.953,3230.50
157.989,3345.50
159.026,3431.75
160.060,3538.75
161.096,3519.00
162.130,3683.75
163.167,3661.25
164.200,3755.25
165.236,3823.75
166.272,3892.25
167.305,3944.25
168.341,4062.00
169.374,4095.75
170.409,4192.00
171.445,4253.50
172.477,4377.25
173.512,4449.50
174.545,4452.00
175.580,4470.50
176.614,4556.50
177.647,4503.75
178.681,4480.75
179.713,4448.00
180.747,4353.50
181.781,4320.50
182.813,4277.50
183.847,4326.00
184.878,4273.75
185.912,4339.25
186.945,4304.50
187.976,4317.50
189.010,4379.00
190.043,4383.75
191.073,4412.75
192.106,4456.25
193.137,4528.00
194.170,4502.25
195.202,4586.00
196.232,4640.00
197.265,4719.25
198.297,4788.25
199.327,4807.00
200.359,4895.75
201.388,4940.25
202.420,5028.00
203.452,5181.00
204.481,5222.00
205.512,5320.00
206.544,5446.00
207.573,5545.50
208.604,5595.50
209.635,5737.50
210.663,5908.25
211.694,5964.75
212.725,6054.50
213.753,6202.25
214.783,6236.75
215.813,6258.25
216.841,6219.00
217.871,6212.00
218.899,6177.75
219.929,6124.75
220.959,6004.00
221.986,5938.75
223.016,5835.50
224.045,5751.75
225.072,5682.25
226.101,5678.25
227.130,5540.50
228.157,5494.25
229.185,5478.75
230.214,5446.50
231.241,5379.75
232.269,5351.75
233.297,5333.00
234.323,5339.75
235.351,5365.25
236.379,5292.75
237.407,5366.00
238.433,5360.25
239.460,5433.50
240.488,5503.75
241.513,5478.00
242.540,5513.50
243.568,5581.25
244.592,5597.75
245.619,5608.75
246.646,5588.75
247.671,5502.50
248.697,5596.25
249.724,5522.00
250.748,5513.75
251.774,5500.00
252.801,5549.50
253.827,5570.00
254.850,5549.25
255.876,5586.00
256.902,5612.75
257.925,5577.00
258.951,5590.50
259.976,5722.00
260.999,5716.75
262.024,5788.75
263.049,5803.50
264.074,5812.50
265.097,5856.25
266.122,5926.25
267.146,5977.00
268.168,5969.75
269.193,6100.50
270.217,6056.75
271.241,6101.00
272.263,6107.25
273.287,6111.25
274.311,6092.75
275.332,6122.75
276.356,5981.00
277.379,6012.25
278.402,6008.75
279.424,5902.00
280.447,5914.50
281.470,5815.75
282.492,5681.25
283.513,5728.50
284.536,5614.25
285.558,5548.75
286.581,5480.25
287.601,5406.00
288.623,5326.75
289.645,5270.75
290.665,5227.75
291.687,5213.00
292.709,5071.75
293.730,5044.00
294.750,5026.00
295.771,4969.50
296.792,4889.50
297.813,4890.25
298.832,4777.25
299.853,4779.25
300.874,4719.00
301.895,4699.75
302.913,4593.50
303.934,4657.25
304.954,4604.75
305.975,4545.00
306.993,4501.00
308.013,4489.50
309.033,4536.50
310.052,4492.25
311.072,4465.75
312.090,4441.75
313.109,4448.75
314.129,4386.00
315.148,4367.00
316.165,4328.50
317.184,4349.00
318.203,4341.25
319.222,4295.50
320.238,4271.50
321.257,4345.25
322.275,4287.50
323.294,4272.25
324.312,4238.00
325.328,4336.25
326.346,4269.75
327.364,4225.75
328.382,4244.25
329.397,4269.50
330.415,4231.00
331.432,4222.25
332.450,4237.00
333.467,4224.00
334.482,4189.75
335.499,4128.25
336.516,4227.75
337.533,4173.50
338.547,4164.50
339.564,4149.75
340.580,4126.00
341.597,4114.00
342.613,4119.75
343.627,4123.25
344.643,4131.50
345.659,4147.25
346.675,4106.50
347.690,4123.00
348.704,4101.00
349.719,4140.50
350.735,4089.75
351.750,4139.75
352.765,4091.75
353.778,4087.50
354.793,4084.75
355.808,4119.75
356.822,4154.75
357.837,4127.75
358.851,4109.25
359.864,4138.00
360.878,4169.00
361.892,4147.00
362.906,4130.00
363.920,4188.00
364.932,4171.25
365.945,4125.00
366.959,4133.50
367.972,4189.50
368.986,4118.75
369.999,4183.00
371.010,4145.25
372.023,4187.75
373.036,4206.50
374.049,4165.25
375.061,4291.75
376.072,4146.75
377.084,4194.50
378.097,4265.00
379.109,4251.75
380.121,4216.25
381.133,4186.75
382.143,4239.50
383.155,4169.50
384.166,4196.00
385.178,4160.00
386.189,4160.50
387.201,4134.50
388.212,4177.00
389.221,4158.50
390.232,4125.75
391.243,4046.00
392.254,4043.50
393.264,4102.75
394.275,4087.75
395.283,4031.00
396.294,4060.00
397.304,4016.50
398.314,3977.00
399.324,3946.75
400.334,3979.75
401.344,3994.75
402.351,3935.25
403.361,3952.75
404.370,3885.00
405.380,3941.00
406.389,3962.50
407.398,3904.00
408.407,3856.00
409.414,3851.50
410.423,3856.50
411.431,3806.50
412.440,3821.50
413.448,3787.50
414.457,3823.00
415.465,3791.75
416.471,3809.50
417.479,3774.50
418.487,3735.50
419.495,3761.25
420.503,3771.00
421.510,3758.50
422.518,3725.75
423.525,3778.00
424.530,3720.75
425.537,3744.50
426.544,3749.75
427.551,3719.00
428.558,3720.75
429.565,3681.75
430.571,3670.00
431.578,3731.75
432.582,3640.25
433.588,3680.00
434.595,3692.75
435.601,3668.75
436.607,3658.50
437.612,3645.25
438.618,3709.75
439.624,3666.50
440.627,3645.00
441.633,3636.75
442.638,3684.00
443.643,3650.00
444.648,3642.50
445.653,3610.50
446.658,3640.00
447.663,3642.75
448.667,3636.50
449.672,3696.75
450.674,3667.25
451.678,3686.75
452.682,3668.75
453.687,3603.50
454.690,3640.00
455.694,3702.25
456.698,3704.25
457.702,3704.75
458.705,3648.25
459.709,3654.50
460.710,3700.50
461.713,3733.75
462.716,3684.75
463.719,3621.75
464.722,3691.75
465.725,3696.75
466.727,3744.00
467.730,3719.75
468.732,3676.75
469.735,3757.00
470.737,3683.75
471.737,3738.75
472.739,3738.75
473.741,3702.75
474.742,3702.50
475.744,3706.00
476.746,3745.50
477.747,3752.25
478.748,3712.00
479.750,3724.50
480.751,3734.50
481.752,3739.75
482.753,3747.25
483.751,3717.25
484.752,3745.25
485.753,3741.25
486.753,3714.00
487.753,3755.00
488.754,3778.50
489.754,3688.25
490.754,3745.75
491.754,3753.50
492.754,3751.50
493.753,3764.00
494.753,3750.00
495.752,3690.75
496.752,3732.75
497.749,3711.75
498.748,3731.50
499.747,3711.75
500.746,3738.25
501.745,3647.00
502.744,3663.00
503.742,3658.25
504.741,3649.00
505.739,3630.00
506.737,3624.50
507.735,3672.25
508.734,3659.75
509.732,3634.25
510.729,3627.50
511.727,3649.75
512.725,3567.25
513.720,3632.00
514.718,3570.00
515.715,3574.50
516.712,3595.00
517.709,3606.50
518.706,3582.50
519.703,3531.50
520.700,3558.75
521.696,3516.75
522.693,3594.75
523.689,3594.75
524.686,3551.50
525.682,3603.00
526.678,3607.75
527.674,3587.00
528.670,3573.25
529.666,3554.75
530.661,3607.50
531.657,3565.25
532.652,3562.00
533.648,3591.75
534.641,3641.50
535.636,3546.50
536.631,3536.00
537.626,3586.25
538.621,3565.50
539.616,3571.50
540.610,3545.75
541.605,3506.50
542.599,3602.00
543.593,3573.25
544.587,3576.50
545.581,3558.25
546.575,3535.50
547.569,3587.25
548.563,3594.00
549.557,3557.50
550.550,3556.25
551.543,3584.75
552.537,3569.00
553.530,3561.00
554.523,3613.50
555.516,3547.00
556.509,3590.25
557.502,3587.50
558.494,3564.75
559.487,3606.25
560.479,3632.50
561.472,3608.25
562.464,3565.50
563.456,3558.00
564.448,3560.25
565.440,3590.75
566.432,3590.00
567.423,3542.25
568.415,3610.00
569.404,3624.50
570.396,3653.00
571.387,3595.50
572.378,3632.75
573.369,3667.50
574.360,3646.50
575.351,3682.50
576.341,3700.25
577.332,3659.50
578.323,3701.50
579.313,3714.75
580.303,3722.50
581.293,3678.25
582.283,3687.75
583.273,3729.25
584.263,3712.00
585.253,3740.25
586.243,3770.00
587.232,3774.00
588.222,3721.75
589.211,3807.75
590.200,3741.75
591.189,3781.25
592.178,3767.50
593.167,3773.25
594.156,3794.75
595.145,3797.50
596.133,3792.25
597.122,3829.50
598.110,3717.00
599.098,3766.25
600.086,3765.50
601.074,3799.25
602.062,3766.75
603.050,3777.50
604.038,3740.00
605.025,3813.75
606.013,3796.75
607.000,3804.75
607.987,3753.50
608.975,3706.25
609.962,3705.50
610.949,3720.50
611.936,3719.25
612.922,3614.25
613.909,3621.25
614.895,3591.00
615.882,3612.50
616.868,3635.75
617.854,3589.75
618.841,3542.75
619.826,3536.25
620.812,3508.50
621.798,3490.25
622.784,3503.25
623.769,3486.25
624.755,3414.25
625.740,3435.50
626.725,3415.00
627.711,3444.25
628.698,3335.00
629.683,3353.25
630.667,3290.50
631.652,3349.75
632.637,3286.25
633.621,3255.25
634.606,3238.25
635.590,3227.75
636.574,3203.50
637.558,3217.00
638.542,3190.50
639.526,3152.50
640.510,3148.50
641.493,3141.25
642.477,3175.25
643.460,3152.75
644.444,3158.00
645.427,3052.75
646.410,3061.00
647.393,3091.25
648.376,3072.00
649.359,3060.25
650.341,3066.25
651.324,3053.50
652.307,3000.50
653.289,3071.25
654.271,3002.25
655.253,2968.00
656.235,2970.50
657.217,3033.50
658.199,2968.25
659.181,2971.75
660.163,2963.75
661.144,2975.25
662.126,2988.25
663.107,2942.25
664.088,2974.75
665.069,2950.25
666.050,2919.00
667.033,2911.00
668.014,2915.00
668.995,2915.00
669.975,2898.25
670.956,2899.50
671.936,2858.75
672.916,2850.25
673.896,2862.75
674.876,2846.00
675.856,2791.25
676.836,2726.75
677.816,2760.75
678.795,2741.50
679.775,2718.25
680.754,2751.25
681.734,2666.00
682.713,2661.00
683.692,2676.00
684.671,2609.75
685.650,2637.25
686.629,2611.75
687.607,2602.50
688.586,2610.50
689.564,2591.50
690.543,2549.00
691.523,2574.00
692.501,2559.50
693.479,2582.50
694.457,2529.25
695.435,2536.50
696.413,2544.25
697.390,2518.50
698.368,2510.75
699.345,2504.25
700.322,2517.75
701.300,2476.00
702.277,2447.50
703.254,2415.75
704.231,2448.75
705.207,2455.25
706.184,2451.75
707.161,2425.75
708.137,2386.75
709.113,2410.00
710.090,2443.50
711.068,2400.50
712.044,2380.50
713.020,2403.00
713.996,2380.00
714.971,2418.50
715.947,2412.50
716.922,2363.50
717.898,2361.50
718.873,2325.75
719.848,2393.50
720.823,2379.75
721.798,2325.75
722.773,2351.25
723.748,2299.00
724.723,2341.50
725.697,2332.75
726.672,2367.50
727.646,2322.75
728.622,2356.50
729.596,2306.25
730.570,2276.00
731.544,2269.75
732.518,2302.50
733.492,2302.50
734.466,2270.25
735.439,2258.00
736.413,2252.00
737.386,2266.25
738.359,2260.00
739.332,2289.50
740.305,2236.75
741.278,2248.50
742.251,2245.00
743.224,2222.00
744.196,2225.50
745.171,2217.75
746.143,2198.75
747.115,2206.75
748.087,2186.75
749.059,2253.75
750.031,2191.50
751.003,2192.75
751.975,2212.00
752.947,2182.00
753.918,2124.00
754.890,2184.50
755.861,2127.75
756.832,2155.50
757.803,2158.50
758.774,2110.50
759.747,2128.50
760.718,2117.00
761.689,2082.75
762.659,2168.50
763.630,2137.50
764.600,2103.50
765.570,2085.50
766.540,2069.00
767.510,2098.50
768.480,2097.00
769.450,2080.25
770.420,2056.25
771.390,2045.75
772.359,2073.50
773.329,2056.00
774.300,2042.75
775.269,2041.25
776.238,2004.00
777.207,2043.75
778.176,2032.25
779.145,2022.00
780.114,1988.00
781.083,1986.75
782.051,2010.50
783.019,2016.50
783.988,2006.75
784.956,1990.50
785.924,2001.25
786.894,2024.75
787.862,1966.00
788.830,1983.25
789.797,1991.75
790.765,1951.00
791.732,1973.25
792.700,1984.75
793.667,1911.75
794.634,1965.00
795.601,1950.50
796.568,1948.75
797.535,1936.00
798.502,1928.75
799.468,1919.50
800.437,1909.50
801.403,1972.00
802.370,1923.75
803.336,1941.50
804.302,1867.50
805.268,1931.00
806.234,1940.00
807.200,1909.00
808.166,1921.75
809.131,1869.50
810.097,1885.25
811.062,1861.50
812.027,1862.50
812.994,1910.50
813.960,1885.25
814.925,1865.00
815.889,1853.25
816.854,1871.50
817.819,1915.75
818.783,1853.25
819.748,1884.50
820.712,1872.50
821.677,1860.75
822.641,1853.75
823.605,1884.00
824.571,1883.75
825.534,1871.25
826.498,1832.25
827.462,1828.25
828.425,1867.25
829.389,1887.25
830.352,1858.25
831.315,1837.75
832.279,1877.50
833.242,1874.75
834.204,1810.00
835.167,1890.00
836.132,1824.25
837.095,1848.50
838.057,1809.25
839.020,1818.25
839.982,1856.25
840.944,1823.75
841.906,1827.50
842.868,1785.50
843.830,1828.25
844.792,1815.00
845.753,1822.75
846.715,1845.50
847.679,1799.50
848.640,1809.00
849.601,1824.75
850.562,1778.75
851.523,1767.25
852.484,1843.50
853.445,1801.50
854.406,1761.00
855.367,1800.75
856.327,1777.00
857.288,1756.25
858.248,1810.75
859.210,1762.50
860.170,1782.00
861.130,1795.75
862.090,1792.75
863.050,1794.75
864.010,1731.50
864.969,1769.50
865.929,1759.75
866.888,1763.00
867.848,1788.75
868.807,1762.75
869.766,1802.25
870.727,1784.75
871.686,1749.75
872.645,1768.75
873.604,1784.00
874.562,1756.00
875.521,1750.00
876.479,1773.00
877.437,1792.00
878.396,1754.50
879.354,1703.25
880.312,1744.50
881.270,1791.25
882.229,1722.00
883.187,1794.50
884.145,1776.75
885.102,1757.25
886.059,1749.75
887.017,1774.00
887.974,1759.75
888.931,1753.75
889.888,1754.75
890.845,1743.25
891.802,1762.50
892.758,1791.00
893.717,1803.00
894.673,1795.25
895.630,1743.25
896.586,1758.25
897.542,1775.75
898.498,1749.75
899.454,1792.25
900.410,1736.25
901.366,1782.75
902.321,1775.25
903.277,1731.00
904.232,1774.25
905.189,1738.50
906.145,1761.00
907.100,1773.25
908.055,1797.75
909.010,1784.75
909.965,1757.50
910.919,1755.75
911.874,1757.50
912.828,1802.25
913.783,1757.00
914.737,1777.25
915.693,1813.75
916.648,1745.00
917.602,1755.25
918.555,1727.00
919.509,1791.25
920.463,1785.00
921.417,1777.25
922.370,1755.00
923.324,1770.25
924.277,1776.00
925.230,1766.75
926.183,1751.00
927.138,1738.00
928.091,1769.50
929.044,1739.50
929.996,1800.00
930.949,1811.75
931.902,1801.25
932.854,1773.25
933.806,1773.25
934.758,1827.50
935.711,1794.25
936.663,1784.50
937.614,1749.50
938.568,1787.50
939.520,1801.75
940.471,1787.50
941.423,1787.25
942.374,1765.25
943.326,1757.75
944.277,1765.25
945.228,1774.50
946.179,1762.25
947.130,1780.50
948.080,1775.00
949.031,1814.00
949.984,1756.50
950.934,1781.00
951.884,1805.50
952.835,1804.00
953.785,1815.50
954.735,1773.75
955.685,1755.25
956.635,1737.25
957.585,1763.00
958.534,1750.75
959.484,1780.00
960.433,1747.50
961.383,1770.25
962.334,1777.50
963.283,1737.25
964.232,1786.75
965.181,1732.75
966.130,1738.50
967.079,1730.50
968.027,1754.50
968.976,1717.00
969.924,1718.25
970.873,1710.00
971.821,1777.50
972.769,1754.25
973.719,1751.50
974.667,1729.00
975.615,1719.75
976.562,1737.50
977.510,1690.50
978.458,1750.50
979.405,1742.25
980.352,1745.75
981.300,1738.50
982.247,1728.00
983.194,1746.75
984.141,1779.00
985.088,1702.75
986.036,1718.75
986.983,1726.25
987.930,1718.50
988.876,1732.50
989.822,1775.25
990.769,1722.00
991.715,1698.00
992.661,1705.75
993.607,1665.25
994.553,1718.00
995.498,1696.25
996.444,1701.50
997.389,1685.00
998.337,1750.25
999.282,1731.25
1000.227,1728.00
1001.173,1703.75
1002.118,1649.25
1003.062,1710.25
1004.007,1706.00
1004.952,1680.75
1005.897,1679.75
1006.841,1634.25
1007.786,1700.75
1008.730,1690.50
1009.674,1722.00
1010.618,1686.00
1011.564,1719.00
1012.508,1682.50
1013.452,1673.75
1014.396,1721.00
1015.339,1735.50
1016.283,1689.50
1017.226,1673.25
1018.170,1681.50
1019.113,1633.25
1020.056,1650.25
1020.999,1693.50
1021.942,1647.00
1022.885,1673.50
1023.828,1696.00
1024.770,1658.75
1025.715,1681.75
1026.657,1721.75
1027.600,1700.75
1028.542,1678.50
1029.484,1675.00
1030.426,1649.00
1031.368,1684.25
1032.310,1689.00
1033.251,1625.50
1034.193,1682.25
1035.135,1665.50
1036.076,1689.00
1037.017,1645.50
1037.959,1652.50
1038.900,1664.00
1039.843,1701.00
1040.784,1700.75
1041.725,1658.50
1042.665,1778.75
1043.606,1690.00
1044.547,1683.00
1045.487,1719.75
1046.427,1687.50
1047.368,1694.00
1048.308,1648.50
1049.248,1695.75
1050.188,1670.75
1051.128,1716.75
1052.067,1678.25
1053.007,1692.75
1053.947,1700.75
1054.886,1691.50
1055.827,1730.75
1056.766,1731.25
1057.706,1707.25
1058.645,1699.25
1059.584,1716.25
1060.522,1694.75
1061.461,1691.75
1062.400,1740.25
1063.338,1745.25
1064.277,1731.00
1065.215,1719.25
1066.154,1710.00
1067.092,1709.00
1068.030,1755.75
1068.968,1722.75
1069.906,1719.00
1070.843,1731.75
1071.781,1734.25
1072.720,1716.25
1073.658,1743.50
1074.595,1733.50
1075.533,1752.50
1076.470,1689.75
1077.407,1746.75
1078.344,1714.00
1079.281,1746.50
1080.217,1721.50
1081.154,1725.25
1082.091,1733.75
1083.027,1745.25
1083.964,1779.50
1084.900,1760.50
1085.836,1750.50
1086.772,1711.75
1087.708,1755.00
1088.644,1724.25
1089.580,1748.25
1090.515,1754.50
1091.451,1734.50
1092.388,1738.50
1093.324,1749.00
1094.259,1696.25
1095.194,1700.75
1096.129,1743.25
1097.064,1760.25
1097.999,1723.75
1098.934,1723.25
1099.869,1702.00
1100.803,1693.50
1101.738,1685.25
1102.672,1688.00
1103.607,1702.00
1104.541,1738.00
1105.475,1670.25
1106.409,1681.25
1107.343,1717.50
1108.277,1698.25
1109.210,1720.25
1110.144,1693.25
1111.078,1628.25
1112.011,1675.00
1112.944,1673.50
1113.878,1712.25
1114.811,1683.50
1115.744,1672.00
1116.678,1620.75
1117.611,1657.75
1118.544,1605.25
1119.477,1599.50
1120.409,1651.00
1121.342,1656.00
1122.274,1617.75
1123.206,1585.00
1124.138,1642.50
1125.070,1594.50
1126.002,1604.50
1126.934,1609.50
1127.866,1580.50
1128.798,1619.75
1129.729,1563.25
1130.661,1632.00
1131.592,1603.50
1132.523,1631.00
1133.454,1584.25
1134.385,1594.25
1135.317,1596.00
1136.247,1575.25
1137.178,1536.50
1138.109,1577.50
1139.039,1567.75
1139.970,1583.25
1140.900,1592.25
1141.831,1541.50
1142.761,1534.25
1143.691,1476.75
1144.621,1521.00
1145.551,1553.00
1146.480,1595.75
1147.410,1599.00
1148.340,1538.00
1149.269,1567.25
1150.199,1546.50
1151.128,1542.00
1152.057,1537.50
1152.979,1584.75
1153.898,1497.00
1154.819,1484.50
1155.739,1532.75
1156.658,1527.75
1157.579,1523.25
1158.498,1511.75
1159.419,1518.50
1160.338,1489.75
1161.256,1550.25
1162.177,1537.25
1163.095,1508.50
1164.016,1524.00
1164.934,1516.75
1165.852,1489.75
1166.772,1508.75
1167.690,1494.75
1168.610,1519.25
1169.528,1508.00
1170.446,1501.75
1171.365,1519.75
1172.283,1581.75
1173.202,1507.75
1174.120,1497.75
1175.037,1487.75
1175.956,1522.00
1176.873,1492.75
1177.792,1514.75
1178.709,1545.75
1179.626,1525.00
1180.544,1502.50
1181.461,1481.00
1182.379,1436.00
1183.296,1543.75
1184.212,1480.25
1185.130,1528.75
1186.046,1494.25
1186.962,1490.25
1187.880,1502.00
1188.796,1486.50
1189.714,1480.00
1190.629,1516.75
1191.545,1473.75
1192.462,1527.50
1193.378,1481.50
1194.295,1452.50
1195.210,1478.25
1196.125,1508.25
1197.042,1510.25
1197.957,1502.50
1198.872,1495.25
1199.788,1504.00
1200.703,1502.75
1201.619,1521.50
1202.534,1513.00
1203.448,1521.75
1204.364,1453.50
1205.278,1508.00
1206.192,1475.00
1207.108,1498.75
1208.022,1487.75
1208.938,1513.25
1209.851,1468.50
1210.765,1456.25
1211.680,1531.75
1212.594,1513.50
1213.507,1474.00
1214.422,1504.50
1215.335,1468.00
1216.248,1488.50
1217.163,1536.50
1218.076,1449.75
1218.990,1486.75
1219.903,1506.25
1220.816,1489.75
1221.730,1497.50
1222.642,1501.75
1223.554,1511.00
1224.469,1514.00
1225.380,1478.25
1226.292,1477.25
1227.206,1465.50
1228.118,1526.75
1229.032,1507.25
1229.943,1506.25
1230.855,1531.00
1231.768,1513.50
1232.679,1491.75
1233.590,1487.25
1234.503,1464.75
1235.414,1508.75
1236.325,1493.25
1237.238,1526.75
1238.149,1562.25
1239.059,1515.75
1239.972,1527.75
1240.882,1493.00
1241.793,1509.00
1242.705,1524.50
1243.615,1485.75
1244.525,1458.50
1245.437,1498.25
1246.347,1498.25
1247.259,1506.50
1248.168,1524.50
1249.078,1469.50
1249.989,1538.00
1250.899,1509.75
1251.808,1496.25
1252.719,1512.25
1253.628,1501.75
1254.537,1481.25
1255.448,1511.50
1256.357,1528.50
1257.266,1476.50
1258.176,1523.25
1259.085,1503.75
1259.993,1498.25
1260.904,1489.50
1261.812,1532.00
1262.720,1498.00
1263.630,1526.50
1264.538,1516.00
1265.446,1484.50
1266.356,1505.25
1267.263,1456.50
1268.171,1500.25
1269.080,1503.50
1269.988,1515.00
1270.895,1483.25
1271.804,1454.00
1272.711,1455.00
1273.619,1530.50
1274.527,1467.25
1275.434,1493.25
1276.341,1522.75
1277.248,1514.50
1278.156,1481.75
1279.063,1509.25
1279.969,1539.00
1280.877,1517.00
1281.783,1493.50
1282.690,1491.75
1283.598,1553.00
1284.503,1448.50
1285.409,1462.75
1286.317,1454.50
1287.223,1468.00
1288.128,1498.25
1289.036,1445.25
1289.941,1478.00
1290.846,1483.50
1291.751,1445.25
1292.658,1454.00
1293.563,1440.25
1294.468,1458.25
1295.375,1462.50
1296.280,1470.25
1297.184,1457.50
1298.091,1456.25
1298.995,1481.50
1299.900,1492.00
1300.806,1460.00
1301.710,1413.75
1302.614,1476.00
1303.518,1437.50
1304.424,1494.25
1305.327,1466.25
1306.231,1377.00
1307.137,1446.75
1308.040,1417.50
1308.943,1465.00
1309.847,1439.25
1310.752,1378.25
1311.655,1396.75
1312.558,1416.75
1313.463,1385.25
1314.366,1438.00
1315.269,1423.25
1316.171,1376.50
1317.076,1373.75
1317.978,1381.25
1318.881,1368.25
1319.785,1400.25
1320.687,1378.00
1321.589,1408.75
1322.491,1353.25
1323.395,1414.00
1324.297,1413.50
1325.198,1390.25
1326.102,1345.00
1327.004,1375.25
1327.905,1357.50
1328.806,1376.00
1329.709,1376.00
1330.611,1383.50
1331.512,1389.00
1332.413,1367.25
1333.316,1346.75
1334.216,1356.25
1335.117,1374.00
1336.020,1335.50
1336.920,1314.25
1337.821,1341.75
1338.721,1318.00
1339.623,1326.50
1340.523,1335.50
1341.423,1325.25
1342.323,1315.75
1343.225,1340.50
1344.125,1320.50
1345.025,1318.50
1345.924,1367.50
1346.826,1349.00
1347.725,1339.75
1348.624,1338.50
1349.524,1352.75
1350.425,1301.25
1351.324,1285.50
1352.223,1345.25
1353.121,1307.25
1354.022,1314.00
1354.921,1317.00
1355.819,1268.50
1356.718,1327.25
1357.618,1285.00
1358.516,1312.50
1359.415,1305.50
1360.313,1274.75
1361.213,1292.00
1362.111,1276.50
1363.008,1319.25
1363.906,1321.25
1364.806,1306.25
1365.703,1293.75
1366.601,1226.25
1367.498,1260.25
1368.397,1250.75
1369.295,1263.25
1370.192,1242.00
1371.089,1246.75
1371.987,1230.00
1372.884,1271.25
1373.781,1265.75
1374.678,1252.25
1375.574,1270.00
1376.473,1255.75
1377.369,1281.25
1378.265,1220.00
1379.161,1272.50
1380.059,1251.75
1380.955,1280.50
1381.851,1230.00
1382.747,1260.50
1383.643,1258.50
1384.540,1269.00
1385.436,1269.75
1386.331,1226.25
1387.227,1193.75
1388.124,1226.50
1389.019,1240.50
1389.914,1248.50
1390.809,1222.75
1391.704,1254.75
1392.601,1253.50
1393.495,1213.50
1394.390,1248.25
1395.285,1259.75
1396.179,1190.25
1397.075,1211.50
1397.969,1209.25
1398.864,1173.50
1399.758,1186.75
1400.652,1180.75
1401.547,1193.00
1402.441,1201.00
1403.335,1197.75
1404.229,1196.00
1405.122,1168.50
1406.017,1203.75
1406.911,1217.50
1407.804,1166.75
1408.697,1219.50
1409.590,1210.75
1410.485,1171.75
1411.378,1202.50
1412.271,1190.25
1413.163,1171.50
1414.056,1176.75
1414.949,1236.25
1415.843,1198.50
1416.735,1212.00
1417.627,1221.50
1418.520,1185.75
1419.412,1157.00
1420.306,1180.25
1421.197,1184.25
1422.089,1218.75
1422.981,1188.50
1423.873,1138.25
1424.764,1205.25
1425.657,1164.25
1426.549,1193.25
1427.440,1186.25
1428.331,1166.00
1429.222,1161.25
1430.113,1154.50
1431.006,1164.50
1431.897,1107.50
1432.787,1209.25
1433.678,1172.00
1434.568,1180.75
1435.459,1192.25
1436.351,1198.75
1437.241,1182.00
1438.131,1173.75
1439.021,1145.75
1439.911,1183.00
1440.801,1140.00
1441.693,1196.25
1442.583,1166.75
1443.472,1176.25
1444.362,1120.50
1445.251,1165.25
1446.140,1157.00
1447.030,1189.75
1447.921,1077.00
1448.810,1167.75
1449.699,1170.00
1450.588,1197.50
1451.476,1118.50
1452.365,1162.50
1453.254,1147.00
1454.144,1192.00
1455.032,1146.75
1455.921,1145.50
1456.809,1173.75
1457.697,1085.50
1458.585,1131.75
1459.473,1151.25
1460.361,1134.75
1461.251,1126.50
1462.138,1174.75
1463.026,1097.25
1463.913,1134.25
1464.801,1152.00
1465.688,1094.50
1466.575,1138.75
1467.463,1152.25
1468.351,1150.00
1469.238,1113.00
1470.125,1114.25
1471.012,1100.75
1471.899,1148.00
1472.785,1129.75
1473.672,1130.25
1474.558,1133.50
1475.446,1080.25
1476.333,1122.25
1477.219,1124.25
1478.105,1091.25
1478.991,1124.50
1479.877,1096.75
1480.762,1047.50
1481.648,1112.25
1482.534,1087.00
1483.419,1081.00
1484.307,1113.00
1485.192,1117.75
1486.077,1077.75
1486.962,1113.50
1487.847,1107.75
1488.732,1086.50
1489.617,1118.25
1490.502,1070.75
1491.387,1085.50
1492.271,1079.00
1493.156,1100.00
1494.042,1090.50
1494.927,1104.25
1495.811,1087.25
1496.695,1080.00
1497.579,1067.50
1498.463,1090.00
1499.347,1106.25
1500.231,1081.75
1501.114,1074.50
1501.998,1083.50
1502.881,1058.25
1503.765,1078.25
1504.648,1122.00
1505.533,1069.75
1506.417,1099.25
1507.300,1086.75
1508.183,1085.00
1509.066,1078.25
1509.948,1043.00
1510.831,1086.50
1511.714,1088.00
1512.596,1088.75
1513.479,1028.00
1514.361,1024.50
1515.243,1080.75
1516.125,1052.50
1517.008,1073.25
1517.890,1075.50
1518.771,1066.50
1519.655,1023.25
1520.537,1047.50
1521.419,1044.25
1522.300,1046.50
1523.182,1046.00
1524.063,1084.25
1524.944,1080.75
1525.825,1006.25
1526.707,1055.25
1527.588,1053.50
1528.468,1032.00
1529.349,1065.50
1530.230,1052.50
1531.111,1082.75
1531.991,1063.50
1532.872,1028.00
1533.752,1050.25
1534.632,1084.25
1535.513,1036.00
1536.393,1056.25
1537.273,1027.50
1538.153,1039.50
1539.032,1038.00
1539.912,1043.00
1540.792,1018.00
1541.672,1065.25
1542.551,1006.50
1543.430,1029.75
1544.310,1073.25
1545.189,1037.50
1546.068,1029.00
1546.947,1077.50
1547.826,1061.25
1548.705,1025.25
1549.584,1011.50
1550.462,1001.75
1551.341,1017.75
1552.219,1060.00
1553.098,988.00
1553.976,978.75
1554.854,1029.00
1555.733,1020.75
1556.611,1037.50
1557.489,990.50
1558.367,1020.00
1559.244,991.50
1560.122,990.00
1561.000,1066.50
1561.877,1052.50
1562.755,1078.50
1563.632,1014.75
1564.509,1009.50
1565.386,1048.75
1566.264,1019.00
1567.141,1009.50
1568.017,1011.25
1568.894,985.50
1569.771,1029.25
1570.648,1017.50
1571.524,1014.50
1572.401,967.00
1573.277,1020.75
1574.153,1022.00
1575.029,988.50
1575.906,1047.50
1576.781,1041.50
1577.657,1030.25
1578.533,973.50
1579.409,1011.50
1580.285,1018.25
1581.160,1022.50
1582.036,1052.00
1582.911,986.75
1583.786,978.50
1584.662,994.00
1585.537,994.00
1586.412,963.50
1587.287,969.25
1588.160,995.00
1589.035,1024.00
1589.909,1027.50
1590.784,972.50
1591.658,982.25
1592.533,1011.00
1593.407,979.50
1594.281,992.75
1595.155,1020.75
1596.029,979.00
1596.903,991.75
1597.777,993.75
1598.651,1013.50
1599.525,998.00
1600.398,1020.75
1601.272,958.00
1602.144,1015.75
1603.017,999.75
1603.890,1003.50
1604.763,944.00
1605.636,1013.25
1606.509,1035.50
1607.382,1009.00
1608.255,1000.75
1609.128,1004.75
1610.000,987.00
1610.873,1004.75
1611.746,1018.75
1612.616,1021.00
1613.488,986.00
1614.361,997.75
1615.233,981.00
1616.105,959.75
1616.977,990.00
1617.849,997.50
1618.720,1001.00
1619.592,981.75
1620.464,993.00
1621.333,1023.00
1622.205,1005.50
1623.076,1011.00
1623.947,970.25
1624.818,1004.25
1625.689,953.50
1626.560,980.25
1627.431,1042.00
1628.302,960.00
1629.171,1012.25
1630.042,1036.75
1630.912,984.25
1631.782,999.75
1632.653,978.00
1633.523,957.00
1634.393,977.25
1635.263,995.00
1636.131,961.25
1637.001,961.75
1637.871,968.75
1638.741,987.25
1639.611,1029.75
1640.480,974.25
1641.350,961.50
1642.219,946.25
1643.087,961.75
1643.956,1023.00
1644.825,958.25
1645.694,936.50
1646.563,964.25
1647.432,949.25
1648.299,954.75
1649.167,944.25
1650.036,1007.75
1650.904,986.50
1651.773,939.00
1652.641,998.50
1653.509,1004.25
1654.376,995.00
1655.244,978.50
1656.112,989.50
1656.980,970.00
1657.847,978.25
1658.715,985.25
1659.581,993.75
1660.448,959.50
1661.316,982.50
1662.183,965.00
1663.051,977.00
1663.918,989.25
1664.783,960.25
1665.650,954.50
1666.517,982.50
1667.384,984.25
1668.251,938.25
1669.115,988.25
1669.982,949.50
1670.849,988.50
1671.715,947.50
1672.581,950.00
1673.446,960.50
1674.312,958.00
1675.178,981.75
1676.044,943.50
1676.910,972.50
1677.774,963.25
1678.639,975.50
1679.505,956.25
1680.370,948.50
1681.236,935.25
1682.099,1011.25
1682.965,949.50
1683.830,953.25
1684.695,999.75
1685.560,953.25
1686.423,1002.00
1687.288,942.25
1688.153,947.75
1689.017,946.25
1689.880,930.00
1690.745,951.50
1691.609,943.25
1692.473,967.00
1693.338,966.00
1694.200,938.75
1695.064,958.50
1695.928,970.00
1696.792,947.00
1697.654,943.50
1698.517,965.50
1699.381,927.25
1700.245,945.50
1701.106,977.25
1701.969,938.25
1702.833,946.25
1703.696,941.00
1704.557,924.25
1705.420,935.50
1706.283,976.75
1707.146,949.00
1708.007,967.50
1708.870,969.00
1709.732,933.25
1710.595,952.25
1711.455,948.50
1712.318,931.75
1713.180,977.50
1714.040,952.00
1714.902,959.75
1715.764,928.25
1716.626,959.00
1717.486,955.75
1718.348,916.25
1719.209,993.00
1720.071,955.75
1720.930,939.00
1721.792,974.50
1722.653,943.00
1723.512,926.25
1724.374,962.25
1725.234,965.00
1726.095,940.50
1726.954,962.25
1727.815,890.25
1728.676,958.50
1729.535,957.25
1730.395,939.75
1731.256,940.25
1732.114,930.00
1732.974,951.75
1733.834,899.00
1734.693,890.00
1735.553,948.75
1736.413,983.25
1737.272,948.75
1738.130,946.75
1738.990,922.00
1739.849,930.00
1740.707,893.75
1741.566,987.25
1742.426,922.00
1743.283,915.75
1744.142,957.75
1745.001,909.25
1745.858,934.00
1746.717,930.25
1747.576,902.75
1748.433,964.75
1749.292,937.00
1750.150,1000.75
1751.007,926.00
1751.865,963.25
1752.723,971.50
1753.579,937.50
1754.438,952.00
1755.296,917.50
1756.152,923.50
1757.010,897.75
1757.865,879.25
1758.723,965.75
1759.581,933.50
1760.436,886.75
1761.294,929.25
1762.151,929.25
1763.006,918.00
1763.864,911.75
1764.721,958.00
1765.576,973.25
1766.433,912.00
1767.288,959.50
1768.144,945.00
1769.001,907.75
1769.856,946.25
1770.712,948.00
1771.568,946.50
1772.423,943.75
1773.279,930.25
1774.133,968.00
1774.989,977.25
1775.845,943.75
1776.699,932.00
1777.555,980.25
1778.409,973.50
1779.265,945.25
1780.120,982.50
1780.974,963.50
1781.829,947.00
1782.682,887.75
1783.538,941.75
1784.393,944.50
1785.246,954.50
1786.101,919.75
1786.954,942.25
1787.808,974.00
1788.661,892.75
1789.516,922.75
1790.370,904.75
1791.223,949.00
1792.077,946.75
1792.930,943.25
1793.784,931.75
1794.636,895.00
1795.490,921.25
1796.344,970.50
1797.196,935.75
1798.049,928.25
1798.901,961.75
1799.755,968.25
1800.606,930.50
1801.460,940.25
1802.311,910.25
1803.165,891.50
1804.018,925.00
1804.869,919.50
1805.722,950.00
1806.573,929.50
1807.426,949.75
1808.276,890.75
1809.129,897.50
1809.980,905.00
1810.832,908.50
1811.683,905.25
1812.535,911.00
1813.385,912.75
1814.237,899.50
1815.089,930.75
1815.940,894.75
1816.791,905.75
1817.641,911.25
1818.493,943.50
1819.343,940.50
1820.194,906.00
1821.044,933.75
1821.895,942.00
1822.745,935.75
1823.596,917.50
1824.445,938.50
1825.296,940.25
1826.145,915.00
1826.996,969.00
1827.845,912.75
1828.695,934.75
1829.544,908.25
1830.395,917.25
1831.243,950.75
1832.094,904.75
1832.942,905.50
1833.792,927.25
1834.640,893.00
1835.490,902.00
1836.338,933.00
1837.186,932.25
1838.036,918.25
1838.884,904.75
1839.733,904.75
1840.581,935.75
1841.430,888.75
1842.278,894.00
1843.127,903.25
1843.974,884.00
1844.823,920.00
1845.671,906.25
1846.519,906.75
1847.366,930.00
1848.213,916.25
1849.062,912.50
1849.909,912.75
1850.757,899.00
1851.604,893.25
1852.452,907.00
1853.298,911.25
1854.146,928.25
1854.993,871.25
1855.839,924.25
1856.687,892.75
1857.532,916.25
1858.380,877.00
1859.226,898.00
1860.073,876.00
1860.919,900.75
1861.765,915.25
1862.612,885.75
1863.457,868.75
1864.304,914.00
1865.150,911.75
1865.995,898.25
1866.842,927.25
1867.686,892.00
1868.533,911.75
1869.378,945.00
1870.223,944.00
1871.069,881.00
1871.914,903.50
1872.760,941.25
1873.604,929.50
1874.448,922.75
1875.294,913.50
1876.139,933.25
1876.984,923.00
1877.828,886.25
1878.672,909.50
1879.518,899.00
1880.361,941.25
1881.205,909.50
1882.050,904.25
1882.894,908.50
1883.739,921.75
1884.582,924.00
1885.425,893.50
1886.270,886.50
1887.113,881.25
1887.956,904.75
1888.801,943.50
1889.644,875.50
1890.486,886.75
1891.331,897.00
1892.173,904.00
1893.017,923.75
1893.860,890.75
1894.702,940.00
1895.546,937.50
1896.388,968.25
1897.230,877.75
1898.074,883.00
1898.916,891.00
1899.757,906.75
1900.601,916.00
1901.443,884.25
1902.284,870.25
1903.125,921.75
1903.969,929.25
1904.810,919.50
1905.651,889.75
1906.494,892.25
1907.335,872.00
1908.176,913.00
1909.018,920.50
1909.859,869.00
1910.700,919.00
1911.542,849.75
1912.383,875.00
1913.223,890.00
1914.064,929.00
1914.906,897.25
1915.746,932.00
1916.586,894.50
1917.428,937.50
1918.268,890.25
1919.107,909.00
1919.947,874.50
1920.789,885.50
1921.628,899.50
1922.468,844.75
1923.309,911.75
1924.148,868.75
1924.988,932.50
1925.827,907.75
1926.667,911.00
1927.507,864.25
1928.345,915.75
1929.184,907.50
1930.025,878.75
1930.864,880.25
1931.702,952.00
1932.541,928.00
1933.381,933.75
1934.219,919.00
1935.057,941.00
1935.896,880.50
1936.735,920.00
1937.573,901.00
1938.411,932.50
1939.249,884.75
1940.089,903.50
1940.927,900.50
1941.764,898.25
1942.602,925.00
1943.439,918.25
1944.278,956.00
1945.115,893.25
1945.953,910.75
1946.790,898.25
1947.628,904.25
1948.465,865.50
1949.302,894.00
1950.139,898.25
1950.976,898.75
1951.814,864.25
1952.651,930.25
1953.487,903.75
1954.323,884.00
1955.160,945.25
1955.998,881.75
1956.834,900.00
1957.670,919.75
1958.506,889.25
1959.342,895.50
1960.177,924.00
1961.015,907.75
1961.850,939.00
1962.686,886.25
1963.521,927.25
1964.357,899.75
1965.192,936.75
1966.029,902.50
1966.864,901.50
1967.699,908.00
1968.534,905.75
1969.369,902.00
1970.204,864.50
1971.040,835.00
1971.875,889.75
1972.709,887.75
1973.544,870.75
1974.378,916.00
1975.212,893.75
1976.047,904.00
1976.882,888.75
1977.716,886.25
1978.550,901.25
1979.384,895.00
1980.218,838.25
1981.052,883.25
1981.885,966.75
1982.719,874.75
1983.554,902.50
1984.388,898.00
1985.221,868.00
1986.054,905.75
1986.887,921.00
1987.720,849.50
1988.553,952.75
1989.386,884.25
1990.219,929.00
1991.053,909.25
1991.886,939.75
1992.719,880.75
1993.551,910.50
1994.383,919.00
1995.216,916.75
1996.048,940.25
1996.880,916.00
1997.712,939.50
1998.544,845.50
1999.376,890.75
2000.208,866.50
2001.040,893.25
2001.873,877.00
2002.705,898.25
2003.536,913.00
2004.367,956.50
2005.199,930.75
2006.030,909.50
2006.861,913.25
2007.692,921.75
2008.523,905.50
2009.354,881.00
2010.185,901.50
2011.016,888.50
2011.846,896.25
2012.677,906.25
2013.507,887.75
2014.338,927.75
2015.168,939.25
2015.999,897.50
2016.829,894.50
2017.659,914.25
2018.489,896.00
2019.319,923.00
2020.149,886.50
2020.980,945.50
2021.810,892.75
2022.639,895.50
2023.469,971.25
2024.298,894.75
2025.128,945.50
2025.957,921.50
2026.786,939.75
2027.615,913.75
2028.444,925.25
2029.273,940.25
2030.102,940.25
2030.931,946.75
2031.758,935.25
2032.586,908.00
2033.415,919.00
2034.243,936.00
2035.072,903.75
2035.900,940.75
2036.728,941.50
2037.556,889.25
2038.385,898.50
2039.213,923.00
2040.040,921.75
2040.868,932.50
2041.696,938.00
2042.524,902.50
2043.351,948.50
2044.179,947.75
2045.006,960.25
2045.006,960.25

Max Intensity Wave.,215.813
Max Intensity Data,6258.25
Min Intensity Wave.,1971.040
Min Intensity Data,835.00
FWHM Wave.,401.133
FWHM Value,0.71
Pressure Wave.,685.668
Pressure Value [GPa],-22.31584
G/D Ratio,0.72251
G/D Gband Wave.,1562.570
G/D Gband Intensity,1080.49
G/D Dband Wave.,1304.576
G/D Dband Intensity,1495.45

<< BACKGROUND SPECTRUM >>
Wave[dcm-1],No146
146.591,2308.00
147.626,2184.00
148.664,2093.00
149.699,2599.00
150.737,2298.00
151.772,2453.00
152.809,2437.00
153.846,2391.00
154.881,2430.00
155.918,2025.00
156.953,2315.00
157.989,2666.00
159.026,2527.00
160.060,2704.00
161.096,2958.00
162.130,2559.00
163.167,2657.00
164.200,2514.00
165.236,2700.00
166.272,2748.00
167.305,2351.00
168.341,2611.00
169.374,2857.00
170.409,2873.00
171.445,2801.00
172.477,2574.00
173.512,2442.00
174.545,2759.00
175.580,2930.00
176.614,3087.00
177.647,2869.00
178.681,3120.00
179.713,3423.00
180.747,2872.00
181.781,2794.00
182.813,3075.00
183.847,3145.00
184.878,2786.00
185.912,3032.00
186.945,3204.00
187.976,3178.00
189.010,2750.00
190.043,2921.00
191.073,3001.00
192.106,2789.00
193.137,3261.00
194.170,2605.00
195.202,2963.00
196.232,2759.00
197.265,3055.00
198.297,3110.00
199.327,2834.00
200.359,3007.00
201.388,3411.00
202.420,2942.00
203.452,3161.00
204.481,2772.00
205.512,3418.00
206.544,3158.00
207.573,3129.00
208.604,3494.00
209.635,3632.00
210.663,2988.00
211.694,3041.00
212.725,2923.00
213.753,2853.00
214.783,3452.00
215.813,3321.00
216.841,3083.00
217.871,3230.00
218.899,2943.00
219.929,3193.00
220.959,2974.00
221.986,3219.00
223.016,2821.00
224.045,3275.00
225.072,3214.00
226.101,3269.00
227.130,3339.00
228.157,2919.00
229.185,2403.00
230.214,3276.00
231.241,2902.00
232.269,2518.00
233.297,2762.00
234.323,3347.00
235.351,2917.00
236.379,3209.00
237.407,2841.00
238.433,3033.00
239.460,3171.00
240.488,3170.00
241.513,3307.00
242.540,3187.00
243.568,3283.00
244.592,3279.00
245.619,3269.00
246.646,3006.00
247.671,3067.00
248.697,2859.00
249.724,3114.00
250.748,3082.00
251.774,3117.00
252.801,3354.00
253.827,3206.00
254.850,3185.00
255.876,2761.00
256.902,3231.00
257.925,3072.00
258.951,2852.00
259.976,2827.00
260.999,3198.00
262.024,2834.00
263.049,3733.00
264.074,3196.00
265.097,3122.00
266.122,3168.00
267.146,3104.00
268.168,3298.00
269.193,2904.00
270.217,3324.00
271.241,2784.00
272.263,2937.00
273.287,3228.00
274.311,2820.00
275.332,3324.00
276.356,2969.00
277.379,3174.00
278.402,3177.00
279.424,3028.00
280.447,2944.00
281.470,2811.00
282.492,3232.00
283.513,2915.00
284.536,3240.00
285.558,3224.00
286.581,3174.00
287.601,2913.00
288.623,2866.00
289.645,3161.00
290.665,3196.00
291.687,3205.00
292.709,3218.00
293.730,3497.00
294.750,2934.00
295.771,2813.00
296.792,3150.00
297.813,2972.00
298.832,3134.00
299.853,2805.00
300.874,3079.00
301.895,3036.00
302.913,3072.00
303.934,3321.00
304.954,3091.00
305.975,3283.00
306.993,2825.00
308.013,3188.00
309.033,3059.00
310.052,2970.00
311.072,2951.00
312.090,3126.00
313.109,3336.00
314.129,3482.00
315.148,3096.00
316.165,3155.00
317.184,3312.00
318.203,2817.00
319.222,2829.00
320.238,3217.00
321.257,2851.00
322.275,2740.00
323.294,3030.00
324.312,3218.00
325.328,3274.00
326.346,3350.00
327.364,3337.00
328.382,3245.00
329.397,3184.00
330.415,3289.00
331.432,3281.00
332.450,3310.00
333.467,3542.00
334.482,2661.00
335.499,3503.00
336.516,2930.00
337.533,2632.00
338.547,2936.00
339.564,2915.00
340.580,3207.00
341.597,3048.00
342.613,3548.00
343.627,3061.00
344.643,3086.00
345.659,3154.00
346.675,3077.00
347.690,2977.00
348.704,3167.00
349.719,2936.00
350.735,2824.00
351.750,3250.00
352.765,3086.00
353.778,3074.00
354.793,3237.00
355.808,2924.00
356.822,3228.00
357.837,2728.00
358.851,3361.00
359.864,3014.00
360.878,2796.00
361.892,3040.00
362.906,3273.00
363.920,2655.00
364.932,3172.00
365.945,3177.00
366.959,3072.00
367.972,2991.00
368.986,2811.00
369.999,3469.00
371.010,2930.00
372.023,3449.00
373.036,3007.00
374.049,3466.00
375.061,3098.00
376.072,3056.00
377.084,2963.00
378.097,2723.00
379.109,3249.00
380.121,3053.00
381.133,2764.00
382.143,3194.00
383.155,2802.00
384.166,2966.00
385.178,3191.00
386.189,3273.00
387.201,2781.00
388.212,2989.00
389.221,3009.00
390.232,3066.00
391.243,3031.00
392.254,3134.00
393.264,2894.00
394.275,3303.00
395.283,3268.00
396.294,3695.00
397.304,3585.00
398.314,3260.00
399.324,3126.00
400.334,2720.00
401.344,3215.00
402.351,2778.00
403.361,3280.00
404.370,3081.00
405.380,2968.00
406.389,3391.00
407.398,3200.00
408.407,3189.00
409.414,3222.00
410.423,3404.00
411.431,2867.00
412.440,2732.00
413.448,3422.00
414.457,2949.00
415.465,2865.00
416.471,2918.00
417.479,3068.00
418.487,2892.00
419.495,3386.00
420.503,3183.00
421.510,2672.00
422.518,3236.00
423.525,3200.00
424.530,3485.00
425.537,2951.00
426.544,3296.00
427.551,2896.00
428.558,3656.00
429.565,3530.00
430.571,2963.00
431.578,2940.00
432.582,2997.00
433.588,3025.00
434.595,2649.00
435.601,3370.00
436.607,3321.00
437.612,2798.00
438.618,3399.00
439.624,3027.00
440.627,3016.00
441.633,3206.00
442.638,3692.00
443.643,3171.00
444.648,3091.00
445.653,3304.00
446.658,2964.00
447.663,3108.00
448.667,2931.00
449.672,2978.00
450.674,3044.00
451.678,2780.00
452.682,2937.00
453.687,2927.00
454.690,3701.00
455.694,3345.00
456.698,2608.00
457.702,2703.00
458.705,2879.00
459.709,2874.00
460.710,2954.00
461.713,3065.00
462.716,3135.00
463.719,3118.00
464.722,3289.00
465.725,3044.00
466.727,2895.00
467.730,3138.00
468.732,2880.00
469.735,3299.00
470.737,3009.00
471.737,2951.00
472.739,2952.00
473.741,2869.00
474.742,3126.00
475.744,3191.00
476.746,3086.00
477.747,2992.00
478.748,3235.00
479.750,3012.00
480.751,3074.00
481.752,3836.00
482.753,3160.00
483.751,3638.00
484.752,2661.00
485.753,3033.00
486.753,2932.00
487.753,3053.00
488.754,3452.00
489.754,2754.00
490.754,3366.00
491.754,3180.00
492.754,2739.00
493.753,3065.00
494.753,2972.00
495.752,3421.00
496.752,3089.00
497.749,3043.00
498.748,2907.00
499.747,3444.00
500.746,3139.00
501.745,2874.00
502.744,2847.00
503.742,3415.00
504.741,3013.00
505.739,2534.00
506.737,2972.00
507.735,3214.00
508.734,3443.00
509.732,3162.00
510.729,3416.00
511.727,2924.00
512.725,3020.00
513.720,2831.00
514.718,3337.00
515.715,2733.00
516.712,2684.00
517.709,3037.00
518.706,2971.00
519.703,3127.00
520.700,3275.00
521.696,3457.00
522.693,2979.00
523.689,2903.00
524.686,3234.00
525.682,2843.00
526.678,3498.00
527.674,2962.00
528.670,2679.00
529.666,3592.00
530.661,3527.00
531.657,3228.00
532.652,3233.00
533.648,3083.00
534.641,3269.00
535.636,3114.00
536.631,3228.00
537.626,3226.00
538.621,2826.00
539.616,2662.00
540.610,2568.00
541.605,3109.00
542.599,3108.00
543.593,3068.00
544.587,3985.00
545.581,2904.00
546.575,3138.00
547.569,3073.00
548.563,2724.00
549.557,2723.00
550.550,2853.00
551.543,2777.00
552.537,3218.00
553.530,2825.00
554.523,2814.00
555.516,3170.00
556.509,2986.00
557.502,2672.00
558.494,3262.00
559.487,2964.00
560.479,3217.00
561.472,3305.00
562.464,3201.00
563.456,3376.00
564.448,3036.00
565.440,3074.00
566.432,3438.00
567.423,2995.00
568.415,2953.00
569.404,3176.00
570.396,2872.00
571.387,3228.00
572.378,3094.00
573.369,4051.00
574.360,3772.00
575.351,3020.00
576.341,2893.00
577.332,2945.00
578.323,2730.00
579.313,2956.00
580.303,3300.00
581.293,3227.00
582.283,3047.00
583.273,3161.00
584.263,3092.00
585.253,3193.00
586.243,3267.00
587.232,2670.00
588.222,3050.00
589.211,3192.00
590.200,3155.00
591.189,2975.00
592.178,3048.00
593.167,3489.00
594.156,3336.00
595.145,2931.00
596.133,3538.00
597.122,3165.00
598.110,3351.00
599.098,3133.00
600.086,3078.00
601.074,3209.00
602.062,2919.00
603.050,2811.00
604.038,3170.00
605.025,2796.00
606.013,3239.00
607.000,3390.00
607.987,3110.00
608.975,3176.00
609.962,2836.00
610.949,3214.00
611.936,3289.00
612.922,3273.00
613.909,2761.00
614.895,3437.00
615.882,2909.00
616.868,3058.00
617.854,2819.00
618.841,3086.00
619.826,3166.00
620.812,3042.00
621.798,2892.00
622.784,3234.00
623.769,3128.00
624.755,2781.00
625.740,3112.00
626.725,2752.00
627.711,2869.00
628.698,3137.00
629.683,2843.00
630.667,3237.00
631.652,2796.00
632.637,3046.00
633.621,3238.00
634.606,2999.00
635.590,3187.00
636.574,3040.00
637.558,3149.00
638.542,3093.00
639.526,2894.00
640.510,2715.00
641.493,3112.00
642.477,3018.00
643.460,2746.00
644.444,3265.00
645.427,3371.00
646.410,2737.00
647.393,3024.00
648.376,3148.00
649.359,2959.00
650.341,3111.00
651.324,3163.00
652.307,3105.00
653.289,3001.00
654.271,2935.00
655.253,2999.00
656.235,3194.00
657.217,3270.00
658.199,2718.00
659.181,2826.00
660.163,3074.00
661.144,2921.00
662.126,2940.00
663.107,2860.00
664.088,4800.00
665.069,3308.00
666.050,2891.00
667.033,2801.00
668.014,3109.00
668.995,2613.00
669.975,3045.00
670.956,3043.00
671.936,3190.00
672.916,3002.00
673.896,3151.00
674.876,2958.00
675.856,2914.00
676.836,2825.00
677.816,2360.00
678.795,2874.00
679.775,2773.00
680.754,3057.00
681.734,3223.00
682.713,3216.00
683.692,2824.00
684.671,2718.00
685.650,2798.00
686.629,2931.00
687.607,2813.00
688.586,2821.00
689.564,2920.00
690.543,3349.00
691.523,2411.00
692.501,2910.00
693.479,2959.00
694.457,2865.00
695.435,2922.00
696.413,2702.00
697.390,2532.00
698.368,2734.00
699.345,3167.00
700.322,2981.00
701.300,3136.00
702.277,3124.00
703.254,3348.00
704.231,2638.00
705.207,2994.00
706.184,2800.00
707.161,2737.00
708.137,2937.00
709.113,2865.00
710.090,2836.00
711.068,2677.00
712.044,2679.00
713.020,2922.00
713.996,2670.00
714.971,2833.00
715.947,2858.00
716.922,2899.00
717.898,2801.00
718.873,2964.00
719.848,2770.00
720.823,2736.00
721.798,3039.00
722.773,2783.00
723.748,2572.00
724.723,3061.00
725.697,2884.00
726.672,2771.00
727.646,2550.00
728.622,3021.00
729.596,2654.00
730.570,2813.00
731.544,3139.00
732.518,3324.00
733.492,2891.00
734.466,2928.00
735.439,3082.00
736.413,3167.00
737.386,2513.00
738.359,2479.00
739.332,2549.00
740.305,2916.00
741.278,3371.00
742.251,2979.00
743.224,2799.00
744.196,2582.00
745.171,3208.00
746.143,3095.00
747.115,2818.00
748.087,2771.00
749.059,3117.00
750.031,2929.00
751.003,3763.00
751.975,3300.00
752.947,2763.00
753.918,3194.00
754.890,2610.00
755.861,2819.00
756.832,3085.00
757.803,2862.00
758.774,2904.00
759.747,2648.00
760.718,3266.00
761.689,2810.00
762.659,2608.00
763.630,3188.00
764.600,2617.00
765.570,3120.00
766.540,3196.00
767.510,2981.00
768.480,3093.00
769.450,2783.00
770.420,2893.00
771.390,2704.00
772.359,2787.00
773.329,2727.00
774.300,2582.00
775.269,2799.00
776.238,3068.00
777.207,3210.00
778.176,2578.00
779.145,2857.00
780.114,2746.00
781.083,2624.00
782.051,2812.00
783.019,2741.00
783.988,3127.00
784.956,2897.00
785.924,3028.00
786.894,2904.00
787.862,2754.00
788.830,3182.00
789.797,2679.00
790.765,2677.00
791.732,2804.00
792.700,2669.00
793.667,2677.00
794.634,2810.00
795.601,2810.00
796.568,2841.00
797.535,2870.00
798.502,3503.00
799.468,2985.00
800.437,2453.00
801.403,2678.00
802.370,3340.00
803.336,3035.00
804.302,2943.00
805.268,2479.00
806.234,2592.00
807.200,2737.00
808.166,2807.00
809.131,2622.00
810.097,3046.00
811.062,3740.00
812.027,3095.00
812.994,2631.00
813.960,2656.00
814.925,3009.00
815.889,2580.00
816.854,3066.00
817.819,2675.00
818.783,2789.00
819.748,3159.00
820.712,2777.00
821.677,2676.00
822.641,2755.00
823.605,2775.00
824.571,3150.00
825.534,2786.00
826.498,2724.00
827.462,2866.00
828.425,2642.00
829.389,3088.00
830.352,2865.00
831.315,2956.00
832.279,2508.00
833.242,2792.00
834.204,2729.00
835.167,2643.00
836.132,3120.00
837.095,2585.00
838.057,2760.00
839.020,2874.00
839.982,2866.00
840.944,2717.00
841.906,2678.00
842.868,3028.00
843.830,2577.00
844.792,3104.00
845.753,2711.00
846.715,2481.00
847.679,2644.00
848.640,2658.00
849.601,2772.00
850.562,3319.00
851.523,2783.00
852.484,2501.00
853.445,3032.00
854.406,2745.00
855.367,2750.00
856.327,3131.00
857.288,2558.00
858.248,2720.00
859.210,2747.00
860.170,2577.00
861.130,3054.00
862.090,2460.00
863.050,2652.00
864.010,2763.00
864.969,2950.00
865.929,2661.00
866.888,2572.00
867.848,2860.00
868.807,2730.00
869.766,2868.00
870.727,2754.00
871.686,3049.00
872.645,3073.00
873.604,3329.00
874.562,2809.00
875.521,2857.00
876.479,3395.00
877.437,2610.00
878.396,2635.00
879.354,3262.00
880.312,2658.00
881.270,2682.00
882.229,3185.00
883.187,2634.00
884.145,2692.00
885.102,2984.00
886.059,2893.00
887.017,2919.00
887.974,3004.00
888.931,3104.00
889.888,2549.00
890.845,2475.00
891.802,2399.00
892.758,2668.00
893.717,2428.00
894.673,2582.00
895.630,2694.00
896.586,2942.00
897.542,2712.00
898.498,2580.00
899.454,2876.00
900.410,2748.00
901.366,2689.00
902.321,3788.00
903.277,2769.00
904.232,2796.00
905.189,2545.00
906.145,2703.00
907.100,2233.00
908.055,2754.00
909.010,2960.00
909.965,2391.00
910.919,2850.00
911.874,2627.00
912.828,2808.00
913.783,2848.00
914.737,2379.00
915.693,2784.00
916.648,2947.00
917.602,3016.00
918.555,2841.00
919.509,2890.00
920.463,2805.00
921.417,2818.00
922.370,2629.00
923.324,2718.00
924.277,2721.00
925.230,2823.00
926.183,2457.00
927.138,2767.00
928.091,3020.00
929.044,2911.00
929.996,2679.00
930.949,2666.00
931.902,2862.00
932.854,2892.00
933.806,2662.00
934.758,2991.00
935.711,3044.00
936.663,2841.00
937.614,2884.00
938.568,2772.00
939.520,2390.00
940.471,2744.00
941.423,2819.00
942.374,2932.00
943.326,2813.00
944.277,2653.00
945.228,2893.00
946.179,2763.00
947.130,3104.00
948.080,2711.00
949.031,2587.00
949.984,2734.00
950.934,2763.00
951.884,2500.00
952.835,2734.00
953.785,2767.00
954.735,2649.00
955.685,2391.00
956.635,2692.00
957.585,2692.00
958.534,2683.00
959.484,2787.00
960.433,2658.00
961.383,2488.00
962.334,2980.00
963.283,2839.00
964.232,2883.00
965.181,2764.00
966.130,2836.00
967.079,2677.00
968.027,2778.00
968.976,2794.00
969.924,2657.00
970.873,2865.00
971.821,2762.00
972.769,2989.00
973.719,2884.00
974.667,2526.00
975.615,2774.00
976.562,2765.00
977.510,2482.00
978.458,2640.00
979.405,2877.00
980.352,2797.00
981.300,3015.00
982.247,2829.00
983.194,2565.00
984.141,2614.00
985.088,2786.00
986.036,2810.00
986.983,3070.00
987.930,3170.00
988.876,2405.00
989.822,2977.00
990.769,2596.00
991.715,2636.00
992.661,2484.00
993.607,2882.00
994.553,3322.00
995.498,2641.00
996.444,2328.00
997.389,2817.00
998.337,2556.00
999.282,2901.00
1000.227,2667.00
1001.173,2725.00
1002.118,2510.00
1003.062,2941.00
1004.007,2723.00
1004.952,3030.00
1005.897,2995.00
1006.841,2793.00
1007.786,2487.00
1008.730,2478.00
1009.674,3192.00
1010.618,2698.00
1011.564,2531.00
1012.508,2442.00
1013.452,2984.00
1014.396,2728.00
1015.339,2625.00
1016.283,2735.00
1017.226,2789.00
1018.170,2756.00
1019.113,2973.00
1020.056,2786.00
1020.999,2762.00
1021.942,2666.00
1022.885,2892.00
1023.828,3038.00
1024.770,2564.00
1025.715,2805.00
1026.657,2704.00
1027.600,2776.00
1028.542,2956.00
1029.484,2792.00
1030.426,2902.00
1031.368,2824.00
1032.310,2633.00
1033.251,2609.00
1034.193,2733.00
1035.135,2529.00
1036.076,2668.00
1037.017,2602.00
1037.959,2898.00
1038.900,2818.00
1039.843,2838.00
1040.784,2772.00
1041.725,2853.00
1042.665,2608.00
1043.606,2813.00
1044.547,2776.00
1045.487,2377.00
1046.427,2730.00
1047.368,2809.00
1048.308,2286.00
1049.248,2556.00
1050.188,2770.00
1051.128,2621.00
1052.067,2723.00
1053.007,2461.00
1053.947,2404.00
1054.886,2620.00
1055.827,2483.00
1056.766,2974.00
1057.706,2478.00
1058.645,2713.00
1059.584,2773.00
1060.522,3047.00
1061.461,2488.00
1062.400,2516.00
1063.338,2670.00
1064.277,2523.00
1065.215,2566.00
1066.154,2433.00
1067.092,2649.00
1068.030,2665.00
1068.968,2919.00
1069.906,3028.00
1070.843,2971.00
1071.781,2782.00
1072.720,2875.00
1073.658,2874.00
1074.595,2648.00
1075.533,2563.00
1076.470,2656.00
1077.407,3031.00
1078.344,2820.00
1079.281,2840.00
1080.217,2342.00
1081.154,2697.00
1082.091,2762.00
1083.027,2492.00
1083.964,2941.00
1084.900,2593.00
1085.836,2635.00
1086.772,2916.00
1087.708,2493.00
1088.644,2878.00
1089.580,2722.00
1090.515,2743.00
1091.451,2640.00
1092.388,2714.00
1093.324,2476.00
1094.259,3284.00
1095.194,2815.00
1096.129,2624.00
1097.064,2585.00
1097.999,2868.00
1098.934,2568.00
1099.869,2558.00
1100.803,2760.00
1101.738,2751.00
1102.672,2433.00
1103.607,2853.00
1104.541,2533.00
1105.475,2596.00
1106.409,2462.00
1107.343,2619.00
1108.277,2442.00
1109.210,2702.00
1110.144,2712.00
1111.078,2724.00
1112.011,2487.00
1112.944,2773.00
1113.878,2700.00
1114.811,2192.00
1115.744,2632.00
1116.678,2371.00
1117.611,2619.00
1118.544,2652.00
1119.477,2808.00
1120.409,2565.00
1121.342,3159.00
1122.274,2791.00
1123.206,4292.00
1124.138,2680.00
1125.070,3043.00
1126.002,2862.00
1126.934,2326.00
1127.866,2617.00
1128.798,2365.00
1129.729,2411.00
1130.661,2665.00
1131.592,2612.00
1132.523,2758.00
1133.454,2822.00
1134.385,2331.00
1135.317,2654.00
1136.247,2632.00
1137.178,2924.00
1138.109,2397.00
1139.039,3055.00
1139.970,2856.00
1140.900,2609.00
1141.831,2400.00
1142.761,2287.00
1143.691,3331.00
1144.621,2728.00
1145.551,2739.00
1146.480,2704.00
1147.410,2847.00
1148.340,2351.00
1149.269,2405.00
1150.199,2618.00
1151.128,3101.00
1152.057,2483.00
1152.979,2606.00
1153.898,2687.00
1154.819,2784.00
1155.739,2679.00
1156.658,2582.00
1157.579,2736.00
1158.498,2682.00
1159.419,2209.00
1160.338,2739.00
1161.256,2732.00
1162.177,2521.00
1163.095,2676.00
1164.016,2746.00
1164.934,2942.00
1165.852,2896.00
1166.772,2654.00
1167.690,2713.00
1168.610,2740.00
1169.528,2677.00
1170.446,2261.00
1171.365,2572.00
1172.283,2507.00
1173.202,2676.00
1174.120,2726.00
1175.037,2555.00
1175.956,2493.00
1176.873,2546.00
1177.792,2568.00
1178.709,3121.00
1179.626,2547.00
1180.544,2887.00
1181.461,2548.00
1182.379,2809.00
1183.296,2619.00
1184.212,2331.00
1185.130,2483.00
1186.046,3024.00
1186.962,2674.00
1187.880,2970.00
1188.796,2743.00
1189.714,2471.00
1190.629,2800.00
1191.545,2732.00
1192.462,2569.00
1193.378,2630.00
1194.295,2395.00
1195.210,2701.00
1196.125,2797.00
1197.042,2738.00
1197.957,2685.00
1198.872,2535.00
1199.788,2567.00
1200.703,3014.00
1201.619,2661.00
1202.534,2515.00
1203.448,2726.00
1204.364,2646.00
1205.278,2337.00
1206.192,2738.00
1207.108,3150.00
1208.022,3021.00
1208.938,2489.00
1209.851,2843.00
1210.765,2916.00
1211.680,2545.00
1212.594,2431.00
1213.507,2623.00
1214.422,3046.00
1215.335,2801.00
1216.248,2606.00
1217.163,2658.00
1218.076,3303.00
1218.990,2792.00
1219.903,2435.00
1220.816,2497.00
1221.730,2640.00
1222.642,2539.00
1223.554,2584.00
1224.469,2738.00
1225.380,2623.00
1226.292,2333.00
1227.206,2831.00
1228.118,2973.00
1229.032,2300.00
1229.943,2550.00
1230.855,2587.00
1231.768,2414.00
1232.679,2766.00
1233.590,2652.00
1234.503,2924.00
1235.414,2510.00
1236.325,2568.00
1237.238,2709.00
1238.149,2716.00
1239.059,2469.00
1239.972,2828.00
1240.882,2484.00
1241.793,2782.00
1242.705,3016.00
1243.615,2666.00
1244.525,2781.00
1245.437,2240.00
1246.347,2709.00
1247.259,2852.00
1248.168,3096.00
1249.078,2935.00
1249.989,2908.00
1250.899,2474.00
1251.808,2532.00
1252.719,2585.00
1253.628,2550.00
1254.537,3057.00
1255.448,2504.00
1256.357,2477.00
1257.266,2678.00
1258.176,2397.00
1259.085,2386.00
1259.993,2488.00
1260.904,2502.00
1261.812,2476.00
1262.720,3203.00
1263.630,2841.00
1264.538,2489.00
1265.446,2796.00
1266.356,2652.00
1267.263,2971.00
1268.171,2479.00
1269.080,2746.00
1269.988,2816.00
1270.895,2592.00
1271.804,2658.00
1272.711,2879.00
1273.619,2805.00
1274.527,2517.00
1275.434,2781.00
1276.341,2444.00
1277.248,2695.00
1278.156,2970.00
1279.063,2506.00
1279.969,2722.00
1280.877,3532.00
1281.783,2859.00
1282.690,2749.00
1283.598,2613.00
1284.503,2544.00
1285.409,2493.00
1286.317,3059.00
1287.223,3074.00
1288.128,2698.00
1289.036,2584.00
1289.941,2602.00
1290.846,2666.00
1291.751,2513.00
1292.658,2601.00
1293.563,3117.00
1294.468,2692.00
1295.375,2829.00
1296.280,2879.00
1297.184,3382.00
1298.091,2779.00
1298.995,2808.00
1299.900,3034.00
1300.806,2554.00
1301.710,2425.00
1302.614,2239.00
1303.518,2921.00
1304.424,2565.00
1305.327,2845.00
1306.231,2691.00
1307.137,2798.00
1308.040,2731.00
1308.943,2667.00
1309.847,2871.00
1310.752,2882.00
1311.655,2348.00
1312.558,2434.00
1313.463,2619.00
1314.366,2538.00
1315.269,2708.00
1316.171,2685.00
1317.076,2561.00
1317.978,2470.00
1318.881,2293.00
1319.785,2516.00
1320.687,2566.00
1321.589,2238.00
1322.491,2537.00
1323.395,2711.00
1324.297,3208.00
1325.198,2801.00
1326.102,2497.00
1327.004,2474.00
1327.905,3087.00
1328.806,2637.00
1329.709,2707.00
1330.611,2591.00
1331.512,2481.00
1332.413,3095.00
1333.316,2722.00
1334.216,2846.00
1335.117,2394.00
1336.020,2718.00
1336.920,2683.00
1337.821,2521.00
1338.721,2948.00
1339.623,2745.00
1340.523,2648.00
1341.423,2550.00
1342.323,2934.00
1343.225,2737.00
1344.125,2515.00
1345.025,2536.00
1345.924,2313.00
1346.826,3012.00
1347.725,3074.00
1348.624,2883.00
1349.524,2509.00
1350.425,2622.00
1351.324,2769.00
1352.223,2821.00
1353.121,2654.00
1354.022,2851.00
1354.921,3053.00
1355.819,2803.00
1356.718,2670.00
1357.618,2420.00
1358.516,2786.00
1359.415,3034.00
1360.313,2790.00
1361.213,2605.00
1362.111,2972.00
1363.008,3293.00
1363.906,2624.00
1364.806,2641.00
1365.703,2747.00
1366.601,2528.00
1367.498,2518.00
1368.397,2869.00
1369.295,2723.00
1370.192,2511.00
1371.089,2753.00
1371.987,2665.00
1372.884,2926.00
1373.781,2467.00
1374.678,2679.00
1375.574,2487.00
1376.473,2791.00
1377.369,2869.00
1378.265,2559.00
1379.161,2602.00
1380.059,2362.00
1380.955,2762.00
1381.851,2463.00
1382.747,2551.00
1383.643,2584.00
1384.540,2428.00
1385.436,2549.00
1386.331,2731.00
1387.227,2846.00
1388.124,2793.00
1389.019,2480.00
1389.914,2655.00
1390.809,2331.00
1391.704,3080.00
1392.601,2595.00
1393.495,2957.00
1394.390,2802.00
1395.285,2894.00
1396.179,2777.00
1397.075,2626.00
1397.969,2730.00
1398.864,2409.00
1399.758,2624.00
1400.652,2734.00
1401.547,2488.00
1402.441,2461.00
1403.335,3047.00
1404.229,2844.00
1405.122,2781.00
1406.017,2656.00
1406.911,2815.00
1407.804,3107.00
1408.697,2644.00
1409.590,2486.00
1410.485,2849.00
1411.378,2747.00
1412.271,2374.00
1413.163,2749.00
1414.056,2852.00
1414.949,3026.00
1415.843,2703.00
1416.735,2613.00
1417.627,2687.00
1418.520,2653.00
1419.412,2916.00
1420.306,2854.00
1421.197,2967.00
1422.089,2883.00
1422.981,3151.00
1423.873,2916.00
1424.764,2781.00
1425.657,2719.00
1426.549,2803.00
1427.440,2867.00
1428.331,2592.00
1429.222,2371.00
1430.113,2735.00
1431.006,2879.00
1431.897,2634.00
1432.787,2685.00
1433.678,2603.00
1434.568,2507.00
1435.459,2883.00
1436.351,2840.00
1437.241,2794.00
1438.131,2843.00
1439.021,2454.00
1439.911,2622.00
1440.801,2773.00
1441.693,2893.00
1442.583,2715.00
1443.472,2673.00
1444.362,2821.00
1445.251,2619.00
1446.140,2618.00
1447.030,2867.00
1447.921,2939.00
1448.810,2498.00
1449.699,3031.00
1450.588,2688.00
1451.476,2614.00
1452.365,2771.00
1453.254,2604.00
1454.144,2519.00
1455.032,2821.00
1455.921,2408.00
1456.809,2947.00
1457.697,2525.00
1458.585,2643.00
1459.473,2622.00
1460.361,2529.00
1461.251,2770.00
1462.138,2739.00
1463.026,2659.00
1463.913,2936.00
1464.801,2583.00
1465.688,2809.00
1466.575,2714.00
1467.463,3107.00
1468.351,2524.00
1469.238,2678.00
1470.125,2291.00
1471.012,2757.00
1471.899,2738.00
1472.785,2500.00
1473.672,2688.00
1474.558,2886.00
1475.446,2859.00
1476.333,2840.00
1477.219,2496.00
1478.105,2684.00
1478.991,2640.00
1479.877,2998.00
1480.762,2724.00
1481.648,2549.00
1482.534,2848.00
1483.419,2793.00
1484.307,2821.00
1485.192,2652.00
1486.077,2586.00
1486.962,2561.00
1487.847,2422.00
1488.732,2547.00
1489.617,2689.00
1490.502,2985.00
1491.387,2830.00
1492.271,2529.00
1493.156,2523.00
1494.042,2511.00
1494.927,2906.00
1495.811,2600.00
1496.695,2866.00
1497.579,3002.00
1498.463,2699.00
1499.347,2709.00
1500.231,2709.00
1501.114,2760.00
1501.998,2960.00
1502.881,2754.00
1503.765,2982.00
1504.648,3067.00
1505.533,2812.00
1506.417,2676.00
1507.300,2648.00
1508.183,2777.00
1509.066,2182.00
1509.948,2961.00
1510.831,3061.00
1511.714,2484.00
1512.596,2815.00
1513.479,2968.00
1514.361,2942.00
1515.243,2703.00
1516.125,2872.00
1517.008,2947.00
1517.890,2664.00
1518.771,2753.00
1519.655,2930.00
1520.537,2656.00
1521.419,2539.00
1522.300,2760.00
1523.182,2843.00
1524.063,2844.00
1524.944,2989.00
1525.825,2938.00
1526.707,2512.00
1527.588,2502.00
1528.468,2805.00
1529.349,2359.00
1530.230,2640.00
1531.111,2844.00
1531.991,2757.00
1532.872,2442.00
1533.752,2683.00
1534.632,2549.00
1535.513,2569.00
1536.393,2858.00
1537.273,3041.00
1538.153,3362.00
1539.032,2446.00
1539.912,2710.00
1540.792,2724.00
1541.672,2699.00
1542.551,2849.00
1543.430,3324.00
1544.310,2712.00
1545.189,2613.00
1546.068,3147.00
1546.947,2806.00
1547.826,2996.00
1548.705,2708.00
1549.584,2947.00
1550.462,2686.00
1551.341,2900.00
1552.219,2740.00
1553.098,2869.00
1553.976,2966.00
1554.854,3121.00
1555.733,2917.00
1556.611,2620.00
1557.489,2535.00
1558.367,2732.00
1559.244,2898.00
1560.122,2722.00
1561.000,2761.00
1561.877,3011.00
1562.755,2549.00
1563.632,2697.00
1564.509,2993.00
1565.386,3054.00
1566.264,2478.00
1567.141,2339.00
1568.017,2882.00
1568.894,2735.00
1569.771,2744.00
1570.648,2849.00
1571.524,2735.00
1572.401,2501.00
1573.277,2498.00
1574.153,2772.00
1575.029,2603.00
1575.906,3403.00
1576.781,2866.00
1577.657,2641.00
1578.533,2984.00
1579.409,2354.00
1580.285,2682.00
1581.160,3121.00
1582.036,2839.00
1582.911,2556.00
1583.786,3081.00
1584.662,2517.00
1585.537,2678.00
1586.412,2799.00
1587.287,2572.00
1588.160,2899.00
1589.035,2347.00
1589.909,2713.00
1590.784,2711.00
1591.658,2520.00
1592.533,2747.00
1593.407,2735.00
1594.281,2598.00
1595.155,3126.00
1596.029,2620.00
1596.903,2674.00
1597.777,2626.00
1598.651,2977.00
1599.525,2412.00
1600.398,2749.00
1601.272,2712.00
1602.144,3257.00
1603.017,2679.00
1603.890,2968.00
1604.763,2834.00
1605.636,2825.00
1606.509,2394.00
1607.382,2575.00
1608.255,2813.00
1609.128,2913.00
1610.000,2691.00
1610.873,2401.00
1611.746,2623.00
1612.616,2647.00
1613.488,2306.00
1614.361,2723.00
1615.233,2683.00
1616.105,2951.00
1616.977,2634.00
1617.849,2544.00
1618.720,3038.00
1619.592,3027.00
1620.464,2814.00
1621.333,3173.00
1622.205,2693.00
1623.076,2669.00
1623.947,2719.00
1624.818,2961.00
1625.689,2878.00
1626.560,2638.00
1627.431,2731.00
1628.302,3135.00
1629.171,2838.00
1630.042,3001.00
1630.912,3397.00
1631.782,3302.00
1632.653,2539.00
1633.523,2905.00
1634.393,2986.00
1635.263,2562.00
1636.131,2693.00
1637.001,2674.00
1637.871,2358.00
1638.741,2336.00
1639.611,2413.00
1640.480,2859.00
1641.350,2600.00
1642.219,2564.00
1643.087,2217.00
1643.956,3134.00
1644.825,2982.00
1645.694,2973.00
1646.563,2912.00
1647.432,2803.00
1648.299,2732.00
1649.167,2864.00
1650.036,2507.00
1650.904,2869.00
1651.773,2978.00
1652.641,2709.00
1653.509,2900.00
1654.376,2598.00
1655.244,2751.00
1656.112,2761.00
1656.980,2743.00
1657.847,2577.00
1658.715,2884.00
1659.581,2610.00
1660.448,2950.00
1661.316,2230.00
1662.183,2778.00
1663.051,2757.00
1663.918,2733.00
1664.783,2756.00
1665.650,2828.00
1666.517,2856.00
1667.384,2742.00
1668.251,2779.00
1669.115,2928.00
1669.982,2701.00
1670.849,2992.00
1671.715,2728.00
1672.581,2887.00
1673.446,2849.00
1674.312,2786.00
1675.178,3120.00
1676.044,2828.00
1676.910,2798.00
1677.774,2758.00
1678.639,2380.00
1679.505,2732.00
1680.370,2881.00
1681.236,3381.00
1682.099,2657.00
1682.965,2760.00
1683.830,2328.00
1684.695,2527.00
1685.560,2662.00
1686.423,2851.00
1687.288,2876.00
1688.153,2793.00
1689.017,2682.00
1689.880,2832.00
1690.745,2874.00
1691.609,2584.00
1692.473,2887.00
1693.338,2949.00
1694.200,3020.00
1695.064,2745.00
1695.928,2628.00
1696.792,2775.00
1697.654,3246.00
1698.517,2757.00
1699.381,2498.00
1700.245,2381.00
1701.106,3006.00
1701.969,2644.00
1702.833,2887.00
1703.696,2636.00
1704.557,2719.00
1705.420,2608.00
1706.283,2744.00
1707.146,2878.00
1708.007,2504.00
1708.870,2519.00
1709.732,2420.00
1710.595,2625.00
1711.455,2484.00
1712.318,2677.00
1713.180,2974.00
1714.040,2800.00
1714.902,2903.00
1715.764,2773.00
1716.626,2510.00
1717.486,2724.00
1718.348,3013.00
1719.209,4899.00
1720.071,2374.00
1720.930,2480.00
1721.792,2577.00
1722.653,2559.00
1723.512,2647.00
1724.374,2677.00
1725.234,2808.00
1726.095,2787.00
1726.954,2722.00
1727.815,2903.00
1728.676,2682.00
1729.535,2945.00
1730.395,2731.00
1731.256,2657.00
1732.114,2803.00
1732.974,2220.00
1733.834,3151.00
1734.693,2946.00
1735.553,2743.00
1736.413,3111.00
1737.272,2640.00
1738.130,2658.00
1738.990,2812.00
1739.849,2626.00
1740.707,3790.00
1741.566,2741.00
1742.426,2805.00
1743.283,3172.00
1744.142,2621.00
1745.001,2425.00
1745.858,2934.00
1746.717,2830.00
1747.576,2893.00
1748.433,2887.00
1749.292,3326.00
1750.150,3340.00
1751.007,2949.00
1751.865,2938.00
1752.723,2754.00
1753.579,2669.00
1754.438,2961.00
1755.296,2994.00
1756.152,2296.00
1757.010,2461.00
1757.865,2982.00
1758.723,2383.00
1759.581,3076.00
1760.436,2769.00
1761.294,3118.00
1762.151,2733.00
1763.006,2671.00
1763.864,2392.00
1764.721,2934.00
1765.576,2745.00
1766.433,2906.00
1767.288,2639.00
1768.144,2792.00
1769.001,2708.00
1769.856,2831.00
1770.712,2957.00
1771.568,2531.00
1772.423,2661.00
1773.279,2644.00
1774.133,2622.00
1774.989,3111.00
1775.845,3122.00
1776.699,2979.00
1777.555,2688.00
1778.409,3236.00
1779.265,2682.00
1780.120,2656.00
1780.974,2715.00
1781.829,2348.00
1782.682,2861.00
1783.538,2577.00
1784.393,2772.00
1785.246,2622.00
1786.101,2852.00
1786.954,2874.00
1787.808,2927.00
1788.661,2504.00
1789.516,2661.00
1790.370,2724.00
1791.223,2952.00
1792.077,2751.00
1792.930,2816.00
1793.784,2598.00
1794.636,2808.00
1795.490,2729.00
1796.344,2750.00
1797.196,2741.00
1798.049,2909.00
1798.901,2613.00
1799.755,2950.00
1800.606,2548.00
1801.460,3274.00
1802.311,3078.00
1803.165,3187.00
1804.018,3112.00
1804.869,2856.00
1805.722,3196.00
1806.573,2789.00
1807.426,2563.00
1808.276,2769.00
1809.129,2669.00
1809.980,2980.00
1810.832,3035.00
1811.683,2694.00
1812.535,3095.00
1813.385,2703.00
1814.237,3069.00
1815.089,2806.00
1815.940,3036.00
1816.791,2707.00
1817.641,2607.00
1818.493,2906.00
1819.343,2797.00
1820.194,2637.00
1821.044,2851.00
1821.895,2950.00
1822.745,2476.00
1823.596,2662.00
1824.445,3174.00
1825.296,2847.00
1826.145,2713.00
1826.996,2921.00
1827.845,2797.00
1828.695,2817.00
1829.544,2775.00
1830.395,2795.00
1831.243,2666.00
1832.094,2507.00
1832.942,3374.00
1833.792,2886.00
1834.640,2843.00
1835.490,2800.00
1836.338,2815.00
1837.186,2632.00
1838.036,2612.00
1838.884,2755.00
1839.733,3101.00
1840.581,2934.00
1841.430,2917.00
1842.278,3129.00
1843.127,2671.00
1843.974,2450.00
1844.823,3192.00
1845.671,2926.00
1846.519,2778.00
1847.366,2834.00
1848.213,2380.00
1849.062,2564.00
1849.909,2496.00
1850.757,3444.00
1851.604,2900.00
1852.452,2685.00
1853.298,2948.00
1854.146,2829.00
1854.993,2848.00
1855.839,3300.00
1856.687,2898.00
1857.532,2884.00
1858.380,2783.00
1859.226,2849.00
1860.073,2928.00
1860.919,2601.00
1861.765,2660.00
1862.612,3050.00
1863.457,3023.00
1864.304,2712.00
1865.150,2903.00
1865.995,2752.00
1866.842,2861.00
1867.686,3022.00
1868.533,2825.00
1869.378,2810.00
1870.223,2765.00
1871.069,2706.00
1871.914,2813.00
1872.760,2746.00
1873.604,2548.00
1874.448,2898.00
1875.294,2968.00
1876.139,2635.00
1876.984,2889.00
1877.828,2429.00
1878.672,2292.00
1879.518,2657.00
1880.361,2931.00
1881.205,2959.00
1882.050,2583.00
1882.894,3288.00
1883.739,2634.00
1884.582,2527.00
1885.425,2619.00
1886.270,3038.00
1887.113,2548.00
1887.956,2889.00
1888.801,2799.00
1889.644,2602.00
1890.486,2388.00
1891.331,2721.00
1892.173,2823.00
1893.017,2830.00
1893.860,3084.00
1894.702,3048.00
1895.546,2771.00
1896.388,3419.00
1897.230,3168.00
1898.074,2697.00
1898.916,2585.00
1899.757,2607.00
1900.601,3435.00
1901.443,3085.00
1902.284,3095.00
1903.125,3223.00
1903.969,2966.00
1904.810,3002.00
1905.651,2887.00
1906.494,3110.00
1907.335,3259.00
1908.176,2884.00
1909.018,2856.00
1909.859,2763.00
1910.700,2645.00
1911.542,3359.00
1912.383,2889.00
1913.223,2425.00
1914.064,2894.00
1914.906,3090.00
1915.746,3110.00
1916.586,3278.00
1917.428,2754.00
1918.268,2825.00
1919.107,2676.00
1919.947,2580.00
1920.789,2745.00
1921.628,3028.00
1922.468,2858.00
1923.309,2633.00
1924.148,3116.00
1924.988,2835.00
1925.827,2752.00
1926.667,2652.00
1927.507,2850.00
1928.345,2612.00
1929.184,2927.00
1930.025,2625.00
1930.864,3060.00
1931.702,3061.00
1932.541,2685.00
1933.381,2874.00
1934.219,2943.00
1935.057,3072.00
1935.896,2531.00
1936.735,2722.00
1937.573,2697.00
1938.411,2578.00
1939.249,2980.00
1940.089,2678.00
1940.927,3033.00
1941.764,3086.00
1942.602,2701.00
1943.439,2676.00
1944.278,2732.00
1945.115,2738.00
1945.953,2520.00
1946.790,2871.00
1947.628,3145.00
1948.465,2949.00
1949.302,2952.00
1950.139,2917.00
1950.976,2671.00
1951.814,2975.00
1952.651,2827.00
1953.487,2597.00
1954.323,3062.00
1955.160,2735.00
1955.998,3178.00
1956.834,2774.00
1957.670,2858.00
1958.506,3036.00
1959.342,2895.00
1960.177,2829.00
1961.015,2949.00
1961.850,2813.00
1962.686,2864.00
1963.521,2827.00
1964.357,3078.00
1965.192,2543.00
1966.029,2950.00
1966.864,2749.00
1967.699,3019.00
1968.534,2840.00
1969.369,3087.00
1970.204,2788.00
1971.040,2898.00
1971.875,2743.00
1972.709,2856.00
1973.544,2642.00
1974.378,2685.00
1975.212,2925.00
1976.047,2674.00
1976.882,2692.00
1977.716,3228.00
1978.550,2499.00
1979.384,2755.00
1980.218,2772.00
1981.052,2757.00
1981.885,2789.00
1982.719,2818.00
1983.554,2934.00
1984.388,3121.00
1985.221,2923.00
1986.054,3050.00
1986.887,2856.00
1987.720,2673.00
1988.553,3078.00
1989.386,2911.00
1990.219,2941.00
1991.053,3117.00
1991.886,2658.00
1992.719,3021.00
1993.551,2318.00
1994.383,2923.00
1995.216,2727.00
1996.048,2488.00
1996.880,2966.00
1997.712,2652.00
1998.544,2847.00
1999.376,2898.00
2000.208,3132.00
2001.040,3288.00
2001.873,2652.00
2002.705,2610.00
2003.536,2861.00
2004.367,2817.00
2005.199,2836.00
2006.030,2677.00
2006.861,2568.00
2007.692,2799.00
2008.523,2667.00
2009.354,2849.00
2010.185,2623.00
2011.016,2989.00
2011.846,3023.00
2012.677,2758.00
2013.507,3147.00
2014.338,3022.00
2015.168,2702.00
2015.999,3335.00
2016.829,2769.00
2017.659,3039.00
2018.489,3344.00
2019.319,2645.00
2020.149,3018.00
2020.980,2815.00
2021.810,2630.00
2022.639,2709.00
2023.469,2650.00
2024.298,2508.00
2025.128,2403.00
2025.957,2417.00
2026.786,2250.00
2027.615,2440.00
2028.444,2653.00
2029.273,2814.00
2030.102,2430.00
2030.931,2641.00
2031.758,2924.00
2032.586,2614.00
2033.415,2668.00
2034.243,2264.00
2035.072,2087.00
2035.900,2549.00
2036.728,2360.00
2037.556,2453.00
2038.385,2449.00
2039.213,2239.00
2040.040,2247.00
2040.868,2196.00
2041.696,2263.00
2042.524,2290.00
2043.351,2470.00
2044.179,2258.00
2045.006,2025.00
