RamanScope Measure Spectrum Data V3.72

<< MEASURE CONDITION >>
Exposure Type,Aver
Exposure Time [sec],15
Exposure Count,4
Measure Time,2023/07/15 15:33:33
Data Name,""
Data Comment,""
Rayleigh Wave[nm],532.0

<< SAMPLE SPECTRUM >>
Wave[dcm-1],No144
146.591,820.25
147.626,963.25
148.664,1108.00
149.699,1283.50
150.737,1456.50
151.772,1633.00
152.809,1761.75
153.846,1941.25
154.881,2031.50
155.918,2242.50
156.953,2255.50
157.989,2381.50
159.026,2414.00
160.060,2483.50
161.096,2532.50
162.130,2561.25
163.167,2583.75
164.200,2670.50
165.236,2665.50
166.272,2743.00
167.305,2789.75
168.341,2856.25
169.374,2879.50
170.409,2926.75
171.445,2985.75
172.477,3045.75
173.512,3089.00
174.545,3164.25
175.580,3190.25
176.614,3192.00
177.647,3217.25
178.681,3197.50
179.713,3225.75
180.747,3207.25
181.781,3100.00
182.813,3145.25
183.847,3086.25
184.878,3081.00
185.912,3054.75
186.945,2998.25
187.976,3024.75
189.010,3068.00
190.043,2976.75
191.073,3071.75
192.106,3075.00
193.137,3099.00
194.170,3151.50
195.202,3146.50
196.232,3238.75
197.265,3240.75
198.297,3321.75
199.327,3377.25
200.359,3429.50
201.388,3450.00
202.420,3584.75
203.452,3612.75
204.481,3728.00
205.512,3808.00
206.544,3967.50
207.573,4106.00
208.604,4177.25
209.635,4349.75
210.663,4465.50
211.694,4585.50
212.725,4715.50
213.753,4854.75
214.783,4973.00
215.813,5130.75
216.841,5049.00
217.871,5088.50
218.899,5058.25
219.929,5051.50
220.959,4993.00
221.986,4895.50
223.016,4766.75
224.045,4629.25
225.072,4525.25
226.101,4410.25
227.130,4282.25
228.157,4166.00
229.185,4101.00
230.214,4042.25
231.241,3949.00
232.269,3921.00
233.297,3830.25
234.323,3822.25
235.351,3762.25
236.379,3751.75
237.407,3754.75
238.433,3681.25
239.460,3785.00
240.488,3745.25
241.513,3769.50
242.540,3800.00
243.568,3861.75
244.592,3855.75
245.619,3806.00
246.646,3860.25
247.671,3829.25
248.697,3840.25
249.724,3779.00
250.748,3797.50
251.774,3819.00
252.801,3764.75
253.827,3833.00
254.850,3862.50
255.876,3846.50
256.902,3870.50
257.925,3865.00
258.951,3944.25
259.976,3964.75
260.999,4011.25
262.024,4036.00
263.049,4097.50
264.074,4119.50
265.097,4130.00
266.122,4241.75
267.146,4296.00
268.168,4284.00
269.193,4335.50
270.217,4362.25
271.241,4444.00
272.263,4467.75
273.287,4483.50
274.311,4570.25
275.332,4540.25
276.356,4581.50
277.379,4557.75
278.402,4493.50
279.424,4575.00
280.447,4491.75
281.470,4400.50
282.492,4386.50
283.513,4335.25
284.536,4188.75
285.558,4123.25
286.581,4141.50
287.601,4035.25
288.623,3984.25
289.645,3900.00
290.665,3874.75
291.687,3740.50
292.709,3718.00
293.730,3718.25
294.750,3668.50
295.771,3512.75
296.792,3541.25
297.813,3443.25
298.832,3412.25
299.853,3367.50
300.874,3312.00
301.895,3248.75
302.913,3287.25
303.934,3200.00
304.954,3169.25
305.975,3154.00
306.993,3141.50
308.013,3104.75
309.033,3039.75
310.052,2999.75
311.072,3014.50
312.090,3038.75
313.109,3032.50
314.129,2919.25
315.148,2920.75
316.165,2936.25
317.184,2945.75
318.203,2905.25
319.222,2877.50
320.238,2829.25
321.257,2840.50
322.275,2829.25
323.294,2872.50
324.312,2805.75
325.328,2780.25
326.346,2762.50
327.364,2795.00
328.382,2794.50
329.397,2797.00
330.415,2733.75
331.432,2751.50
332.450,2782.50
333.467,2762.50
334.482,2726.25
335.499,2784.25
336.516,2697.00
337.533,2738.50
338.547,2721.75
339.564,2682.75
340.580,2671.75
341.597,2690.50
342.613,2675.50
343.627,2711.00
344.643,2658.00
345.659,2627.75
346.675,2660.50
347.690,2712.25
348.704,2669.75
349.719,2662.25
350.735,2687.00
351.750,2716.25
352.765,2701.75
353.778,2689.00
354.793,2683.75
355.808,2709.50
356.822,2714.00
357.837,2737.25
358.851,2685.00
359.864,2748.25
360.878,2720.50
361.892,2715.00
362.906,2796.75
363.920,2692.75
364.932,2694.25
365.945,2755.50
366.959,2775.75
367.972,2729.25
368.986,2763.00
369.999,2759.75
371.010,2731.50
372.023,2809.00
373.036,2760.50
374.049,2864.25
375.061,2869.25
376.072,2859.50
377.084,2870.00
378.097,2870.00
379.109,2880.00
380.121,2884.75
381.133,2867.50
382.143,2894.50
383.155,2849.50
384.166,2927.50
385.178,2878.75
386.189,2875.00
387.201,2893.50
388.212,2886.50
389.221,2897.25
390.232,2878.75
391.243,2850.50
392.254,2840.50
393.264,2855.00
394.275,2828.50
395.283,2798.25
396.294,2812.50
397.304,2770.50
398.314,2779.75
399.324,2743.25
400.334,2755.25
401.344,2703.75
402.351,2684.25
403.361,2703.75
404.370,2669.25
405.380,2666.00
406.389,2635.25
407.398,2603.75
408.407,2604.00
409.414,2669.75
410.423,2591.50
411.431,2611.00
412.440,2570.75
413.448,2597.50
414.457,2570.75
415.465,2574.50
416.471,2545.00
417.479,2491.25
418.487,2569.50
419.495,2544.50
420.503,2517.50
421.510,2544.00
422.518,2530.00
423.525,2499.75
424.530,2531.75
425.537,2452.75
426.544,2480.50
427.551,2451.00
428.558,2447.00
429.565,2464.75
430.571,2459.00
431.578,2469.25
432.582,2456.00
433.588,2405.50
434.595,2439.50
435.601,2441.50
436.607,2453.00
437.612,2464.25
438.618,2437.50
439.624,2457.25
440.627,2428.25
441.633,2416.50
442.638,2464.00
443.643,2461.75
444.648,2472.00
445.653,2465.00
446.658,2462.25
447.663,2415.50
448.667,2436.25
449.672,2481.00
450.674,2465.25
451.678,2443.75
452.682,2483.00
453.687,2410.75
454.690,2512.00
455.694,2458.00
456.698,2494.00
457.702,2512.00
458.705,2483.00
459.709,2520.50
460.710,2533.50
461.713,2522.50
462.716,2528.75
463.719,2496.50
464.722,2538.75
465.725,2508.50
466.727,2550.50
467.730,2480.75
468.732,2544.75
469.735,2530.00
470.737,2532.75
471.737,2540.50
472.739,2547.50
473.741,2518.00
474.742,2550.50
475.744,2509.25
476.746,2533.25
477.747,2547.50
478.748,2593.50
479.750,2511.25
480.751,2529.00
481.752,2588.00
482.753,2536.25
483.751,2490.00
484.752,2554.00
485.753,2563.25
486.753,2516.50
487.753,2566.75
488.754,2493.25
489.754,2500.75
490.754,2473.25
491.754,2545.25
492.754,2561.50
493.753,2537.00
494.753,2510.25
495.752,2523.75
496.752,2510.00
497.749,2484.25
498.748,2488.25
499.747,2519.00
500.746,2489.00
501.745,2511.00
502.744,2473.00
503.742,2471.00
504.741,2492.25
505.739,2438.50
506.737,2497.50
507.735,2411.00
508.734,2400.50
509.732,2440.50
510.729,2398.25
511.727,2434.00
512.725,2411.25
513.720,2411.50
514.718,2399.75
515.715,2393.00
516.712,2382.75
517.709,2389.75
518.706,2412.50
519.703,2380.50
520.700,2395.50
521.696,2359.50
522.693,2448.75
523.689,2399.75
524.686,2402.50
525.682,2421.75
526.678,2399.75
527.674,2383.00
528.670,2400.75
529.666,2433.50
530.661,2402.50
531.657,2427.75
532.652,2438.50
533.648,2385.00
534.641,2438.25
535.636,2388.25
536.631,2473.00
537.626,2447.50
538.621,2469.25
539.616,2479.75
540.610,2405.00
541.605,2400.50
542.599,2423.50
543.593,2419.00
544.587,2428.00
545.581,2379.50
546.575,2404.50
547.569,2382.75
548.563,2444.75
549.557,2443.50
550.550,2415.50
551.543,2452.50
552.537,2412.00
553.530,2395.75
554.523,2421.50
555.516,2417.50
556.509,2458.50
557.502,2399.50
558.494,2416.00
559.487,2384.25
560.479,2402.75
561.472,2377.50
562.464,2413.75
563.456,2397.50
564.448,2425.25
565.440,2409.25
566.432,2404.00
567.423,2430.75
568.415,2444.75
569.404,2420.00
570.396,2476.25
571.387,2464.25
572.378,2509.75
573.369,2434.00
574.360,2470.75
575.351,2474.25
576.341,2474.00
577.332,2502.75
578.323,2454.50
579.313,2504.50
580.303,2476.75
581.293,2421.50
582.283,2501.00
583.273,2497.75
584.263,2531.25
585.253,2505.75
586.243,2504.25
587.232,2512.00
588.222,2487.75
589.211,2492.50
590.200,2506.75
591.189,2523.75
592.178,2523.75
593.167,2550.00
594.156,2481.25
595.145,2527.00
596.133,2475.25
597.122,2550.00
598.110,2568.50
599.098,2457.00
600.086,2551.25
601.074,2519.50
602.062,2507.25
603.050,2491.25
604.038,2517.00
605.025,2463.50
606.013,2495.75
607.000,2443.00
607.987,2434.25
608.975,2497.50
609.962,2462.25
610.949,2422.00
611.936,2493.50
612.922,2377.00
613.909,2453.50
614.895,2409.75
615.882,2385.25
616.868,2355.25
617.854,2359.25
618.841,2328.50
619.826,2350.75
620.812,2363.00
621.798,2335.50
622.784,2265.75
623.769,2312.00
624.755,2236.75
625.740,2239.75
626.725,2252.75
627.711,2183.00
628.698,2223.25
629.683,2167.25
630.667,2136.75
631.652,2203.25
632.637,2182.50
633.621,2175.75
634.606,2125.00
635.590,2133.00
636.574,2118.25
637.558,2074.00
638.542,2114.00
639.526,2070.50
640.510,2028.75
641.493,2037.75
642.477,2023.25
643.460,2050.75
644.444,2018.50
645.427,1948.75
646.410,2003.25
647.393,2006.75
648.376,2055.25
649.359,1901.50
650.341,1987.00
651.324,1989.00
652.307,1933.00
653.289,1926.25
654.271,1944.75
655.253,1923.75
656.235,1901.50
657.217,1936.25
658.199,1927.50
659.181,1916.50
660.163,1889.75
661.144,1897.25
662.126,1840.50
663.107,1870.75
664.088,1809.75
665.069,1867.25
666.050,1895.00
667.033,1874.50
668.014,1959.00
668.995,1838.50
669.975,1820.25
670.956,1812.75
671.936,1788.75
672.916,1744.50
673.896,1789.75
674.876,1761.75
675.856,1802.00
676.836,1764.25
677.816,1751.50
678.795,1708.75
679.775,1729.00
680.754,1669.50
681.734,1692.50
682.713,1658.50
683.692,1706.00
684.671,1673.25
685.650,1629.25
686.629,1621.50
687.607,1628.50
688.586,1641.50
689.564,1637.75
690.543,1653.00
691.523,1597.00
692.501,1595.25
693.479,1582.50
694.457,1609.25
695.435,1588.00
696.413,1585.75
697.390,1597.25
698.368,1561.25
699.345,1535.00
700.322,1516.25
701.300,1579.00
702.277,1504.00
703.254,1489.50
704.231,1531.50
705.207,1489.50
706.184,1513.00
707.161,1497.50
708.137,1491.50
709.113,1515.25
710.090,1520.25
711.068,1501.00
712.044,1502.75
713.020,1460.75
713.996,1454.75
714.971,1479.75
715.947,1458.75
716.922,1464.00
717.898,1412.75
718.873,1469.50
719.848,1447.00
720.823,1426.00
721.798,1487.75
722.773,1414.75
723.748,1405.50
724.723,1398.50
725.697,1421.75
726.672,1448.00
727.646,1443.00
728.622,1427.25
729.596,1383.50
730.570,1421.00
731.544,1370.75
732.518,1396.50
733.492,1390.75
734.466,1364.50
735.439,1408.50
736.413,1415.50
737.386,1384.75
738.359,1363.75
739.332,1347.75
740.305,1357.50
741.278,1329.75
742.251,1356.00
743.224,1363.00
744.196,1370.25
745.171,1329.00
746.143,1370.75
747.115,1340.50
748.087,1316.50
749.059,1336.25
750.031,1338.25
751.003,1270.00
751.975,1293.25
752.947,1332.50
753.918,1306.00
754.890,1306.25
755.861,1327.25
756.832,1274.50
757.803,1297.50
758.774,1298.25
759.747,1316.00
760.718,1283.00
761.689,1267.00
762.659,1280.75
763.630,1259.75
764.600,1258.50
765.570,1278.50
766.540,1254.25
767.510,1209.50
768.480,1286.75
769.450,1268.25
770.420,1204.75
771.390,1235.75
772.359,1237.25
773.329,1232.00
774.300,1215.00
775.269,1196.75
776.238,1204.75
777.207,1215.00
778.176,1223.75
779.145,1216.00
780.114,1231.25
781.083,1257.75
782.051,1173.50
783.019,1229.00
783.988,1170.75
784.956,1180.50
785.924,1257.00
786.894,1214.00
787.862,1224.25
788.830,1175.00
789.797,1188.50
790.765,1213.50
791.732,1195.50
792.700,1191.25
793.667,1144.25
794.634,1146.25
795.601,1197.50
796.568,1164.50
797.535,1142.25
798.502,1166.00
799.468,1152.25
800.437,1179.50
801.403,1153.00
802.370,1144.00
803.336,1121.50
804.302,1162.25
805.268,1147.25
806.234,1167.50
807.200,1169.25
808.166,1083.50
809.131,1128.00
810.097,1157.75
811.062,1118.50
812.027,1111.75
812.994,1124.75
813.960,1131.00
814.925,1129.25
815.889,1134.75
816.854,1136.75
817.819,1139.00
818.783,1088.50
819.748,1145.25
820.712,1120.00
821.677,1128.25
822.641,1178.75
823.605,1089.75
824.571,1103.25
825.534,1090.75
826.498,1138.25
827.462,1118.75
828.425,1099.00
829.389,1136.50
830.352,1147.25
831.315,1124.75
832.279,1139.00
833.242,1086.25
834.204,1125.00
835.167,1100.50
836.132,1090.00
837.095,1110.75
838.057,1075.50
839.020,1094.75
839.982,1133.50
840.944,1127.25
841.906,1104.25
842.868,1119.50
843.830,1071.00
844.792,1106.75
845.753,1070.25
846.715,1135.25
847.679,1092.00
848.640,1064.50
849.601,1088.00
850.562,1096.25
851.523,1141.25
852.484,1105.00
853.445,1101.25
854.406,1108.50
855.367,1058.75
856.327,1111.75
857.288,1080.75
858.248,1098.75
859.210,1129.75
860.170,1067.25
861.130,1097.00
862.090,1118.25
863.050,1078.00
864.010,1128.50
864.969,1079.00
865.929,1101.25
866.888,1118.00
867.848,1106.00
868.807,1152.00
869.766,1117.25
870.727,1080.25
871.686,1112.00
872.645,1127.75
873.604,1109.75
874.562,1089.75
875.521,1131.50
876.479,1089.75
877.437,1062.50
878.396,1118.00
879.354,1128.00
880.312,1107.25
881.270,1140.75
882.229,1072.75
883.187,1072.00
884.145,1097.00
885.102,1110.25
886.059,1087.75
887.017,1136.00
887.974,1161.25
888.931,1143.75
889.888,1102.75
890.845,1132.25
891.802,1138.75
892.758,1145.25
893.717,1102.00
894.673,1130.00
895.630,1107.75
896.586,1109.25
897.542,1149.75
898.498,1136.00
899.454,1138.75
900.410,1116.00
901.366,1072.50
902.321,1093.75
903.277,1145.50
904.232,1169.75
905.189,1159.00
906.145,1140.25
907.100,1141.25
908.055,1083.00
909.010,1119.00
909.965,1155.00
910.919,1124.00
911.874,1178.25
912.828,1112.25
913.783,1166.75
914.737,1148.50
915.693,1156.00
916.648,1147.00
917.602,1169.00
918.555,1186.00
919.509,1143.25
920.463,1141.75
921.417,1149.25
922.370,1131.25
923.324,1128.50
924.277,1119.25
925.230,1143.75
926.183,1187.25
927.138,1135.25
928.091,1162.50
929.044,1155.25
929.996,1151.00
930.949,1124.25
931.902,1170.75
932.854,1139.50
933.806,1165.75
934.758,1146.75
935.711,1112.75
936.663,1169.50
937.614,1189.50
938.568,1146.25
939.520,1146.50
940.471,1146.50
941.423,1162.25
942.374,1165.50
943.326,1150.75
944.277,1096.50
945.228,1151.75
946.179,1126.50
947.130,1160.50
948.080,1140.50
949.031,1088.25
949.984,1144.75
950.934,1104.75
951.884,1114.25
952.835,1133.50
953.785,1128.75
954.735,1138.00
955.685,1122.25
956.635,1146.25
957.585,1131.75
958.534,1142.00
959.484,1081.00
960.433,1115.25
961.383,1113.00
962.334,1122.75
963.283,1145.25
964.232,1114.50
965.181,1141.00
966.130,1094.75
967.079,1102.75
968.027,1104.00
968.976,1121.50
969.924,1085.25
970.873,1072.50
971.821,1116.00
972.769,1102.50
973.719,1118.75
974.667,1087.75
975.615,1062.75
976.562,1075.25
977.510,1097.00
978.458,1110.25
979.405,1111.00
980.352,1082.25
981.300,1118.00
982.247,1057.50
983.194,1077.75
984.141,1119.75
985.088,1057.00
986.036,1097.50
986.983,1111.50
987.930,1073.00
988.876,1102.00
989.822,1065.25
990.769,1077.25
991.715,1061.00
992.661,1084.25
993.607,1075.50
994.553,1045.50
995.498,1063.75
996.444,1098.50
997.389,1061.75
998.337,1061.50
999.282,1101.25
1000.227,1090.00
1001.173,1074.50
1002.118,1078.50
1003.062,1040.00
1004.007,1048.75
1004.952,1084.50
1005.897,1014.50
1006.841,1059.50
1007.786,1135.25
1008.730,1064.00
1009.674,1085.50
1010.618,1059.75
1011.564,1077.50
1012.508,1053.50
1013.452,1069.50
1014.396,1064.75
1015.339,1094.50
1016.283,1083.75
1017.226,1086.25
1018.170,1084.00
1019.113,1093.50
1020.056,1045.75
1020.999,1098.75
1021.942,1093.00
1022.885,1092.00
1023.828,1072.25
1024.770,1084.50
1025.715,1072.50
1026.657,1074.75
1027.600,1049.75
1028.542,1099.00
1029.484,1090.75
1030.426,1087.75
1031.368,1074.25
1032.310,1069.25
1033.251,1050.25
1034.193,1119.50
1035.135,1065.75
1036.076,1085.25
1037.017,1104.00
1037.959,1090.50
1038.900,1050.25
1039.843,1121.75
1040.784,1082.25
1041.725,1107.25
1042.665,1075.75
1043.606,1115.00
1044.547,1067.00
1045.487,1082.25
1046.427,1110.00
1047.368,1058.75
1048.308,1091.25
1049.248,1050.50
1050.188,1129.00
1051.128,1104.00
1052.067,1105.00
1053.007,1092.25
1053.947,1119.25
1054.886,1140.25
1055.827,1084.00
1056.766,1102.50
1057.706,1128.75
1058.645,1071.75
1059.584,1112.25
1060.522,1102.25
1061.461,1116.75
1062.400,1130.00
1063.338,1145.00
1064.277,1137.00
1065.215,1116.25
1066.154,1099.25
1067.092,1132.50
1068.030,1168.75
1068.968,1150.00
1069.906,1136.00
1070.843,1128.00
1071.781,1112.25
1072.720,1147.00
1073.658,1156.00
1074.595,1127.75
1075.533,1137.00
1076.470,1156.25
1077.407,1148.50
1078.344,1151.75
1079.281,1110.25
1080.217,1144.50
1081.154,1165.50
1082.091,1126.50
1083.027,1191.25
1083.964,1127.25
1084.900,1108.25
1085.836,1172.75
1086.772,1125.75
1087.708,1109.25
1088.644,1107.00
1089.580,1153.00
1090.515,1170.25
1091.451,1137.75
1092.388,1135.00
1093.324,1137.25
1094.259,1111.25
1095.194,1159.75
1096.129,1134.25
1097.064,1165.25
1097.999,1155.00
1098.934,1103.75
1099.869,1133.00
1100.803,1116.50
1101.738,1112.00
1102.672,1090.25
1103.607,1120.00
1104.541,1113.50
1105.475,1129.25
1106.409,1066.75
1107.343,1082.75
1108.277,1041.50
1109.210,1097.50
1110.144,1104.50
1111.078,1098.25
1112.011,1057.50
1112.944,1072.50
1113.878,1067.50
1114.811,1056.25
1115.744,1118.50
1116.678,1105.75
1117.611,1071.50
1118.544,1056.75
1119.477,1050.00
1120.409,1015.25
1121.342,1046.75
1122.274,1096.25
1123.206,988.25
1124.138,1079.25
1125.070,1049.75
1126.002,1008.50
1126.934,1057.25
1127.866,1003.25
1128.798,989.25
1129.729,995.00
1130.661,997.00
1131.592,1010.25
1132.523,964.00
1133.454,967.50
1134.385,996.00
1135.317,956.50
1136.247,987.00
1137.178,967.50
1138.109,977.75
1139.039,942.50
1139.970,985.25
1140.900,1003.25
1141.831,978.75
1142.761,969.25
1143.691,978.50
1144.621,921.50
1145.551,968.00
1146.480,932.75
1147.410,983.25
1148.340,918.25
1149.269,946.75
1150.199,999.50
1151.128,977.00
1152.057,962.50
1152.979,953.00
1153.898,944.00
1154.819,945.75
1155.739,989.50
1156.658,920.50
1157.579,993.75
1158.498,1002.50
1159.419,927.00
1160.338,963.75
1161.256,913.75
1162.177,904.00
1163.095,911.50
1164.016,910.50
1164.934,942.25
1165.852,921.75
1166.772,977.50
1167.690,924.25
1168.610,874.25
1169.528,931.75
1170.446,894.00
1171.365,875.00
1172.283,935.00
1173.202,915.50
1174.120,927.00
1175.037,933.50
1175.956,882.50
1176.873,908.00
1177.792,932.75
1178.709,937.50
1179.626,975.50
1180.544,887.50
1181.461,896.50
1182.379,910.00
1183.296,892.25
1184.212,930.75
1185.130,879.50
1186.046,915.25
1186.962,894.75
1187.880,900.25
1188.796,908.00
1189.714,883.75
1190.629,860.00
1191.545,913.75
1192.462,894.50
1193.378,926.50
1194.295,932.75
1195.210,896.50
1196.125,937.00
1197.042,900.25
1197.957,897.00
1198.872,907.50
1199.788,890.75
1200.703,923.25
1201.619,897.00
1202.534,902.75
1203.448,897.25
1204.364,959.00
1205.278,915.25
1206.192,943.50
1207.108,914.75
1208.022,884.25
1208.938,894.25
1209.851,932.00
1210.765,909.50
1211.680,924.25
1212.594,924.75
1213.507,919.50
1214.422,925.50
1215.335,851.75
1216.248,915.00
1217.163,971.25
1218.076,895.75
1218.990,905.00
1219.903,928.50
1220.816,895.25
1221.730,908.50
1222.642,919.75
1223.554,902.50
1224.469,921.50
1225.380,906.00
1226.292,909.75
1227.206,903.00
1228.118,917.75
1229.032,912.75
1229.943,935.75
1230.855,920.00
1231.768,961.50
1232.679,915.75
1233.590,922.00
1234.503,947.25
1235.414,970.50
1236.325,929.50
1237.238,961.75
1238.149,961.75
1239.059,959.00
1239.972,919.00
1240.882,1003.00
1241.793,983.00
1242.705,920.50
1243.615,937.25
1244.525,952.50
1245.437,950.25
1246.347,970.25
1247.259,979.50
1248.168,946.25
1249.078,924.50
1249.989,908.00
1250.899,950.00
1251.808,968.75
1252.719,926.25
1253.628,971.50
1254.537,941.75
1255.448,1008.50
1256.357,951.50
1257.266,933.50
1258.176,939.50
1259.085,949.00
1259.993,988.25
1260.904,951.75
1261.812,985.50
1262.720,953.75
1263.630,970.75
1264.538,976.00
1265.446,950.25
1266.356,937.50
1267.263,964.00
1268.171,988.50
1269.080,968.75
1269.988,961.50
1270.895,934.25
1271.804,932.75
1272.711,929.50
1273.619,940.75
1274.527,943.50
1275.434,953.25
1276.341,938.25
1277.248,955.25
1278.156,961.25
1279.063,964.25
1279.969,938.75
1280.877,922.25
1281.783,944.75
1282.690,925.00
1283.598,940.00
1284.503,943.25
1285.409,947.25
1286.317,972.25
1287.223,918.25
1288.128,911.50
1289.036,931.75
1289.941,963.75
1290.846,964.00
1291.751,939.00
1292.658,905.25
1293.563,912.75
1294.468,974.25
1295.375,883.25
1296.280,970.00
1297.184,904.75
1298.091,917.00
1298.995,917.25
1299.900,942.00
1300.806,921.75
1301.710,915.50
1302.614,911.25
1303.518,874.50
1304.424,891.75
1305.327,860.25
1306.231,916.50
1307.137,851.00
1308.040,884.50
1308.943,888.25
1309.847,877.25
1310.752,878.50
1311.655,865.00
1312.558,898.00
1313.463,882.00
1314.366,876.00
1315.269,874.75
1316.171,875.75
1317.076,864.25
1317.978,881.50
1318.881,814.75
1319.785,827.00
1320.687,870.50
1321.589,855.50
1322.491,851.50
1323.395,852.25
1324.297,842.00
1325.198,877.75
1326.102,828.75
1327.004,820.25
1327.905,804.00
1328.806,841.75
1329.709,795.75
1330.611,832.00
1331.512,823.50
1332.413,800.50
1333.316,805.00
1334.216,841.50
1335.117,798.50
1336.020,821.00
1336.920,811.50
1337.821,804.75
1338.721,815.25
1339.623,774.25
1340.523,793.75
1341.423,751.00
1342.323,763.25
1343.225,783.25
1344.125,789.50
1345.025,766.75
1345.924,793.50
1346.826,784.50
1347.725,757.00
1348.624,829.75
1349.524,768.75
1350.425,764.50
1351.324,793.00
1352.223,839.50
1353.121,768.50
1354.022,741.50
1354.921,782.50
1355.819,748.50
1356.718,707.00
1357.618,775.50
1358.516,711.50
1359.415,738.50
1360.313,735.25
1361.213,768.75
1362.111,701.75
1363.008,747.50
1363.906,721.25
1364.806,713.00
1365.703,754.75
1366.601,726.25
1367.498,710.75
1368.397,732.25
1369.295,700.75
1370.192,676.25
1371.089,706.00
1371.987,718.50
1372.884,717.75
1373.781,715.00
1374.678,695.00
1375.574,694.25
1376.473,757.50
1377.369,686.00
1378.265,677.75
1379.161,718.50
1380.059,690.00
1380.955,704.75
1381.851,694.50
1382.747,678.25
1383.643,658.50
1384.540,672.75
1385.436,671.25
1386.331,710.25
1387.227,675.75
1388.124,673.50
1389.019,698.00
1389.914,681.50
1390.809,684.25
1391.704,627.75
1392.601,668.25
1393.495,665.75
1394.390,690.75
1395.285,677.00
1396.179,674.25
1397.075,642.25
1397.969,657.75
1398.864,617.25
1399.758,638.75
1400.652,637.00
1401.547,649.75
1402.441,623.25
1403.335,629.25
1404.229,634.75
1405.122,645.50
1406.017,653.75
1406.911,643.00
1407.804,644.75
1408.697,650.00
1409.590,624.25
1410.485,633.25
1411.378,629.50
1412.271,640.25
1413.163,649.50
1414.056,628.75
1414.949,625.00
1415.843,637.25
1416.735,600.00
1417.627,625.50
1418.520,637.00
1419.412,616.25
1420.306,659.75
1421.197,628.75
1422.089,665.50
1422.981,631.25
1423.873,649.00
1424.764,631.75
1425.657,588.00
1426.549,651.25
1427.440,614.25
1428.331,549.25
1429.222,636.75
1430.113,636.00
1431.006,588.25
1431.897,596.50
1432.787,595.75
1433.678,620.25
1434.568,577.75
1435.459,597.75
1436.351,632.50
1437.241,581.75
1438.131,631.00
1439.021,595.50
1439.911,582.75
1440.801,634.00
1441.693,607.75
1442.583,593.00
1443.472,552.25
1444.362,562.25
1445.251,610.25
1446.140,592.25
1447.030,573.00
1447.921,616.25
1448.810,595.00
1449.699,551.75
1450.588,607.00
1451.476,584.25
1452.365,577.25
1453.254,609.25
1454.144,566.75
1455.032,555.50
1455.921,618.00
1456.809,579.00
1457.697,551.75
1458.585,600.00
1459.473,594.75
1460.361,559.75
1461.251,562.50
1462.138,589.00
1463.026,570.25
1463.913,565.25
1464.801,557.00
1465.688,533.00
1466.575,553.00
1467.463,548.75
1468.351,549.25
1469.238,584.00
1470.125,566.50
1471.012,564.25
1471.899,551.25
1472.785,568.50
1473.672,602.50
1474.558,592.00
1475.446,596.75
1476.333,533.75
1477.219,571.50
1478.105,540.75
1478.991,584.25
1479.877,580.75
1480.762,557.75
1481.648,525.50
1482.534,558.00
1483.419,589.25
1484.307,543.00
1485.192,555.25
1486.077,538.50
1486.962,539.50
1487.847,516.25
1488.732,522.50
1489.617,533.75
1490.502,558.00
1491.387,550.50
1492.271,543.25
1493.156,547.25
1494.042,506.25
1494.927,550.75
1495.811,566.25
1496.695,587.25
1497.579,548.50
1498.463,507.00
1499.347,504.25
1500.231,504.75
1501.114,555.25
1501.998,576.00
1502.881,496.50
1503.765,522.75
1504.648,521.00
1505.533,533.25
1506.417,523.25
1507.300,532.75
1508.183,549.25
1509.066,543.25
1509.948,526.00
1510.831,515.25
1511.714,538.00
1512.596,510.00
1513.479,475.75
1514.361,528.75
1515.243,508.25
1516.125,530.50
1517.008,542.50
1517.890,479.50
1518.771,522.75
1519.655,508.00
1520.537,532.50
1521.419,544.00
1522.300,516.25
1523.182,494.25
1524.063,478.00
1524.944,500.25
1525.825,531.00
1526.707,552.00
1527.588,540.00
1528.468,490.75
1529.349,500.25
1530.230,495.25
1531.111,469.50
1531.991,520.75
1532.872,494.50
1533.752,499.50
1534.632,473.25
1535.513,457.75
1536.393,528.75
1537.273,457.50
1538.153,491.25
1539.032,495.75
1539.912,547.00
1540.792,508.00
1541.672,493.75
1542.551,514.00
1543.430,494.00
1544.310,463.50
1545.189,518.75
1546.068,503.00
1546.947,490.25
1547.826,522.25
1548.705,529.50
1549.584,502.75
1550.462,490.00
1551.341,500.25
1552.219,526.00
1553.098,525.50
1553.976,496.00
1554.854,459.50
1555.733,540.00
1556.611,510.25
1557.489,505.75
1558.367,499.75
1559.244,473.75
1560.122,465.50
1561.000,452.50
1561.877,493.25
1562.755,476.00
1563.632,516.75
1564.509,511.75
1565.386,525.50
1566.264,479.25
1567.141,469.50
1568.017,506.00
1568.894,465.00
1569.771,469.25
1570.648,471.50
1571.524,456.25
1572.401,455.75
1573.277,507.25
1574.153,508.25
1575.029,451.25
1575.906,445.75
1576.781,476.25
1577.657,506.75
1578.533,494.00
1579.409,489.00
1580.285,480.00
1581.160,433.25
1582.036,456.00
1582.911,462.50
1583.786,508.00
1584.662,498.50
1585.537,465.25
1586.412,437.75
1587.287,481.00
1588.160,509.00
1589.035,485.75
1589.909,465.00
1590.784,435.00
1591.658,444.50
1592.533,485.50
1593.407,471.75
1594.281,445.25
1595.155,503.25
1596.029,438.50
1596.903,518.50
1597.777,517.00
1598.651,496.25
1599.525,475.25
1600.398,516.50
1601.272,445.25
1602.144,460.25
1603.017,488.25
1603.890,420.25
1604.763,466.25
1605.636,471.25
1606.509,471.75
1607.382,467.00
1608.255,425.50
1609.128,462.75
1610.000,475.00
1610.873,459.25
1611.746,474.25
1612.616,462.00
1613.488,435.75
1614.361,433.75
1615.233,426.75
1616.105,459.00
1616.977,456.50
1617.849,447.25
1618.720,413.00
1619.592,438.50
1620.464,399.50
1621.333,461.25
1622.205,458.00
1623.076,437.75
1623.947,447.50
1624.818,458.25
1625.689,434.50
1626.560,422.75
1627.431,436.00
1628.302,440.25
1629.171,441.75
1630.042,467.50
1630.912,484.50
1631.782,432.75
1632.653,451.75
1633.523,449.75
1634.393,451.75
1635.263,446.00
1636.131,407.00
1637.001,450.00
1637.871,442.00
1638.741,415.00
1639.611,459.75
1640.480,469.50
1641.350,452.50
1642.219,421.25
1643.087,412.25
1643.956,475.50
1644.825,438.50
1645.694,457.75
1646.563,436.75
1647.432,427.00
1648.299,460.50
1649.167,471.75
1650.036,438.75
1650.904,403.75
1651.773,431.25
1652.641,456.25
1653.509,464.50
1654.376,459.00
1655.244,471.00
1656.112,452.75
1656.980,441.00
1657.847,446.50
1658.715,418.75
1659.581,459.00
1660.448,424.50
1661.316,416.50
1662.183,441.50
1663.051,422.00
1663.918,434.25
1664.783,418.25
1665.650,423.50
1666.517,428.75
1667.384,437.50
1668.251,428.25
1669.115,463.75
1669.982,406.50
1670.849,459.50
1671.715,432.50
1672.581,398.25
1673.446,426.75
1674.312,420.25
1675.178,440.25
1676.044,443.25
1676.910,416.25
1677.774,460.00
1678.639,432.75
1679.505,438.75
1680.370,399.25
1681.236,413.75
1682.099,433.25
1682.965,439.75
1683.830,425.75
1684.695,473.75
1685.560,427.00
1686.423,429.00
1687.288,408.75
1688.153,416.75
1689.017,464.00
1689.880,405.50
1690.745,399.50
1691.609,438.00
1692.473,450.00
1693.338,455.50
1694.200,436.75
1695.064,419.25
1695.928,434.75
1696.792,394.50
1697.654,385.50
1698.517,401.00
1699.381,418.00
1700.245,391.25
1701.106,392.75
1701.969,401.25
1702.833,435.50
1703.696,421.50
1704.557,408.50
1705.420,428.75
1706.283,446.75
1707.146,364.50
1708.007,419.75
1708.870,427.50
1709.732,403.25
1710.595,432.75
1711.455,423.50
1712.318,408.75
1713.180,462.75
1714.040,414.00
1714.902,406.75
1715.764,406.50
1716.626,377.25
1717.486,433.00
1718.348,425.50
1719.209,1197.25
1720.071,433.00
1720.930,488.50
1721.792,417.50
1722.653,423.25
1723.512,397.25
1724.374,405.50
1725.234,378.75
1726.095,431.75
1726.954,389.75
1727.815,449.00
1728.676,413.75
1729.535,420.50
1730.395,451.50
1731.256,366.00
1732.114,391.75
1732.974,417.00
1733.834,393.75
1734.693,428.50
1735.553,399.50
1736.413,421.50
1737.272,405.50
1738.130,409.25
1738.990,370.50
1739.849,415.00
1740.707,375.50
1741.566,391.50
1742.426,439.50
1743.283,443.00
1744.142,371.25
1745.001,395.25
1745.858,385.50
1746.717,400.00
1747.576,404.00
1748.433,401.75
1749.292,382.00
1750.150,398.25
1751.007,453.75
1751.865,435.50
1752.723,414.75
1753.579,415.50
1754.438,443.00
1755.296,408.00
1756.152,410.00
1757.010,380.50
1757.865,396.50
1758.723,411.50
1759.581,399.25
1760.436,379.00
1761.294,438.50
1762.151,428.25
1763.006,379.50
1763.864,392.00
1764.721,412.25
1765.576,404.25
1766.433,429.25
1767.288,425.75
1768.144,381.75
1769.001,392.75
1769.856,396.00
1770.712,377.75
1771.568,386.00
1772.423,421.75
1773.279,402.75
1774.133,435.75
1774.989,408.25
1775.845,413.75
1776.699,409.25
1777.555,389.25
1778.409,450.75
1779.265,379.75
1780.120,405.25
1780.974,415.50
1781.829,404.75
1782.682,397.25
1783.538,387.75
1784.393,406.75
1785.246,400.25
1786.101,401.50
1786.954,415.50
1787.808,406.50
1788.661,406.25
1789.516,386.25
1790.370,341.75
1791.223,428.25
1792.077,386.50
1792.930,385.25
1793.784,428.00
1794.636,409.25
1795.490,380.00
1796.344,403.25
1797.196,377.00
1798.049,393.75
1798.901,401.00
1799.755,375.25
1800.606,373.50
1801.460,362.25
1802.311,375.75
1803.165,374.75
1804.018,361.50
1804.869,402.00
1805.722,364.00
1806.573,390.25
1807.426,385.50
1808.276,372.50
1809.129,363.25
1809.980,370.75
1810.832,381.75
1811.683,368.00
1812.535,388.50
1813.385,429.75
1814.237,332.75
1815.089,427.50
1815.940,381.50
1816.791,372.25
1817.641,413.25
1818.493,437.00
1819.343,362.00
1820.194,384.25
1821.044,376.75
1821.895,361.50
1822.745,399.00
1823.596,387.50
1824.445,388.25
1825.296,331.50
1826.145,415.50
1826.996,366.25
1827.845,365.25
1828.695,334.00
1829.544,352.75
1830.395,368.00
1831.243,377.75
1832.094,385.50
1832.942,349.00
1833.792,357.75
1834.640,375.75
1835.490,350.25
1836.338,389.75
1837.186,375.25
1838.036,383.00
1838.884,409.50
1839.733,385.75
1840.581,401.00
1841.430,388.75
1842.278,346.00
1843.127,439.50
1843.974,371.75
1844.823,425.50
1845.671,376.25
1846.519,369.75
1847.366,407.00
1848.213,347.50
1849.062,360.50
1849.909,384.00
1850.757,361.75
1851.604,327.50
1852.452,340.75
1853.298,403.75
1854.146,397.50
1854.993,409.00
1855.839,403.50
1856.687,359.75
1857.532,352.75
1858.380,359.75
1859.226,332.25
1860.073,391.25
1860.919,379.50
1861.765,363.25
1862.612,353.00
1863.457,354.50
1864.304,361.75
1865.150,359.25
1865.995,366.00
1866.842,408.50
1867.686,362.50
1868.533,390.00
1869.378,345.00
1870.223,336.50
1871.069,389.00
1871.914,371.75
1872.760,403.50
1873.604,374.25
1874.448,357.50
1875.294,345.50
1876.139,389.25
1876.984,381.00
1877.828,401.25
1878.672,362.50
1879.518,396.75
1880.361,401.50
1881.205,397.75
1882.050,414.75
1882.894,358.25
1883.739,376.75
1884.582,405.75
1885.425,359.00
1886.270,389.00
1887.113,387.75
1887.956,361.00
1888.801,365.00
1889.644,322.75
1890.486,360.50
1891.331,352.50
1892.173,378.25
1893.017,371.25
1893.860,329.00
1894.702,339.50
1895.546,369.75
1896.388,356.00
1897.230,357.75
1898.074,336.75
1898.916,366.75
1899.757,380.75
1900.601,365.00
1901.443,352.75
1902.284,382.00
1903.125,340.75
1903.969,400.00
1904.810,338.75
1905.651,355.50
1906.494,357.50
1907.335,409.75
1908.176,355.75
1909.018,386.50
1909.859,327.75
1910.700,338.50
1911.542,438.00
1912.383,369.25
1913.223,384.25
1914.064,388.25
1914.906,386.75
1915.746,399.75
1916.586,402.00
1917.428,373.25
1918.268,331.50
1919.107,355.25
1919.947,369.50
1920.789,359.75
1921.628,382.25
1922.468,324.25
1923.309,340.75
1924.148,373.50
1924.988,332.75
1925.827,349.50
1926.667,317.00
1927.507,375.25
1928.345,339.75
1929.184,366.75
1930.025,349.75
1930.864,380.50
1931.702,417.25
1932.541,338.25
1933.381,368.25
1934.219,333.00
1935.057,347.50
1935.896,347.00
1936.735,376.25
1937.573,357.00
1938.411,327.75
1939.249,392.25
1940.089,345.25
1940.927,361.25
1941.764,353.00
1942.602,385.00
1943.439,391.00
1944.278,381.25
1945.115,362.00
1945.953,370.25
1946.790,355.25
1947.628,328.50
1948.465,381.50
1949.302,338.50
1950.139,325.25
1950.976,340.75
1951.814,367.50
1952.651,403.50
1953.487,360.50
1954.323,371.25
1955.160,409.00
1955.998,343.50
1956.834,290.25
1957.670,349.25
1958.506,367.00
1959.342,333.50
1960.177,397.50
1961.015,365.75
1961.850,385.75
1962.686,322.50
1963.521,373.25
1964.357,328.25
1965.192,361.75
1966.029,346.25
1966.864,398.50
1967.699,316.00
1968.534,375.25
1969.369,328.00
1970.204,388.00
1971.040,365.50
1971.875,327.75
1972.709,387.00
1973.544,335.50
1974.378,369.75
1975.212,353.25
1976.047,373.00
1976.882,334.75
1977.716,365.00
1978.550,324.75
1979.384,342.75
1980.218,358.50
1981.052,373.25
1981.885,358.50
1982.719,334.25
1983.554,355.25
1984.388,341.75
1985.221,354.00
1986.054,343.50
1986.887,340.00
1987.720,344.00
1988.553,369.00
1989.386,343.75
1990.219,348.50
1991.053,323.50
1991.886,350.25
1992.719,328.75
1993.551,314.00
1994.383,325.75
1995.216,360.00
1996.048,365.75
1996.880,394.75
1997.712,319.75
1998.544,371.75
1999.376,321.50
2000.208,349.00
2001.040,348.75
2001.873,317.25
2002.705,366.00
2003.536,332.50
2004.367,360.00
2005.199,329.25
2006.030,354.50
2006.861,352.50
2007.692,345.75
2008.523,350.50
2009.354,370.00
2010.185,327.50
2011.016,358.50
2011.846,337.50
2012.677,342.75
2013.507,342.75
2014.338,314.50
2015.168,336.00
2015.999,373.75
2016.829,328.75
2017.659,322.75
2018.489,372.00
2019.319,339.50
2020.149,338.75
2020.980,366.00
2021.810,327.25
2022.639,306.00
2023.469,358.50
2024.298,388.75
2025.128,362.00
2025.957,341.25
2026.786,345.25
2027.615,325.50
2028.444,345.00
2029.273,390.25
2030.102,337.00
2030.931,382.00
2031.758,358.25
2032.586,335.50
2033.415,355.25
2034.243,414.50
2035.072,367.50
2035.900,324.25
2036.728,342.25
2037.556,380.75
2038.385,374.00
2039.213,366.25
2040.040,374.25
2040.868,349.25
2041.696,316.75
2042.524,333.50
2043.351,340.75
2044.179,374.75
2045.006,358.75
2045.006,358.75

Max Intensity Wave.,215.813
Max Intensity Data,5130.75
Min Intensity Wave.,1956.834
Min Intensity Data,290.25
FWHM Wave.,400.004
FWHM Value,1.06
Pressure Wave.,684.671
Pressure Value [GPa],-24.91530
G/D Ratio,0.58901
G/D Gband Wave.,1555.935
G/D Gband Intensity,542.92
G/D Dband Wave.,1300.806
G/D Dband Intensity,921.75

<< BACKGROUND SPECTRUM >>
Wave[dcm-1],No144
146.591,2322.00
147.626,2165.00
148.664,2111.00
149.699,2603.00
150.737,2329.00
151.772,2468.00
152.809,2451.00
153.846,2375.00
154.881,2495.00
155.918,1979.00
156.953,2352.00
157.989,2678.00
159.026,2531.00
160.060,2722.00
161.096,2938.00
162.130,2565.00
163.167,2640.00
164.200,2490.00
165.236,2708.00
166.272,2716.00
167.305,2322.00
168.341,2593.00
169.374,2876.00
170.409,2864.00
171.445,2776.00
172.477,2601.00
173.512,2466.00
174.545,2740.00
175.580,2941.00
176.614,3116.00
177.647,2875.00
178.681,3149.00
179.713,3432.00
180.747,2851.00
181.781,2813.00
182.813,3055.00
183.847,3170.00
184.878,2781.00
185.912,3070.00
186.945,3223.00
187.976,3127.00
189.010,2785.00
190.043,2978.00
191.073,3012.00
192.106,2822.00
193.137,3323.00
194.170,2610.00
195.202,3013.00
196.232,2744.00
197.265,3101.00
198.297,3167.00
199.327,2837.00
200.359,3026.00
201.388,3445.00
202.420,2982.00
203.452,3226.00
204.481,2771.00
205.512,3433.00
206.544,3162.00
207.573,3117.00
208.604,3485.00
209.635,3599.00
210.663,3067.00
211.694,3076.00
212.725,2943.00
213.753,2867.00
214.783,3474.00
215.813,3282.00
216.841,3108.00
217.871,3275.00
218.899,2986.00
219.929,3225.00
220.959,2965.00
221.986,3249.00
223.016,2839.00
224.045,3237.00
225.072,3199.00
226.101,3302.00
227.130,3323.00
228.157,2910.00
229.185,2419.00
230.214,3271.00
231.241,2908.00
232.269,2482.00
233.297,2781.00
234.323,3322.00
235.351,2898.00
236.379,3193.00
237.407,2837.00
238.433,3042.00
239.460,3165.00
240.488,3244.00
241.513,3287.00
242.540,3206.00
243.568,3264.00
244.592,3334.00
245.619,3320.00
246.646,3026.00
247.671,3036.00
248.697,2872.00
249.724,3120.00
250.748,3104.00
251.774,3101.00
252.801,3408.00
253.827,3205.00
254.850,3153.00
255.876,2760.00
256.902,3246.00
257.925,3084.00
258.951,2806.00
259.976,2855.00
260.999,3173.00
262.024,2880.00
263.049,3709.00
264.074,3204.00
265.097,3118.00
266.122,3142.00
267.146,3096.00
268.168,3299.00
269.193,2913.00
270.217,3329.00
271.241,2784.00
272.263,2952.00
273.287,3274.00
274.311,2871.00
275.332,3423.00
276.356,2933.00
277.379,3205.00
278.402,3252.00
279.424,2995.00
280.447,2951.00
281.470,2819.00
282.492,3178.00
283.513,2968.00
284.536,3266.00
285.558,3242.00
286.581,3174.00
287.601,2925.00
288.623,2848.00
289.645,3177.00
290.665,3180.00
291.687,3261.00
292.709,3198.00
293.730,3492.00
294.750,2971.00
295.771,2876.00
296.792,3175.00
297.813,3004.00
298.832,3117.00
299.853,2819.00
300.874,3084.00
301.895,3079.00
302.913,3021.00
303.934,3375.00
304.954,3131.00
305.975,3249.00
306.993,2799.00
308.013,3178.00
309.033,3094.00
310.052,3014.00
311.072,2955.00
312.090,3127.00
313.109,3344.00
314.129,3516.00
315.148,3097.00
316.165,3151.00
317.184,3302.00
318.203,2848.00
319.222,2800.00
320.238,3238.00
321.257,2907.00
322.275,2772.00
323.294,3041.00
324.312,3213.00
325.328,3388.00
326.346,3390.00
327.364,3313.00
328.382,3218.00
329.397,3186.00
330.415,3345.00
331.432,3332.00
332.450,3302.00
333.467,3524.00
334.482,2653.00
335.499,3395.00
336.516,2988.00
337.533,2625.00
338.547,2916.00
339.564,2931.00
340.580,3167.00
341.597,3056.00
342.613,3562.00
343.627,3076.00
344.643,3139.00
345.659,3219.00
346.675,3080.00
347.690,2964.00
348.704,3201.00
349.719,2978.00
350.735,2827.00
351.750,3252.00
352.765,3080.00
353.778,3066.00
354.793,3221.00
355.808,2906.00
356.822,3249.00
357.837,2700.00
358.851,3377.00
359.864,3035.00
360.878,2812.00
361.892,3058.00
362.906,3213.00
363.920,2691.00
364.932,3226.00
365.945,3157.00
366.959,3068.00
367.972,3047.00
368.986,2786.00
369.999,3488.00
371.010,2967.00
372.023,3457.00
373.036,3067.00
374.049,3437.00
375.061,3164.00
376.072,3035.00
377.084,2934.00
378.097,2751.00
379.109,3266.00
380.121,3068.00
381.133,2746.00
382.143,3248.00
383.155,2811.00
384.166,2940.00
385.178,3188.00
386.189,3276.00
387.201,2781.00
388.212,2978.00
389.221,2964.00
390.232,3088.00
391.243,3012.00
392.254,3115.00
393.264,2892.00
394.275,3321.00
395.283,3268.00
396.294,3716.00
397.304,3571.00
398.314,3216.00
399.324,3122.00
400.334,2736.00
401.344,3252.00
402.351,2779.00
403.361,3308.00
404.370,3057.00
405.380,3008.00
406.389,3445.00
407.398,3258.00
408.407,3208.00
409.414,3214.00
410.423,3421.00
411.431,2827.00
412.440,2736.00
413.448,3400.00
414.457,2968.00
415.465,2867.00
416.471,2963.00
417.479,3128.00
418.487,2888.00
419.495,3381.00
420.503,3195.00
421.510,2643.00
422.518,3209.00
423.525,3276.00
424.530,3466.00
425.537,3018.00
426.544,3339.00
427.551,2958.00
428.558,3709.00
429.565,3521.00
430.571,2965.00
431.578,2983.00
432.582,2980.00
433.588,3098.00
434.595,2682.00
435.601,3402.00
436.607,3326.00
437.612,2801.00
438.618,3441.00
439.624,3021.00
440.627,3049.00
441.633,3241.00
442.638,3674.00
443.643,3158.00
444.648,3103.00
445.653,3270.00
446.658,2994.00
447.663,3137.00
448.667,2973.00
449.672,2995.00
450.674,3020.00
451.678,2789.00
452.682,2966.00
453.687,2922.00
454.690,3679.00
455.694,3376.00
456.698,2626.00
457.702,2736.00
458.705,2881.00
459.709,2859.00
460.710,2929.00
461.713,3100.00
462.716,3129.00
463.719,3071.00
464.722,3278.00
465.725,3055.00
466.727,2917.00
467.730,3139.00
468.732,2830.00
469.735,3357.00
470.737,2998.00
471.737,2955.00
472.739,2971.00
473.741,2896.00
474.742,3107.00
475.744,3176.00
476.746,3114.00
477.747,3026.00
478.748,3185.00
479.750,3022.00
480.751,3105.00
481.752,3820.00
482.753,3157.00
483.751,3659.00
484.752,2656.00
485.753,3043.00
486.753,2952.00
487.753,3058.00
488.754,3571.00
489.754,2793.00
490.754,3438.00
491.754,3193.00
492.754,2737.00
493.753,3103.00
494.753,2983.00
495.752,3396.00
496.752,3143.00
497.749,3067.00
498.748,2951.00
499.747,3443.00
500.746,3172.00
501.745,2814.00
502.744,2830.00
503.742,3414.00
504.741,3003.00
505.739,2564.00
506.737,2945.00
507.735,3261.00
508.734,3476.00
509.732,3202.00
510.729,3445.00
511.727,2967.00
512.725,2987.00
513.720,2833.00
514.718,3333.00
515.715,2750.00
516.712,2707.00
517.709,3067.00
518.706,2958.00
519.703,3123.00
520.700,3264.00
521.696,3470.00
522.693,2971.00
523.689,2932.00
524.686,3262.00
525.682,2832.00
526.678,3545.00
527.674,2991.00
528.670,2665.00
529.666,3577.00
530.661,3552.00
531.657,3207.00
532.652,3231.00
533.648,3107.00
534.641,3298.00
535.636,3165.00
536.631,3151.00
537.626,3222.00
538.621,2783.00
539.616,2633.00
540.610,2607.00
541.605,3099.00
542.599,3125.00
543.593,3042.00
544.587,4019.00
545.581,2946.00
546.575,3115.00
547.569,3135.00
548.563,2741.00
549.557,2706.00
550.550,2832.00
551.543,2779.00
552.537,3242.00
553.530,2862.00
554.523,2825.00
555.516,3165.00
556.509,2974.00
557.502,2709.00
558.494,3245.00
559.487,3015.00
560.479,3275.00
561.472,3349.00
562.464,3218.00
563.456,3367.00
564.448,3019.00
565.440,3082.00
566.432,3483.00
567.423,2937.00
568.415,2955.00
569.404,3187.00
570.396,2856.00
571.387,3183.00
572.378,3035.00
573.369,4078.00
574.360,3770.00
575.351,3020.00
576.341,2906.00
577.332,2911.00
578.323,2741.00
579.313,2932.00
580.303,3317.00
581.293,3276.00
582.283,3042.00
583.273,3183.00
584.263,3072.00
585.253,3186.00
586.243,3237.00
587.232,2709.00
588.222,3022.00
589.211,3257.00
590.200,3140.00
591.189,3014.00
592.178,3047.00
593.167,3464.00
594.156,3354.00
595.145,2948.00
596.133,3572.00
597.122,3174.00
598.110,3241.00
599.098,3145.00
600.086,3025.00
601.074,3244.00
602.062,2893.00
603.050,2815.00
604.038,3155.00
605.025,2855.00
606.013,3276.00
607.000,3482.00
607.987,3135.00
608.975,3119.00
609.962,2823.00
610.949,3265.00
611.936,3309.00
612.922,3290.00
613.909,2767.00
614.895,3478.00
615.882,2931.00
616.868,3087.00
617.854,2841.00
618.841,3110.00
619.826,3172.00
620.812,3030.00
621.798,2863.00
622.784,3274.00
623.769,3168.00
624.755,2781.00
625.740,3149.00
626.725,2774.00
627.711,2953.00
628.698,3149.00
629.683,2898.00
630.667,3262.00
631.652,2792.00
632.637,3022.00
633.621,3218.00
634.606,3012.00
635.590,3192.00
636.574,3044.00
637.558,3161.00
638.542,3088.00
639.526,2897.00
640.510,2709.00
641.493,3120.00
642.477,3075.00
643.460,2768.00
644.444,3311.00
645.427,3398.00
646.410,2744.00
647.393,3018.00
648.376,3089.00
649.359,3022.00
650.341,3096.00
651.324,3124.00
652.307,3128.00
653.289,3022.00
654.271,2941.00
655.253,2957.00
656.235,3221.00
657.217,3288.00
658.199,2696.00
659.181,2806.00
660.163,3063.00
661.144,2919.00
662.126,2988.00
663.107,2860.00
664.088,4857.00
665.069,3306.00
666.050,2847.00
667.033,2765.00
668.014,3113.00
668.995,2635.00
669.975,3056.00
670.956,3054.00
671.936,3218.00
672.916,3062.00
673.896,3183.00
674.876,3001.00
675.856,2901.00
676.836,2788.00
677.816,2360.00
678.795,2931.00
679.775,2758.00
680.754,3130.00
681.734,3232.00
682.713,3253.00
683.692,2815.00
684.671,2696.00
685.650,2841.00
686.629,2948.00
687.607,2847.00
688.586,2811.00
689.564,2917.00
690.543,3291.00
691.523,2437.00
692.501,2903.00
693.479,3003.00
694.457,2842.00
695.435,2942.00
696.413,2710.00
697.390,2527.00
698.368,2730.00
699.345,3192.00
700.322,2997.00
701.300,3113.00
702.277,3131.00
703.254,3357.00
704.231,2628.00
705.207,3046.00
706.184,2838.00
707.161,2722.00
708.137,2910.00
709.113,2853.00
710.090,2836.00
711.068,2665.00
712.044,2657.00
713.020,2968.00
713.996,2671.00
714.971,2873.00
715.947,2922.00
716.922,2879.00
717.898,2829.00
718.873,2919.00
719.848,2790.00
720.823,2780.00
721.798,2991.00
722.773,2831.00
723.748,2575.00
724.723,3065.00
725.697,2901.00
726.672,2807.00
727.646,2547.00
728.622,3038.00
729.596,2694.00
730.570,2758.00
731.544,3135.00
732.518,3327.00
733.492,2872.00
734.466,2948.00
735.439,3037.00
736.413,3154.00
737.386,2511.00
738.359,2497.00
739.332,2620.00
740.305,2918.00
741.278,3413.00
742.251,2994.00
743.224,2786.00
744.196,2580.00
745.171,3225.00
746.143,3062.00
747.115,2828.00
748.087,2793.00
749.059,3188.00
750.031,2942.00
751.003,3805.00
751.975,3340.00
752.947,2747.00
753.918,3156.00
754.890,2637.00
755.861,2811.00
756.832,3128.00
757.803,2870.00
758.774,2880.00
759.747,2654.00
760.718,3279.00
761.689,2824.00
762.659,2656.00
763.630,3236.00
764.600,2625.00
765.570,3110.00
766.540,3197.00
767.510,3044.00
768.480,3085.00
769.450,2759.00
770.420,2901.00
771.390,2726.00
772.359,2829.00
773.329,2738.00
774.300,2575.00
775.269,2835.00
776.238,3073.00
777.207,3259.00
778.176,2568.00
779.145,2859.00
780.114,2735.00
781.083,2611.00
782.051,2822.00
783.019,2732.00
783.988,3190.00
784.956,2950.00
785.924,2995.00
786.894,2933.00
787.862,2741.00
788.830,3205.00
789.797,2676.00
790.765,2627.00
791.732,2842.00
792.700,2722.00
793.667,2651.00
794.634,2848.00
795.601,2815.00
796.568,2857.00
797.535,2909.00
798.502,3527.00
799.468,2973.00
800.437,2443.00
801.403,2707.00
802.370,3370.00
803.336,3071.00
804.302,2919.00
805.268,2494.00
806.234,2574.00
807.200,2788.00
808.166,2883.00
809.131,2623.00
810.097,3032.00
811.062,3753.00
812.027,3085.00
812.994,2650.00
813.960,2678.00
814.925,3005.00
815.889,2563.00
816.854,3075.00
817.819,2701.00
818.783,2812.00
819.748,3151.00
820.712,2799.00
821.677,2658.00
822.641,2711.00
823.605,2785.00
824.571,3210.00
825.534,2839.00
826.498,2716.00
827.462,2842.00
828.425,2695.00
829.389,3097.00
830.352,2851.00
831.315,2980.00
832.279,2513.00
833.242,2819.00
834.204,2695.00
835.167,2687.00
836.132,3125.00
837.095,2574.00
838.057,2766.00
839.020,2875.00
839.982,2890.00
840.944,2698.00
841.906,2693.00
842.868,2993.00
843.830,2630.00
844.792,3121.00
845.753,2764.00
846.715,2462.00
847.679,2651.00
848.640,2685.00
849.601,2802.00
850.562,3312.00
851.523,2744.00
852.484,2518.00
853.445,3058.00
854.406,2772.00
855.367,2817.00
856.327,3108.00
857.288,2572.00
858.248,2733.00
859.210,2720.00
860.170,2602.00
861.130,3088.00
862.090,2449.00
863.050,2678.00
864.010,2713.00
864.969,2980.00
865.929,2648.00
866.888,2559.00
867.848,2881.00
868.807,2666.00
869.766,2912.00
870.727,2788.00
871.686,3042.00
872.645,3042.00
873.604,3341.00
874.562,2841.00
875.521,2825.00
876.479,3432.00
877.437,2676.00
878.396,2630.00
879.354,3214.00
880.312,2675.00
881.270,2697.00
882.229,3192.00
883.187,2708.00
884.145,2736.00
885.102,2979.00
886.059,2914.00
887.017,2941.00
887.974,2981.00
888.931,3133.00
889.888,2586.00
890.845,2457.00
891.802,2371.00
892.758,2671.00
893.717,2490.00
894.673,2596.00
895.630,2690.00
896.586,2971.00
897.542,2722.00
898.498,2576.00
899.454,2917.00
900.410,2749.00
901.366,2759.00
902.321,3832.00
903.277,2724.00
904.232,2755.00
905.189,2526.00
906.145,2699.00
907.100,2252.00
908.055,2797.00
909.010,2971.00
909.965,2389.00
910.919,2871.00
911.874,2589.00
912.828,2839.00
913.783,2830.00
914.737,2383.00
915.693,2807.00
916.648,2942.00
917.602,2962.00
918.555,2824.00
919.509,2915.00
920.463,2814.00
921.417,2821.00
922.370,2628.00
923.324,2740.00
924.277,2743.00
925.230,2828.00
926.183,2435.00
927.138,2752.00
928.091,2996.00
929.044,2870.00
929.996,2704.00
930.949,2715.00
931.902,2892.00
932.854,2916.00
933.806,2625.00
934.758,3016.00
935.711,3074.00
936.663,2821.00
937.614,2825.00
938.568,2794.00
939.520,2413.00
940.471,2760.00
941.423,2807.00
942.374,2934.00
943.326,2812.00
944.277,2678.00
945.228,2868.00
946.179,2751.00
947.130,3089.00
948.080,2704.00
949.031,2644.00
949.984,2725.00
950.934,2771.00
951.884,2543.00
952.835,2768.00
953.785,2784.00
954.735,2635.00
955.685,2395.00
956.635,2651.00
957.585,2701.00
958.534,2672.00
959.484,2814.00
960.433,2647.00
961.383,2502.00
962.334,3003.00
963.283,2793.00
964.232,2893.00
965.181,2727.00
966.130,2840.00
967.079,2678.00
968.027,2774.00
968.976,2779.00
969.924,2666.00
970.873,2880.00
971.821,2768.00
972.769,2973.00
973.719,2866.00
974.667,2544.00
975.615,2809.00
976.562,2809.00
977.510,2463.00
978.458,2661.00
979.405,2853.00
980.352,2827.00
981.300,3011.00
982.247,2866.00
983.194,2586.00
984.141,2639.00
985.088,2795.00
986.036,2790.00
986.983,3049.00
987.930,3181.00
988.876,2386.00
989.822,3026.00
990.769,2596.00
991.715,2659.00
992.661,2474.00
993.607,2857.00
994.553,3344.00
995.498,2645.00
996.444,2307.00
997.389,2837.00
998.337,2586.00
999.282,2905.00
1000.227,2679.00
1001.173,2738.00
1002.118,2463.00
1003.062,2977.00
1004.007,2754.00
1004.952,3035.00
1005.897,3008.00
1006.841,2779.00
1007.786,2459.00
1008.730,2492.00
1009.674,3230.00
1010.618,2685.00
1011.564,2542.00
1012.508,2463.00
1013.452,2956.00
1014.396,2761.00
1015.339,2643.00
1016.283,2737.00
1017.226,2799.00
1018.170,2752.00
1019.113,2911.00
1020.056,2791.00
1020.999,2730.00
1021.942,2634.00
1022.885,2885.00
1023.828,3058.00
1024.770,2547.00
1025.715,2805.00
1026.657,2740.00
1027.600,2806.00
1028.542,2945.00
1029.484,2771.00
1030.426,2870.00
1031.368,2845.00
1032.310,2640.00
1033.251,2583.00
1034.193,2727.00
1035.135,2553.00
1036.076,2663.00
1037.017,2540.00
1037.959,2883.00
1038.900,2847.00
1039.843,2806.00
1040.784,2803.00
1041.725,2824.00
1042.665,2674.00
1043.606,2787.00
1044.547,2821.00
1045.487,2431.00
1046.427,2701.00
1047.368,2844.00
1048.308,2267.00
1049.248,2595.00
1050.188,2735.00
1051.128,2646.00
1052.067,2697.00
1053.007,2467.00
1053.947,2427.00
1054.886,2591.00
1055.827,2548.00
1056.766,3019.00
1057.706,2471.00
1058.645,2722.00
1059.584,2771.00
1060.522,3036.00
1061.461,2486.00
1062.400,2511.00
1063.338,2653.00
1064.277,2546.00
1065.215,2572.00
1066.154,2452.00
1067.092,2634.00
1068.030,2646.00
1068.968,2904.00
1069.906,3040.00
1070.843,3005.00
1071.781,2812.00
1072.720,2864.00
1073.658,2877.00
1074.595,2653.00
1075.533,2598.00
1076.470,2625.00
1077.407,3033.00
1078.344,2798.00
1079.281,2862.00
1080.217,2341.00
1081.154,2690.00
1082.091,2807.00
1083.027,2465.00
1083.964,2961.00
1084.900,2622.00
1085.836,2649.00
1086.772,2947.00
1087.708,2503.00
1088.644,2922.00
1089.580,2720.00
1090.515,2766.00
1091.451,2639.00
1092.388,2743.00
1093.324,2489.00
1094.259,3309.00
1095.194,2776.00
1096.129,2646.00
1097.064,2579.00
1097.999,2830.00
1098.934,2595.00
1099.869,2565.00
1100.803,2764.00
1101.738,2766.00
1102.672,2436.00
1103.607,2838.00
1104.541,2559.00
1105.475,2556.00
1106.409,2496.00
1107.343,2653.00
1108.277,2493.00
1109.210,2730.00
1110.144,2689.00
1111.078,2709.00
1112.011,2491.00
1112.944,2798.00
1113.878,2768.00
1114.811,2211.00
1115.744,2566.00
1116.678,2318.00
1117.611,2605.00
1118.544,2633.00
1119.477,2795.00
1120.409,2617.00
1121.342,3192.00
1122.274,2775.00
1123.206,4275.00
1124.138,2715.00
1125.070,3054.00
1126.002,2912.00
1126.934,2306.00
1127.866,2622.00
1128.798,2363.00
1129.729,2409.00
1130.661,2696.00
1131.592,2601.00
1132.523,2816.00
1133.454,2842.00
1134.385,2323.00
1135.317,2712.00
1136.247,2639.00
1137.178,2912.00
1138.109,2408.00
1139.039,3050.00
1139.970,2885.00
1140.900,2602.00
1141.831,2372.00
1142.761,2241.00
1143.691,2800.00
1144.621,2723.00
1145.551,2737.00
1146.480,2752.00
1147.410,2883.00
1148.340,2368.00
1149.269,2415.00
1150.199,2590.00
1151.128,3077.00
1152.057,2459.00
1152.979,2608.00
1153.898,2670.00
1154.819,2765.00
1155.739,2647.00
1156.658,2615.00
1157.579,2649.00
1158.498,2624.00
1159.419,2219.00
1160.338,2686.00
1161.256,2779.00
1162.177,2546.00
1163.095,2692.00
1164.016,2766.00
1164.934,2945.00
1165.852,2858.00
1166.772,2621.00
1167.690,2681.00
1168.610,2784.00
1169.528,2694.00
1170.446,2237.00
1171.365,2623.00
1172.283,2534.00
1173.202,2672.00
1174.120,2709.00
1175.037,2542.00
1175.956,2531.00
1176.873,2548.00
1177.792,2560.00
1178.709,3131.00
1179.626,2516.00
1180.544,2898.00
1181.461,2552.00
1182.379,2780.00
1183.296,2687.00
1184.212,2300.00
1185.130,2533.00
1186.046,3028.00
1186.962,2689.00
1187.880,2967.00
1188.796,2721.00
1189.714,2483.00
1190.629,2849.00
1191.545,2726.00
1192.462,2622.00
1193.378,2635.00
1194.295,2358.00
1195.210,2679.00
1196.125,2808.00
1197.042,2752.00
1197.957,2682.00
1198.872,2536.00
1199.788,2587.00
1200.703,3005.00
1201.619,2700.00
1202.534,2548.00
1203.448,2788.00
1204.364,2579.00
1205.278,2339.00
1206.192,2708.00
1207.108,3180.00
1208.022,3073.00
1208.938,2531.00
1209.851,2810.00
1210.765,2913.00
1211.680,2561.00
1212.594,2434.00
1213.507,2619.00
1214.422,3056.00
1215.335,2843.00
1216.248,2619.00
1217.163,2641.00
1218.076,3299.00
1218.990,2788.00
1219.903,2430.00
1220.816,2530.00
1221.730,2647.00
1222.642,2558.00
1223.554,2616.00
1224.469,2756.00
1225.380,2629.00
1226.292,2339.00
1227.206,2824.00
1228.118,3021.00
1229.032,2320.00
1229.943,2551.00
1230.855,2619.00
1231.768,2408.00
1232.679,2762.00
1233.590,2665.00
1234.503,2890.00
1235.414,2495.00
1236.325,2537.00
1237.238,2701.00
1238.149,2751.00
1239.059,2477.00
1239.972,2867.00
1240.882,2427.00
1241.793,2758.00
1242.705,3050.00
1243.615,2638.00
1244.525,2786.00
1245.437,2235.00
1246.347,2701.00
1247.259,2833.00
1248.168,3133.00
1249.078,2953.00
1249.989,2982.00
1250.899,2483.00
1251.808,2526.00
1252.719,2590.00
1253.628,2519.00
1254.537,3053.00
1255.448,2447.00
1256.357,2489.00
1257.266,2696.00
1258.176,2411.00
1259.085,2383.00
1259.993,2462.00
1260.904,2523.00
1261.812,2469.00
1262.720,3230.00
1263.630,2835.00
1264.538,2504.00
1265.446,2795.00
1266.356,2682.00
1267.263,2961.00
1268.171,2447.00
1269.080,2724.00
1269.988,2863.00
1270.895,2569.00
1271.804,2638.00
1272.711,2894.00
1273.619,2833.00
1274.527,2511.00
1275.434,2799.00
1276.341,2489.00
1277.248,2705.00
1278.156,2963.00
1279.063,2511.00
1279.969,2790.00
1280.877,3595.00
1281.783,2875.00
1282.690,2759.00
1283.598,2663.00
1284.503,2553.00
1285.409,2510.00
1286.317,3035.00
1287.223,3094.00
1288.128,2754.00
1289.036,2550.00
1289.941,2580.00
1290.846,2670.00
1291.751,2497.00
1292.658,2640.00
1293.563,3112.00
1294.468,2676.00
1295.375,2853.00
1296.280,2890.00
1297.184,3432.00
1298.091,2757.00
1298.995,2840.00
1299.900,3042.00
1300.806,2589.00
1301.710,2400.00
1302.614,2243.00
1303.518,2961.00
1304.424,2640.00
1305.327,2907.00
1306.231,2669.00
1307.137,2866.00
1308.040,2750.00
1308.943,2717.00
1309.847,2895.00
1310.752,2867.00
1311.655,2332.00
1312.558,2432.00
1313.463,2610.00
1314.366,2538.00
1315.269,2703.00
1316.171,2653.00
1317.076,2557.00
1317.978,2457.00
1318.881,2316.00
1319.785,2570.00
1320.687,2531.00
1321.589,2287.00
1322.491,2511.00
1323.395,2753.00
1324.297,3220.00
1325.198,2763.00
1326.102,2479.00
1327.004,2491.00
1327.905,3099.00
1328.806,2637.00
1329.709,2754.00
1330.611,2598.00
1331.512,2503.00
1332.413,3126.00
1333.316,2754.00
1334.216,2824.00
1335.117,2421.00
1336.020,2715.00
1336.920,2685.00
1337.821,2529.00
1338.721,2925.00
1339.623,2743.00
1340.523,2631.00
1341.423,2582.00
1342.323,2986.00
1343.225,2747.00
1344.125,2510.00
1345.025,2554.00
1345.924,2317.00
1346.826,3013.00
1347.725,3110.00
1348.624,2845.00
1349.524,2553.00
1350.425,2638.00
1351.324,2735.00
1352.223,2800.00
1353.121,2635.00
1354.022,2883.00
1354.921,3057.00
1355.819,2798.00
1356.718,2736.00
1357.618,2387.00
1358.516,2806.00
1359.415,3070.00
1360.313,2781.00
1361.213,2612.00
1362.111,2974.00
1363.008,3317.00
1363.906,2641.00
1364.806,2719.00
1365.703,2741.00
1366.601,2484.00
1367.498,2518.00
1368.397,2851.00
1369.295,2750.00
1370.192,2515.00
1371.089,2777.00
1371.987,2644.00
1372.884,2918.00
1373.781,2465.00
1374.678,2683.00
1375.574,2522.00
1376.473,2753.00
1377.369,2921.00
1378.265,2523.00
1379.161,2638.00
1380.059,2381.00
1380.955,2810.00
1381.851,2435.00
1382.747,2567.00
1383.643,2645.00
1384.540,2442.00
1385.436,2577.00
1386.331,2719.00
1387.227,2838.00
1388.124,2783.00
1389.019,2452.00
1389.914,2663.00
1390.809,2323.00
1391.704,3145.00
1392.601,2595.00
1393.495,2945.00
1394.390,2806.00
1395.285,2902.00
1396.179,2747.00
1397.075,2650.00
1397.969,2747.00
1398.864,2401.00
1399.758,2636.00
1400.652,2715.00
1401.547,2492.00
1402.441,2458.00
1403.335,3038.00
1404.229,2844.00
1405.122,2758.00
1406.017,2656.00
1406.911,2833.00
1407.804,3096.00
1408.697,2664.00
1409.590,2524.00
1410.485,2840.00
1411.378,2747.00
1412.271,2344.00
1413.163,2728.00
1414.056,2837.00
1414.949,3076.00
1415.843,2718.00
1416.735,2652.00
1417.627,2697.00
1418.520,2638.00
1419.412,2905.00
1420.306,2829.00
1421.197,2976.00
1422.089,2874.00
1422.981,3161.00
1423.873,2855.00
1424.764,2791.00
1425.657,2744.00
1426.549,2804.00
1427.440,2878.00
1428.331,2635.00
1429.222,2358.00
1430.113,2725.00
1431.006,2884.00
1431.897,2605.00
1432.787,2714.00
1433.678,2624.00
1434.568,2514.00
1435.459,2937.00
1436.351,2858.00
1437.241,2865.00
1438.131,2816.00
1439.021,2453.00
1439.911,2659.00
1440.801,2721.00
1441.693,2911.00
1442.583,2713.00
1443.472,2730.00
1444.362,2830.00
1445.251,2643.00
1446.140,2606.00
1447.030,2894.00
1447.921,2876.00
1448.810,2505.00
1449.699,3095.00
1450.588,2732.00
1451.476,2608.00
1452.365,2789.00
1453.254,2579.00
1454.144,2590.00
1455.032,2860.00
1455.921,2400.00
1456.809,2971.00
1457.697,2526.00
1458.585,2625.00
1459.473,2629.00
1460.361,2553.00
1461.251,2783.00
1462.138,2741.00
1463.026,2651.00
1463.913,2955.00
1464.801,2611.00
1465.688,2814.00
1466.575,2734.00
1467.463,3167.00
1468.351,2567.00
1469.238,2655.00
1470.125,2304.00
1471.012,2737.00
1471.899,2811.00
1472.785,2507.00
1473.672,2662.00
1474.558,2893.00
1475.446,2819.00
1476.333,2883.00
1477.219,2510.00
1478.105,2672.00
1478.991,2639.00
1479.877,2987.00
1480.762,2686.00
1481.648,2573.00
1482.534,2841.00
1483.419,2746.00
1484.307,2827.00
1485.192,2681.00
1486.077,2558.00
1486.962,2555.00
1487.847,2468.00
1488.732,2551.00
1489.617,2727.00
1490.502,2960.00
1491.387,2823.00
1492.271,2512.00
1493.156,2534.00
1494.042,2531.00
1494.927,2924.00
1495.811,2555.00
1496.695,2825.00
1497.579,2992.00
1498.463,2727.00
1499.347,2768.00
1500.231,2755.00
1501.114,2759.00
1501.998,2936.00
1502.881,2758.00
1503.765,3013.00
1504.648,3118.00
1505.533,2803.00
1506.417,2721.00
1507.300,2652.00
1508.183,2750.00
1509.066,2177.00
1509.948,2951.00
1510.831,3086.00
1511.714,2493.00
1512.596,2884.00
1513.479,3018.00
1514.361,2910.00
1515.243,2717.00
1516.125,2846.00
1517.008,2969.00
1517.890,2705.00
1518.771,2728.00
1519.655,2934.00
1520.537,2657.00
1521.419,2507.00
1522.300,2746.00
1523.182,2837.00
1524.063,2864.00
1524.944,3003.00
1525.825,2875.00
1526.707,2497.00
1527.588,2483.00
1528.468,2805.00
1529.349,2386.00
1530.230,2650.00
1531.111,2919.00
1531.991,2750.00
1532.872,2423.00
1533.752,2697.00
1534.632,2617.00
1535.513,2626.00
1536.393,2832.00
1537.273,3059.00
1538.153,3379.00
1539.032,2454.00
1539.912,2653.00
1540.792,2712.00
1541.672,2723.00
1542.551,2819.00
1543.430,3320.00
1544.310,2758.00
1545.189,2605.00
1546.068,3123.00
1546.947,2818.00
1547.826,3009.00
1548.705,2669.00
1549.584,2930.00
1550.462,2663.00
1551.341,2860.00
1552.219,2755.00
1553.098,2827.00
1553.976,2925.00
1554.854,3139.00
1555.733,2897.00
1556.611,2639.00
1557.489,2502.00
1558.367,2690.00
1559.244,2911.00
1560.122,2726.00
1561.000,2819.00
1561.877,3025.00
1562.755,2593.00
1563.632,2659.00
1564.509,2961.00
1565.386,3062.00
1566.264,2490.00
1567.141,2343.00
1568.017,2866.00
1568.894,2731.00
1569.771,2777.00
1570.648,2824.00
1571.524,2762.00
1572.401,2485.00
1573.277,2467.00
1574.153,2758.00
1575.029,2609.00
1575.906,3473.00
1576.781,2890.00
1577.657,2623.00
1578.533,2949.00
1579.409,2343.00
1580.285,2674.00
1581.160,3185.00
1582.036,2922.00
1582.911,2574.00
1583.786,3051.00
1584.662,2484.00
1585.537,2690.00
1586.412,2801.00
1587.287,2553.00
1588.160,2875.00
1589.035,2365.00
1589.909,2756.00
1590.784,2719.00
1591.658,2547.00
1592.533,2779.00
1593.407,2722.00
1594.281,2633.00
1595.155,3095.00
1596.029,2651.00
1596.903,2639.00
1597.777,2605.00
1598.651,2954.00
1599.525,2403.00
1600.398,2735.00
1601.272,2702.00
1602.144,3274.00
1603.017,2669.00
1603.890,3003.00
1604.763,2803.00
1605.636,2841.00
1606.509,2408.00
1607.382,2578.00
1608.255,2843.00
1609.128,2922.00
1610.000,2674.00
1610.873,2429.00
1611.746,2601.00
1612.616,2658.00
1613.488,2337.00
1614.361,2745.00
1615.233,2691.00
1616.105,2919.00
1616.977,2653.00
1617.849,2563.00
1618.720,3087.00
1619.592,3055.00
1620.464,2866.00
1621.333,3179.00
1622.205,2727.00
1623.076,2723.00
1623.947,2710.00
1624.818,2969.00
1625.689,2867.00
1626.560,2654.00
1627.431,2787.00
1628.302,3152.00
1629.171,2859.00
1630.042,3031.00
1630.912,3365.00
1631.782,3322.00
1632.653,2537.00
1633.523,2903.00
1634.393,2975.00
1635.263,2599.00
1636.131,2737.00
1637.001,2639.00
1637.871,2347.00
1638.741,2387.00
1639.611,2467.00
1640.480,2811.00
1641.350,2607.00
1642.219,2562.00
1643.087,2243.00
1643.956,3131.00
1644.825,2978.00
1645.694,2942.00
1646.563,2893.00
1647.432,2794.00
1648.299,2739.00
1649.167,2841.00
1650.036,2549.00
1650.904,2907.00
1651.773,2977.00
1652.641,2731.00
1653.509,2894.00
1654.376,2587.00
1655.244,2739.00
1656.112,2766.00
1656.980,2735.00
1657.847,2601.00
1658.715,2942.00
1659.581,2623.00
1660.448,2965.00
1661.316,2258.00
1662.183,2771.00
1663.051,2797.00
1663.918,2779.00
1664.783,2759.00
1665.650,2837.00
1666.517,2906.00
1667.384,2758.00
1668.251,2787.00
1669.115,2939.00
1669.982,2702.00
1670.849,3013.00
1671.715,2701.00
1672.581,2922.00
1673.446,2847.00
1674.312,2801.00
1675.178,3143.00
1676.044,2823.00
1676.910,2837.00
1677.774,2750.00
1678.639,2383.00
1679.505,2719.00
1680.370,2907.00
1681.236,3403.00
1682.099,2697.00
1682.965,2758.00
1683.830,2331.00
1684.695,2515.00
1685.560,2658.00
1686.423,2867.00
1687.288,2889.00
1688.153,2795.00
1689.017,2638.00
1689.880,2849.00
1690.745,2887.00
1691.609,2551.00
1692.473,2883.00
1693.338,2945.00
1694.200,3006.00
1695.064,2759.00
1695.928,2639.00
1696.792,2794.00
1697.654,3291.00
1698.517,2773.00
1699.381,2491.00
1700.245,2435.00
1701.106,3037.00
1701.969,2643.00
1702.833,2883.00
1703.696,2647.00
1704.557,2726.00
1705.420,2603.00
1706.283,2755.00
1707.146,2943.00
1708.007,2539.00
1708.870,2553.00
1709.732,2427.00
1710.595,2618.00
1711.455,2503.00
1712.318,2671.00
1713.180,2978.00
1714.040,2811.00
1714.902,2929.00
1715.764,2763.00
1716.626,2547.00
1717.486,2705.00
1718.348,2998.00
1719.209,4183.00
1720.071,2391.00
1720.930,2434.00
1721.792,2591.00
1722.653,2569.00
1723.512,2650.00
1724.374,2695.00
1725.234,2817.00
1726.095,2771.00
1726.954,2759.00
1727.815,2853.00
1728.676,2711.00
1729.535,2975.00
1730.395,2663.00
1731.256,2691.00
1732.114,2814.00
1732.974,2219.00
1733.834,3119.00
1734.693,2903.00
1735.553,2783.00
1736.413,3157.00
1737.272,2627.00
1738.130,2675.00
1738.990,2855.00
1739.849,2642.00
1740.707,3795.00
1741.566,2807.00
1742.426,2755.00
1743.283,3131.00
1744.142,2645.00
1745.001,2426.00
1745.858,2939.00
1746.717,2827.00
1747.576,2850.00
1748.433,2887.00
1749.292,3357.00
1750.150,3386.00
1751.007,2907.00
1751.865,2925.00
1752.723,2770.00
1753.579,2678.00
1754.438,2945.00
1755.296,2974.00
1756.152,2298.00
1757.010,2441.00
1757.865,2960.00
1758.723,2394.00
1759.581,3081.00
1760.436,2748.00
1761.294,3091.00
1762.151,2725.00
1763.006,2688.00
1763.864,2403.00
1764.721,2933.00
1765.576,2770.00
1766.433,2914.00
1767.288,2629.00
1768.144,2826.00
1769.001,2711.00
1769.856,2841.00
1770.712,3008.00
1771.568,2542.00
1772.423,2657.00
1773.279,2642.00
1774.133,2627.00
1774.989,3148.00
1775.845,3144.00
1776.699,2994.00
1777.555,2741.00
1778.409,3254.00
1779.265,2705.00
1780.120,2720.00
1780.974,2728.00
1781.829,2350.00
1782.682,2824.00
1783.538,2582.00
1784.393,2773.00
1785.246,2648.00
1786.101,2876.00
1786.954,2876.00
1787.808,2953.00
1788.661,2466.00
1789.516,2677.00
1790.370,2741.00
1791.223,2924.00
1792.077,2746.00
1792.930,2840.00
1793.784,2610.00
1794.636,2755.00
1795.490,2740.00
1796.344,2773.00
1797.196,2752.00
1798.049,2901.00
1798.901,2635.00
1799.755,3029.00
1800.606,2567.00
1801.460,3316.00
1802.311,3094.00
1803.165,3178.00
1804.018,3143.00
1804.869,2851.00
1805.722,3240.00
1806.573,2796.00
1807.426,2592.00
1808.276,2751.00
1809.129,2666.00
1809.980,3001.00
1810.832,3073.00
1811.683,2692.00
1812.535,3102.00
1813.385,2668.00
1814.237,3087.00
1815.089,2783.00
1815.940,3048.00
1816.791,2708.00
1817.641,2589.00
1818.493,2879.00
1819.343,2858.00
1820.194,2637.00
1821.044,2885.00
1821.895,3002.00
1822.745,2466.00
1823.596,2668.00
1824.445,3175.00
1825.296,2882.00
1826.145,2700.00
1826.996,2980.00
1827.845,2821.00
1828.695,2867.00
1829.544,2788.00
1830.395,2808.00
1831.243,2705.00
1832.094,2486.00
1832.942,3403.00
1833.792,2896.00
1834.640,2837.00
1835.490,2807.00
1836.338,2812.00
1837.186,2646.00
1838.036,2624.00
1838.884,2746.00
1839.733,3098.00
1840.581,2945.00
1841.430,2912.00
1842.278,3148.00
1843.127,2600.00
1843.974,2445.00
1844.823,3163.00
1845.671,2940.00
1846.519,2804.00
1847.366,2812.00
1848.213,2443.00
1849.062,2614.00
1849.909,2508.00
1850.757,3444.00
1851.604,2929.00
1852.452,2726.00
1853.298,2921.00
1854.146,2817.00
1854.993,2793.00
1855.839,3279.00
1856.687,2881.00
1857.532,2910.00
1858.380,2778.00
1859.226,2890.00
1860.073,2891.00
1860.919,2611.00
1861.765,2684.00
1862.612,3048.00
1863.457,3000.00
1864.304,2739.00
1865.150,2906.00
1865.995,2752.00
1866.842,2868.00
1867.686,3021.00
1868.533,2835.00
1869.378,2860.00
1870.223,2804.00
1871.069,2656.00
1871.914,2819.00
1872.760,2742.00
1873.604,2581.00
1874.448,2929.00
1875.294,2968.00
1876.139,2643.00
1876.984,2893.00
1877.828,2406.00
1878.672,2298.00
1879.518,2616.00
1880.361,2915.00
1881.205,2922.00
1882.050,2564.00
1882.894,3316.00
1883.739,2657.00
1884.582,2511.00
1885.425,2596.00
1886.270,3036.00
1887.113,2512.00
1887.956,2887.00
1888.801,2838.00
1889.644,2632.00
1890.486,2372.00
1891.331,2709.00
1892.173,2815.00
1893.017,2852.00
1893.860,3108.00
1894.702,3101.00
1895.546,2798.00
1896.388,3491.00
1897.230,3173.00
1898.074,2708.00
1898.916,2574.00
1899.757,2608.00
1900.601,3475.00
1901.443,3106.00
1902.284,3085.00
1903.125,3280.00
1903.969,2965.00
1904.810,3031.00
1905.651,2880.00
1906.494,3122.00
1907.335,3200.00
1908.176,2907.00
1909.018,2866.00
1909.859,2793.00
1910.700,2680.00
1911.542,3273.00
1912.383,2859.00
1913.223,2388.00
1914.064,2910.00
1914.906,3028.00
1915.746,3106.00
1916.586,3223.00
1917.428,2772.00
1918.268,2868.00
1919.107,2700.00
1919.947,2533.00
1920.789,2727.00
1921.628,3024.00
1922.468,2832.00
1923.309,2665.00
1924.148,3107.00
1924.988,2906.00
1925.827,2785.00
1926.667,2692.00
1927.507,2823.00
1928.345,2654.00
1929.184,2960.00
1930.025,2638.00
1930.864,3040.00
1931.702,3055.00
1932.541,2728.00
1933.381,2928.00
1934.219,2948.00
1935.057,3105.00
1935.896,2515.00
1936.735,2757.00
1937.573,2697.00
1938.411,2632.00
1939.249,2934.00
1940.089,2686.00
1940.927,3042.00
1941.764,3098.00
1942.602,2701.00
1943.439,2673.00
1944.278,2744.00
1945.115,2721.00
1945.953,2532.00
1946.790,2866.00
1947.628,3194.00
1948.465,2904.00
1949.302,2971.00
1950.139,2961.00
1950.976,2685.00
1951.814,2972.00
1952.651,2829.00
1953.487,2598.00
1954.323,3051.00
1955.160,2726.00
1955.998,3196.00
1956.834,2831.00
1957.670,2876.00
1958.506,3030.00
1959.342,2900.00
1960.177,2821.00
1961.015,2931.00
1961.850,2817.00
1962.686,2876.00
1963.521,2849.00
1964.357,3131.00
1965.192,2583.00
1966.029,2967.00
1966.864,2672.00
1967.699,3042.00
1968.534,2818.00
1969.369,3119.00
1970.204,2730.00
1971.040,2816.00
1971.875,2761.00
1972.709,2797.00
1973.544,2638.00
1974.378,2708.00
1975.212,2909.00
1976.047,2675.00
1976.882,2695.00
1977.716,3205.00
1978.550,2520.00
1979.384,2750.00
1980.218,2746.00
1981.052,2718.00
1981.885,2830.00
1982.719,2824.00
1983.554,2961.00
1984.388,3148.00
1985.221,2896.00
1986.054,3057.00
1986.887,2876.00
1987.720,2655.00
1988.553,3108.00
1989.386,2933.00
1990.219,2963.00
1991.053,3149.00
1991.886,2686.00
1992.719,3033.00
1993.551,2351.00
1994.383,2959.00
1995.216,2718.00
1996.048,2509.00
1996.880,2963.00
1997.712,2718.00
1998.544,2799.00
1999.376,2904.00
2000.208,3111.00
2001.040,3250.00
2001.873,2677.00
2002.705,2626.00
2003.536,2881.00
2004.367,2859.00
2005.199,2877.00
2006.030,2694.00
2006.861,2617.00
2007.692,2830.00
2008.523,2670.00
2009.354,2846.00
2010.185,2640.00
2011.016,2970.00
2011.846,3044.00
2012.677,2777.00
2013.507,3160.00
2014.338,3096.00
2015.168,2737.00
2015.999,3329.00
2016.829,2770.00
2017.659,3081.00
2018.489,3344.00
2019.319,2650.00
2020.149,3006.00
2020.980,2832.00
2021.810,2631.00
2022.639,2728.00
2023.469,2697.00
2024.298,2473.00
2025.128,2424.00
2025.957,2447.00
2026.786,2256.00
2027.615,2478.00
2028.444,2674.00
2029.273,2817.00
2030.102,2443.00
2030.931,2633.00
2031.758,2936.00
2032.586,2608.00
2033.415,2679.00
2034.243,2223.00
2035.072,2059.00
2035.900,2597.00
2036.728,2385.00
2037.556,2406.00
2038.385,2427.00
2039.213,2250.00
2040.040,2239.00
2040.868,2214.00
2041.696,2301.00
2042.524,2283.00
2043.351,2489.00
2044.179,2247.00
2045.006,2033.00
