RamanScope Measure Spectrum Data V3.72

<< MEASURE CONDITION >>
Exposure Type,Aver
Exposure Time [sec],15
Exposure Count,30
Measure Time,2023/07/12 20:33:05
Data Name,""
Data Comment,""
Rayleigh Wave[nm],532.0

<< SAMPLE SPECTRUM >>
Wave[dcm-1],No46
146.591,961.40
147.626,1117.50
148.664,1264.67
149.699,1494.60
150.737,1692.80
151.772,1851.13
152.809,2027.47
153.846,2162.67
154.881,2319.27
155.918,2452.27
156.953,2539.33
157.989,2584.60
159.026,2685.03
160.060,2753.90
161.096,2805.60
162.130,2847.10
163.167,2839.90
164.200,2924.00
165.236,2931.83
166.272,3018.50
167.305,3090.13
168.341,3161.20
169.374,3242.13
170.409,3316.50
171.445,3416.30
172.477,3426.13
173.512,3450.87
174.545,3513.37
175.580,3501.27
176.614,3469.40
177.647,3394.03
178.681,3404.13
179.713,3353.60
180.747,3301.77
181.781,3248.93
182.813,3284.53
183.847,3231.97
184.878,3203.83
185.912,3215.23
186.945,3234.50
187.976,3294.00
189.010,3222.00
190.043,3273.37
191.073,3307.63
192.106,3341.63
193.137,3357.90
194.170,3375.83
195.202,3376.77
196.232,3442.40
197.265,3491.67
198.297,3531.77
199.327,3573.73
200.359,3596.23
201.388,3669.30
202.420,3747.60
203.452,3810.67
204.481,3877.10
205.512,3980.60
206.544,4025.10
207.573,4143.83
208.604,4262.20
209.635,4318.67
210.663,4472.93
211.694,4562.77
212.725,4691.17
213.753,4830.07
214.783,4897.50
215.813,5023.53
216.841,5044.03
217.871,5083.47
218.899,5073.90
219.929,5085.13
220.959,4982.43
221.986,4903.63
223.016,4800.13
224.045,4731.33
225.072,4657.43
226.101,4538.70
227.130,4434.97
228.157,4336.30
229.185,4282.57
230.214,4180.40
231.241,4123.97
232.269,4117.87
233.297,4072.57
234.323,4053.30
235.351,4050.00
236.379,4009.17
237.407,4033.40
238.433,3996.43
239.460,4030.63
240.488,4012.63
241.513,4093.77
242.540,4163.80
243.568,4163.70
244.592,4205.40
245.619,4251.33
246.646,4195.53
247.671,4180.30
248.697,4201.13
249.724,4170.47
250.748,4140.73
251.774,4121.23
252.801,4096.10
253.827,4113.37
254.850,4157.73
255.876,4137.83
256.902,4157.13
257.925,4136.67
258.951,4188.00
259.976,4228.17
260.999,4208.07
262.024,4288.97
263.049,4313.63
264.074,4361.03
265.097,4382.73
266.122,4457.40
267.146,4489.13
268.168,4520.27
269.193,4601.70
270.217,4618.47
271.241,4687.53
272.263,4715.77
273.287,4757.03
274.311,4789.20
275.332,4865.23
276.356,4877.23
277.379,4854.63
278.402,4798.20
279.424,4821.73
280.447,4783.03
281.470,4703.97
282.492,4679.27
283.513,4602.77
284.536,4564.77
285.558,4494.23
286.581,4420.30
287.601,4340.47
288.623,4305.40
289.645,4225.13
290.665,4157.53
291.687,4088.53
292.709,4016.27
293.730,3980.53
294.750,3927.10
295.771,3890.40
296.792,3852.53
297.813,3813.73
298.832,3722.83
299.853,3678.87
300.874,3639.50
301.895,3625.07
302.913,3584.57
303.934,3496.37
304.954,3470.13
305.975,3419.93
306.993,3418.73
308.013,3378.67
309.033,3368.63
310.052,3336.57
311.072,3297.30
312.090,3293.00
313.109,3246.77
314.129,3231.23
315.148,3228.00
316.165,3238.10
317.184,3230.17
318.203,3199.53
319.222,3129.23
320.238,3164.53
321.257,3139.27
322.275,3121.30
323.294,3091.47
324.312,3069.90
325.328,3043.43
326.346,3102.97
327.364,3109.17
328.382,3047.53
329.397,3050.73
330.415,3009.17
331.432,3021.27
332.450,2990.67
333.467,2994.50
334.482,2989.70
335.499,2970.43
336.516,2970.80
337.533,2968.90
338.547,2938.20
339.564,2939.30
340.580,2964.37
341.597,2973.17
342.613,2945.53
343.627,2981.23
344.643,2917.07
345.659,2944.27
346.675,2952.90
347.690,2932.97
348.704,2930.07
349.719,2890.13
350.735,2966.20
351.750,2926.70
352.765,2945.57
353.778,2886.33
354.793,2944.17
355.808,2928.27
356.822,2913.40
357.837,2929.83
358.851,2931.97
359.864,2935.70
360.878,2955.80
361.892,2943.70
362.906,2953.60
363.920,2994.80
364.932,2967.60
365.945,2967.50
366.959,2945.17
367.972,2977.20
368.986,2984.80
369.999,2996.77
371.010,2965.60
372.023,3000.90
373.036,3017.07
374.049,3034.00
375.061,3061.63
376.072,3066.87
377.084,3085.83
378.097,3049.80
379.109,3093.13
380.121,3092.67
381.133,3103.20
382.143,3139.80
383.155,3084.23
384.166,3114.43
385.178,3084.10
386.189,3116.77
387.201,3119.93
388.212,3141.70
389.221,3116.57
390.232,3068.67
391.243,3082.73
392.254,3108.33
393.264,3069.33
394.275,3092.40
395.283,3023.97
396.294,3037.20
397.304,3035.43
398.314,3041.57
399.324,3024.93
400.334,3000.40
401.344,2954.83
402.351,2946.97
403.361,2961.67
404.370,2939.57
405.380,2959.83
406.389,2938.47
407.398,2895.57
408.407,2899.27
409.414,2912.43
410.423,2891.67
411.431,2855.17
412.440,2824.50
413.448,2803.30
414.457,2847.00
415.465,2829.43
416.471,2802.30
417.479,2771.80
418.487,2775.90
419.495,2801.03
420.503,2752.03
421.510,2755.83
422.518,2730.80
423.525,2742.67
424.530,2758.10
425.537,2768.53
426.544,2725.63
427.551,2742.60
428.558,2738.67
429.565,2752.80
430.571,2731.50
431.578,2697.73
432.582,2707.63
433.588,2737.37
434.595,2716.43
435.601,2733.57
436.607,2705.00
437.612,2696.87
438.618,2693.80
439.624,2711.53
440.627,2700.43
441.633,2718.57
442.638,2685.07
443.643,2707.27
444.648,2709.00
445.653,2711.30
446.658,2675.83
447.663,2696.87
448.667,2694.03
449.672,2705.00
450.674,2705.07
451.678,2773.53
452.682,2713.13
453.687,2771.33
454.690,2724.93
455.694,2720.37
456.698,2760.73
457.702,2751.70
458.705,2721.20
459.709,2773.30
460.710,2738.27
461.713,2745.27
462.716,2768.43
463.719,2708.07
464.722,2772.00
465.725,2750.47
466.727,2774.77
467.730,2782.53
468.732,2781.07
469.735,2791.43
470.737,2782.70
471.737,2759.03
472.739,2796.63
473.741,2752.00
474.742,2772.23
475.744,2790.10
476.746,2790.13
477.747,2810.23
478.748,2785.50
479.750,2813.73
480.751,2791.80
481.752,2748.70
482.753,2793.03
483.751,2738.40
484.752,2781.87
485.753,2819.83
486.753,2785.87
487.753,2812.90
488.754,2765.50
489.754,2806.73
490.754,2780.37
491.754,2793.33
492.754,2813.67
493.753,2750.63
494.753,2766.50
495.752,2772.17
496.752,2773.13
497.749,2794.33
498.748,2806.50
499.747,2765.43
500.746,2736.23
501.745,2791.50
502.744,2741.80
503.742,2697.60
504.741,2739.37
505.739,2714.87
506.737,2701.63
507.735,2710.13
508.734,2732.67
509.732,2738.57
510.729,2680.10
511.727,2661.80
512.725,2679.47
513.720,2674.80
514.718,2680.27
515.715,2702.63
516.712,2667.53
517.709,2667.53
518.706,2645.80
519.703,2676.63
520.700,2644.70
521.696,2654.60
522.693,2687.10
523.689,2708.40
524.686,2686.37
525.682,2649.13
526.678,2658.97
527.674,2672.97
528.670,2678.13
529.666,2725.40
530.661,2733.63
531.657,2971.83
532.652,2700.07
533.648,2728.90
534.641,2748.53
535.636,2681.63
536.631,2763.23
537.626,2738.53
538.621,2739.63
539.616,2729.50
540.610,2745.43
541.605,2745.23
542.599,2696.23
543.593,2727.57
544.587,2743.60
545.581,2741.80
546.575,2762.10
547.569,2745.83
548.563,2754.87
549.557,2728.33
550.550,2704.97
551.543,2715.23
552.537,2716.63
553.530,2756.90
554.523,2759.30
555.516,2780.60
556.509,2697.53
557.502,2753.57
558.494,2795.23
559.487,2735.60
560.479,2745.47
561.472,2734.60
562.464,2783.93
563.456,2765.17
564.448,2756.30
565.440,2753.43
566.432,2755.07
567.423,2764.07
568.415,2758.33
569.404,2779.33
570.396,2735.20
571.387,2796.70
572.378,2777.43
573.369,2810.27
574.360,2839.37
575.351,2853.13
576.341,2843.70
577.332,2825.27
578.323,2823.37
579.313,2846.93
580.303,2862.07
581.293,2809.70
582.283,2860.83
583.273,2886.23
584.263,2848.97
585.253,2901.30
586.243,2886.50
587.232,2871.50
588.222,2874.53
589.211,2896.47
590.200,2889.27
591.189,2924.60
592.178,2912.33
593.167,2869.40
594.156,2892.00
595.145,2939.00
596.133,2937.30
597.122,2941.63
598.110,2908.47
599.098,2889.53
600.086,2936.10
601.074,2909.50
602.062,2928.60
603.050,2875.87
604.038,2952.23
605.025,2901.07
606.013,2954.77
607.000,2931.53
607.987,2922.43
608.975,2895.80
609.962,2870.23
610.949,2879.60
611.936,2876.57
612.922,2828.37
613.909,2820.07
614.895,2806.03
615.882,2868.43
616.868,2828.80
617.854,2807.30
618.841,2792.90
619.826,2795.60
620.812,2733.00
621.798,2737.20
622.784,2743.33
623.769,2711.00
624.755,2651.03
625.740,2709.63
626.725,2630.20
627.711,2652.03
628.698,2576.33
629.683,2575.33
630.667,2588.67
631.652,2598.27
632.637,2556.17
633.621,2583.40
634.606,2527.90
635.590,2520.03
636.574,2500.77
637.558,2471.60
638.542,2470.70
639.526,2448.53
640.510,2425.97
641.493,2440.17
642.477,2396.63
643.460,2375.33
644.444,2387.77
645.427,2364.70
646.410,2404.20
647.393,2351.03
648.376,2354.17
649.359,2333.57
650.341,2345.47
651.324,2310.97
652.307,2298.33
653.289,2318.73
654.271,2281.90
655.253,2250.93
656.235,2244.33
657.217,2242.60
658.199,2313.47
659.181,2249.03
660.163,2211.03
661.144,2205.63
662.126,2208.83
663.107,2204.80
664.088,2112.37
665.069,2172.40
666.050,2185.30
667.033,2189.80
668.014,2145.80
668.995,2163.93
669.975,2186.10
670.956,2127.60
671.936,2123.43
672.916,2127.80
673.896,2119.90
674.876,2114.10
675.856,2063.03
676.836,2061.50
677.816,2014.90
678.795,2026.07
679.775,2059.90
680.754,2024.10
681.734,1946.47
682.713,1971.70
683.692,1972.73
684.671,1966.37
685.650,1959.47
686.629,1926.17
687.607,1924.63
688.586,1907.17
689.564,1920.17
690.543,1909.40
691.523,1867.50
692.501,1851.90
693.479,1868.40
694.457,1864.87
695.435,1833.57
696.413,1814.97
697.390,1824.87
698.368,1838.47
699.345,1826.13
700.322,1796.63
701.300,1782.37
702.277,1821.37
703.254,1764.77
704.231,1777.00
705.207,1744.87
706.184,1759.37
707.161,1725.90
708.137,1721.13
709.113,1772.67
710.090,1717.77
711.068,1746.03
712.044,1724.90
713.020,1697.20
713.996,1717.27
714.971,1690.57
715.947,1722.57
716.922,1638.57
717.898,1696.50
718.873,1656.63
719.848,1677.27
720.823,1634.33
721.798,1633.23
722.773,1664.93
723.748,1668.27
724.723,1622.87
725.697,1643.17
726.672,1606.70
727.646,1640.37
728.622,1651.43
729.596,1637.37
730.570,1603.40
731.544,1627.60
732.518,1618.23
733.492,1634.07
734.466,1614.23
735.439,1576.40
736.413,1586.70
737.386,1573.17
738.359,1600.73
739.332,1584.07
740.305,1559.60
741.278,1542.23
742.251,1549.17
743.224,1578.30
744.196,1547.30
745.171,1540.97
746.143,1578.20
747.115,1570.63
748.087,1526.37
749.059,1534.53
750.031,1538.47
751.003,1495.53
751.975,1511.37
752.947,1524.17
753.918,1496.37
754.890,1499.97
755.861,1532.17
756.832,1539.27
757.803,1527.90
758.774,1494.33
759.747,1491.87
760.718,1474.07
761.689,1497.90
762.659,1495.40
763.630,1481.33
764.600,1487.97
765.570,1461.30
766.540,1483.50
767.510,1470.60
768.480,1468.00
769.450,1496.27
770.420,1457.27
771.390,1455.50
772.359,1456.50
773.329,1438.00
774.300,1411.83
775.269,1432.37
776.238,1406.23
777.207,1426.87
778.176,1441.53
779.145,1425.80
780.114,1378.50
781.083,1405.67
782.051,1387.50
783.019,1406.30
783.988,1420.00
784.956,1424.10
785.924,1385.47
786.894,1395.13
787.862,1400.37
788.830,1347.43
789.797,1372.83
790.765,1358.40
791.732,1350.50
792.700,1337.23
793.667,1375.67
794.634,1364.90
795.601,1318.13
796.568,1373.70
797.535,1340.83
798.502,1329.57
799.468,1322.13
800.437,1363.00
801.403,1322.50
802.370,1326.00
803.336,1363.73
804.302,1323.20
805.268,1328.07
806.234,1315.43
807.200,1321.30
808.166,1312.60
809.131,1316.80
810.097,1274.30
811.062,1315.13
812.027,1302.97
812.994,1281.93
813.960,1313.03
814.925,1337.37
815.889,1259.17
816.854,1285.00
817.819,1256.90
818.783,1246.27
819.748,1304.07
820.712,1287.07
821.677,1290.17
822.641,1285.10
823.605,1268.47
824.571,1310.77
825.534,1286.20
826.498,1280.13
827.462,1269.03
828.425,1246.40
829.389,1264.73
830.352,1294.73
831.315,1320.63
832.279,1265.47
833.242,1265.60
834.204,1256.67
835.167,1264.53
836.132,1264.77
837.095,1281.13
838.057,1278.30
839.020,1260.27
839.982,1271.30
840.944,1276.57
841.906,1295.23
842.868,1253.17
843.830,1252.43
844.792,1257.63
845.753,1230.00
846.715,1236.00
847.679,1227.03
848.640,1262.37
849.601,1217.33
850.562,1254.70
851.523,1255.73
852.484,1289.73
853.445,1216.17
854.406,1222.20
855.367,1244.30
856.327,1215.03
857.288,1271.93
858.248,1211.50
859.210,1273.83
860.170,1247.43
861.130,1239.43
862.090,1210.60
863.050,1250.17
864.010,1206.47
864.969,1223.50
865.929,1200.33
866.888,1223.77
867.848,1263.93
868.807,1241.03
869.766,1224.57
870.727,1247.40
871.686,1226.93
872.645,1214.07
873.604,1237.93
874.562,1190.37
875.521,1248.40
876.479,1242.60
877.437,1218.20
878.396,1195.53
879.354,1216.17
880.312,1243.50
881.270,1221.33
882.229,1260.80
883.187,1204.47
884.145,1200.63
885.102,1205.83
886.059,1182.47
887.017,1252.87
887.974,1233.70
888.931,1239.17
889.888,1237.87
890.845,1209.93
891.802,1212.77
892.758,1181.23
893.717,1214.83
894.673,1226.37
895.630,1207.97
896.586,1226.63
897.542,1218.90
898.498,1213.07
899.454,1231.23
900.410,1282.30
901.366,1228.07
902.321,1222.30
903.277,1241.53
904.232,1199.77
905.189,1268.23
906.145,1232.53
907.100,1232.37
908.055,1207.53
909.010,1220.10
909.965,1202.10
910.919,1253.60
911.874,1211.47
912.828,1191.53
913.783,1199.73
914.737,1254.00
915.693,1218.03
916.648,1225.63
917.602,1285.37
918.555,1245.53
919.509,1256.80
920.463,1240.20
921.417,1210.63
922.370,1204.60
923.324,1213.50
924.277,1240.00
925.230,1228.87
926.183,1237.27
927.138,1218.00
928.091,1221.17
929.044,1247.30
929.996,1214.80
930.949,1217.13
931.902,1225.77
932.854,1252.83
933.806,1233.57
934.758,1302.17
935.711,1243.37
936.663,1228.03
937.614,1221.50
938.568,1194.50
939.520,1235.47
940.471,1256.93
941.423,1241.80
942.374,1208.13
943.326,1187.60
944.277,1264.47
945.228,1257.43
946.179,1241.20
947.130,1236.70
948.080,1231.17
949.031,1227.87
949.984,1212.50
950.934,1252.90
951.884,1224.17
952.835,1218.13
953.785,1242.90
954.735,1197.63
955.685,1225.77
956.635,1247.67
957.585,1236.87
958.534,1220.40
959.484,1247.23
960.433,1209.57
961.383,1167.70
962.334,1271.47
963.283,1203.10
964.232,1220.83
965.181,1211.40
966.130,1197.63
967.079,1216.50
968.027,1233.27
968.976,1208.07
969.924,1164.23
970.873,1200.17
971.821,1192.03
972.769,1194.83
973.719,1215.93
974.667,1172.87
975.615,1206.93
976.562,1248.13
977.510,1195.30
978.458,1210.57
979.405,1219.97
980.352,1244.63
981.300,1213.43
982.247,1204.90
983.194,1234.20
984.141,1224.27
985.088,1184.93
986.036,1226.07
986.983,1238.70
987.930,1205.63
988.876,1245.87
989.822,1217.80
990.769,1215.13
991.715,1175.13
992.661,1217.27
993.607,1206.77
994.553,1214.43
995.498,1186.83
996.444,1201.40
997.389,1225.77
998.337,1243.57
999.282,1228.67
1000.227,1239.50
1001.173,1225.67
1002.118,1224.70
1003.062,1216.73
1004.007,1212.90
1004.952,1211.53
1005.897,1181.90
1006.841,1216.10
1007.786,1210.07
1008.730,1232.03
1009.674,1195.50
1010.618,1220.83
1011.564,1235.67
1012.508,1252.30
1013.452,1206.03
1014.396,1295.67
1015.339,1249.23
1016.283,1262.83
1017.226,1248.30
1018.170,1245.87
1019.113,1244.13
1020.056,1207.37
1020.999,1222.17
1021.942,1240.10
1022.885,1254.10
1023.828,1284.27
1024.770,1245.63
1025.715,1224.40
1026.657,1223.80
1027.600,1191.00
1028.542,1255.53
1029.484,1233.57
1030.426,1291.70
1031.368,1241.67
1032.310,1251.73
1033.251,1222.47
1034.193,1222.97
1035.135,1258.07
1036.076,1232.37
1037.017,1249.67
1037.959,1276.33
1038.900,1241.73
1039.843,1277.43
1040.784,1297.37
1041.725,1302.80
1042.665,1294.37
1043.606,1246.80
1044.547,1257.03
1045.487,1262.60
1046.427,1254.97
1047.368,1313.50
1048.308,1272.37
1049.248,1303.83
1050.188,1289.70
1051.128,1307.50
1052.067,1256.17
1053.007,1307.47
1053.947,1334.00
1054.886,1330.70
1055.827,1368.07
1056.766,1311.20
1057.706,1339.67
1058.645,1314.67
1059.584,1316.37
1060.522,1330.53
1061.461,1362.60
1062.400,1338.43
1063.338,1345.23
1064.277,1334.37
1065.215,1332.70
1066.154,1356.13
1067.092,1344.97
1068.030,1398.00
1068.968,1334.60
1069.906,1359.73
1070.843,1362.10
1071.781,1348.43
1072.720,1352.43
1073.658,1373.27
1074.595,1376.60
1075.533,1325.87
1076.470,1399.73
1077.407,1374.33
1078.344,1396.43
1079.281,1353.13
1080.217,1400.60
1081.154,1401.10
1082.091,1427.80
1083.027,1393.77
1083.964,1426.83
1084.900,1362.07
1085.836,1368.27
1086.772,1403.27
1087.708,1397.63
1088.644,1390.50
1089.580,1382.20
1090.515,1398.33
1091.451,1409.63
1092.388,1394.87
1093.324,1400.07
1094.259,1423.40
1095.194,1384.97
1096.129,1364.97
1097.064,1359.47
1097.999,1367.23
1098.934,1382.57
1099.869,1387.20
1100.803,1422.10
1101.738,1347.73
1102.672,1358.60
1103.607,1358.43
1104.541,1327.23
1105.475,1324.80
1106.409,1324.60
1107.343,1307.27
1108.277,1310.13
1109.210,1334.73
1110.144,1348.80
1111.078,1358.37
1112.011,1315.57
1112.944,1276.40
1113.878,1273.30
1114.811,1285.80
1115.744,1286.87
1116.678,1279.03
1117.611,1248.13
1118.544,1325.23
1119.477,1271.93
1120.409,1293.80
1121.342,1257.20
1122.274,1244.43
1123.206,1274.80
1124.138,1227.90
1125.070,1240.70
1126.002,1204.33
1126.934,1237.80
1127.866,1205.33
1128.798,1205.40
1129.729,1204.67
1130.661,1195.07
1131.592,1210.80
1132.523,1183.47
1133.454,1153.07
1134.385,1161.23
1135.317,1217.70
1136.247,1152.67
1137.178,1183.87
1138.109,1152.63
1139.039,1141.33
1139.970,1151.30
1140.900,1186.03
1141.831,1207.70
1142.761,1163.43
1143.691,1138.83
1144.621,1166.83
1145.551,1102.87
1146.480,1182.03
1147.410,1157.00
1148.340,1141.83
1149.269,1127.57
1150.199,1146.13
1151.128,1156.17
1152.057,1148.23
1152.979,1126.80
1153.898,1111.77
1154.819,1092.77
1155.739,1094.07
1156.658,1093.23
1157.579,1124.93
1158.498,1107.10
1159.419,1075.83
1160.338,1101.67
1161.256,1094.40
1162.177,1086.03
1163.095,1057.43
1164.016,1077.83
1164.934,1088.47
1165.852,1091.67
1166.772,1083.20
1167.690,1082.37
1168.610,1079.93
1169.528,1052.83
1170.446,1078.03
1171.365,1069.70
1172.283,1055.60
1173.202,1069.43
1174.120,1056.20
1175.037,1096.17
1175.956,1098.57
1176.873,1077.23
1177.792,1089.00
1178.709,1074.50
1179.626,1066.60
1180.544,1081.40
1181.461,1035.40
1182.379,1055.30
1183.296,1053.53
1184.212,1068.27
1185.130,1029.07
1186.046,1045.37
1186.962,1104.03
1187.880,1049.67
1188.796,1051.50
1189.714,1064.63
1190.629,1038.03
1191.545,1070.17
1192.462,1062.53
1193.378,1040.93
1194.295,1079.93
1195.210,1062.60
1196.125,1036.83
1197.042,1062.93
1197.957,1048.57
1198.872,1052.93
1199.788,1069.10
1200.703,1037.10
1201.619,1029.57
1202.534,1106.70
1203.448,1052.17
1204.364,1070.97
1205.278,1065.73
1206.192,1060.03
1207.108,1016.83
1208.022,1056.00
1208.938,1027.60
1209.851,1022.80
1210.765,1070.00
1211.680,1045.23
1212.594,1037.43
1213.507,1048.83
1214.422,1091.93
1215.335,1034.97
1216.248,1071.50
1217.163,1067.67
1218.076,1027.23
1218.990,1082.00
1219.903,1078.60
1220.816,1061.73
1221.730,1061.87
1222.642,1071.03
1223.554,1046.63
1224.469,1077.50
1225.380,1033.40
1226.292,1105.87
1227.206,1048.33
1228.118,1081.93
1229.032,1054.50
1229.943,1062.50
1230.855,1085.67
1231.768,1077.50
1232.679,1079.30
1233.590,1068.47
1234.503,1058.67
1235.414,1067.60
1236.325,1091.17
1237.238,1060.67
1238.149,1046.97
1239.059,1090.33
1239.972,1116.73
1240.882,1071.27
1241.793,1099.47
1242.705,1071.20
1243.615,1097.87
1244.525,1091.73
1245.437,1102.57
1246.347,1092.97
1247.259,1118.83
1248.168,1058.37
1249.078,1097.50
1249.989,1121.37
1250.899,1077.77
1251.808,1116.47
1252.719,1123.33
1253.628,1097.97
1254.537,1091.37
1255.448,1115.50
1256.357,1076.43
1257.266,1081.90
1258.176,1077.30
1259.085,1117.00
1259.993,1100.90
1260.904,1134.53
1261.812,1088.20
1262.720,1091.17
1263.630,1107.20
1264.538,1067.13
1265.446,1148.70
1266.356,1103.80
1267.263,1109.33
1268.171,1134.20
1269.080,1153.70
1269.988,1126.57
1270.895,1093.23
1271.804,1129.33
1272.711,1140.27
1273.619,1138.93
1274.527,1097.53
1275.434,1128.47
1276.341,1085.77
1277.248,1118.30
1278.156,1107.10
1279.063,1077.73
1279.969,1092.00
1280.877,1101.60
1281.783,1078.40
1282.690,1116.10
1283.598,1115.40
1284.503,1088.07
1285.409,1108.73
1286.317,1100.73
1287.223,1089.80
1288.128,1121.30
1289.036,1072.27
1289.941,1125.40
1290.846,1060.57
1291.751,1063.70
1292.658,1066.43
1293.563,1078.33
1294.468,1089.70
1295.375,1068.90
1296.280,1048.07
1297.184,1103.23
1298.091,1048.30
1298.995,1104.83
1299.900,1084.27
1300.806,1029.20
1301.710,1054.17
1302.614,1078.20
1303.518,1048.27
1304.424,1035.30
1305.327,1046.57
1306.231,1067.53
1307.137,1049.37
1308.040,1028.17
1308.943,1068.87
1309.847,1030.03
1310.752,1073.27
1311.655,1008.47
1312.558,1029.77
1313.463,1021.90
1314.366,1042.23
1315.269,1058.47
1316.171,1008.37
1317.076,1010.47
1317.978,1009.43
1318.881,1008.90
1319.785,1008.10
1320.687,1025.67
1321.589,966.13
1322.491,989.30
1323.395,955.67
1324.297,972.77
1325.198,1000.50
1326.102,1001.73
1327.004,996.20
1327.905,981.80
1328.806,1001.13
1329.709,965.77
1330.611,957.77
1331.512,1013.87
1332.413,961.27
1333.316,932.37
1334.216,947.80
1335.117,956.77
1336.020,986.00
1336.920,952.03
1337.821,920.30
1338.721,958.17
1339.623,964.43
1340.523,937.40
1341.423,935.93
1342.323,930.80
1343.225,883.73
1344.125,893.13
1345.025,903.70
1345.924,908.13
1346.826,926.17
1347.725,905.40
1348.624,875.67
1349.524,905.63
1350.425,904.07
1351.324,916.87
1352.223,899.40
1353.121,906.70
1354.022,881.07
1354.921,895.67
1355.819,894.67
1356.718,910.47
1357.618,859.23
1358.516,925.00
1359.415,891.77
1360.313,880.87
1361.213,873.03
1362.111,823.93
1363.008,827.33
1363.906,894.37
1364.806,858.27
1365.703,853.00
1366.601,851.37
1367.498,873.57
1368.397,872.33
1369.295,848.93
1370.192,841.23
1371.089,820.13
1371.987,828.30
1372.884,867.23
1373.781,792.80
1374.678,844.57
1375.574,815.27
1376.473,832.40
1377.369,796.30
1378.265,838.27
1379.161,859.20
1380.059,819.87
1380.955,774.93
1381.851,805.63
1382.747,792.07
1383.643,821.30
1384.540,814.03
1385.436,807.60
1386.331,787.20
1387.227,811.23
1388.124,816.33
1389.019,792.77
1389.914,780.07
1390.809,809.13
1391.704,784.70
1392.601,778.50
1393.495,795.13
1394.390,714.40
1395.285,792.00
1396.179,757.40
1397.075,792.43
1397.969,762.40
1398.864,799.20
1399.758,820.93
1400.652,780.87
1401.547,794.53
1402.441,768.67
1403.335,769.87
1404.229,772.90
1405.122,730.73
1406.017,790.77
1406.911,754.73
1407.804,776.73
1408.697,701.97
1409.590,754.50
1410.485,742.27
1411.378,732.67
1412.271,781.57
1413.163,765.93
1414.056,764.57
1414.949,736.40
1415.843,749.40
1416.735,759.37
1417.627,765.60
1418.520,762.20
1419.412,726.33
1420.306,736.87
1421.197,760.47
1422.089,746.53
1422.981,737.67
1423.873,765.53
1424.764,738.93
1425.657,703.47
1426.549,785.70
1427.440,731.07
1428.331,740.57
1429.222,735.90
1430.113,753.47
1431.006,705.80
1431.897,695.13
1432.787,717.87
1433.678,742.47
1434.568,745.37
1435.459,719.20
1436.351,726.43
1437.241,696.03
1438.131,705.73
1439.021,703.47
1439.911,746.17
1440.801,736.93
1441.693,749.93
1442.583,699.23
1443.472,715.33
1444.362,692.07
1445.251,724.83
1446.140,698.80
1447.030,704.20
1447.921,730.77
1448.810,710.57
1449.699,725.73
1450.588,699.20
1451.476,734.53
1452.365,675.93
1453.254,680.07
1454.144,708.73
1455.032,709.67
1455.921,693.73
1456.809,711.70
1457.697,698.20
1458.585,688.90
1459.473,680.40
1460.361,678.93
1461.251,714.10
1462.138,699.10
1463.026,695.80
1463.913,685.63
1464.801,724.93
1465.688,694.27
1466.575,679.17
1467.463,680.50
1468.351,661.60
1469.238,649.90
1470.125,672.87
1471.012,674.50
1471.899,672.70
1472.785,699.53
1473.672,693.37
1474.558,687.23
1475.446,677.47
1476.333,693.30
1477.219,668.70
1478.105,701.27
1478.991,673.00
1479.877,663.37
1480.762,634.37
1481.648,641.53
1482.534,672.63
1483.419,689.20
1484.307,643.77
1485.192,648.43
1486.077,686.03
1486.962,674.17
1487.847,640.23
1488.732,662.27
1489.617,638.40
1490.502,626.10
1491.387,665.77
1492.271,665.40
1493.156,678.13
1494.042,670.13
1494.927,646.93
1495.811,680.37
1496.695,634.37
1497.579,656.33
1498.463,627.87
1499.347,676.20
1500.231,669.20
1501.114,604.53
1501.998,652.97
1502.881,652.50
1503.765,642.27
1504.648,637.80
1505.533,654.97
1506.417,651.63
1507.300,626.57
1508.183,633.47
1509.066,614.33
1509.948,646.07
1510.831,634.13
1511.714,615.93
1512.596,605.03
1513.479,653.63
1514.361,624.67
1515.243,666.97
1516.125,618.77
1517.008,599.93
1517.890,609.47
1518.771,638.13
1519.655,645.40
1520.537,647.40
1521.419,630.53
1522.300,608.87
1523.182,639.13
1524.063,617.77
1524.944,633.17
1525.825,602.87
1526.707,609.03
1527.588,602.47
1528.468,636.83
1529.349,586.13
1530.230,595.27
1531.111,613.97
1531.991,605.80
1532.872,650.20
1533.752,605.63
1534.632,588.30
1535.513,627.30
1536.393,634.70
1537.273,587.47
1538.153,666.00
1539.032,629.77
1539.912,596.60
1540.792,622.20
1541.672,599.10
1542.551,594.67
1543.430,599.87
1544.310,583.50
1545.189,616.53
1546.068,585.70
1546.947,636.60
1547.826,631.27
1548.705,620.67
1549.584,618.60
1550.462,586.50
1551.341,609.67
1552.219,575.13
1553.098,586.93
1553.976,616.00
1554.854,581.20
1555.733,609.63
1556.611,588.30
1557.489,575.50
1558.367,658.60
1559.244,571.30
1560.122,562.10
1561.000,589.03
1561.877,604.77
1562.755,592.77
1563.632,607.27
1564.509,605.90
1565.386,573.43
1566.264,598.57
1567.141,585.57
1568.017,565.67
1568.894,581.23
1569.771,597.77
1570.648,596.60
1571.524,589.03
1572.401,586.53
1573.277,567.60
1574.153,576.23
1575.029,561.47
1575.906,595.87
1576.781,580.17
1577.657,605.63
1578.533,580.50
1579.409,592.87
1580.285,541.43
1581.160,601.67
1582.036,571.17
1582.911,555.47
1583.786,604.37
1584.662,550.27
1585.537,565.80
1586.412,571.40
1587.287,576.90
1588.160,569.57
1589.035,578.63
1589.909,566.50
1590.784,559.47
1591.658,576.80
1592.533,576.90
1593.407,633.23
1594.281,542.27
1595.155,587.57
1596.029,595.13
1596.903,571.07
1597.777,561.50
1598.651,558.03
1599.525,558.83
1600.398,559.60
1601.272,523.17
1602.144,602.87
1603.017,587.87
1603.890,568.47
1604.763,539.00
1605.636,559.90
1606.509,561.07
1607.382,561.13
1608.255,530.17
1609.128,578.43
1610.000,568.63
1610.873,585.87
1611.746,587.27
1612.616,554.90
1613.488,575.00
1614.361,536.97
1615.233,553.47
1616.105,515.87
1616.977,560.13
1617.849,529.73
1618.720,563.13
1619.592,525.23
1620.464,544.17
1621.333,525.23
1622.205,521.10
1623.076,578.33
1623.947,557.77
1624.818,548.83
1625.689,604.53
1626.560,558.37
1627.431,512.47
1628.302,531.73
1629.171,552.37
1630.042,527.50
1630.912,522.57
1631.782,552.40
1632.653,555.63
1633.523,577.10
1634.393,560.23
1635.263,523.83
1636.131,528.07
1637.001,535.97
1637.871,522.17
1638.741,546.53
1639.611,560.77
1640.480,543.23
1641.350,565.70
1642.219,524.47
1643.087,576.33
1643.956,548.20
1644.825,541.93
1645.694,566.97
1646.563,532.90
1647.432,532.40
1648.299,528.80
1649.167,524.17
1650.036,548.53
1650.904,505.70
1651.773,528.80
1652.641,541.90
1653.509,536.83
1654.376,533.17
1655.244,538.93
1656.112,524.13
1656.980,530.93
1657.847,546.27
1658.715,543.30
1659.581,504.17
1660.448,516.73
1661.316,526.60
1662.183,539.20
1663.051,522.23
1663.918,552.93
1664.783,557.87
1665.650,522.03
1666.517,524.40
1667.384,562.17
1668.251,527.00
1669.115,507.67
1669.982,535.37
1670.849,548.63
1671.715,526.60
1672.581,565.47
1673.446,527.23
1674.312,516.30
1675.178,530.63
1676.044,514.13
1676.910,527.90
1677.774,532.63
1678.639,532.93
1679.505,550.63
1680.370,555.60
1681.236,527.43
1682.099,494.83
1682.965,560.20
1683.830,520.43
1684.695,523.47
1685.560,515.73
1686.423,530.70
1687.288,491.77
1688.153,522.87
1689.017,531.20
1689.880,522.43
1690.745,497.07
1691.609,501.23
1692.473,541.27
1693.338,544.53
1694.200,530.43
1695.064,499.17
1695.928,481.63
1696.792,537.07
1697.654,472.57
1698.517,535.93
1699.381,496.43
1700.245,526.37
1701.106,495.90
1701.969,513.37
1702.833,501.73
1703.696,515.00
1704.557,497.50
1705.420,509.43
1706.283,529.20
1707.146,502.50
1708.007,517.93
1708.870,523.43
1709.732,535.37
1710.595,499.60
1711.455,526.07
1712.318,503.43
1713.180,531.17
1714.040,527.93
1714.902,510.17
1715.764,502.47
1716.626,499.90
1717.486,522.67
1718.348,518.47
1719.209,457.67
1720.071,531.93
1720.930,507.17
1721.792,497.10
1722.653,498.57
1723.512,464.60
1724.374,506.63
1725.234,509.23
1726.095,500.10
1726.954,510.47
1727.815,489.83
1728.676,534.73
1729.535,536.13
1730.395,503.27
1731.256,498.43
1732.114,504.53
1732.974,510.60
1733.834,490.53
1734.693,489.50
1735.553,528.40
1736.413,553.43
1737.272,534.03
1738.130,504.10
1738.990,530.90
1739.849,550.03
1740.707,473.30
1741.566,465.30
1742.426,518.07
1743.283,501.13
1744.142,502.87
1745.001,508.93
1745.858,508.37
1746.717,477.50
1747.576,498.97
1748.433,499.57
1749.292,455.67
1750.150,480.57
1751.007,518.97
1751.865,527.00
1752.723,510.73
1753.579,530.70
1754.438,491.80
1755.296,540.93
1756.152,521.47
1757.010,522.00
1757.865,477.37
1758.723,453.03
1759.581,513.90
1760.436,490.80
1761.294,480.80
1762.151,454.13
1763.006,508.03
1763.864,522.40
1764.721,482.47
1765.576,493.03
1766.433,493.00
1767.288,483.57
1768.144,470.13
1769.001,506.77
1769.856,511.93
1770.712,515.53
1771.568,499.07
1772.423,506.90
1773.279,471.80
1774.133,457.67
1774.989,510.00
1775.845,490.40
1776.699,504.40
1777.555,495.00
1778.409,463.80
1779.265,504.17
1780.120,488.43
1780.974,491.83
1781.829,465.50
1782.682,491.37
1783.538,458.57
1784.393,471.47
1785.246,498.43
1786.101,493.77
1786.954,447.97
1787.808,449.17
1788.661,527.80
1789.516,481.30
1790.370,467.47
1791.223,484.53
1792.077,483.43
1792.930,488.13
1793.784,482.50
1794.636,471.10
1795.490,511.87
1796.344,491.50
1797.196,469.63
1798.049,520.67
1798.901,468.17
1799.755,466.90
1800.606,477.03
1801.460,492.07
1802.311,522.60
1803.165,491.27
1804.018,480.23
1804.869,490.17
1805.722,465.40
1806.573,495.00
1807.426,473.13
1808.276,509.10
1809.129,502.50
1809.980,515.93
1810.832,460.93
1811.683,481.83
1812.535,475.73
1813.385,449.03
1814.237,516.83
1815.089,468.23
1815.940,488.93
1816.791,500.70
1817.641,475.53
1818.493,487.97
1819.343,480.23
1820.194,478.37
1821.044,424.13
1821.895,472.40
1822.745,498.97
1823.596,494.87
1824.445,501.07
1825.296,488.73
1826.145,506.30
1826.996,474.47
1827.845,493.07
1828.695,468.77
1829.544,459.03
1830.395,488.57
1831.243,484.10
1832.094,490.37
1832.942,496.20
1833.792,461.30
1834.640,529.67
1835.490,467.90
1836.338,493.13
1837.186,490.67
1838.036,491.20
1838.884,459.87
1839.733,491.37
1840.581,497.97
1841.430,507.77
1842.278,485.23
1843.127,475.70
1843.974,477.00
1844.823,488.37
1845.671,495.10
1846.519,432.07
1847.366,447.00
1848.213,509.83
1849.062,474.67
1849.909,481.77
1850.757,466.40
1851.604,476.63
1852.452,476.73
1853.298,475.57
1854.146,484.43
1854.993,476.83
1855.839,489.37
1856.687,487.40
1857.532,472.97
1858.380,468.50
1859.226,455.40
1860.073,491.03
1860.919,438.87
1861.765,471.90
1862.612,472.53
1863.457,504.57
1864.304,472.87
1865.150,479.40
1865.995,455.73
1866.842,457.57
1867.686,468.53
1868.533,485.40
1869.378,484.87
1870.223,453.60
1871.069,454.17
1871.914,471.93
1872.760,486.57
1873.604,459.63
1874.448,502.30
1875.294,445.80
1876.139,485.93
1876.984,446.00
1877.828,425.73
1878.672,469.43
1879.518,476.17
1880.361,477.40
1881.205,476.00
1882.050,451.10
1882.894,426.50
1883.739,442.53
1884.582,472.73
1885.425,448.10
1886.270,462.53
1887.113,440.93
1887.956,480.87
1888.801,462.73
1889.644,442.93
1890.486,481.40
1891.331,448.87
1892.173,415.77
1893.017,437.87
1893.860,464.97
1894.702,466.47
1895.546,450.30
1896.388,496.50
1897.230,463.40
1898.074,426.37
1898.916,469.37
1899.757,453.70
1900.601,468.73
1901.443,456.50
1902.284,459.57
1903.125,474.17
1903.969,420.73
1904.810,493.97
1905.651,485.43
1906.494,467.50
1907.335,414.37
1908.176,453.03
1909.018,442.50
1909.859,452.17
1910.700,441.57
1911.542,469.83
1912.383,463.97
1913.223,451.73
1914.064,430.23
1914.906,465.80
1915.746,467.87
1916.586,466.47
1917.428,447.63
1918.268,448.47
1919.107,442.90
1919.947,471.13
1920.789,507.23
1921.628,476.83
1922.468,461.10
1923.309,461.27
1924.148,472.27
1924.988,436.17
1925.827,422.10
1926.667,454.90
1927.507,447.20
1928.345,454.93
1929.184,478.93
1930.025,431.97
1930.864,436.50
1931.702,474.77
1932.541,464.80
1933.381,479.13
1934.219,438.63
1935.057,455.90
1935.896,489.53
1936.735,464.77
1937.573,493.23
1938.411,453.23
1939.249,463.97
1940.089,497.07
1940.927,451.57
1941.764,455.27
1942.602,464.43
1943.439,426.67
1944.278,452.00
1945.115,432.23
1945.953,463.43
1946.790,431.63
1947.628,454.93
1948.465,501.77
1949.302,463.30
1950.139,453.47
1950.976,450.13
1951.814,442.20
1952.651,456.70
1953.487,438.00
1954.323,463.33
1955.160,434.73
1955.998,458.77
1956.834,472.00
1957.670,434.17
1958.506,436.27
1959.342,431.37
1960.177,464.27
1961.015,480.20
1961.850,463.47
1962.686,450.07
1963.521,407.90
1964.357,451.20
1965.192,459.27
1966.029,445.07
1966.864,463.50
1967.699,431.50
1968.534,425.60
1969.369,458.73
1970.204,457.93
1971.040,453.13
1971.875,444.13
1972.709,473.13
1973.544,419.97
1974.378,424.93
1975.212,423.93
1976.047,442.90
1976.882,430.10
1977.716,429.67
1978.550,443.73
1979.384,448.90
1980.218,466.10
1981.052,425.40
1981.885,412.10
1982.719,451.17
1983.554,458.67
1984.388,427.33
1985.221,459.70
1986.054,437.93
1986.887,467.20
1987.720,429.80
1988.553,465.97
1989.386,442.73
1990.219,451.67
1991.053,452.97
1991.886,446.67
1992.719,447.67
1993.551,420.43
1994.383,460.10
1995.216,441.27
1996.048,465.30
1996.880,425.67
1997.712,463.23
1998.544,431.03
1999.376,473.20
2000.208,436.00
2001.040,466.80
2001.873,442.07
2002.705,436.23
2003.536,430.30
2004.367,460.67
2005.199,454.63
2006.030,428.07
2006.861,432.07
2007.692,440.30
2008.523,439.73
2009.354,452.63
2010.185,458.50
2011.016,453.80
2011.846,460.40
2012.677,452.50
2013.507,453.40
2014.338,450.97
2015.168,441.53
2015.999,467.53
2016.829,482.33
2017.659,430.07
2018.489,458.17
2019.319,416.57
2020.149,438.00
2020.980,418.23
2021.810,412.63
2022.639,454.27
2023.469,412.73
2024.298,436.87
2025.128,448.07
2025.957,436.43
2026.786,451.00
2027.615,473.40
2028.444,474.13
2029.273,424.87
2030.102,462.37
2030.931,434.70
2031.758,439.73
2032.586,458.77
2033.415,468.60
2034.243,448.27
2035.072,458.67
2035.900,425.73
2036.728,462.87
2037.556,446.20
2038.385,461.47
2039.213,433.17
2040.040,415.10
2040.868,432.13
2041.696,433.67
2042.524,444.27
2043.351,452.20
2044.179,450.53
2045.006,450.07
2045.006,450.07

Max Intensity Wave.,219.929
Max Intensity Data,5085.13
Min Intensity Wave.,1963.521
Min Intensity Data,407.90
FWHM Wave.,386.162
FWHM Value,28.47
Pressure Wave.,684.671
Pressure Value [GPa],-24.91530
G/D Ratio,0.61080
G/D Gband Wave.,1558.356
G/D Gband Intensity,658.61
G/D Dband Wave.,1302.564
G/D Dband Intensity,1078.28

<< BACKGROUND SPECTRUM >>
Wave[dcm-1],No46
146.591,2251.00
147.626,2118.00
148.664,2101.00
149.699,2533.00
150.737,2257.00
151.772,2423.00
152.809,2388.00
153.846,2334.00
154.881,2398.00
155.918,1946.00
156.953,2275.00
157.989,2624.00
159.026,2456.00
160.060,2600.00
161.096,2828.00
162.130,2486.00
163.167,2584.00
164.200,2436.00
165.236,2669.00
166.272,2681.00
167.305,2276.00
168.341,2545.00
169.374,2760.00
170.409,2771.00
171.445,2694.00
172.477,2528.00
173.512,2406.00
174.545,2644.00
175.580,2838.00
176.614,3024.00
177.647,2844.00
178.681,3021.00
179.713,3321.00
180.747,2805.00
181.781,2736.00
182.813,2953.00
183.847,3086.00
184.878,2735.00
185.912,2978.00
186.945,3125.00
187.976,3022.00
189.010,2753.00
190.043,2834.00
191.073,2916.00
192.106,2703.00
193.137,3177.00
194.170,2554.00
195.202,2928.00
196.232,2689.00
197.265,2979.00
198.297,3071.00
199.327,2768.00
200.359,2960.00
201.388,3318.00
202.420,2867.00
203.452,3075.00
204.481,2660.00
205.512,3277.00
206.544,3061.00
207.573,3031.00
208.604,3339.00
209.635,3540.00
210.663,2919.00
211.694,2970.00
212.725,2830.00
213.753,2786.00
214.783,3380.00
215.813,3203.00
216.841,2993.00
217.871,3148.00
218.899,2921.00
219.929,3100.00
220.959,2867.00
221.986,3147.00
223.016,2764.00
224.045,3147.00
225.072,3100.00
226.101,3203.00
227.130,3246.00
228.157,2836.00
229.185,2363.00
230.214,3213.00
231.241,2858.00
232.269,2453.00
233.297,2705.00
234.323,3238.00
235.351,2794.00
236.379,3105.00
237.407,2739.00
238.433,2947.00
239.460,3104.00
240.488,3140.00
241.513,3175.00
242.540,3062.00
243.568,3211.00
244.592,3229.00
245.619,3173.00
246.646,2951.00
247.671,2969.00
248.697,2802.00
249.724,2999.00
250.748,2982.00
251.774,2990.00
252.801,3310.00
253.827,3117.00
254.850,3054.00
255.876,2668.00
256.902,3116.00
257.925,3000.00
258.951,2730.00
259.976,2749.00
260.999,3121.00
262.024,2780.00
263.049,3629.00
264.074,3093.00
265.097,3035.00
266.122,3070.00
267.146,3029.00
268.168,3230.00
269.193,2830.00
270.217,3239.00
271.241,2684.00
272.263,2882.00
273.287,3157.00
274.311,2785.00
275.332,3246.00
276.356,2812.00
277.379,3068.00
278.402,3147.00
279.424,2922.00
280.447,2877.00
281.470,2728.00
282.492,3061.00
283.513,2902.00
284.536,3141.00
285.558,3155.00
286.581,3120.00
287.601,2858.00
288.623,2777.00
289.645,3054.00
290.665,3122.00
291.687,3148.00
292.709,3128.00
293.730,3399.00
294.750,2893.00
295.771,2752.00
296.792,3044.00
297.813,2888.00
298.832,3042.00
299.853,2750.00
300.874,2989.00
301.895,2929.00
302.913,2945.00
303.934,3273.00
304.954,3052.00
305.975,3239.00
306.993,2730.00
308.013,3118.00
309.033,2990.00
310.052,2924.00
311.072,2906.00
312.090,3033.00
313.109,3281.00
314.129,3416.00
315.148,3000.00
316.165,3048.00
317.184,3191.00
318.203,2723.00
319.222,2784.00
320.238,3109.00
321.257,2812.00
322.275,2703.00
323.294,2982.00
324.312,3145.00
325.328,3294.00
326.346,3260.00
327.364,3179.00
328.382,3168.00
329.397,3118.00
330.415,3244.00
331.432,3216.00
332.450,3275.00
333.467,3465.00
334.482,2581.00
335.499,3360.00
336.516,2880.00
337.533,2583.00
338.547,2878.00
339.564,2871.00
340.580,3096.00
341.597,2949.00
342.613,3455.00
343.627,2948.00
344.643,3022.00
345.659,3085.00
346.675,2967.00
347.690,2894.00
348.704,3084.00
349.719,2893.00
350.735,2727.00
351.750,3191.00
352.765,2977.00
353.778,3008.00
354.793,3106.00
355.808,2830.00
356.822,3199.00
357.837,2650.00
358.851,3248.00
359.864,2953.00
360.878,2725.00
361.892,2963.00
362.906,3173.00
363.920,2556.00
364.932,3087.00
365.945,3078.00
366.959,3034.00
367.972,2939.00
368.986,2709.00
369.999,3363.00
371.010,2881.00
372.023,3373.00
373.036,2970.00
374.049,3398.00
375.061,3075.00
376.072,2978.00
377.084,2874.00
378.097,2741.00
379.109,3201.00
380.121,2999.00
381.133,2684.00
382.143,3117.00
383.155,2746.00
384.166,2891.00
385.178,3131.00
386.189,3204.00
387.201,2719.00
388.212,2905.00
389.221,2931.00
390.232,3051.00
391.243,2940.00
392.254,3010.00
393.264,2851.00
394.275,3210.00
395.283,3214.00
396.294,3621.00
397.304,3468.00
398.314,3103.00
399.324,3032.00
400.334,2648.00
401.344,3174.00
402.351,2669.00
403.361,3190.00
404.370,2976.00
405.380,2885.00
406.389,3313.00
407.398,3138.00
408.407,3080.00
409.414,3125.00
410.423,3270.00
411.431,2763.00
412.440,2701.00
413.448,3368.00
414.457,2839.00
415.465,2793.00
416.471,2863.00
417.479,3026.00
418.487,2821.00
419.495,3278.00
420.503,3135.00
421.510,2619.00
422.518,3169.00
423.525,3187.00
424.530,3396.00
425.537,2866.00
426.544,3242.00
427.551,2846.00
428.558,3567.00
429.565,3421.00
430.571,2868.00
431.578,2909.00
432.582,2876.00
433.588,2939.00
434.595,2607.00
435.601,3285.00
436.607,3235.00
437.612,2753.00
438.618,3346.00
439.624,2935.00
440.627,2947.00
441.633,3090.00
442.638,3614.00
443.643,3097.00
444.648,3019.00
445.653,3186.00
446.658,2925.00
447.663,3025.00
448.667,2902.00
449.672,2918.00
450.674,2988.00
451.678,2671.00
452.682,2891.00
453.687,2804.00
454.690,3601.00
455.694,3284.00
456.698,2542.00
457.702,2654.00
458.705,2812.00
459.709,2774.00
460.710,2904.00
461.713,3044.00
462.716,3048.00
463.719,3045.00
464.722,3156.00
465.725,2972.00
466.727,2844.00
467.730,3021.00
468.732,2762.00
469.735,3268.00
470.737,2916.00
471.737,2924.00
472.739,2890.00
473.741,2833.00
474.742,3073.00
475.744,3101.00
476.746,3037.00
477.747,2945.00
478.748,3162.00
479.750,2907.00
480.751,2982.00
481.752,3791.00
482.753,3086.00
483.751,3581.00
484.752,2626.00
485.753,2949.00
486.753,2874.00
487.753,2969.00
488.754,3431.00
489.754,2673.00
490.754,3322.00
491.754,3124.00
492.754,2675.00
493.753,3043.00
494.753,2919.00
495.752,3332.00
496.752,3036.00
497.749,2966.00
498.748,2842.00
499.747,3374.00
500.746,3112.00
501.745,2748.00
502.744,2784.00
503.742,3357.00
504.741,2928.00
505.739,2489.00
506.737,2921.00
507.735,3157.00
508.734,3347.00
509.732,3120.00
510.729,3363.00
511.727,2926.00
512.725,2934.00
513.720,2775.00
514.718,3240.00
515.715,2647.00
516.712,2636.00
517.709,2988.00
518.706,2911.00
519.703,3024.00
520.700,3199.00
521.696,3356.00
522.693,2925.00
523.689,2830.00
524.686,3149.00
525.682,2814.00
526.678,3493.00
527.674,2934.00
528.670,2608.00
529.666,3466.00
530.661,3436.00
531.657,3178.00
532.652,3184.00
533.648,3004.00
534.641,3181.00
535.636,3084.00
536.631,3081.00
537.626,3148.00
538.621,2764.00
539.616,2598.00
540.610,2500.00
541.605,2983.00
542.599,3097.00
543.593,3000.00
544.587,3888.00
545.581,2853.00
546.575,3007.00
547.569,3030.00
548.563,2704.00
549.557,2681.00
550.550,2795.00
551.543,2762.00
552.537,3172.00
553.530,2760.00
554.523,2775.00
555.516,3063.00
556.509,2989.00
557.502,2616.00
558.494,3136.00
559.487,2935.00
560.479,3179.00
561.472,3234.00
562.464,3104.00
563.456,3268.00
564.448,2947.00
565.440,2999.00
566.432,3388.00
567.423,2901.00
568.415,2896.00
569.404,3115.00
570.396,2859.00
571.387,3116.00
572.378,3038.00
573.369,3928.00
574.360,3654.00
575.351,2942.00
576.341,2821.00
577.332,2865.00
578.323,2697.00
579.313,2873.00
580.303,3225.00
581.293,3163.00
582.283,2966.00
583.273,3086.00
584.263,3023.00
585.253,3082.00
586.243,3163.00
587.232,2660.00
588.222,2961.00
589.211,3175.00
590.200,3060.00
591.189,2934.00
592.178,2949.00
593.167,3435.00
594.156,3266.00
595.145,2877.00
596.133,3436.00
597.122,3087.00
598.110,3194.00
599.098,3081.00
600.086,2978.00
601.074,3180.00
602.062,2815.00
603.050,2760.00
604.038,3070.00
605.025,2813.00
606.013,3168.00
607.000,3367.00
607.987,2996.00
608.975,3064.00
609.962,2786.00
610.949,3148.00
611.936,3255.00
612.922,3192.00
613.909,2736.00
614.895,3384.00
615.882,2813.00
616.868,3010.00
617.854,2764.00
618.841,3004.00
619.826,3088.00
620.812,3019.00
621.798,2804.00
622.784,3169.00
623.769,3081.00
624.755,2741.00
625.740,3022.00
626.725,2757.00
627.711,2850.00
628.698,3111.00
629.683,2835.00
630.667,3169.00
631.652,2743.00
632.637,2964.00
633.621,3122.00
634.606,2918.00
635.590,3107.00
636.574,2934.00
637.558,3085.00
638.542,3032.00
639.526,2841.00
640.510,2631.00
641.493,3033.00
642.477,2998.00
643.460,2720.00
644.444,3222.00
645.427,3238.00
646.410,2631.00
647.393,2968.00
648.376,3052.00
649.359,2889.00
650.341,3045.00
651.324,3090.00
652.307,3044.00
653.289,2921.00
654.271,2870.00
655.253,2914.00
656.235,3117.00
657.217,3253.00
658.199,2575.00
659.181,2748.00
660.163,3009.00
661.144,2886.00
662.126,2898.00
663.107,2790.00
664.088,4768.00
665.069,3242.00
666.050,2816.00
667.033,2697.00
668.014,3053.00
668.995,2581.00
669.975,2948.00
670.956,2989.00
671.936,3134.00
672.916,2947.00
673.896,3083.00
674.876,2884.00
675.856,2858.00
676.836,2744.00
677.816,2350.00
678.795,2843.00
679.775,2661.00
680.754,3024.00
681.734,3197.00
682.713,3161.00
683.692,2783.00
684.671,2639.00
685.650,2744.00
686.629,2862.00
687.607,2738.00
688.586,2783.00
689.564,2835.00
690.543,3233.00
691.523,2397.00
692.501,2845.00
693.479,2919.00
694.457,2778.00
695.435,2875.00
696.413,2678.00
697.390,2514.00
698.368,2647.00
699.345,3085.00
700.322,2955.00
701.300,3072.00
702.277,3008.00
703.254,3255.00
704.231,2562.00
705.207,2979.00
706.184,2781.00
707.161,2684.00
708.137,2851.00
709.113,2769.00
710.090,2811.00
711.068,2582.00
712.044,2592.00
713.020,2895.00
713.996,2602.00
714.971,2822.00
715.947,2805.00
716.922,2848.00
717.898,2706.00
718.873,2900.00
719.848,2708.00
720.823,2731.00
721.798,2997.00
722.773,2736.00
723.748,2501.00
724.723,3033.00
725.697,2843.00
726.672,2782.00
727.646,2493.00
728.622,2954.00
729.596,2594.00
730.570,2747.00
731.544,3057.00
732.518,3254.00
733.492,2789.00
734.466,2853.00
735.439,3011.00
736.413,3102.00
737.386,2469.00
738.359,2410.00
739.332,2511.00
740.305,2859.00
741.278,3329.00
742.251,2934.00
743.224,2704.00
744.196,2566.00
745.171,3150.00
746.143,3002.00
747.115,2753.00
748.087,2732.00
749.059,3092.00
750.031,2893.00
751.003,3705.00
751.975,3274.00
752.947,2704.00
753.918,3104.00
754.890,2586.00
755.861,2738.00
756.832,3017.00
757.803,2816.00
758.774,2848.00
759.747,2601.00
760.718,3217.00
761.689,2726.00
762.659,2584.00
763.630,3141.00
764.600,2534.00
765.570,3050.00
766.540,3104.00
767.510,2913.00
768.480,3023.00
769.450,2665.00
770.420,2808.00
771.390,2633.00
772.359,2754.00
773.329,2671.00
774.300,2527.00
775.269,2748.00
776.238,3018.00
777.207,3144.00
778.176,2487.00
779.145,2787.00
780.114,2709.00
781.083,2557.00
782.051,2760.00
783.019,2682.00
783.988,3075.00
784.956,2802.00
785.924,2975.00
786.894,2880.00
787.862,2688.00
788.830,3170.00
789.797,2625.00
790.765,2603.00
791.732,2768.00
792.700,2689.00
793.667,2577.00
794.634,2751.00
795.601,2783.00
796.568,2748.00
797.535,2839.00
798.502,3447.00
799.468,2923.00
800.437,2386.00
801.403,2652.00
802.370,3287.00
803.336,2950.00
804.302,2870.00
805.268,2437.00
806.234,2553.00
807.200,2719.00
808.166,2777.00
809.131,2568.00
810.097,3027.00
811.062,3638.00
812.027,2995.00
812.994,2602.00
813.960,2592.00
814.925,2903.00
815.889,2541.00
816.854,3014.00
817.819,2657.00
818.783,2765.00
819.748,3082.00
820.712,2726.00
821.677,2609.00
822.641,2686.00
823.605,2710.00
824.571,3108.00
825.534,2745.00
826.498,2674.00
827.462,2809.00
828.425,2640.00
829.389,3064.00
830.352,2795.00
831.315,2864.00
832.279,2502.00
833.242,2764.00
834.204,2656.00
835.167,2639.00
836.132,3052.00
837.095,2497.00
838.057,2668.00
839.020,2800.00
839.982,2839.00
840.944,2665.00
841.906,2598.00
842.868,2957.00
843.830,2536.00
844.792,3039.00
845.753,2711.00
846.715,2453.00
847.679,2614.00
848.640,2596.00
849.601,2775.00
850.562,3243.00
851.523,2682.00
852.484,2448.00
853.445,3008.00
854.406,2722.00
855.367,2719.00
856.327,3069.00
857.288,2469.00
858.248,2708.00
859.210,2653.00
860.170,2510.00
861.130,3010.00
862.090,2442.00
863.050,2601.00
864.010,2714.00
864.969,2908.00
865.929,2620.00
866.888,2536.00
867.848,2807.00
868.807,2636.00
869.766,2852.00
870.727,2701.00
871.686,2993.00
872.645,3011.00
873.604,3285.00
874.562,2793.00
875.521,2766.00
876.479,3334.00
877.437,2602.00
878.396,2623.00
879.354,3178.00
880.312,2596.00
881.270,2665.00
882.229,3077.00
883.187,2642.00
884.145,2692.00
885.102,2944.00
886.059,2863.00
887.017,2870.00
887.974,2953.00
888.931,3052.00
889.888,2501.00
890.845,2450.00
891.802,2356.00
892.758,2690.00
893.717,2449.00
894.673,2566.00
895.630,2644.00
896.586,2893.00
897.542,2704.00
898.498,2550.00
899.454,2848.00
900.410,2629.00
901.366,2663.00
902.321,2616.00
903.277,2680.00
904.232,2776.00
905.189,2454.00
906.145,2634.00
907.100,2217.00
908.055,2725.00
909.010,2937.00
909.965,2369.00
910.919,2772.00
911.874,2587.00
912.828,2802.00
913.783,2810.00
914.737,2330.00
915.693,2769.00
916.648,2887.00
917.602,2896.00
918.555,2776.00
919.509,2820.00
920.463,2758.00
921.417,2791.00
922.370,2577.00
923.324,2693.00
924.277,2657.00
925.230,2769.00
926.183,2406.00
927.138,2702.00
928.091,2950.00
929.044,2811.00
929.996,2675.00
930.949,2676.00
931.902,2833.00
932.854,2809.00
933.806,2590.00
934.758,2902.00
935.711,2985.00
936.663,2763.00
937.614,2819.00
938.568,2784.00
939.520,2389.00
940.471,2687.00
941.423,2783.00
942.374,2914.00
943.326,2796.00
944.277,2570.00
945.228,2814.00
946.179,2686.00
947.130,3036.00
948.080,2664.00
949.031,2556.00
949.984,2689.00
950.934,2689.00
951.884,2481.00
952.835,2721.00
953.785,2717.00
954.735,2630.00
955.685,2363.00
956.635,2599.00
957.585,2627.00
958.534,2626.00
959.484,2721.00
960.433,2603.00
961.383,2514.00
962.334,2910.00
963.283,2777.00
964.232,2846.00
965.181,2714.00
966.130,2796.00
967.079,2621.00
968.027,2707.00
968.976,2721.00
969.924,2652.00
970.873,2812.00
971.821,2758.00
972.769,2935.00
973.719,2846.00
974.667,2524.00
975.615,2721.00
976.562,2688.00
977.510,2442.00
978.458,2612.00
979.405,2808.00
980.352,2722.00
981.300,2960.00
982.247,2801.00
983.194,2520.00
984.141,2612.00
985.088,2744.00
986.036,2757.00
986.983,2986.00
987.930,3113.00
988.876,2328.00
989.822,2953.00
990.769,2543.00
991.715,2636.00
992.661,2431.00
993.607,2800.00
994.553,3271.00
995.498,2606.00
996.444,2296.00
997.389,2762.00
998.337,2509.00
999.282,2858.00
1000.227,2629.00
1001.173,2672.00
1002.118,2433.00
1003.062,2894.00
1004.007,2697.00
1004.952,2990.00
1005.897,2952.00
1006.841,2694.00
1007.786,2465.00
1008.730,2415.00
1009.674,3188.00
1010.618,2636.00
1011.564,2481.00
1012.508,2355.00
1013.452,2950.00
1014.396,2669.00
1015.339,2592.00
1016.283,2658.00
1017.226,2722.00
1018.170,2680.00
1019.113,2879.00
1020.056,2761.00
1020.999,2725.00
1021.942,2581.00
1022.885,2836.00
1023.828,2947.00
1024.770,2502.00
1025.715,2770.00
1026.657,2702.00
1027.600,2796.00
1028.542,2911.00
1029.484,2765.00
1030.426,2813.00
1031.368,2789.00
1032.310,2573.00
1033.251,2558.00
1034.193,2734.00
1035.135,2499.00
1036.076,2654.00
1037.017,2555.00
1037.959,2809.00
1038.900,2785.00
1039.843,2790.00
1040.784,2724.00
1041.725,2770.00
1042.665,2598.00
1043.606,2782.00
1044.547,2756.00
1045.487,2388.00
1046.427,2693.00
1047.368,2748.00
1048.308,2253.00
1049.248,2504.00
1050.188,2701.00
1051.128,2602.00
1052.067,2712.00
1053.007,2399.00
1053.947,2372.00
1054.886,2538.00
1055.827,2437.00
1056.766,2965.00
1057.706,2419.00
1058.645,2653.00
1059.584,2756.00
1060.522,2963.00
1061.461,2427.00
1062.400,2470.00
1063.338,2634.00
1064.277,2512.00
1065.215,2511.00
1066.154,2395.00
1067.092,2593.00
1068.030,2600.00
1068.968,2880.00
1069.906,3023.00
1070.843,2947.00
1071.781,2754.00
1072.720,2820.00
1073.658,2825.00
1074.595,2607.00
1075.533,2599.00
1076.470,2553.00
1077.407,2988.00
1078.344,2754.00
1079.281,2831.00
1080.217,2290.00
1081.154,2642.00
1082.091,2697.00
1083.027,2453.00
1083.964,2886.00
1084.900,2581.00
1085.836,2632.00
1086.772,2859.00
1087.708,2446.00
1088.644,2832.00
1089.580,2683.00
1090.515,2724.00
1091.451,2579.00
1092.388,2696.00
1093.324,2428.00
1094.259,3195.00
1095.194,2741.00
1096.129,2619.00
1097.064,2581.00
1097.999,2809.00
1098.934,2531.00
1099.869,2527.00
1100.803,2654.00
1101.738,2706.00
1102.672,2383.00
1103.607,2799.00
1104.541,2559.00
1105.475,2557.00
1106.409,2429.00
1107.343,2618.00
1108.277,2447.00
1109.210,2686.00
1110.144,2634.00
1111.078,2614.00
1112.011,2433.00
1112.944,2766.00
1113.878,2733.00
1114.811,2189.00
1115.744,2573.00
1116.678,2314.00
1117.611,2589.00
1118.544,2539.00
1119.477,2742.00
1120.409,2503.00
1121.342,3117.00
1122.274,2738.00
1123.206,2959.00
1124.138,2680.00
1125.070,2963.00
1126.002,2867.00
1126.934,2280.00
1127.866,2563.00
1128.798,2333.00
1129.729,2374.00
1130.661,2658.00
1131.592,2557.00
1132.523,2735.00
1133.454,2783.00
1134.385,2316.00
1135.317,2617.00
1136.247,2606.00
1137.178,2850.00
1138.109,2383.00
1139.039,3020.00
1139.970,2839.00
1140.900,2557.00
1141.831,2308.00
1142.761,2226.00
1143.691,2757.00
1144.621,2626.00
1145.551,2739.00
1146.480,2653.00
1147.410,2821.00
1148.340,2291.00
1149.269,2381.00
1150.199,2570.00
1151.128,3015.00
1152.057,2419.00
1152.979,2579.00
1153.898,2618.00
1154.819,2741.00
1155.739,2643.00
1156.658,2570.00
1157.579,2658.00
1158.498,2629.00
1159.419,2191.00
1160.338,2675.00
1161.256,2693.00
1162.177,2504.00
1163.095,2647.00
1164.016,2715.00
1164.934,2887.00
1165.852,2802.00
1166.772,2613.00
1167.690,2650.00
1168.610,2694.00
1169.528,2667.00
1170.446,2192.00
1171.365,2554.00
1172.283,2533.00
1173.202,2629.00
1174.120,2678.00
1175.037,2461.00
1175.956,2429.00
1176.873,2491.00
1177.792,2503.00
1178.709,3093.00
1179.626,2530.00
1180.544,2818.00
1181.461,2527.00
1182.379,2734.00
1183.296,2622.00
1184.212,2265.00
1185.130,2505.00
1186.046,2974.00
1186.962,2569.00
1187.880,2905.00
1188.796,2687.00
1189.714,2419.00
1190.629,2776.00
1191.545,2666.00
1192.462,2551.00
1193.378,2607.00
1194.295,2319.00
1195.210,2633.00
1196.125,2777.00
1197.042,2694.00
1197.957,2639.00
1198.872,2511.00
1199.788,2514.00
1200.703,2959.00
1201.619,2665.00
1202.534,2443.00
1203.448,2714.00
1204.364,2561.00
1205.278,2282.00
1206.192,2663.00
1207.108,3159.00
1208.022,2984.00
1208.938,2502.00
1209.851,2813.00
1210.765,2842.00
1211.680,2542.00
1212.594,2425.00
1213.507,2573.00
1214.422,2995.00
1215.335,2761.00
1216.248,2557.00
1217.163,2623.00
1218.076,3251.00
1218.990,2719.00
1219.903,2414.00
1220.816,2459.00
1221.730,2599.00
1222.642,2495.00
1223.554,2559.00
1224.469,2709.00
1225.380,2619.00
1226.292,2254.00
1227.206,2779.00
1228.118,2942.00
1229.032,2282.00
1229.943,2519.00
1230.855,2569.00
1231.768,2367.00
1232.679,2709.00
1233.590,2612.00
1234.503,2862.00
1235.414,2499.00
1236.325,2494.00
1237.238,2722.00
1238.149,2769.00
1239.059,2444.00
1239.972,2778.00
1240.882,2453.00
1241.793,2752.00
1242.705,2995.00
1243.615,2577.00
1244.525,2704.00
1245.437,2195.00
1246.347,2681.00
1247.259,2778.00
1248.168,3095.00
1249.078,2860.00
1249.989,2870.00
1250.899,2462.00
1251.808,2485.00
1252.719,2538.00
1253.628,2500.00
1254.537,3017.00
1255.448,2452.00
1256.357,2491.00
1257.266,2660.00
1258.176,2392.00
1259.085,2342.00
1259.993,2441.00
1260.904,2442.00
1261.812,2477.00
1262.720,3160.00
1263.630,2808.00
1264.538,2510.00
1265.446,2696.00
1266.356,2606.00
1267.263,2905.00
1268.171,2412.00
1269.080,2656.00
1269.988,2788.00
1270.895,2568.00
1271.804,2583.00
1272.711,2773.00
1273.619,2761.00
1274.527,2457.00
1275.434,2728.00
1276.341,2458.00
1277.248,2651.00
1278.156,2919.00
1279.063,2518.00
1279.969,2740.00
1280.877,3508.00
1281.783,2847.00
1282.690,2682.00
1283.598,2589.00
1284.503,2489.00
1285.409,2453.00
1286.317,2970.00
1287.223,3028.00
1288.128,2662.00
1289.036,2547.00
1289.941,2538.00
1290.846,2661.00
1291.751,2460.00
1292.658,2573.00
1293.563,3070.00
1294.468,2640.00
1295.375,2795.00
1296.280,2896.00
1297.184,3302.00
1298.091,2744.00
1298.995,2757.00
1299.900,2982.00
1300.806,2556.00
1301.710,2384.00
1302.614,2197.00
1303.518,2883.00
1304.424,2596.00
1305.327,2828.00
1306.231,2605.00
1307.137,2774.00
1308.040,2694.00
1308.943,2624.00
1309.847,2841.00
1310.752,2775.00
1311.655,2312.00
1312.558,2408.00
1313.463,2561.00
1314.366,2499.00
1315.269,2638.00
1316.171,2624.00
1317.076,2524.00
1317.978,2430.00
1318.881,2239.00
1319.785,2493.00
1320.687,2473.00
1321.589,2265.00
1322.491,2468.00
1323.395,2734.00
1324.297,3202.00
1325.198,2742.00
1326.102,2418.00
1327.004,2433.00
1327.905,3009.00
1328.806,2572.00
1329.709,2704.00
1330.611,2572.00
1331.512,2419.00
1332.413,3058.00
1333.316,2704.00
1334.216,2800.00
1335.117,2377.00
1336.020,2630.00
1336.920,2636.00
1337.821,2504.00
1338.721,2857.00
1339.623,2659.00
1340.523,2581.00
1341.423,2489.00
1342.323,2889.00
1343.225,2751.00
1344.125,2479.00
1345.025,2522.00
1345.924,2298.00
1346.826,2962.00
1347.725,3039.00
1348.624,2883.00
1349.524,2492.00
1350.425,2585.00
1351.324,2696.00
1352.223,2795.00
1353.121,2590.00
1354.022,2828.00
1354.921,3010.00
1355.819,2733.00
1356.718,2651.00
1357.618,2396.00
1358.516,2688.00
1359.415,3000.00
1360.313,2707.00
1361.213,2586.00
1362.111,2952.00
1363.008,3293.00
1363.906,2584.00
1364.806,2646.00
1365.703,2713.00
1366.601,2444.00
1367.498,2439.00
1368.397,2792.00
1369.295,2673.00
1370.192,2459.00
1371.089,2724.00
1371.987,2618.00
1372.884,2849.00
1373.781,2463.00
1374.678,2622.00
1375.574,2472.00
1376.473,2748.00
1377.369,2875.00
1378.265,2458.00
1379.161,2556.00
1380.059,2332.00
1380.955,2773.00
1381.851,2407.00
1382.747,2540.00
1383.643,2556.00
1384.540,2420.00
1385.436,2526.00
1386.331,2707.00
1387.227,2781.00
1388.124,2728.00
1389.019,2440.00
1389.914,2633.00
1390.809,2267.00
1391.704,3046.00
1392.601,2549.00
1393.495,2904.00
1394.390,2867.00
1395.285,2863.00
1396.179,2736.00
1397.075,2594.00
1397.969,2696.00
1398.864,2307.00
1399.758,2542.00
1400.652,2649.00
1401.547,2436.00
1402.441,2409.00
1403.335,2967.00
1404.229,2664.00
1405.122,2730.00
1406.017,2592.00
1406.911,2779.00
1407.804,3019.00
1408.697,2684.00
1409.590,2465.00
1410.485,2820.00
1411.378,2715.00
1412.271,2307.00
1413.163,2680.00
1414.056,2774.00
1414.949,3029.00
1415.843,2671.00
1416.735,2582.00
1417.627,2629.00
1418.520,2584.00
1419.412,2875.00
1420.306,2790.00
1421.197,2896.00
1422.089,2842.00
1422.981,3092.00
1423.873,2783.00
1424.764,2728.00
1425.657,2704.00
1426.549,2720.00
1427.440,2841.00
1428.331,2535.00
1429.222,2336.00
1430.113,2661.00
1431.006,2836.00
1431.897,2566.00
1432.787,2670.00
1433.678,2552.00
1434.568,2438.00
1435.459,2861.00
1436.351,2817.00
1437.241,2800.00
1438.131,2797.00
1439.021,2412.00
1439.911,2574.00
1440.801,2686.00
1441.693,2828.00
1442.583,2679.00
1443.472,2637.00
1444.362,2785.00
1445.251,2568.00
1446.140,2573.00
1447.030,2834.00
1447.921,2819.00
1448.810,2462.00
1449.699,2988.00
1450.588,2679.00
1451.476,2509.00
1452.365,2770.00
1453.254,2556.00
1454.144,2516.00
1455.032,2751.00
1455.921,2383.00
1456.809,2921.00
1457.697,2449.00
1458.585,2593.00
1459.473,2594.00
1460.361,2487.00
1461.251,2698.00
1462.138,2715.00
1463.026,2610.00
1463.913,2873.00
1464.801,2515.00
1465.688,2724.00
1466.575,2675.00
1467.463,3092.00
1468.351,2522.00
1469.238,2642.00
1470.125,2264.00
1471.012,2699.00
1471.899,2733.00
1472.785,2444.00
1473.672,2629.00
1474.558,2848.00
1475.446,2775.00
1476.333,2782.00
1477.219,2460.00
1478.105,2595.00
1478.991,2600.00
1479.877,2938.00
1480.762,2669.00
1481.648,2521.00
1482.534,2774.00
1483.419,2688.00
1484.307,2773.00
1485.192,2635.00
1486.077,2474.00
1486.962,2493.00
1487.847,2412.00
1488.732,2482.00
1489.617,2674.00
1490.502,2941.00
1491.387,2775.00
1492.271,2461.00
1493.156,2465.00
1494.042,2441.00
1494.927,2862.00
1495.811,2511.00
1496.695,2794.00
1497.579,2930.00
1498.463,2654.00
1499.347,2665.00
1500.231,2642.00
1501.114,2753.00
1501.998,2908.00
1502.881,2676.00
1503.765,2935.00
1504.648,3057.00
1505.533,2743.00
1506.417,2649.00
1507.300,2625.00
1508.183,2722.00
1509.066,2167.00
1509.948,2874.00
1510.831,2991.00
1511.714,2462.00
1512.596,2808.00
1513.479,2887.00
1514.361,2856.00
1515.243,2638.00
1516.125,2821.00
1517.008,2957.00
1517.890,2622.00
1518.771,2664.00
1519.655,2836.00
1520.537,2583.00
1521.419,2486.00
1522.300,2709.00
1523.182,2773.00
1524.063,2785.00
1524.944,2926.00
1525.825,2853.00
1526.707,2475.00
1527.588,2458.00
1528.468,2715.00
1529.349,2357.00
1530.230,2599.00
1531.111,2823.00
1531.991,2712.00
1532.872,2331.00
1533.752,2630.00
1534.632,2547.00
1535.513,2495.00
1536.393,2793.00
1537.273,2982.00
1538.153,3225.00
1539.032,2383.00
1539.912,2651.00
1540.792,2654.00
1541.672,2688.00
1542.551,2775.00
1543.430,3243.00
1544.310,2702.00
1545.189,2545.00
1546.068,3085.00
1546.947,2731.00
1547.826,2939.00
1548.705,2633.00
1549.584,2862.00
1550.462,2631.00
1551.341,2807.00
1552.219,2742.00
1553.098,2819.00
1553.976,2840.00
1554.854,3070.00
1555.733,2846.00
1556.611,2592.00
1557.489,2494.00
1558.367,2600.00
1559.244,2833.00
1560.122,2676.00
1561.000,2736.00
1561.877,2937.00
1562.755,2541.00
1563.632,2611.00
1564.509,2905.00
1565.386,3049.00
1566.264,2422.00
1567.141,2295.00
1568.017,2827.00
1568.894,2658.00
1569.771,2695.00
1570.648,2757.00
1571.524,2675.00
1572.401,2411.00
1573.277,2457.00
1574.153,2718.00
1575.029,2551.00
1575.906,3362.00
1576.781,2835.00
1577.657,2586.00
1578.533,2901.00
1579.409,2294.00
1580.285,2657.00
1581.160,3051.00
1582.036,2837.00
1582.911,2514.00
1583.786,2973.00
1584.662,2483.00
1585.537,2638.00
1586.412,2699.00
1587.287,2497.00
1588.160,2839.00
1589.035,2315.00
1589.909,2685.00
1590.784,2642.00
1591.658,2459.00
1592.533,2711.00
1593.407,2618.00
1594.281,2571.00
1595.155,3045.00
1596.029,2567.00
1596.903,2607.00
1597.777,2592.00
1598.651,2927.00
1599.525,2382.00
1600.398,2690.00
1601.272,2662.00
1602.144,3156.00
1603.017,2602.00
1603.890,2904.00
1604.763,2765.00
1605.636,2804.00
1606.509,2376.00
1607.382,2508.00
1608.255,2760.00
1609.128,2850.00
1610.000,2620.00
1610.873,2348.00
1611.746,2540.00
1612.616,2597.00
1613.488,2240.00
1614.361,2680.00
1615.233,2620.00
1616.105,2908.00
1616.977,2566.00
1617.849,2528.00
1618.720,2968.00
1619.592,3001.00
1620.464,2756.00
1621.333,3157.00
1622.205,2692.00
1623.076,2617.00
1623.947,2646.00
1624.818,2909.00
1625.689,2734.00
1626.560,2564.00
1627.431,2746.00
1628.302,3081.00
1629.171,2791.00
1630.042,2997.00
1630.912,3640.00
1631.782,3232.00
1632.653,2470.00
1633.523,2799.00
1634.393,2898.00
1635.263,2565.00
1636.131,2660.00
1637.001,2597.00
1637.871,2322.00
1638.741,2313.00
1639.611,2394.00
1640.480,2781.00
1641.350,2515.00
1642.219,2513.00
1643.087,2147.00
1643.956,3088.00
1644.825,2915.00
1645.694,2854.00
1646.563,2842.00
1647.432,2714.00
1648.299,2701.00
1649.167,2819.00
1650.036,2488.00
1650.904,2893.00
1651.773,2901.00
1652.641,2675.00
1653.509,2854.00
1654.376,2544.00
1655.244,2707.00
1656.112,2735.00
1656.980,2694.00
1657.847,2520.00
1658.715,2837.00
1659.581,2607.00
1660.448,2918.00
1661.316,2192.00
1662.183,2701.00
1663.051,2734.00
1663.918,2686.00
1664.783,2665.00
1665.650,2761.00
1666.517,2842.00
1667.384,2660.00
1668.251,2704.00
1669.115,2923.00
1669.982,2638.00
1670.849,2936.00
1671.715,2660.00
1672.581,2776.00
1673.446,2798.00
1674.312,2712.00
1675.178,3081.00
1676.044,2773.00
1676.910,2752.00
1677.774,2713.00
1678.639,2340.00
1679.505,2647.00
1680.370,2787.00
1681.236,3292.00
1682.099,2662.00
1682.965,2664.00
1683.830,2286.00
1684.695,2495.00
1685.560,2609.00
1686.423,2796.00
1687.288,2829.00
1688.153,2724.00
1689.017,2607.00
1689.880,2742.00
1690.745,2844.00
1691.609,2542.00
1692.473,2809.00
1693.338,2867.00
1694.200,2925.00
1695.064,2708.00
1695.928,2620.00
1696.792,2663.00
1697.654,3210.00
1698.517,2691.00
1699.381,2461.00
1700.245,2333.00
1701.106,2995.00
1701.969,2581.00
1702.833,2842.00
1703.696,2578.00
1704.557,2658.00
1705.420,2555.00
1706.283,2690.00
1707.146,2832.00
1708.007,2484.00
1708.870,2476.00
1709.732,2339.00
1710.595,2596.00
1711.455,2429.00
1712.318,2612.00
1713.180,2917.00
1714.040,2703.00
1714.902,2860.00
1715.764,2699.00
1716.626,2480.00
1717.486,2655.00
1718.348,2931.00
1719.209,4213.00
1720.071,2323.00
1720.930,2437.00
1721.792,2543.00
1722.653,2539.00
1723.512,2619.00
1724.374,2638.00
1725.234,2738.00
1726.095,2706.00
1726.954,2674.00
1727.815,2819.00
1728.676,2637.00
1729.535,2869.00
1730.395,2660.00
1731.256,2601.00
1732.114,2738.00
1732.974,2146.00
1733.834,3054.00
1734.693,2856.00
1735.553,2678.00
1736.413,3041.00
1737.272,2544.00
1738.130,2617.00
1738.990,2729.00
1739.849,2536.00
1740.707,3695.00
1741.566,2765.00
1742.426,2714.00
1743.283,3083.00
1744.142,2581.00
1745.001,2350.00
1745.858,2854.00
1746.717,2784.00
1747.576,2791.00
1748.433,2831.00
1749.292,3324.00
1750.150,3305.00
1751.007,2861.00
1751.865,2863.00
1752.723,2695.00
1753.579,2576.00
1754.438,2910.00
1755.296,2862.00
1756.152,2239.00
1757.010,2351.00
1757.865,2912.00
1758.723,2396.00
1759.581,2985.00
1760.436,2678.00
1761.294,3039.00
1762.151,2713.00
1763.006,2596.00
1763.864,2322.00
1764.721,2897.00
1765.576,2710.00
1766.433,2843.00
1767.288,2596.00
1768.144,2765.00
1769.001,2627.00
1769.856,2764.00
1770.712,2878.00
1771.568,2473.00
1772.423,2582.00
1773.279,2626.00
1774.133,2625.00
1774.989,3073.00
1775.845,3059.00
1776.699,2920.00
1777.555,2673.00
1778.409,3247.00
1779.265,2627.00
1780.120,2642.00
1780.974,2673.00
1781.829,2326.00
1782.682,2746.00
1783.538,2551.00
1784.393,2741.00
1785.246,2567.00
1786.101,2777.00
1786.954,2852.00
1787.808,2927.00
1788.661,2374.00
1789.516,2610.00
1790.370,2643.00
1791.223,2881.00
1792.077,2687.00
1792.930,2777.00
1793.784,2572.00
1794.636,2730.00
1795.490,2627.00
1796.344,2718.00
1797.196,2686.00
1798.049,2808.00
1798.901,2588.00
1799.755,2934.00
1800.606,2496.00
1801.460,3189.00
1802.311,2956.00
1803.165,3081.00
1804.018,3036.00
1804.869,2764.00
1805.722,3171.00
1806.573,2724.00
1807.426,2530.00
1808.276,2656.00
1809.129,2576.00
1809.980,2859.00
1810.832,2993.00
1811.683,2628.00
1812.535,3025.00
1813.385,2657.00
1814.237,2930.00
1815.089,2742.00
1815.940,2964.00
1816.791,2622.00
1817.641,2563.00
1818.493,2829.00
1819.343,2757.00
1820.194,2568.00
1821.044,2852.00
1821.895,2914.00
1822.745,2410.00
1823.596,2567.00
1824.445,3072.00
1825.296,2785.00
1826.145,2628.00
1826.996,2900.00
1827.845,2726.00
1828.695,2761.00
1829.544,2703.00
1830.395,2725.00
1831.243,2613.00
1832.094,2433.00
1832.942,3270.00
1833.792,2835.00
1834.640,2703.00
1835.490,2719.00
1836.338,2746.00
1837.186,2588.00
1838.036,2546.00
1838.884,2706.00
1839.733,2998.00
1840.581,2868.00
1841.430,2777.00
1842.278,3025.00
1843.127,2589.00
1843.974,2384.00
1844.823,3105.00
1845.671,2830.00
1846.519,2746.00
1847.366,2786.00
1848.213,2313.00
1849.062,2523.00
1849.909,2436.00
1850.757,3345.00
1851.604,2801.00
1852.452,2622.00
1853.298,2875.00
1854.146,2740.00
1854.993,2730.00
1855.839,3187.00
1856.687,2796.00
1857.532,2815.00
1858.380,2712.00
1859.226,2797.00
1860.073,2806.00
1860.919,2557.00
1861.765,2594.00
1862.612,2924.00
1863.457,2887.00
1864.304,2656.00
1865.150,2815.00
1865.995,2689.00
1866.842,2821.00
1867.686,2938.00
1868.533,2760.00
1869.378,2743.00
1870.223,2734.00
1871.069,2623.00
1871.914,2737.00
1872.760,2672.00
1873.604,2510.00
1874.448,2805.00
1875.294,2895.00
1876.139,2563.00
1876.984,2837.00
1877.828,2412.00
1878.672,2223.00
1879.518,2566.00
1880.361,2870.00
1881.205,2842.00
1882.050,2528.00
1882.894,3255.00
1883.739,2605.00
1884.582,2464.00
1885.425,2552.00
1886.270,2949.00
1887.113,2474.00
1887.956,2790.00
1888.801,2764.00
1889.644,2541.00
1890.486,2298.00
1891.331,2645.00
1892.173,2789.00
1893.017,2792.00
1893.860,2990.00
1894.702,2988.00
1895.546,2730.00
1896.388,3358.00
1897.230,3056.00
1898.074,2644.00
1898.916,2493.00
1899.757,2552.00
1900.601,3357.00
1901.443,2992.00
1902.284,3013.00
1903.125,3166.00
1903.969,2944.00
1904.810,2907.00
1905.651,2777.00
1906.494,3011.00
1907.335,3193.00
1908.176,2828.00
1909.018,2810.00
1909.859,2690.00
1910.700,2594.00
1911.542,3231.00
1912.383,2776.00
1913.223,2356.00
1914.064,2868.00
1914.906,2965.00
1915.746,3039.00
1916.586,3161.00
1917.428,2720.00
1918.268,2756.00
1919.107,2630.00
1919.947,2470.00
1920.789,2595.00
1921.628,2928.00
1922.468,2705.00
1923.309,2553.00
1924.148,3025.00
1924.988,2814.00
1925.827,2729.00
1926.667,2611.00
1927.507,2766.00
1928.345,2559.00
1929.184,2860.00
1930.025,2567.00
1930.864,2990.00
1931.702,2993.00
1932.541,2619.00
1933.381,2829.00
1934.219,2882.00
1935.057,3016.00
1935.896,2407.00
1936.735,2674.00
1937.573,2582.00
1938.411,2520.00
1939.249,2873.00
1940.089,2563.00
1940.927,2969.00
1941.764,3013.00
1942.602,2640.00
1943.439,2639.00
1944.278,2683.00
1945.115,2674.00
1945.953,2454.00
1946.790,2809.00
1947.628,3066.00
1948.465,2783.00
1949.302,2861.00
1950.139,2845.00
1950.976,2595.00
1951.814,2892.00
1952.651,2779.00
1953.487,2535.00
1954.323,2966.00
1955.160,2714.00
1955.998,3072.00
1956.834,2698.00
1957.670,2803.00
1958.506,2973.00
1959.342,2849.00
1960.177,2761.00
1961.015,2825.00
1961.850,2759.00
1962.686,2775.00
1963.521,2814.00
1964.357,3003.00
1965.192,2507.00
1966.029,2879.00
1966.864,2630.00
1967.699,2961.00
1968.534,2786.00
1969.369,2994.00
1970.204,2683.00
1971.040,2748.00
1971.875,2650.00
1972.709,2744.00
1973.544,2592.00
1974.378,2646.00
1975.212,2865.00
1976.047,2641.00
1976.882,2621.00
1977.716,3140.00
1978.550,2441.00
1979.384,2667.00
1980.218,2670.00
1981.052,2691.00
1981.885,2797.00
1982.719,2726.00
1983.554,2863.00
1984.388,3060.00
1985.221,2798.00
1986.054,2991.00
1986.887,2744.00
1987.720,2591.00
1988.553,3009.00
1989.386,2821.00
1990.219,2862.00
1991.053,3029.00
1991.886,2610.00
1992.719,2923.00
1993.551,2302.00
1994.383,2857.00
1995.216,2654.00
1996.048,2440.00
1996.880,2915.00
1997.712,2600.00
1998.544,2743.00
1999.376,2785.00
2000.208,3024.00
2001.040,3154.00
2001.873,2565.00
2002.705,2566.00
2003.536,2791.00
2004.367,2761.00
2005.199,2761.00
2006.030,2650.00
2006.861,2557.00
2007.692,2758.00
2008.523,2594.00
2009.354,2767.00
2010.185,2532.00
2011.016,2859.00
2011.846,2925.00
2012.677,2669.00
2013.507,3059.00
2014.338,2956.00
2015.168,2679.00
2015.999,3234.00
2016.829,2647.00
2017.659,2971.00
2018.489,3233.00
2019.319,2579.00
2020.149,2925.00
2020.980,2786.00
2021.810,2578.00
2022.639,2615.00
2023.469,2659.00
2024.298,2442.00
2025.128,2365.00
2025.957,2377.00
2026.786,2195.00
2027.615,2359.00
2028.444,2556.00
2029.273,2782.00
2030.102,2351.00
2030.931,2603.00
2031.758,2866.00
2032.586,2525.00
2033.415,2581.00
2034.243,2226.00
2035.072,2006.00
2035.900,2521.00
2036.728,2299.00
2037.556,2354.00
2038.385,2357.00
2039.213,2213.00
2040.040,2210.00
2040.868,2167.00
2041.696,2220.00
2042.524,2219.00
2043.351,2407.00
2044.179,2220.00
2045.006,1994.00
