RamanScope Measure Spectrum Data V3.72

<< MEASURE CONDITION >>
Exposure Type,Aver
Exposure Time [sec],15
Exposure Count,30
Measure Time,2023/07/12 13:03:56
Data Name,""
Data Comment,""
Rayleigh Wave[nm],532.0

<< SAMPLE SPECTRUM >>
Wave[dcm-1],No28
146.591,340.83
147.626,439.53
148.664,473.97
149.699,522.30
150.737,600.53
151.772,665.00
152.809,731.50
153.846,816.67
154.881,792.07
155.918,879.90
156.953,888.97
157.989,939.97
159.026,967.67
160.060,993.13
161.096,972.80
162.130,1074.33
163.167,1028.87
164.200,1077.97
165.236,1094.13
166.272,1153.77
167.305,1115.63
168.341,1165.63
169.374,1222.80
170.409,1227.43
171.445,1234.10
172.477,1261.70
173.512,1235.57
174.545,1273.87
175.580,1269.07
176.614,1305.30
177.647,1356.27
178.681,1314.97
179.713,1339.57
180.747,1339.60
181.781,1302.80
182.813,1336.53
183.847,1356.23
184.878,1382.73
185.912,1386.67
186.945,1398.63
187.976,1408.80
189.010,1458.00
190.043,1456.93
191.073,1512.47
192.106,1567.30
193.137,1568.50
194.170,1597.37
195.202,1613.70
196.232,1673.53
197.265,1742.00
198.297,1789.87
199.327,1847.63
200.359,1918.20
201.388,1998.27
202.420,2096.20
203.452,2182.20
204.481,2288.90
205.512,2441.70
206.544,2563.47
207.573,2720.57
208.604,2879.50
209.635,3126.37
210.663,3394.70
211.694,3599.57
212.725,3911.27
213.753,4182.50
214.783,4421.63
215.813,4675.87
216.841,4781.23
217.871,4946.00
218.899,5011.70
219.929,4943.53
220.959,4824.23
221.986,4593.50
223.016,4359.13
224.045,4081.37
225.072,3829.67
226.101,3471.60
227.130,3274.63
228.157,3091.13
229.185,2864.60
230.214,2726.60
231.241,2599.17
232.269,2521.80
233.297,2394.17
234.323,2401.67
235.351,2336.43
236.379,2257.87
237.407,2213.03
238.433,2171.77
239.460,2091.23
240.488,2080.80
241.513,2082.97
242.540,2094.47
243.568,2084.00
244.592,2123.53
245.619,2106.13
246.646,2073.90
247.671,2058.90
248.697,2111.87
249.724,2133.20
250.748,2158.90
251.774,2192.07
252.801,2217.63
253.827,2254.37
254.850,2309.53
255.876,2353.77
256.902,2400.93
257.925,2387.27
258.951,2470.87
259.976,2512.00
260.999,2623.77
262.024,2600.47
263.049,2740.97
264.074,2785.33
265.097,2883.57
266.122,2985.50
267.146,3070.10
268.168,3147.70
269.193,3223.43
270.217,3294.30
271.241,3387.70
272.263,3502.80
273.287,3509.93
274.311,3575.57
275.332,3614.33
276.356,3629.43
277.379,3633.63
278.402,3652.03
279.424,3655.93
280.447,3576.23
281.470,3543.13
282.492,3511.13
283.513,3431.77
284.536,3325.67
285.558,3295.93
286.581,3180.33
287.601,3074.20
288.623,2990.10
289.645,2919.80
290.665,2845.23
291.687,2738.53
292.709,2645.83
293.730,2564.13
294.750,2507.23
295.771,2453.87
296.792,2302.57
297.813,2254.97
298.832,2178.87
299.853,2075.93
300.874,2080.70
301.895,1985.83
302.913,1920.43
303.934,1875.93
304.954,1824.43
305.975,1835.67
306.993,1754.87
308.013,1681.83
309.033,1637.50
310.052,1647.80
311.072,1579.43
312.090,1547.70
313.109,1585.87
314.129,1500.27
315.148,1519.70
316.165,1510.50
317.184,1492.87
318.203,1495.40
319.222,1460.10
320.238,1486.70
321.257,1402.40
322.275,1418.40
323.294,1411.67
324.312,1378.40
325.328,1392.87
326.346,1352.37
327.364,1354.30
328.382,1333.10
329.397,1364.97
330.415,1368.40
331.432,1311.10
332.450,1357.83
333.467,1322.70
334.482,1298.00
335.499,1269.37
336.516,1291.47
337.533,1365.50
338.547,1315.17
339.564,1315.07
340.580,1314.93
341.597,1309.07
342.613,1316.53
343.627,1329.47
344.643,1287.90
345.659,1284.70
346.675,1279.00
347.690,1311.77
348.704,1297.03
349.719,1309.33
350.735,1272.03
351.750,1324.80
352.765,1346.03
353.778,1311.87
354.793,1311.70
355.808,1358.57
356.822,1335.57
357.837,1359.47
358.851,1349.33
359.864,1359.50
360.878,1387.37
361.892,1371.60
362.906,1331.60
363.920,1403.07
364.932,1407.60
365.945,1421.00
366.959,1440.47
367.972,1426.27
368.986,1492.60
369.999,1447.17
371.010,1497.30
372.023,1460.60
373.036,1501.87
374.049,1505.67
375.061,1530.00
376.072,1518.10
377.084,1548.27
378.097,1568.37
379.109,1493.57
380.121,1537.23
381.133,1579.20
382.143,1585.07
383.155,1601.43
384.166,1582.27
385.178,1630.97
386.189,1615.07
387.201,1607.60
388.212,1618.23
389.221,1596.27
390.232,1641.53
391.243,1594.97
392.254,1593.73
393.264,1577.60
394.275,1571.90
395.283,1500.10
396.294,1511.03
397.304,1478.57
398.314,1510.30
399.324,1499.23
400.334,1495.90
401.344,1456.60
402.351,1433.83
403.361,1429.27
404.370,1460.63
405.380,1374.40
406.389,1399.73
407.398,1321.17
408.407,1331.37
409.414,1330.07
410.423,1315.07
411.431,1311.17
412.440,1248.93
413.448,1274.77
414.457,1277.30
415.465,1250.53
416.471,1235.60
417.479,1182.43
418.487,1197.27
419.495,1209.50
420.503,1192.93
421.510,1185.30
422.518,1205.93
423.525,1151.03
424.530,1176.00
425.537,1133.63
426.544,1163.30
427.551,1135.90
428.558,1142.10
429.565,1153.73
430.571,1145.17
431.578,1121.83
432.582,1115.97
433.588,1147.40
434.595,1130.17
435.601,1092.17
436.607,1121.30
437.612,1134.57
438.618,1100.67
439.624,1050.40
440.627,1128.30
441.633,1124.20
442.638,1090.63
443.643,1104.03
444.648,1119.37
445.653,1113.63
446.658,1102.67
447.663,1085.37
448.667,1097.00
449.672,1119.40
450.674,1130.00
451.678,1111.23
452.682,1099.57
453.687,1123.57
454.690,1100.50
455.694,1125.40
456.698,1139.00
457.702,1109.80
458.705,1140.87
459.709,1119.30
460.710,1166.63
461.713,1136.03
462.716,1130.93
463.719,1135.97
464.722,1140.70
465.725,1176.30
466.727,1191.90
467.730,1181.73
468.732,1155.80
469.735,1150.67
470.737,1218.77
471.737,1191.53
472.739,1176.97
473.741,1179.77
474.742,1206.27
475.744,1147.83
476.746,1193.67
477.747,1217.50
478.748,1189.27
479.750,1229.23
480.751,1187.10
481.752,1217.73
482.753,1216.03
483.751,1209.10
484.752,1201.57
485.753,1180.00
486.753,1183.67
487.753,1252.30
488.754,1197.77
489.754,1212.63
490.754,1197.33
491.754,1172.87
492.754,1195.97
493.753,1197.53
494.753,1191.73
495.752,1137.93
496.752,1174.53
497.749,1139.23
498.748,1188.70
499.747,1121.40
500.746,1173.13
501.745,1139.30
502.744,1147.17
503.742,1137.13
504.741,1135.47
505.739,1104.20
506.737,1143.07
507.735,1121.90
508.734,1087.50
509.732,1089.37
510.729,1133.50
511.727,1112.23
512.725,1080.07
513.720,1146.00
514.718,1132.40
515.715,1169.67
516.712,1084.07
517.709,1150.43
518.706,1089.80
519.703,1112.20
520.700,1073.97
521.696,1078.13
522.693,1121.23
523.689,1088.80
524.686,1127.80
525.682,1050.63
526.678,1122.77
527.674,1127.83
528.670,1080.83
529.666,1081.23
530.661,1107.17
531.657,1103.77
532.652,1113.00
533.648,1128.00
534.641,1103.00
535.636,1074.70
536.631,1115.90
537.626,1109.67
538.621,1141.57
539.616,1087.17
540.610,1085.07
541.605,1094.57
542.599,1127.60
543.593,1149.20
544.587,1130.37
545.581,1126.90
546.575,1132.93
547.569,1118.13
548.563,1130.43
549.557,1120.60
550.550,1132.23
551.543,1138.13
552.537,1149.43
553.530,1121.00
554.523,1136.03
555.516,1126.47
556.509,1124.77
557.502,1174.70
558.494,1178.47
559.487,1150.63
560.479,1185.67
561.472,1222.57
562.464,1188.77
563.456,1153.70
564.448,1175.67
565.440,1193.10
566.432,1166.20
567.423,1213.73
568.415,1230.97
569.404,1249.30
570.396,1201.77
571.387,1233.43
572.378,1189.90
573.369,1228.27
574.360,1260.43
575.351,1308.20
576.341,1271.13
577.332,1288.80
578.323,1254.00
579.313,1254.17
580.303,1304.40
581.293,1267.63
582.283,1275.53
583.273,1253.73
584.263,1287.40
585.253,1276.07
586.243,1221.37
587.232,1243.77
588.222,1267.03
589.211,1238.03
590.200,1286.33
591.189,1227.77
592.178,1220.70
593.167,1202.43
594.156,1206.07
595.145,1244.27
596.133,1223.73
597.122,1218.37
598.110,1205.40
599.098,1167.03
600.086,1197.50
601.074,1159.33
602.062,1149.77
603.050,1139.97
604.038,1191.03
605.025,1125.43
606.013,1135.33
607.000,1101.97
607.987,1119.17
608.975,1074.20
609.962,1087.17
610.949,1076.53
611.936,1047.77
612.922,1097.27
613.909,1060.23
614.895,1057.50
615.882,1085.43
616.868,1064.73
617.854,1040.67
618.841,1084.23
619.826,1051.60
620.812,1025.53
621.798,1057.80
622.784,1017.53
623.769,1029.70
624.755,1001.90
625.740,981.40
626.725,1034.40
627.711,1000.73
628.698,1019.63
629.683,1010.70
630.667,1021.67
631.652,976.13
632.637,1031.07
633.621,992.87
634.606,982.57
635.590,986.33
636.574,970.57
637.558,952.17
638.542,972.03
639.526,939.07
640.510,988.00
641.493,917.50
642.477,964.33
643.460,962.70
644.444,951.97
645.427,940.67
646.410,933.57
647.393,961.97
648.376,972.50
649.359,919.87
650.341,964.77
651.324,964.10
652.307,926.60
653.289,934.33
654.271,934.13
655.253,913.53
656.235,883.27
657.217,930.00
658.199,928.60
659.181,903.70
660.163,847.60
661.144,893.83
662.126,922.73
663.107,919.97
664.088,945.70
665.069,913.93
666.050,875.40
667.033,882.37
668.014,889.97
668.995,851.37
669.975,895.97
670.956,881.67
671.936,852.87
672.916,884.93
673.896,873.00
674.876,866.77
675.856,836.23
676.836,870.07
677.816,845.77
678.795,816.97
679.775,831.53
680.754,878.17
681.734,831.63
682.713,783.33
683.692,834.80
684.671,825.50
685.650,831.83
686.629,825.73
687.607,841.80
688.586,796.13
689.564,822.00
690.543,814.40
691.523,815.90
692.501,833.03
693.479,823.97
694.457,812.53
695.435,808.63
696.413,790.57
697.390,817.33
698.368,820.17
699.345,807.47
700.322,835.50
701.300,814.83
702.277,777.97
703.254,805.87
704.231,820.57
705.207,815.60
706.184,788.83
707.161,792.30
708.137,780.20
709.113,770.80
710.090,809.80
711.068,831.87
712.044,807.67
713.020,780.93
713.996,800.07
714.971,791.47
715.947,813.37
716.922,778.37
717.898,788.43
718.873,733.30
719.848,760.33
720.823,789.27
721.798,752.10
722.773,793.83
723.748,799.27
724.723,755.80
725.697,768.33
726.672,790.97
727.646,763.53
728.622,766.97
729.596,750.37
730.570,792.43
731.544,817.33
732.518,790.77
733.492,785.37
734.466,779.07
735.439,738.97
736.413,766.10
737.386,781.07
738.359,759.70
739.332,754.37
740.305,726.90
741.278,731.20
742.251,744.00
743.224,773.73
744.196,752.47
745.171,759.53
746.143,787.70
747.115,704.03
748.087,784.40
749.059,746.43
750.031,729.23
751.003,742.90
751.975,797.37
752.947,736.13
753.918,718.60
754.890,734.93
755.861,715.87
756.832,749.90
757.803,753.50
758.774,719.80
759.747,728.47
760.718,747.40
761.689,748.73
762.659,728.63
763.630,736.97
764.600,752.63
765.570,717.97
766.540,676.03
767.510,725.10
768.480,730.23
769.450,765.17
770.420,689.40
771.390,709.60
772.359,767.30
773.329,716.83
774.300,737.63
775.269,726.67
776.238,708.40
777.207,747.17
778.176,727.13
779.145,692.67
780.114,731.77
781.083,732.90
782.051,705.23
783.019,737.50
783.988,726.23
784.956,707.63
785.924,680.37
786.894,684.20
787.862,715.40
788.830,664.53
789.797,690.03
790.765,692.97
791.732,710.63
792.700,695.00
793.667,724.73
794.634,724.57
795.601,697.80
796.568,706.97
797.535,706.73
798.502,674.17
799.468,756.43
800.437,712.93
801.403,695.53
802.370,679.63
803.336,733.60
804.302,741.03
805.268,713.40
806.234,653.17
807.200,680.33
808.166,704.83
809.131,671.67
810.097,704.90
811.062,636.97
812.027,692.47
812.994,696.70
813.960,667.27
814.925,720.57
815.889,680.67
816.854,651.87
817.819,672.10
818.783,647.10
819.748,635.73
820.712,692.80
821.677,692.63
822.641,703.83
823.605,664.23
824.571,695.03
825.534,688.83
826.498,676.07
827.462,673.77
828.425,696.07
829.389,656.20
830.352,676.93
831.315,686.47
832.279,694.10
833.242,684.73
834.204,665.43
835.167,657.93
836.132,698.13
837.095,697.13
838.057,716.07
839.020,677.63
839.982,676.40
840.944,683.47
841.906,662.00
842.868,683.03
843.830,644.27
844.792,684.13
845.753,620.67
846.715,691.77
847.679,687.30
848.640,672.77
849.601,661.07
850.562,636.90
851.523,668.67
852.484,659.13
853.445,664.90
854.406,666.40
855.367,682.33
856.327,645.00
857.288,683.13
858.248,664.90
859.210,644.87
860.170,669.20
861.130,681.63
862.090,625.20
863.050,596.30
864.010,677.23
864.969,640.20
865.929,627.97
866.888,643.53
867.848,676.13
868.807,622.23
869.766,680.60
870.727,661.30
871.686,675.20
872.645,672.63
873.604,635.77
874.562,656.10
875.521,648.43
876.479,646.37
877.437,648.80
878.396,637.37
879.354,651.37
880.312,669.47
881.270,666.03
882.229,652.47
883.187,666.80
884.145,669.43
885.102,691.97
886.059,631.80
887.017,647.13
887.974,668.73
888.931,619.13
889.888,647.37
890.845,644.60
891.802,636.07
892.758,626.27
893.717,672.13
894.673,613.30
895.630,621.00
896.586,674.10
897.542,665.40
898.498,638.77
899.454,658.47
900.410,657.50
901.366,632.43
902.321,663.77
903.277,615.20
904.232,669.03
905.189,620.47
906.145,648.93
907.100,620.50
908.055,610.23
909.010,637.43
909.965,658.90
910.919,629.63
911.874,645.03
912.828,640.57
913.783,627.87
914.737,647.43
915.693,638.03
916.648,591.80
917.602,639.17
918.555,679.13
919.509,614.93
920.463,664.33
921.417,605.53
922.370,619.37
923.324,643.40
924.277,600.90
925.230,614.67
926.183,629.77
927.138,588.43
928.091,625.30
929.044,622.03
929.996,635.83
930.949,639.53
931.902,612.73
932.854,594.47
933.806,602.70
934.758,639.30
935.711,617.50
936.663,582.33
937.614,617.10
938.568,634.33
939.520,577.30
940.471,619.83
941.423,633.37
942.374,621.43
943.326,632.03
944.277,599.43
945.228,624.43
946.179,610.80
947.130,569.10
948.080,651.00
949.031,613.73
949.984,611.07
950.934,652.70
951.884,612.50
952.835,632.30
953.785,607.00
954.735,606.63
955.685,607.90
956.635,613.47
957.585,627.47
958.534,603.80
959.484,589.90
960.433,630.53
961.383,581.97
962.334,614.30
963.283,592.17
964.232,640.00
965.181,619.60
966.130,617.13
967.079,596.97
968.027,622.83
968.976,600.03
969.924,635.90
970.873,616.20
971.821,578.50
972.769,612.90
973.719,627.07
974.667,609.27
975.615,631.73
976.562,605.63
977.510,627.53
978.458,600.70
979.405,638.80
980.352,658.87
981.300,624.43
982.247,647.47
983.194,603.23
984.141,604.23
985.088,625.63
986.036,599.53
986.983,616.87
987.930,646.23
988.876,638.47
989.822,613.93
990.769,595.73
991.715,623.03
992.661,613.83
993.607,611.97
994.553,601.23
995.498,644.73
996.444,638.67
997.389,611.83
998.337,645.20
999.282,620.13
1000.227,643.07
1001.173,625.13
1002.118,625.10
1003.062,633.07
1004.007,633.93
1004.952,592.27
1005.897,642.20
1006.841,653.23
1007.786,610.17
1008.730,627.97
1009.674,620.37
1010.618,603.50
1011.564,647.07
1012.508,632.70
1013.452,610.63
1014.396,643.33
1015.339,631.73
1016.283,621.93
1017.226,585.83
1018.170,633.90
1019.113,621.53
1020.056,614.30
1020.999,589.87
1021.942,619.47
1022.885,647.57
1023.828,606.20
1024.770,662.33
1025.715,650.27
1026.657,631.13
1027.600,633.93
1028.542,585.67
1029.484,592.67
1030.426,652.10
1031.368,626.90
1032.310,629.63
1033.251,628.20
1034.193,624.60
1035.135,623.63
1036.076,648.77
1037.017,650.37
1037.959,645.17
1038.900,626.23
1039.843,632.57
1040.784,681.73
1041.725,623.27
1042.665,622.10
1043.606,603.37
1044.547,650.93
1045.487,669.97
1046.427,642.87
1047.368,653.13
1048.308,635.97
1049.248,623.47
1050.188,681.07
1051.128,638.43
1052.067,636.80
1053.007,616.27
1053.947,655.73
1054.886,614.70
1055.827,632.50
1056.766,677.60
1057.706,637.63
1058.645,620.80
1059.584,648.23
1060.522,647.00
1061.461,637.30
1062.400,634.60
1063.338,613.57
1064.277,652.57
1065.215,647.73
1066.154,651.67
1067.092,615.73
1068.030,601.80
1068.968,640.90
1069.906,634.73
1070.843,647.07
1071.781,679.53
1072.720,623.13
1073.658,640.53
1074.595,606.83
1075.533,656.27
1076.470,637.53
1077.407,628.70
1078.344,672.77
1079.281,650.83
1080.217,651.37
1081.154,607.67
1082.091,641.83
1083.027,624.20
1083.964,651.60
1084.900,674.33
1085.836,625.93
1086.772,628.23
1087.708,625.03
1088.644,646.87
1089.580,651.10
1090.515,628.70
1091.451,624.20
1092.388,651.20
1093.324,641.37
1094.259,622.33
1095.194,646.53
1096.129,641.03
1097.064,651.73
1097.999,637.77
1098.934,643.63
1099.869,647.00
1100.803,637.00
1101.738,630.27
1102.672,635.03
1103.607,678.43
1104.541,641.73
1105.475,612.73
1106.409,663.10
1107.343,637.67
1108.277,654.60
1109.210,646.77
1110.144,659.83
1111.078,647.63
1112.011,629.57
1112.944,635.33
1113.878,630.60
1114.811,641.37
1115.744,649.53
1116.678,655.83
1117.611,671.03
1118.544,628.60
1119.477,625.33
1120.409,678.30
1121.342,672.97
1122.274,653.10
1123.206,1496.70
1124.138,640.30
1125.070,661.57
1126.002,646.80
1126.934,659.27
1127.866,645.57
1128.798,624.53
1129.729,655.70
1130.661,667.23
1131.592,608.00
1132.523,655.87
1133.454,644.53
1134.385,648.17
1135.317,660.37
1136.247,650.87
1137.178,657.90
1138.109,660.53
1139.039,662.87
1139.970,672.53
1140.900,625.50
1141.831,639.47
1142.761,650.27
1143.691,666.07
1144.621,634.17
1145.551,629.70
1146.480,660.97
1147.410,647.73
1148.340,673.20
1149.269,645.97
1150.199,653.53
1151.128,709.83
1152.057,655.57
1152.979,646.30
1153.898,664.07
1154.819,680.57
1155.739,673.50
1156.658,672.13
1157.579,682.00
1158.498,685.47
1159.419,650.07
1160.338,677.50
1161.256,687.13
1162.177,684.87
1163.095,676.30
1164.016,684.77
1164.934,692.00
1165.852,699.63
1166.772,707.37
1167.690,686.37
1168.610,709.27
1169.528,640.53
1170.446,697.97
1171.365,712.20
1172.283,660.03
1173.202,646.83
1174.120,676.23
1175.037,693.53
1175.956,699.13
1176.873,658.63
1177.792,681.63
1178.709,639.23
1179.626,663.83
1180.544,709.90
1181.461,690.37
1182.379,727.10
1183.296,695.33
1184.212,688.23
1185.130,705.97
1186.046,682.90
1186.962,723.47
1187.880,689.37
1188.796,653.47
1189.714,659.50
1190.629,735.93
1191.545,711.07
1192.462,731.57
1193.378,700.63
1194.295,696.20
1195.210,715.33
1196.125,735.13
1197.042,715.03
1197.957,708.33
1198.872,715.40
1199.788,703.93
1200.703,760.23
1201.619,737.70
1202.534,754.83
1203.448,759.00
1204.364,736.07
1205.278,737.87
1206.192,708.33
1207.108,757.97
1208.022,690.57
1208.938,760.10
1209.851,727.90
1210.765,759.53
1211.680,721.43
1212.594,723.20
1213.507,766.07
1214.422,743.63
1215.335,776.30
1216.248,733.23
1217.163,732.90
1218.076,766.57
1218.990,762.77
1219.903,798.27
1220.816,757.03
1221.730,774.23
1222.642,789.13
1223.554,785.73
1224.469,798.80
1225.380,747.30
1226.292,769.33
1227.206,754.53
1228.118,769.50
1229.032,795.20
1229.943,812.70
1230.855,764.13
1231.768,830.17
1232.679,777.47
1233.590,815.87
1234.503,827.80
1235.414,799.13
1236.325,786.47
1237.238,825.37
1238.149,837.03
1239.059,777.97
1239.972,827.07
1240.882,847.53
1241.793,803.87
1242.705,813.53
1243.615,836.37
1244.525,835.37
1245.437,820.00
1246.347,818.97
1247.259,830.23
1248.168,840.70
1249.078,879.03
1249.989,812.37
1250.899,821.27
1251.808,892.10
1252.719,817.67
1253.628,838.80
1254.537,838.87
1255.448,857.40
1256.357,865.87
1257.266,845.60
1258.176,843.20
1259.085,834.93
1259.993,836.17
1260.904,880.50
1261.812,851.83
1262.720,865.17
1263.630,895.03
1264.538,871.63
1265.446,849.03
1266.356,849.07
1267.263,848.00
1268.171,866.50
1269.080,863.70
1269.988,878.30
1270.895,864.53
1271.804,885.33
1272.711,866.00
1273.619,872.67
1274.527,863.70
1275.434,876.33
1276.341,842.40
1277.248,859.03
1278.156,824.60
1279.063,883.20
1279.969,847.97
1280.877,854.20
1281.783,873.47
1282.690,842.47
1283.598,840.83
1284.503,841.50
1285.409,858.57
1286.317,841.40
1287.223,845.27
1288.128,845.13
1289.036,865.13
1289.941,871.13
1290.846,826.17
1291.751,804.43
1292.658,849.97
1293.563,846.63
1294.468,808.23
1295.375,849.10
1296.280,838.77
1297.184,813.13
1298.091,777.77
1298.995,801.37
1299.900,811.63
1300.806,808.63
1301.710,802.83
1302.614,816.47
1303.518,777.83
1304.424,798.43
1305.327,794.27
1306.231,750.53
1307.137,781.80
1308.040,770.37
1308.943,807.40
1309.847,736.00
1310.752,757.23
1311.655,734.67
1312.558,772.73
1313.463,738.67
1314.366,766.57
1315.269,737.10
1316.171,762.83
1317.076,709.20
1317.978,742.07
1318.881,726.00
1319.785,726.00
1320.687,810.70
1321.589,742.63
1322.491,734.63
1323.395,730.47
1324.297,718.20
1325.198,745.57
1326.102,732.97
1327.004,708.97
1327.905,703.23
1328.806,729.23
1329.709,702.03
1330.611,710.73
1331.512,720.97
1332.413,680.10
1333.316,726.43
1334.216,644.63
1335.117,698.90
1336.020,666.23
1336.920,637.60
1337.821,689.27
1338.721,671.47
1339.623,636.60
1340.523,674.80
1341.423,659.07
1342.323,648.47
1343.225,668.83
1344.125,640.23
1345.025,647.43
1345.924,643.63
1346.826,661.77
1347.725,658.60
1348.624,605.00
1349.524,612.33
1350.425,632.10
1351.324,624.30
1352.223,617.50
1353.121,607.30
1354.022,591.80
1354.921,633.33
1355.819,597.27
1356.718,609.70
1357.618,589.63
1358.516,574.17
1359.415,599.23
1360.313,607.03
1361.213,580.43
1362.111,609.37
1363.008,599.37
1363.906,612.30
1364.806,583.03
1365.703,610.47
1366.601,569.07
1367.498,570.33
1368.397,581.30
1369.295,587.63
1370.192,570.07
1371.089,536.57
1371.987,541.97
1372.884,572.77
1373.781,544.87
1374.678,577.80
1375.574,573.47
1376.473,560.13
1377.369,598.47
1378.265,509.80
1379.161,563.17
1380.059,557.43
1380.955,549.70
1381.851,527.13
1382.747,522.00
1383.643,506.47
1384.540,526.03
1385.436,515.03
1386.331,545.23
1387.227,532.47
1388.124,472.17
1389.019,555.50
1389.914,499.33
1390.809,514.80
1391.704,588.40
1392.601,505.60
1393.495,528.37
1394.390,501.50
1395.285,538.63
1396.179,531.10
1397.075,501.90
1397.969,511.50
1398.864,504.57
1399.758,543.17
1400.652,490.30
1401.547,506.73
1402.441,496.93
1403.335,475.73
1404.229,525.73
1405.122,490.20
1406.017,531.93
1406.911,490.63
1407.804,494.03
1408.697,483.97
1409.590,473.83
1410.485,484.80
1411.378,535.33
1412.271,504.77
1413.163,459.93
1414.056,508.13
1414.949,511.43
1415.843,492.37
1416.735,487.03
1417.627,449.80
1418.520,487.00
1419.412,461.47
1420.306,509.90
1421.197,507.70
1422.089,467.10
1422.981,477.53
1423.873,514.30
1424.764,469.77
1425.657,451.13
1426.549,457.57
1427.440,490.03
1428.331,479.93
1429.222,457.27
1430.113,488.40
1431.006,497.83
1431.897,459.30
1432.787,470.73
1433.678,461.57
1434.568,474.47
1435.459,418.27
1436.351,471.50
1437.241,465.03
1438.131,494.43
1439.021,457.13
1439.911,485.77
1440.801,448.37
1441.693,488.53
1442.583,464.53
1443.472,467.40
1444.362,439.50
1445.251,458.60
1446.140,458.17
1447.030,427.33
1447.921,451.47
1448.810,430.80
1449.699,468.83
1450.588,451.53
1451.476,472.73
1452.365,450.10
1453.254,443.43
1454.144,448.50
1455.032,415.70
1455.921,451.80
1456.809,447.03
1457.697,427.03
1458.585,464.90
1459.473,475.33
1460.361,434.47
1461.251,485.57
1462.138,434.50
1463.026,469.77
1463.913,466.17
1464.801,455.03
1465.688,429.70
1466.575,437.20
1467.463,414.10
1468.351,480.47
1469.238,417.87
1470.125,425.77
1471.012,453.67
1471.899,419.77
1472.785,430.17
1473.672,439.40
1474.558,454.53
1475.446,410.93
1476.333,463.30
1477.219,421.97
1478.105,464.33
1478.991,402.67
1479.877,412.47
1480.762,430.97
1481.648,433.67
1482.534,425.47
1483.419,440.53
1484.307,403.83
1485.192,430.70
1486.077,439.10
1486.962,396.73
1487.847,426.87
1488.732,413.10
1489.617,419.23
1490.502,415.87
1491.387,422.50
1492.271,423.80
1493.156,423.27
1494.042,387.20
1494.927,402.57
1495.811,420.40
1496.695,408.80
1497.579,433.10
1498.463,416.97
1499.347,421.23
1500.231,426.50
1501.114,439.50
1501.998,429.30
1502.881,384.00
1503.765,413.97
1504.648,435.43
1505.533,434.60
1506.417,386.07
1507.300,435.53
1508.183,461.90
1509.066,389.93
1509.948,402.00
1510.831,417.60
1511.714,406.43
1512.596,426.27
1513.479,404.43
1514.361,387.63
1515.243,394.33
1516.125,412.83
1517.008,372.87
1517.890,369.33
1518.771,434.63
1519.655,400.10
1520.537,376.23
1521.419,410.40
1522.300,411.40
1523.182,436.33
1524.063,369.97
1524.944,386.00
1525.825,430.43
1526.707,403.60
1527.588,387.93
1528.468,414.43
1529.349,402.13
1530.230,411.50
1531.111,379.77
1531.991,449.47
1532.872,418.43
1533.752,376.20
1534.632,385.80
1535.513,384.07
1536.393,412.83
1537.273,380.53
1538.153,426.10
1539.032,377.03
1539.912,382.47
1540.792,385.07
1541.672,419.00
1542.551,412.97
1543.430,388.67
1544.310,430.13
1545.189,404.17
1546.068,390.23
1546.947,410.07
1547.826,394.07
1548.705,406.03
1549.584,450.93
1550.462,404.83
1551.341,396.17
1552.219,390.83
1553.098,388.13
1553.976,402.97
1554.854,410.60
1555.733,410.27
1556.611,374.30
1557.489,414.27
1558.367,382.77
1559.244,402.30
1560.122,364.03
1561.000,355.27
1561.877,378.50
1562.755,415.03
1563.632,400.80
1564.509,367.87
1565.386,363.23
1566.264,367.53
1567.141,389.03
1568.017,354.67
1568.894,418.60
1569.771,365.83
1570.648,385.37
1571.524,405.67
1572.401,363.40
1573.277,371.07
1574.153,403.37
1575.029,358.07
1575.906,407.83
1576.781,414.70
1577.657,430.53
1578.533,394.33
1579.409,386.57
1580.285,364.50
1581.160,374.10
1582.036,395.40
1582.911,400.23
1583.786,351.53
1584.662,377.77
1585.537,429.83
1586.412,392.27
1587.287,386.93
1588.160,347.23
1589.035,362.83
1589.909,376.60
1590.784,360.50
1591.658,450.60
1592.533,371.17
1593.407,356.37
1594.281,367.40
1595.155,398.10
1596.029,393.20
1596.903,391.93
1597.777,379.27
1598.651,371.50
1599.525,378.60
1600.398,399.67
1601.272,362.40
1602.144,360.57
1603.017,383.30
1603.890,407.27
1604.763,362.13
1605.636,389.03
1606.509,363.30
1607.382,378.37
1608.255,368.83
1609.128,389.83
1610.000,374.07
1610.873,389.60
1611.746,351.83
1612.616,353.17
1613.488,354.80
1614.361,350.07
1615.233,375.80
1616.105,377.53
1616.977,399.30
1617.849,376.67
1618.720,357.27
1619.592,363.23
1620.464,335.77
1621.333,376.60
1622.205,348.50
1623.076,398.83
1623.947,372.57
1624.818,341.27
1625.689,402.63
1626.560,382.90
1627.431,401.03
1628.302,363.40
1629.171,391.40
1630.042,362.67
1630.912,394.43
1631.782,383.47
1632.653,373.13
1633.523,382.47
1634.393,355.83
1635.263,362.73
1636.131,365.07
1637.001,370.43
1637.871,367.27
1638.741,387.50
1639.611,360.77
1640.480,325.07
1641.350,365.20
1642.219,382.80
1643.087,356.93
1643.956,362.10
1644.825,352.97
1645.694,362.30
1646.563,374.57
1647.432,378.93
1648.299,348.00
1649.167,345.87
1650.036,392.20
1650.904,345.73
1651.773,356.07
1652.641,369.03
1653.509,391.33
1654.376,364.07
1655.244,381.17
1656.112,365.83
1656.980,370.60
1657.847,396.30
1658.715,377.00
1659.581,345.20
1660.448,348.67
1661.316,373.23
1662.183,365.33
1663.051,352.87
1663.918,383.23
1664.783,363.47
1665.650,359.77
1666.517,353.20
1667.384,382.57
1668.251,315.67
1669.115,368.27
1669.982,332.97
1670.849,343.33
1671.715,344.60
1672.581,347.97
1673.446,358.13
1674.312,364.17
1675.178,367.23
1676.044,372.47
1676.910,341.87
1677.774,361.67
1678.639,330.47
1679.505,408.43
1680.370,390.07
1681.236,331.73
1682.099,342.97
1682.965,345.23
1683.830,324.67
1684.695,350.83
1685.560,335.20
1686.423,380.00
1687.288,369.07
1688.153,361.47
1689.017,381.43
1689.880,389.27
1690.745,355.87
1691.609,333.73
1692.473,354.33
1693.338,360.40
1694.200,353.50
1695.064,337.27
1695.928,336.43
1696.792,347.27
1697.654,377.60
1698.517,337.97
1699.381,351.67
1700.245,350.80
1701.106,362.07
1701.969,333.60
1702.833,392.13
1703.696,359.90
1704.557,343.57
1705.420,368.87
1706.283,339.13
1707.146,405.03
1708.007,352.40
1708.870,367.93
1709.732,368.50
1710.595,394.77
1711.455,339.93
1712.318,380.57
1713.180,380.97
1714.040,369.07
1714.902,359.50
1715.764,379.07
1716.626,371.00
1717.486,339.67
1718.348,310.27
1719.209,995.40
1720.071,373.37
1720.930,366.87
1721.792,348.13
1722.653,369.50
1723.512,358.80
1724.374,352.87
1725.234,369.93
1726.095,343.57
1726.954,358.33
1727.815,320.47
1728.676,339.87
1729.535,360.27
1730.395,388.60
1731.256,379.10
1732.114,370.10
1732.974,347.20
1733.834,329.93
1734.693,338.93
1735.553,327.80
1736.413,344.90
1737.272,324.40
1738.130,347.07
1738.990,362.63
1739.849,331.20
1740.707,374.07
1741.566,315.27
1742.426,350.53
1743.283,368.73
1744.142,357.23
1745.001,378.07
1745.858,330.07
1746.717,351.23
1747.576,391.10
1748.433,343.93
1749.292,328.83
1750.150,378.10
1751.007,337.33
1751.865,358.10
1752.723,320.00
1753.579,341.50
1754.438,367.17
1755.296,321.07
1756.152,370.63
1757.010,359.10
1757.865,358.17
1758.723,355.90
1759.581,348.50
1760.436,358.13
1761.294,349.70
1762.151,324.83
1763.006,357.27
1763.864,367.23
1764.721,360.97
1765.576,326.30
1766.433,347.30
1767.288,327.17
1768.144,380.33
1769.001,406.67
1769.856,350.03
1770.712,372.83
1771.568,348.57
1772.423,367.63
1773.279,338.80
1774.133,341.43
1774.989,348.73
1775.845,382.70
1776.699,356.37
1777.555,353.10
1778.409,357.73
1779.265,356.47
1780.120,372.67
1780.974,380.03
1781.829,353.60
1782.682,344.43
1783.538,343.00
1784.393,379.07
1785.246,373.93
1786.101,384.97
1786.954,311.70
1787.808,366.57
1788.661,384.80
1789.516,353.63
1790.370,327.90
1791.223,397.17
1792.077,336.33
1792.930,351.73
1793.784,385.00
1794.636,358.53
1795.490,365.57
1796.344,321.93
1797.196,365.50
1798.049,299.53
1798.901,345.57
1799.755,292.50
1800.606,334.20
1801.460,333.17
1802.311,339.33
1803.165,341.73
1804.018,325.53
1804.869,339.73
1805.722,378.33
1806.573,368.47
1807.426,332.03
1808.276,310.70
1809.129,339.50
1809.980,342.37
1810.832,320.73
1811.683,295.20
1812.535,344.53
1813.385,347.07
1814.237,375.67
1815.089,327.93
1815.940,348.27
1816.791,343.03
1817.641,362.53
1818.493,353.03
1819.343,316.97
1820.194,377.30
1821.044,324.60
1821.895,366.77
1822.745,305.40
1823.596,385.20
1824.445,343.77
1825.296,311.67
1826.145,367.93
1826.996,309.90
1827.845,364.40
1828.695,346.43
1829.544,357.00
1830.395,355.37
1831.243,307.47
1832.094,354.40
1832.942,343.43
1833.792,349.67
1834.640,353.60
1835.490,337.43
1836.338,359.27
1837.186,340.00
1838.036,347.33
1838.884,358.53
1839.733,385.43
1840.581,382.97
1841.430,338.23
1842.278,378.23
1843.127,359.93
1843.974,364.30
1844.823,351.43
1845.671,327.90
1846.519,339.83
1847.366,368.43
1848.213,321.27
1849.062,359.77
1849.909,366.53
1850.757,359.47
1851.604,311.60
1852.452,362.93
1853.298,369.00
1854.146,321.83
1854.993,357.80
1855.839,349.33
1856.687,324.47
1857.532,308.07
1858.380,315.40
1859.226,335.60
1860.073,352.27
1860.919,378.43
1861.765,314.70
1862.612,380.30
1863.457,350.87
1864.304,366.17
1865.150,369.20
1865.995,361.70
1866.842,344.33
1867.686,340.77
1868.533,349.00
1869.378,331.47
1870.223,313.73
1871.069,334.20
1871.914,366.93
1872.760,351.60
1873.604,343.20
1874.448,325.60
1875.294,336.90
1876.139,340.20
1876.984,324.07
1877.828,346.90
1878.672,364.87
1879.518,340.60
1880.361,356.37
1881.205,402.87
1882.050,343.77
1882.894,343.73
1883.739,374.30
1884.582,353.50
1885.425,315.10
1886.270,367.03
1887.113,346.60
1887.956,350.83
1888.801,366.40
1889.644,346.13
1890.486,356.70
1891.331,371.47
1892.173,370.93
1893.017,377.90
1893.860,354.73
1894.702,310.40
1895.546,341.03
1896.388,357.03
1897.230,326.67
1898.074,373.83
1898.916,339.60
1899.757,367.47
1900.601,293.17
1901.443,350.83
1902.284,376.93
1903.125,341.60
1903.969,338.90
1904.810,294.17
1905.651,346.37
1906.494,338.27
1907.335,379.73
1908.176,323.23
1909.018,359.77
1909.859,344.73
1910.700,325.50
1911.542,332.53
1912.383,318.93
1913.223,327.63
1914.064,322.63
1914.906,334.73
1915.746,346.77
1916.586,343.40
1917.428,345.17
1918.268,384.30
1919.107,331.57
1919.947,353.10
1920.789,329.03
1921.628,339.87
1922.468,361.33
1923.309,323.90
1924.148,339.47
1924.988,321.37
1925.827,338.07
1926.667,307.90
1927.507,362.83
1928.345,350.27
1929.184,320.40
1930.025,343.60
1930.864,367.80
1931.702,365.30
1932.541,363.33
1933.381,334.60
1934.219,382.40
1935.057,360.63
1935.896,371.27
1936.735,320.70
1937.573,319.03
1938.411,374.30
1939.249,360.73
1940.089,319.80
1940.927,318.67
1941.764,359.77
1942.602,342.27
1943.439,327.00
1944.278,398.20
1945.115,360.07
1945.953,358.70
1946.790,355.27
1947.628,357.23
1948.465,358.20
1949.302,378.67
1950.139,341.70
1950.976,371.47
1951.814,339.93
1952.651,357.13
1953.487,378.87
1954.323,369.53
1955.160,343.07
1955.998,355.03
1956.834,334.60
1957.670,340.50
1958.506,343.47
1959.342,321.43
1960.177,379.10
1961.015,375.53
1961.850,328.57
1962.686,331.60
1963.521,349.33
1964.357,341.03
1965.192,311.93
1966.029,353.33
1966.864,315.87
1967.699,405.20
1968.534,355.70
1969.369,360.27
1970.204,329.40
1971.040,357.33
1971.875,345.13
1972.709,339.47
1973.544,351.33
1974.378,381.13
1975.212,366.80
1976.047,328.67
1976.882,383.03
1977.716,350.80
1978.550,364.03
1979.384,355.77
1980.218,361.30
1981.052,358.07
1981.885,384.30
1982.719,348.93
1983.554,347.07
1984.388,365.50
1985.221,340.10
1986.054,342.00
1986.887,357.50
1987.720,367.43
1988.553,376.53
1989.386,351.07
1990.219,395.70
1991.053,384.53
1991.886,374.33
1992.719,377.37
1993.551,342.87
1994.383,377.47
1995.216,354.43
1996.048,357.53
1996.880,353.13
1997.712,337.80
1998.544,390.40
1999.376,373.57
2000.208,360.17
2001.040,345.97
2001.873,331.50
2002.705,371.07
2003.536,331.70
2004.367,325.17
2005.199,370.30
2006.030,351.67
2006.861,314.77
2007.692,331.13
2008.523,338.57
2009.354,330.03
2010.185,346.67
2011.016,380.47
2011.846,350.77
2012.677,345.73
2013.507,351.17
2014.338,370.83
2015.168,323.33
2015.999,342.93
2016.829,356.10
2017.659,396.80
2018.489,328.00
2019.319,335.30
2020.149,312.17
2020.980,341.63
2021.810,327.20
2022.639,319.33
2023.469,331.37
2024.298,355.97
2025.128,326.30
2025.957,395.33
2026.786,350.03
2027.615,311.13
2028.444,309.07
2029.273,384.80
2030.102,366.30
2030.931,329.00
2031.758,370.20
2032.586,363.07
2033.415,355.80
2034.243,333.23
2035.072,361.90
2035.900,351.87
2036.728,336.97
2037.556,355.87
2038.385,352.87
2039.213,363.30
2040.040,353.90
2040.868,407.43
2041.696,354.20
2042.524,352.23
2043.351,346.77
2044.179,350.77
2045.006,375.00
2045.006,375.00

Max Intensity Wave.,218.899
Max Intensity Data,5011.70
Min Intensity Wave.,1799.755
Min Intensity Data,292.50
FWHM Wave.,399.054
FWHM Value,3.23
Pressure Wave.,1123.203
Pressure Value [GPa],3847.73896
G/D Ratio,0.55129
G/D Gband Wave.,1549.578
G/D Gband Intensity,450.94
G/D Dband Wave.,1302.398
G/D Dband Intensity,817.96

<< BACKGROUND SPECTRUM >>
Wave[dcm-1],No28
146.591,2332.00
147.626,2131.00
148.664,2109.00
149.699,2628.00
150.737,2340.00
151.772,2480.00
152.809,2458.00
153.846,2347.00
154.881,2517.00
155.918,2016.00
156.953,2373.00
157.989,2684.00
159.026,2554.00
160.060,2723.00
161.096,3008.00
162.130,2555.00
163.167,2684.00
164.200,2540.00
165.236,2739.00
166.272,2752.00
167.305,2383.00
168.341,2625.00
169.374,2845.00
170.409,2882.00
171.445,2824.00
172.477,2614.00
173.512,2506.00
174.545,2774.00
175.580,2985.00
176.614,3157.00
177.647,2877.00
178.681,3160.00
179.713,3449.00
180.747,2915.00
181.781,2855.00
182.813,3119.00
183.847,3212.00
184.878,2814.00
185.912,3079.00
186.945,3267.00
187.976,3202.00
189.010,2816.00
190.043,2968.00
191.073,3026.00
192.106,2783.00
193.137,3312.00
194.170,2664.00
195.202,3033.00
196.232,2797.00
197.265,3091.00
198.297,3188.00
199.327,2876.00
200.359,3066.00
201.388,3450.00
202.420,2998.00
203.452,3224.00
204.481,2785.00
205.512,3424.00
206.544,3192.00
207.573,3185.00
208.604,3568.00
209.635,3659.00
210.663,3028.00
211.694,3096.00
212.725,2915.00
213.753,2901.00
214.783,3507.00
215.813,3340.00
216.841,3144.00
217.871,3279.00
218.899,2995.00
219.929,3263.00
220.959,2945.00
221.986,3261.00
223.016,2831.00
224.045,3246.00
225.072,3194.00
226.101,3374.00
227.130,3371.00
228.157,2923.00
229.185,2465.00
230.214,3349.00
231.241,2964.00
232.269,2558.00
233.297,2839.00
234.323,3343.00
235.351,2902.00
236.379,3224.00
237.407,2868.00
238.433,3050.00
239.460,3278.00
240.488,3284.00
241.513,3345.00
242.540,3229.00
243.568,3344.00
244.592,3337.00
245.619,3325.00
246.646,3058.00
247.671,3107.00
248.697,2933.00
249.724,3139.00
250.748,3118.00
251.774,3100.00
252.801,3423.00
253.827,3226.00
254.850,3174.00
255.876,2761.00
256.902,3225.00
257.925,3111.00
258.951,2849.00
259.976,2901.00
260.999,3182.00
262.024,2962.00
263.049,3758.00
264.074,3239.00
265.097,3139.00
266.122,3193.00
267.146,3113.00
268.168,3313.00
269.193,2946.00
270.217,3347.00
271.241,2799.00
272.263,2935.00
273.287,3275.00
274.311,2869.00
275.332,3419.00
276.356,2978.00
277.379,3214.00
278.402,3235.00
279.424,3031.00
280.447,3015.00
281.470,2829.00
282.492,3185.00
283.513,2991.00
284.536,3319.00
285.558,3251.00
286.581,3234.00
287.601,2958.00
288.623,2918.00
289.645,3182.00
290.665,3226.00
291.687,3252.00
292.709,3228.00
293.730,3528.00
294.750,2977.00
295.771,2824.00
296.792,3228.00
297.813,3029.00
298.832,3172.00
299.853,2874.00
300.874,3085.00
301.895,3089.00
302.913,3103.00
303.934,3393.00
304.954,3161.00
305.975,3303.00
306.993,2839.00
308.013,3255.00
309.033,3155.00
310.052,3031.00
311.072,3039.00
312.090,3190.00
313.109,3374.00
314.129,3558.00
315.148,3115.00
316.165,3167.00
317.184,3337.00
318.203,2820.00
319.222,2840.00
320.238,3195.00
321.257,2935.00
322.275,2799.00
323.294,3077.00
324.312,3260.00
325.328,3362.00
326.346,3431.00
327.364,3358.00
328.382,3298.00
329.397,3213.00
330.415,3328.00
331.432,3370.00
332.450,3349.00
333.467,3576.00
334.482,2690.00
335.499,3529.00
336.516,2996.00
337.533,2607.00
338.547,2932.00
339.564,2937.00
340.580,3199.00
341.597,3056.00
342.613,3567.00
343.627,3064.00
344.643,3131.00
345.659,3231.00
346.675,3116.00
347.690,3003.00
348.704,3217.00
349.719,2983.00
350.735,2894.00
351.750,3301.00
352.765,3098.00
353.778,3103.00
354.793,3259.00
355.808,2917.00
356.822,3318.00
357.837,2725.00
358.851,3386.00
359.864,3059.00
360.878,2823.00
361.892,3077.00
362.906,3351.00
363.920,2680.00
364.932,3195.00
365.945,3199.00
366.959,3095.00
367.972,3059.00
368.986,2756.00
369.999,3503.00
371.010,2931.00
372.023,3523.00
373.036,3059.00
374.049,3513.00
375.061,3183.00
376.072,3106.00
377.084,2971.00
378.097,2782.00
379.109,3382.00
380.121,3135.00
381.133,2776.00
382.143,3267.00
383.155,2821.00
384.166,3025.00
385.178,3211.00
386.189,3313.00
387.201,2819.00
388.212,3023.00
389.221,3034.00
390.232,3079.00
391.243,3027.00
392.254,3150.00
393.264,2943.00
394.275,3336.00
395.283,3346.00
396.294,3779.00
397.304,3656.00
398.314,3222.00
399.324,3133.00
400.334,2732.00
401.344,3267.00
402.351,2757.00
403.361,3329.00
404.370,3018.00
405.380,3017.00
406.389,3422.00
407.398,3270.00
408.407,3203.00
409.414,3260.00
410.423,3426.00
411.431,2845.00
412.440,2800.00
413.448,3454.00
414.457,2940.00
415.465,2900.00
416.471,2982.00
417.479,3169.00
418.487,2920.00
419.495,3413.00
420.503,3232.00
421.510,2708.00
422.518,3230.00
423.525,3325.00
424.530,3510.00
425.537,3021.00
426.544,3341.00
427.551,2968.00
428.558,3707.00
429.565,3560.00
430.571,2970.00
431.578,3014.00
432.582,2989.00
433.588,3042.00
434.595,2701.00
435.601,3444.00
436.607,3340.00
437.612,2838.00
438.618,3477.00
439.624,3103.00
440.627,3029.00
441.633,3208.00
442.638,3737.00
443.643,3210.00
444.648,3118.00
445.653,3298.00
446.658,3001.00
447.663,3147.00
448.667,3000.00
449.672,3004.00
450.674,3057.00
451.678,2822.00
452.682,2987.00
453.687,2957.00
454.690,3753.00
455.694,3390.00
456.698,2644.00
457.702,2771.00
458.705,2883.00
459.709,2922.00
460.710,2956.00
461.713,3148.00
462.716,3191.00
463.719,3122.00
464.722,3296.00
465.725,3049.00
466.727,2921.00
467.730,3146.00
468.732,2888.00
469.735,3432.00
470.737,2995.00
471.737,2998.00
472.739,3020.00
473.741,2924.00
474.742,3169.00
475.744,3254.00
476.746,3137.00
477.747,3049.00
478.748,3276.00
479.750,3015.00
480.751,3116.00
481.752,3859.00
482.753,3179.00
483.751,3676.00
484.752,2714.00
485.753,3100.00
486.753,2983.00
487.753,3034.00
488.754,3537.00
489.754,2772.00
490.754,3412.00
491.754,3235.00
492.754,2773.00
493.753,3111.00
494.753,2996.00
495.752,3485.00
496.752,3130.00
497.749,3111.00
498.748,2934.00
499.747,3552.00
500.746,3186.00
501.745,2876.00
502.744,2870.00
503.742,3449.00
504.741,3048.00
505.739,2585.00
506.737,2993.00
507.735,3280.00
508.734,3530.00
509.732,3292.00
510.729,3447.00
511.727,2998.00
512.725,3053.00
513.720,2841.00
514.718,3349.00
515.715,2710.00
516.712,2745.00
517.709,3055.00
518.706,3006.00
519.703,3138.00
520.700,3317.00
521.696,3503.00
522.693,3006.00
523.689,2964.00
524.686,3248.00
525.682,2943.00
526.678,3559.00
527.674,2985.00
528.670,2701.00
529.666,3644.00
530.661,3567.00
531.657,3783.00
532.652,3267.00
533.648,3090.00
534.641,3328.00
535.636,3187.00
536.631,3203.00
537.626,3270.00
538.621,2809.00
539.616,2709.00
540.610,2619.00
541.605,3127.00
542.599,3153.00
543.593,3074.00
544.587,4030.00
545.581,2927.00
546.575,3130.00
547.569,3135.00
548.563,2792.00
549.557,2769.00
550.550,2879.00
551.543,2832.00
552.537,3243.00
553.530,2881.00
554.523,2879.00
555.516,3235.00
556.509,3081.00
557.502,2695.00
558.494,3278.00
559.487,3030.00
560.479,3275.00
561.472,3298.00
562.464,3243.00
563.456,3441.00
564.448,3048.00
565.440,3111.00
566.432,3533.00
567.423,2994.00
568.415,2970.00
569.404,3192.00
570.396,2938.00
571.387,3239.00
572.378,3172.00
573.369,4097.00
574.360,3805.00
575.351,3016.00
576.341,2930.00
577.332,2933.00
578.323,2798.00
579.313,2982.00
580.303,3333.00
581.293,3240.00
582.283,3078.00
583.273,3244.00
584.263,3097.00
585.253,3214.00
586.243,3313.00
587.232,2761.00
588.222,3048.00
589.211,3306.00
590.200,3113.00
591.189,3066.00
592.178,3083.00
593.167,3552.00
594.156,3401.00
595.145,2970.00
596.133,3560.00
597.122,3210.00
598.110,3300.00
599.098,3194.00
600.086,3077.00
601.074,3305.00
602.062,2936.00
603.050,2840.00
604.038,3168.00
605.025,2898.00
606.013,3303.00
607.000,3509.00
607.987,3117.00
608.975,3189.00
609.962,2864.00
610.949,3279.00
611.936,3411.00
612.922,3263.00
613.909,2806.00
614.895,3497.00
615.882,2906.00
616.868,3102.00
617.854,2870.00
618.841,3088.00
619.826,3203.00
620.812,3105.00
621.798,2865.00
622.784,3304.00
623.769,3196.00
624.755,2815.00
625.740,3214.00
626.725,2787.00
627.711,2964.00
628.698,3161.00
629.683,2894.00
630.667,3268.00
631.652,2875.00
632.637,3016.00
633.621,3274.00
634.606,3028.00
635.590,3220.00
636.574,3058.00
637.558,3200.00
638.542,3153.00
639.526,2972.00
640.510,2693.00
641.493,3192.00
642.477,3077.00
643.460,2782.00
644.444,3348.00
645.427,3371.00
646.410,2776.00
647.393,3055.00
648.376,3140.00
649.359,3016.00
650.341,3166.00
651.324,3156.00
652.307,3151.00
653.289,3032.00
654.271,2965.00
655.253,3008.00
656.235,3252.00
657.217,3334.00
658.199,2693.00
659.181,2839.00
660.163,3145.00
661.144,2968.00
662.126,2952.00
663.107,2851.00
664.088,4811.00
665.069,3322.00
666.050,2920.00
667.033,2809.00
668.014,3131.00
668.995,2699.00
669.975,3061.00
670.956,3076.00
671.936,3259.00
672.916,3034.00
673.896,3199.00
674.876,2990.00
675.856,2969.00
676.836,2815.00
677.816,2389.00
678.795,2951.00
679.775,2784.00
680.754,3098.00
681.734,3262.00
682.713,3306.00
683.692,2874.00
684.671,2736.00
685.650,2845.00
686.629,2949.00
687.607,2828.00
688.586,2889.00
689.564,2944.00
690.543,3375.00
691.523,2447.00
692.501,2912.00
693.479,3019.00
694.457,2885.00
695.435,2971.00
696.413,2767.00
697.390,2584.00
698.368,2767.00
699.345,3194.00
700.322,3014.00
701.300,3155.00
702.277,3164.00
703.254,3358.00
704.231,2620.00
705.207,3029.00
706.184,2879.00
707.161,2749.00
708.137,2940.00
709.113,2912.00
710.090,2867.00
711.068,2638.00
712.044,2671.00
713.020,2985.00
713.996,2681.00
714.971,2887.00
715.947,2909.00
716.922,2894.00
717.898,2819.00
718.873,3027.00
719.848,2830.00
720.823,2775.00
721.798,3100.00
722.773,2818.00
723.748,2582.00
724.723,3129.00
725.697,2950.00
726.672,2825.00
727.646,2592.00
728.622,3089.00
729.596,2711.00
730.570,2792.00
731.544,3115.00
732.518,3348.00
733.492,2899.00
734.466,2947.00
735.439,3125.00
736.413,3211.00
737.386,2509.00
738.359,2495.00
739.332,2587.00
740.305,2955.00
741.278,3442.00
742.251,3031.00
743.224,2783.00
744.196,2643.00
745.171,3231.00
746.143,3092.00
747.115,2894.00
748.087,2766.00
749.059,3202.00
750.031,3003.00
751.003,3800.00
751.975,3305.00
752.947,2789.00
753.918,3212.00
754.890,2662.00
755.861,2877.00
756.832,3123.00
757.803,2926.00
758.774,2953.00
759.747,2693.00
760.718,3302.00
761.689,2807.00
762.659,2689.00
763.630,3242.00
764.600,2623.00
765.570,3172.00
766.540,3286.00
767.510,3031.00
768.480,3136.00
769.450,2778.00
770.420,2948.00
771.390,2757.00
772.359,2823.00
773.329,2765.00
774.300,2561.00
775.269,2848.00
776.238,3107.00
777.207,3239.00
778.176,2583.00
779.145,2906.00
780.114,2749.00
781.083,2627.00
782.051,2843.00
783.019,2751.00
783.988,3181.00
784.956,2942.00
785.924,3099.00
786.894,3003.00
787.862,2783.00
788.830,3287.00
789.797,2724.00
790.765,2678.00
791.732,2843.00
792.700,2751.00
793.667,2647.00
794.634,2820.00
795.601,2845.00
796.568,2859.00
797.535,2918.00
798.502,3575.00
799.468,2944.00
800.437,2462.00
801.403,2743.00
802.370,3412.00
803.336,3051.00
804.302,2917.00
805.268,2496.00
806.234,2667.00
807.200,2833.00
808.166,2854.00
809.131,2678.00
810.097,3073.00
811.062,3818.00
812.027,3098.00
812.994,2661.00
813.960,2705.00
814.925,3023.00
815.889,2589.00
816.854,3137.00
817.819,2739.00
818.783,2842.00
819.748,3235.00
820.712,2803.00
821.677,2687.00
822.641,2763.00
823.605,2812.00
824.571,3218.00
825.534,2827.00
826.498,2763.00
827.462,2898.00
828.425,2681.00
829.389,3176.00
830.352,2906.00
831.315,2987.00
832.279,2561.00
833.242,2843.00
834.204,2733.00
835.167,2740.00
836.132,3122.00
837.095,2567.00
838.057,2726.00
839.020,2894.00
839.982,2929.00
840.944,2748.00
841.906,2722.00
842.868,3036.00
843.830,2640.00
844.792,3130.00
845.753,2804.00
846.715,2488.00
847.679,2649.00
848.640,2677.00
849.601,2836.00
850.562,3381.00
851.523,2776.00
852.484,2554.00
853.445,3078.00
854.406,2785.00
855.367,2786.00
856.327,3152.00
857.288,2545.00
858.248,2756.00
859.210,2787.00
860.170,2576.00
861.130,3084.00
862.090,2526.00
863.050,2741.00
864.010,2746.00
864.969,2997.00
865.929,2688.00
866.888,2597.00
867.848,2898.00
868.807,2769.00
869.766,2914.00
870.727,2797.00
871.686,3063.00
872.645,3068.00
873.604,3410.00
874.562,2837.00
875.521,2883.00
876.479,3467.00
877.437,2672.00
878.396,2673.00
879.354,3254.00
880.312,2659.00
881.270,2727.00
882.229,3205.00
883.187,2679.00
884.145,2728.00
885.102,2970.00
886.059,2918.00
887.017,3002.00
887.974,3023.00
888.931,3188.00
889.888,2585.00
890.845,2497.00
891.802,2413.00
892.758,2735.00
893.717,2472.00
894.673,2663.00
895.630,2723.00
896.586,2951.00
897.542,2738.00
898.498,2589.00
899.454,2915.00
900.410,2738.00
901.366,2746.00
902.321,2665.00
903.277,2783.00
904.232,2798.00
905.189,2577.00
906.145,2697.00
907.100,2294.00
908.055,2818.00
909.010,3016.00
909.965,2387.00
910.919,2879.00
911.874,2632.00
912.828,2840.00
913.783,2861.00
914.737,2398.00
915.693,2826.00
916.648,3005.00
917.602,3025.00
918.555,2818.00
919.509,2937.00
920.463,2801.00
921.417,2871.00
922.370,2643.00
923.324,2737.00
924.277,2754.00
925.230,2842.00
926.183,2467.00
927.138,2798.00
928.091,3027.00
929.044,2905.00
929.996,2724.00
930.949,2714.00
931.902,2912.00
932.854,2943.00
933.806,2674.00
934.758,3028.00
935.711,3084.00
936.663,2865.00
937.614,2878.00
938.568,2805.00
939.520,2492.00
940.471,2776.00
941.423,2851.00
942.374,2965.00
943.326,2826.00
944.277,2685.00
945.228,2921.00
946.179,2774.00
947.130,3175.00
948.080,2692.00
949.031,2635.00
949.984,2763.00
950.934,2757.00
951.884,2547.00
952.835,2773.00
953.785,2842.00
954.735,2682.00
955.685,2430.00
956.635,2698.00
957.585,2703.00
958.534,2717.00
959.484,2845.00
960.433,2673.00
961.383,2560.00
962.334,3059.00
963.283,2878.00
964.232,2911.00
965.181,2791.00
966.130,2880.00
967.079,2710.00
968.027,2793.00
968.976,2822.00
969.924,2663.00
970.873,2889.00
971.821,2857.00
972.769,3019.00
973.719,2925.00
974.667,2551.00
975.615,2787.00
976.562,2819.00
977.510,2486.00
978.458,2706.00
979.405,2886.00
980.352,2803.00
981.300,3050.00
982.247,2848.00
983.194,2629.00
984.141,2708.00
985.088,2795.00
986.036,2877.00
986.983,3097.00
987.930,3191.00
988.876,2397.00
989.822,3054.00
990.769,2646.00
991.715,2675.00
992.661,2499.00
993.607,2882.00
994.553,3393.00
995.498,2637.00
996.444,2334.00
997.389,2867.00
998.337,2581.00
999.282,2958.00
1000.227,2707.00
1001.173,2780.00
1002.118,2515.00
1003.062,2974.00
1004.007,2752.00
1004.952,3106.00
1005.897,3013.00
1006.841,2754.00
1007.786,2537.00
1008.730,2485.00
1009.674,3272.00
1010.618,2743.00
1011.564,2545.00
1012.508,2446.00
1013.452,3038.00
1014.396,2792.00
1015.339,2682.00
1016.283,2770.00
1017.226,2861.00
1018.170,2780.00
1019.113,2972.00
1020.056,2824.00
1020.999,2832.00
1021.942,2666.00
1022.885,2925.00
1023.828,3096.00
1024.770,2545.00
1025.715,2805.00
1026.657,2753.00
1027.600,2826.00
1028.542,3052.00
1029.484,2863.00
1030.426,2907.00
1031.368,2862.00
1032.310,2653.00
1033.251,2600.00
1034.193,2774.00
1035.135,2567.00
1036.076,2685.00
1037.017,2583.00
1037.959,2896.00
1038.900,2844.00
1039.843,2866.00
1040.784,2774.00
1041.725,2891.00
1042.665,2697.00
1043.606,2869.00
1044.547,2796.00
1045.487,2396.00
1046.427,2735.00
1047.368,2839.00
1048.308,2290.00
1049.248,2597.00
1050.188,2733.00
1051.128,2687.00
1052.067,2746.00
1053.007,2477.00
1053.947,2423.00
1054.886,2647.00
1055.827,2555.00
1056.766,2992.00
1057.706,2506.00
1058.645,2739.00
1059.584,2810.00
1060.522,3054.00
1061.461,2516.00
1062.400,2545.00
1063.338,2735.00
1064.277,2553.00
1065.215,2573.00
1066.154,2441.00
1067.092,2663.00
1068.030,2742.00
1068.968,2934.00
1069.906,3099.00
1070.843,3010.00
1071.781,2775.00
1072.720,2901.00
1073.658,2892.00
1074.595,2691.00
1075.533,2604.00
1076.470,2642.00
1077.407,3079.00
1078.344,2804.00
1079.281,2862.00
1080.217,2344.00
1081.154,2753.00
1082.091,2802.00
1083.027,2525.00
1083.964,2992.00
1084.900,2589.00
1085.836,2691.00
1086.772,2968.00
1087.708,2531.00
1088.644,2913.00
1089.580,2750.00
1090.515,2831.00
1091.451,2688.00
1092.388,2775.00
1093.324,2511.00
1094.259,3341.00
1095.194,2819.00
1096.129,2677.00
1097.064,2618.00
1097.999,2895.00
1098.934,2598.00
1099.869,2599.00
1100.803,2787.00
1101.738,2797.00
1102.672,2470.00
1103.607,2860.00
1104.541,2611.00
1105.475,2631.00
1106.409,2462.00
1107.343,2668.00
1108.277,2485.00
1109.210,2770.00
1110.144,2727.00
1111.078,2737.00
1112.011,2516.00
1112.944,2842.00
1113.878,2809.00
1114.811,2239.00
1115.744,2642.00
1116.678,2365.00
1117.611,2621.00
1118.544,2674.00
1119.477,2847.00
1120.409,2584.00
1121.342,3186.00
1122.274,2810.00
1123.206,3156.00
1124.138,2754.00
1125.070,3040.00
1126.002,2925.00
1126.934,2333.00
1127.866,2628.00
1128.798,2413.00
1129.729,2440.00
1130.661,2711.00
1131.592,2675.00
1132.523,2797.00
1133.454,2847.00
1134.385,2345.00
1135.317,2698.00
1136.247,2654.00
1137.178,2931.00
1138.109,2426.00
1139.039,3071.00
1139.970,2885.00
1140.900,2672.00
1141.831,2426.00
1142.761,2289.00
1143.691,2823.00
1144.621,2743.00
1145.551,2792.00
1146.480,2760.00
1147.410,2934.00
1148.340,2347.00
1149.269,2446.00
1150.199,2660.00
1151.128,3076.00
1152.057,2516.00
1152.979,2671.00
1153.898,2676.00
1154.819,2768.00
1155.739,2685.00
1156.658,2608.00
1157.579,2730.00
1158.498,2692.00
1159.419,2253.00
1160.338,2738.00
1161.256,2757.00
1162.177,2549.00
1163.095,2684.00
1164.016,2762.00
1164.934,2952.00
1165.852,2870.00
1166.772,2646.00
1167.690,2708.00
1168.610,2729.00
1169.528,2753.00
1170.446,2229.00
1171.365,2581.00
1172.283,2596.00
1173.202,2726.00
1174.120,2750.00
1175.037,2539.00
1175.956,2506.00
1176.873,2581.00
1177.792,2588.00
1178.709,3244.00
1179.626,2622.00
1180.544,2897.00
1181.461,2571.00
1182.379,2768.00
1183.296,2692.00
1184.212,2341.00
1185.130,2534.00
1186.046,3059.00
1186.962,2676.00
1187.880,3001.00
1188.796,2802.00
1189.714,2537.00
1190.629,2810.00
1191.545,2760.00
1192.462,2607.00
1193.378,2688.00
1194.295,2418.00
1195.210,2712.00
1196.125,2817.00
1197.042,2791.00
1197.957,2708.00
1198.872,2580.00
1199.788,2617.00
1200.703,3003.00
1201.619,2711.00
1202.534,2540.00
1203.448,2753.00
1204.364,2643.00
1205.278,2359.00
1206.192,2766.00
1207.108,3197.00
1208.022,3118.00
1208.938,2526.00
1209.851,2870.00
1210.765,2916.00
1211.680,2623.00
1212.594,2500.00
1213.507,2621.00
1214.422,3124.00
1215.335,2800.00
1216.248,2654.00
1217.163,2737.00
1218.076,3303.00
1218.990,2832.00
1219.903,2449.00
1220.816,2528.00
1221.730,2663.00
1222.642,2563.00
1223.554,2600.00
1224.469,2767.00
1225.380,2688.00
1226.292,2358.00
1227.206,2855.00
1228.118,3048.00
1229.032,2311.00
1229.943,2565.00
1230.855,2673.00
1231.768,2406.00
1232.679,2804.00
1233.590,2662.00
1234.503,2898.00
1235.414,2559.00
1236.325,2588.00
1237.238,2753.00
1238.149,2768.00
1239.059,2545.00
1239.972,2883.00
1240.882,2468.00
1241.793,2850.00
1242.705,3065.00
1243.615,2647.00
1244.525,2766.00
1245.437,2265.00
1246.347,2772.00
1247.259,2878.00
1248.168,3130.00
1249.078,2901.00
1249.989,2994.00
1250.899,2513.00
1251.808,2513.00
1252.719,2656.00
1253.628,2559.00
1254.537,3084.00
1255.448,2515.00
1256.357,2514.00
1257.266,2709.00
1258.176,2431.00
1259.085,2417.00
1259.993,2511.00
1260.904,2512.00
1261.812,2519.00
1262.720,3219.00
1263.630,2843.00
1264.538,2518.00
1265.446,2809.00
1266.356,2679.00
1267.263,2991.00
1268.171,2491.00
1269.080,2768.00
1269.988,2858.00
1270.895,2606.00
1271.804,2642.00
1272.711,2879.00
1273.619,2844.00
1274.527,2508.00
1275.434,2804.00
1276.341,2516.00
1277.248,2731.00
1278.156,3032.00
1279.063,2533.00
1279.969,2805.00
1280.877,3604.00
1281.783,2879.00
1282.690,2777.00
1283.598,2675.00
1284.503,2547.00
1285.409,2509.00
1286.317,3075.00
1287.223,3102.00
1288.128,2751.00
1289.036,2563.00
1289.941,2602.00
1290.846,2711.00
1291.751,2524.00
1292.658,2603.00
1293.563,3130.00
1294.468,2737.00
1295.375,2835.00
1296.280,2925.00
1297.184,3442.00
1298.091,2828.00
1298.995,2874.00
1299.900,3090.00
1300.806,2583.00
1301.710,2432.00
1302.614,2256.00
1303.518,2968.00
1304.424,2640.00
1305.327,2890.00
1306.231,2724.00
1307.137,2848.00
1308.040,2764.00
1308.943,2704.00
1309.847,2957.00
1310.752,2912.00
1311.655,2376.00
1312.558,2468.00
1313.463,2656.00
1314.366,2567.00
1315.269,2760.00
1316.171,2669.00
1317.076,2629.00
1317.978,2488.00
1318.881,2311.00
1319.785,2576.00
1320.687,2587.00
1321.589,2314.00
1322.491,2521.00
1323.395,2771.00
1324.297,3281.00
1325.198,2810.00
1326.102,2480.00
1327.004,2510.00
1327.905,3099.00
1328.806,2635.00
1329.709,2777.00
1330.611,2600.00
1331.512,2496.00
1332.413,3159.00
1333.316,2703.00
1334.216,2907.00
1335.117,2424.00
1336.020,2744.00
1336.920,2739.00
1337.821,2519.00
1338.721,2954.00
1339.623,2789.00
1340.523,2640.00
1341.423,2546.00
1342.323,2982.00
1343.225,2760.00
1344.125,2531.00
1345.025,2564.00
1345.924,2348.00
1346.826,3029.00
1347.725,3093.00
1348.624,2959.00
1349.524,2580.00
1350.425,2649.00
1351.324,2787.00
1352.223,2882.00
1353.121,2686.00
1354.022,2924.00
1354.921,3078.00
1355.819,2834.00
1356.718,2744.00
1357.618,2453.00
1358.516,2841.00
1359.415,3104.00
1360.313,2789.00
1361.213,2672.00
1362.111,2970.00
1363.008,3358.00
1363.906,2657.00
1364.806,2711.00
1365.703,2765.00
1366.601,2521.00
1367.498,2536.00
1368.397,2886.00
1369.295,2743.00
1370.192,2526.00
1371.089,2822.00
1371.987,2700.00
1372.884,2968.00
1373.781,2514.00
1374.678,2697.00
1375.574,2521.00
1376.473,2829.00
1377.369,2900.00
1378.265,2580.00
1379.161,2658.00
1380.059,2378.00
1380.955,2806.00
1381.851,2485.00
1382.747,2600.00
1383.643,2665.00
1384.540,2512.00
1385.436,2621.00
1386.331,2759.00
1387.227,2856.00
1388.124,2879.00
1389.019,2485.00
1389.914,2707.00
1390.809,2346.00
1391.704,3073.00
1392.601,2626.00
1393.495,2991.00
1394.390,2886.00
1395.285,2933.00
1396.179,2778.00
1397.075,2696.00
1397.969,2751.00
1398.864,2400.00
1399.758,2631.00
1400.652,2752.00
1401.547,2521.00
1402.441,2486.00
1403.335,3101.00
1404.229,2719.00
1405.122,2793.00
1406.017,2659.00
1406.911,2860.00
1407.804,3139.00
1408.697,2715.00
1409.590,2555.00
1410.485,2891.00
1411.378,2737.00
1412.271,2387.00
1413.163,2798.00
1414.056,2839.00
1414.949,3082.00
1415.843,2742.00
1416.735,2670.00
1417.627,2760.00
1418.520,2667.00
1419.412,2969.00
1420.306,2844.00
1421.197,2976.00
1422.089,2945.00
1422.981,3187.00
1423.873,2854.00
1424.764,2832.00
1425.657,2785.00
1426.549,2870.00
1427.440,2914.00
1428.331,2609.00
1429.222,2413.00
1430.113,2742.00
1431.006,2877.00
1431.897,2621.00
1432.787,2730.00
1433.678,2651.00
1434.568,2521.00
1435.459,2995.00
1436.351,2907.00
1437.241,2864.00
1438.131,2850.00
1439.021,2478.00
1439.911,2667.00
1440.801,2794.00
1441.693,2928.00
1442.583,2748.00
1443.472,2713.00
1444.362,2858.00
1445.251,2660.00
1446.140,2632.00
1447.030,2949.00
1447.921,2930.00
1448.810,2557.00
1449.699,3084.00
1450.588,2756.00
1451.476,2603.00
1452.365,2821.00
1453.254,2626.00
1454.144,2601.00
1455.032,2884.00
1455.921,2446.00
1456.809,3023.00
1457.697,2532.00
1458.585,2646.00
1459.473,2632.00
1460.361,2561.00
1461.251,2755.00
1462.138,2804.00
1463.026,2664.00
1463.913,2944.00
1464.801,2623.00
1465.688,2826.00
1466.575,2749.00
1467.463,3216.00
1468.351,2537.00
1469.238,2723.00
1470.125,2333.00
1471.012,2759.00
1471.899,2820.00
1472.785,2546.00
1473.672,2715.00
1474.558,2926.00
1475.446,2895.00
1476.333,2865.00
1477.219,2541.00
1478.105,2670.00
1478.991,2713.00
1479.877,3050.00
1480.762,2707.00
1481.648,2574.00
1482.534,2864.00
1483.419,2775.00
1484.307,2861.00
1485.192,2695.00
1486.077,2556.00
1486.962,2613.00
1487.847,2466.00
1488.732,2566.00
1489.617,2734.00
1490.502,3012.00
1491.387,2862.00
1492.271,2552.00
1493.156,2564.00
1494.042,2565.00
1494.927,2965.00
1495.811,2616.00
1496.695,2868.00
1497.579,3009.00
1498.463,2730.00
1499.347,2770.00
1500.231,2736.00
1501.114,2764.00
1501.998,2995.00
1502.881,2792.00
1503.765,3033.00
1504.648,3124.00
1505.533,2824.00
1506.417,2767.00
1507.300,2672.00
1508.183,2751.00
1509.066,2233.00
1509.948,2989.00
1510.831,3094.00
1511.714,2532.00
1512.596,2854.00
1513.479,3007.00
1514.361,2963.00
1515.243,2773.00
1516.125,2885.00
1517.008,3045.00
1517.890,2726.00
1518.771,2738.00
1519.655,2947.00
1520.537,2711.00
1521.419,2567.00
1522.300,2776.00
1523.182,2844.00
1524.063,2911.00
1524.944,3055.00
1525.825,2906.00
1526.707,2544.00
1527.588,2532.00
1528.468,2806.00
1529.349,2395.00
1530.230,2656.00
1531.111,2928.00
1531.991,2741.00
1532.872,2425.00
1533.752,2735.00
1534.632,2608.00
1535.513,2609.00
1536.393,2883.00
1537.273,3078.00
1538.153,3363.00
1539.032,2489.00
1539.912,2739.00
1540.792,2762.00
1541.672,2741.00
1542.551,2835.00
1543.430,3350.00
1544.310,2734.00
1545.189,2624.00
1546.068,3178.00
1546.947,2830.00
1547.826,3061.00
1548.705,2725.00
1549.584,2917.00
1550.462,2684.00
1551.341,2909.00
1552.219,2806.00
1553.098,2895.00
1553.976,2959.00
1554.854,3152.00
1555.733,2935.00
1556.611,2684.00
1557.489,2526.00
1558.367,2751.00
1559.244,2897.00
1560.122,2754.00
1561.000,2849.00
1561.877,3061.00
1562.755,2591.00
1563.632,2703.00
1564.509,3033.00
1565.386,3158.00
1566.264,2518.00
1567.141,2358.00
1568.017,2927.00
1568.894,2703.00
1569.771,2812.00
1570.648,2861.00
1571.524,2749.00
1572.401,2523.00
1573.277,2531.00
1574.153,2784.00
1575.029,2635.00
1575.906,3479.00
1576.781,2895.00
1577.657,2659.00
1578.533,2976.00
1579.409,2370.00
1580.285,2727.00
1581.160,3186.00
1582.036,2911.00
1582.911,2545.00
1583.786,3132.00
1584.662,2539.00
1585.537,2665.00
1586.412,2778.00
1587.287,2574.00
1588.160,2972.00
1589.035,2407.00
1589.909,2770.00
1590.784,2744.00
1591.658,2476.00
1592.533,2816.00
1593.407,2786.00
1594.281,2644.00
1595.155,3144.00
1596.029,2657.00
1596.903,2676.00
1597.777,2668.00
1598.651,3017.00
1599.525,2444.00
1600.398,2763.00
1601.272,2724.00
1602.144,3316.00
1603.017,2698.00
1603.890,2972.00
1604.763,2858.00
1605.636,2885.00
1606.509,2464.00
1607.382,2576.00
1608.255,2828.00
1609.128,2965.00
1610.000,2715.00
1610.873,2432.00
1611.746,2676.00
1612.616,2704.00
1613.488,2355.00
1614.361,2775.00
1615.233,2713.00
1616.105,2972.00
1616.977,2632.00
1617.849,2587.00
1618.720,3095.00
1619.592,3083.00
1620.464,2865.00
1621.333,3236.00
1622.205,2767.00
1623.076,2702.00
1623.947,2751.00
1624.818,3030.00
1625.689,2853.00
1626.560,2662.00
1627.431,2772.00
1628.302,3182.00
1629.171,2869.00
1630.042,3079.00
1630.912,3404.00
1631.782,3345.00
1632.653,2560.00
1633.523,2911.00
1634.393,3014.00
1635.263,2628.00
1636.131,2755.00
1637.001,2672.00
1637.871,2379.00
1638.741,2368.00
1639.611,2508.00
1640.480,2923.00
1641.350,2620.00
1642.219,2566.00
1643.087,2252.00
1643.956,3204.00
1644.825,3023.00
1645.694,2976.00
1646.563,2921.00
1647.432,2777.00
1648.299,2801.00
1649.167,2914.00
1650.036,2548.00
1650.904,2915.00
1651.773,3006.00
1652.641,2767.00
1653.509,2925.00
1654.376,2629.00
1655.244,2787.00
1656.112,2804.00
1656.980,2774.00
1657.847,2591.00
1658.715,2931.00
1659.581,2682.00
1660.448,3028.00
1661.316,2248.00
1662.183,2806.00
1663.051,2811.00
1663.918,2777.00
1664.783,2777.00
1665.650,2856.00
1666.517,2937.00
1667.384,2770.00
1668.251,2846.00
1669.115,2995.00
1669.982,2752.00
1670.849,3067.00
1671.715,2760.00
1672.581,2920.00
1673.446,2902.00
1674.312,2792.00
1675.178,3190.00
1676.044,2848.00
1676.910,2876.00
1677.774,2809.00
1678.639,2445.00
1679.505,2716.00
1680.370,2881.00
1681.236,3448.00
1682.099,2735.00
1682.965,2810.00
1683.830,2397.00
1684.695,2595.00
1685.560,2716.00
1686.423,2883.00
1687.288,2888.00
1688.153,2822.00
1689.017,2678.00
1689.880,2817.00
1690.745,2926.00
1691.609,2625.00
1692.473,2937.00
1693.338,2989.00
1694.200,3054.00
1695.064,2804.00
1695.928,2694.00
1696.792,2783.00
1697.654,3267.00
1698.517,2817.00
1699.381,2525.00
1700.245,2421.00
1701.106,3070.00
1701.969,2695.00
1702.833,2886.00
1703.696,2674.00
1704.557,2746.00
1705.420,2628.00
1706.283,2810.00
1707.146,2873.00
1708.007,2580.00
1708.870,2553.00
1709.732,2432.00
1710.595,2637.00
1711.455,2527.00
1712.318,2673.00
1713.180,3051.00
1714.040,2809.00
1714.902,2951.00
1715.764,2762.00
1716.626,2530.00
1717.486,2774.00
1718.348,3082.00
1719.209,4102.00
1720.071,2412.00
1720.930,2504.00
1721.792,2620.00
1722.653,2597.00
1723.512,2664.00
1724.374,2729.00
1725.234,2824.00
1726.095,2809.00
1726.954,2766.00
1727.815,2933.00
1728.676,2783.00
1729.535,2993.00
1730.395,2711.00
1731.256,2664.00
1732.114,2811.00
1732.974,2239.00
1733.834,3174.00
1734.693,2951.00
1735.553,2821.00
1736.413,3210.00
1737.272,2686.00
1738.130,2708.00
1738.990,2843.00
1739.849,2683.00
1740.707,3777.00
1741.566,2856.00
1742.426,2824.00
1743.283,3174.00
1744.142,2662.00
1745.001,2411.00
1745.858,2984.00
1746.717,2853.00
1747.576,2845.00
1748.433,2941.00
1749.292,3423.00
1750.150,3397.00
1751.007,2991.00
1751.865,2991.00
1752.723,2834.00
1753.579,2715.00
1754.438,2995.00
1755.296,3027.00
1756.152,2315.00
1757.010,2445.00
1757.865,2982.00
1758.723,2422.00
1759.581,3106.00
1760.436,2754.00
1761.294,3142.00
1762.151,2788.00
1763.006,2689.00
1763.864,2409.00
1764.721,2981.00
1765.576,2864.00
1766.433,2945.00
1767.288,2698.00
1768.144,2814.00
1769.001,2675.00
1769.856,2872.00
1770.712,2982.00
1771.568,2565.00
1772.423,2664.00
1773.279,2710.00
1774.133,2692.00
1774.989,3196.00
1775.845,3150.00
1776.699,3028.00
1777.555,2756.00
1778.409,3328.00
1779.265,2721.00
1780.120,2709.00
1780.974,2737.00
1781.829,2376.00
1782.682,2856.00
1783.538,2614.00
1784.393,2798.00
1785.246,2642.00
1786.101,2844.00
1786.954,2957.00
1787.808,2984.00
1788.661,2465.00
1789.516,2696.00
1790.370,2732.00
1791.223,2938.00
1792.077,2793.00
1792.930,2874.00
1793.784,2633.00
1794.636,2796.00
1795.490,2733.00
1796.344,2842.00
1797.196,2757.00
1798.049,2982.00
1798.901,2673.00
1799.755,3078.00
1800.606,2588.00
1801.460,3335.00
1802.311,3120.00
1803.165,3215.00
1804.018,3172.00
1804.869,2885.00
1805.722,3234.00
1806.573,2805.00
1807.426,2626.00
1808.276,2808.00
1809.129,2690.00
1809.980,3008.00
1810.832,3119.00
1811.683,2765.00
1812.535,3137.00
1813.385,2717.00
1814.237,3048.00
1815.089,2851.00
1815.940,3074.00
1816.791,2734.00
1817.641,2638.00
1818.493,2940.00
1819.343,2883.00
1820.194,2632.00
1821.044,2917.00
1821.895,2996.00
1822.745,2548.00
1823.596,2646.00
1824.445,3212.00
1825.296,2943.00
1826.145,2732.00
1826.996,3029.00
1827.845,2825.00
1828.695,2857.00
1829.544,2786.00
1830.395,2832.00
1831.243,2754.00
1832.094,2530.00
1832.942,3422.00
1833.792,2920.00
1834.640,2860.00
1835.490,2821.00
1836.338,2848.00
1837.186,2697.00
1838.036,2652.00
1838.884,2773.00
1839.733,3090.00
1840.581,2952.00
1841.430,2930.00
1842.278,3116.00
1843.127,2675.00
1843.974,2457.00
1844.823,3225.00
1845.671,2988.00
1846.519,2821.00
1847.366,2842.00
1848.213,2458.00
1849.062,2599.00
1849.909,2512.00
1850.757,3463.00
1851.604,2940.00
1852.452,2697.00
1853.298,2962.00
1854.146,2873.00
1854.993,2830.00
1855.839,3325.00
1856.687,2935.00
1857.532,2957.00
1858.380,2835.00
1859.226,2888.00
1860.073,2923.00
1860.919,2594.00
1861.765,2719.00
1862.612,3010.00
1863.457,3025.00
1864.304,2739.00
1865.150,2912.00
1865.995,2751.00
1866.842,2920.00
1867.686,3050.00
1868.533,2886.00
1869.378,2881.00
1870.223,2854.00
1871.069,2721.00
1871.914,2809.00
1872.760,2789.00
1873.604,2591.00
1874.448,2972.00
1875.294,2999.00
1876.139,2686.00
1876.984,2954.00
1877.828,2459.00
1878.672,2288.00
1879.518,2686.00
1880.361,2976.00
1881.205,2920.00
1882.050,2619.00
1882.894,3344.00
1883.739,2645.00
1884.582,2545.00
1885.425,2656.00
1886.270,3054.00
1887.113,2541.00
1887.956,2903.00
1888.801,2847.00
1889.644,2624.00
1890.486,2385.00
1891.331,2702.00
1892.173,2822.00
1893.017,2843.00
1893.860,3096.00
1894.702,3150.00
1895.546,2828.00
1896.388,3512.00
1897.230,3199.00
1898.074,2681.00
1898.916,2600.00
1899.757,2620.00
1900.601,3552.00
1901.443,3107.00
1902.284,3087.00
1903.125,3304.00
1903.969,3024.00
1904.810,3109.00
1905.651,2906.00
1906.494,3147.00
1907.335,3240.00
1908.176,2964.00
1909.018,2895.00
1909.859,2780.00
1910.700,2699.00
1911.542,3377.00
1912.383,2913.00
1913.223,2454.00
1914.064,2985.00
1914.906,3106.00
1915.746,3171.00
1916.586,3302.00
1917.428,2809.00
1918.268,2823.00
1919.107,2724.00
1919.947,2554.00
1920.789,2768.00
1921.628,3079.00
1922.468,2802.00
1923.309,2684.00
1924.148,3156.00
1924.988,2925.00
1925.827,2806.00
1926.667,2741.00
1927.507,2837.00
1928.345,2645.00
1929.184,3014.00
1930.025,2629.00
1930.864,3066.00
1931.702,3118.00
1932.541,2719.00
1933.381,2980.00
1934.219,2947.00
1935.057,3117.00
1935.896,2501.00
1936.735,2819.00
1937.573,2744.00
1938.411,2599.00
1939.249,2975.00
1940.089,2727.00
1940.927,3114.00
1941.764,3116.00
1942.602,2763.00
1943.439,2731.00
1944.278,2739.00
1945.115,2744.00
1945.953,2553.00
1946.790,2886.00
1947.628,3174.00
1948.465,2923.00
1949.302,2948.00
1950.139,2963.00
1950.976,2665.00
1951.814,3001.00
1952.651,2870.00
1953.487,2593.00
1954.323,3070.00
1955.160,2814.00
1955.998,3203.00
1956.834,2828.00
1957.670,2906.00
1958.506,3072.00
1959.342,2956.00
1960.177,2850.00
1961.015,2948.00
1961.850,2893.00
1962.686,2889.00
1963.521,2872.00
1964.357,3129.00
1965.192,2649.00
1966.029,2983.00
1966.864,2779.00
1967.699,3008.00
1968.534,2866.00
1969.369,3103.00
1970.204,2807.00
1971.040,2858.00
1971.875,2761.00
1972.709,2881.00
1973.544,2667.00
1974.378,2691.00
1975.212,2936.00
1976.047,2758.00
1976.882,2667.00
1977.716,3243.00
1978.550,2507.00
1979.384,2768.00
1980.218,2780.00
1981.052,2750.00
1981.885,2835.00
1982.719,2842.00
1983.554,2992.00
1984.388,3144.00
1985.221,2920.00
1986.054,3106.00
1986.887,2872.00
1987.720,2660.00
1988.553,3129.00
1989.386,2929.00
1990.219,2924.00
1991.053,3113.00
1991.886,2684.00
1992.719,3026.00
1993.551,2371.00
1994.383,2960.00
1995.216,2746.00
1996.048,2532.00
1996.880,3009.00
1997.712,2722.00
1998.544,2792.00
1999.376,2893.00
2000.208,3125.00
2001.040,3311.00
2001.873,2684.00
2002.705,2645.00
2003.536,2910.00
2004.367,2907.00
2005.199,2862.00
2006.030,2729.00
2006.861,2674.00
2007.692,2881.00
2008.523,2710.00
2009.354,2900.00
2010.185,2647.00
2011.016,2953.00
2011.846,3054.00
2012.677,2788.00
2013.507,3204.00
2014.338,3062.00
2015.168,2803.00
2015.999,3397.00
2016.829,2785.00
2017.659,3029.00
2018.489,3412.00
2019.319,2666.00
2020.149,3071.00
2020.980,2882.00
2021.810,2670.00
2022.639,2764.00
2023.469,2752.00
2024.298,2531.00
2025.128,2480.00
2025.957,2421.00
2026.786,2293.00
2027.615,2525.00
2028.444,2739.00
2029.273,2844.00
2030.102,2450.00
2030.931,2727.00
2031.758,2970.00
2032.586,2623.00
2033.415,2700.00
2034.243,2329.00
2035.072,2086.00
2035.900,2600.00
2036.728,2427.00
2037.556,2448.00
2038.385,2470.00
2039.213,2272.00
2040.040,2257.00
2040.868,2182.00
2041.696,2293.00
2042.524,2296.00
2043.351,2513.00
2044.179,2322.00
2045.006,2056.00
