RamanScope Measure Spectrum Data V3.72

<< MEASURE CONDITION >>
Exposure Type,Aver
Exposure Time [sec],15
Exposure Count,30
Measure Time,2023/07/05 09:02:34
Data Name,""
Data Comment,""
Rayleigh Wave[nm],532.0

<< SAMPLE SPECTRUM >>
Wave[dcm-1],No311
146.591,368.40
147.626,462.53
148.664,541.27
149.699,601.23
150.737,706.97
151.772,753.43
152.809,856.67
153.846,908.80
154.881,978.53
155.918,1045.97
156.953,1121.57
157.989,1137.27
159.026,1188.07
160.060,1201.87
161.096,1239.77
162.130,1298.10
163.167,1291.27
164.200,1294.83
165.236,1372.33
166.272,1345.63
167.305,1375.67
168.341,1352.33
169.374,1449.97
170.409,1420.27
171.445,1488.13
172.477,1492.17
173.512,1535.40
174.545,1548.13
175.580,1550.93
176.614,1592.17
177.647,1621.70
178.681,1603.13
179.713,1610.10
180.747,1631.23
181.781,1639.83
182.813,1601.33
183.847,1663.57
184.878,1655.10
185.912,1682.87
186.945,1655.87
187.976,1676.27
189.010,1740.60
190.043,1745.63
191.073,1756.07
192.106,1785.70
193.137,1822.57
194.170,1827.47
195.202,1892.20
196.232,1945.77
197.265,1956.73
198.297,2001.97
199.327,2105.97
200.359,2137.67
201.388,2222.90
202.420,2252.73
203.452,2331.70
204.481,2471.43
205.512,2598.17
206.544,2664.67
207.573,2802.27
208.604,2971.57
209.635,3154.30
210.663,3313.70
211.694,3555.83
212.725,3797.83
213.753,4088.30
214.783,4395.37
215.813,4644.73
216.841,4901.83
217.871,5111.80
218.899,5270.10
219.929,5465.50
220.959,5431.93
221.986,5355.87
223.016,5159.83
224.045,5031.83
225.072,4792.17
226.101,4514.83
227.130,4226.20
228.157,3916.37
229.185,3709.40
230.214,3500.77
231.241,3256.60
232.269,3150.47
233.297,3007.30
234.323,2880.57
235.351,2826.23
236.379,2783.73
237.407,2668.87
238.433,2606.33
239.460,2587.83
240.488,2550.83
241.513,2517.27
242.540,2526.07
243.568,2459.83
244.592,2501.37
245.619,2456.83
246.646,2454.43
247.671,2454.37
248.697,2458.93
249.724,2490.07
250.748,2470.27
251.774,2547.50
252.801,2491.33
253.827,2500.43
254.850,2578.57
255.876,2548.83
256.902,2635.97
257.925,2599.03
258.951,2682.00
259.976,2731.93
260.999,2776.53
262.024,2884.93
263.049,2901.40
264.074,2958.07
265.097,3025.50
266.122,3135.30
267.146,3181.40
268.168,3247.10
269.193,3310.00
270.217,3426.17
271.241,3495.80
272.263,3633.37
273.287,3657.93
274.311,3714.13
275.332,3766.17
276.356,3866.33
277.379,3907.77
278.402,3886.10
279.424,3924.37
280.447,3925.20
281.470,3880.13
282.492,3848.73
283.513,3782.63
284.536,3702.47
285.558,3682.33
286.581,3582.10
287.601,3510.80
288.623,3435.87
289.645,3362.37
290.665,3273.90
291.687,3203.77
292.709,3088.97
293.730,2991.93
294.750,2883.83
295.771,2817.60
296.792,2690.33
297.813,2688.60
298.832,2601.93
299.853,2529.80
300.874,2492.90
301.895,2366.93
302.913,2340.03
303.934,2268.07
304.954,2199.83
305.975,1605.43
306.993,2124.40
308.013,2053.30
309.033,2014.73
310.052,1988.80
311.072,1953.70
312.090,1928.37
313.109,1877.53
314.129,1915.63
315.148,1811.47
316.165,1815.97
317.184,1817.20
318.203,1777.70
319.222,1747.10
320.238,1726.57
321.257,1742.57
322.275,1726.43
323.294,1661.70
324.312,1659.63
325.328,1663.23
326.346,1685.60
327.364,1649.43
328.382,1680.67
329.397,1620.80
330.415,1653.80
331.432,1596.50
332.450,1616.20
333.467,1624.83
334.482,1596.50
335.499,1544.07
336.516,1602.00
337.533,1596.00
338.547,1543.47
339.564,1555.77
340.580,1584.40
341.597,1537.97
342.613,1612.77
343.627,1555.30
344.643,1568.20
345.659,1562.20
346.675,1561.67
347.690,1553.77
348.704,1540.30
349.719,1540.77
350.735,1511.53
351.750,1545.77
352.765,1575.53
353.778,1540.87
354.793,1597.03
355.808,1566.87
356.822,1528.43
357.837,1595.57
358.851,1584.63
359.864,1605.47
360.878,1607.43
361.892,1583.97
362.906,1625.33
363.920,1611.70
364.932,1616.80
365.945,1636.73
366.959,1641.53
367.972,1656.37
368.986,1673.57
369.999,1670.27
371.010,1706.37
372.023,1759.97
373.036,1695.83
374.049,1683.33
375.061,1702.87
376.072,1737.50
377.084,1808.97
378.097,1749.40
379.109,1804.03
380.121,1794.73
381.133,1763.53
382.143,1783.67
383.155,1774.03
384.166,1811.03
385.178,1847.53
386.189,1851.80
387.201,1862.80
388.212,1801.27
389.221,1849.63
390.232,1841.13
391.243,1831.13
392.254,1830.97
393.264,1834.10
394.275,1769.03
395.283,1808.37
396.294,1808.47
397.304,1775.53
398.314,1778.93
399.324,1793.53
400.334,1750.53
401.344,1703.77
402.351,1684.90
403.361,1668.20
404.370,1696.33
405.380,1667.17
406.389,1612.80
407.398,1674.20
408.407,1602.67
409.414,1753.57
410.423,1589.47
411.431,1535.40
412.440,1533.77
413.448,1526.53
414.457,1498.97
415.465,1526.70
416.471,1480.33
417.479,1458.07
418.487,1465.53
419.495,1438.70
420.503,1495.43
421.510,1461.67
422.518,1410.17
423.525,1418.83
424.530,1371.53
425.537,1365.43
426.544,1412.60
427.551,1380.50
428.558,1381.03
429.565,1384.73
430.571,1399.73
431.578,1343.83
432.582,1355.60
433.588,1322.07
434.595,1357.73
435.601,1350.00
436.607,1372.20
437.612,1358.30
438.618,1354.07
439.624,1339.17
440.627,1407.07
441.633,1328.40
442.638,1367.63
443.643,1304.47
444.648,1329.37
445.653,1349.20
446.658,1383.67
447.663,1323.73
448.667,1327.70
449.672,1334.40
450.674,1364.97
451.678,1354.17
452.682,1376.37
453.687,1351.67
454.690,1312.50
455.694,1318.43
456.698,1367.63
457.702,1383.30
458.705,1365.57
459.709,1397.10
460.710,1377.03
461.713,1391.83
462.716,1412.53
463.719,1412.50
464.722,1379.20
465.725,1404.73
466.727,1455.10
467.730,1407.70
468.732,1414.67
469.735,1409.80
470.737,1433.90
471.737,1443.00
472.739,1430.13
473.741,1432.00
474.742,1439.73
475.744,1418.77
476.746,1492.10
477.747,1471.70
478.748,1446.97
479.750,1470.33
480.751,1407.27
481.752,1478.80
482.753,1481.23
483.751,1474.17
484.752,1436.77
485.753,1457.07
486.753,1457.33
487.753,1442.57
488.754,1457.50
489.754,1412.47
490.754,1431.57
491.754,1461.13
492.754,1472.43
493.753,1463.90
494.753,1469.27
495.752,1425.93
496.752,1440.10
497.749,1430.47
498.748,1417.00
499.747,1388.83
500.746,1381.77
501.745,1407.50
502.744,1386.53
503.742,1415.53
504.741,1409.37
505.739,1400.53
506.737,1396.00
507.735,1371.13
508.734,1375.70
509.732,1382.23
510.729,1365.40
511.727,1366.97
512.725,1369.73
513.720,1363.70
514.718,1407.30
515.715,1377.77
516.712,1356.83
517.709,1400.13
518.706,1375.67
519.703,1356.97
520.700,1376.87
521.696,1362.90
522.693,1354.50
523.689,1333.40
524.686,1358.47
525.682,1366.93
526.678,1355.77
527.674,1365.87
528.670,1346.80
529.666,1331.27
530.661,1344.00
531.657,1355.60
532.652,1370.20
533.648,1376.30
534.641,1331.83
535.636,1307.93
536.631,1371.60
537.626,1361.90
538.621,1405.57
539.616,1401.37
540.610,1386.67
541.605,1382.73
542.599,1323.97
543.593,1375.13
544.587,1364.50
545.581,1380.57
546.575,1412.50
547.569,1381.67
548.563,1357.97
549.557,1400.97
550.550,1386.00
551.543,1397.13
552.537,1400.77
553.530,1409.80
554.523,1402.07
555.516,1411.43
556.509,1382.60
557.502,1400.27
558.494,1397.00
559.487,1393.03
560.479,1403.40
561.472,1419.87
562.464,1457.47
563.456,1404.90
564.448,1457.57
565.440,1406.93
566.432,1447.37
567.423,1458.13
568.415,1464.93
569.404,1436.40
570.396,1458.37
571.387,1492.70
572.378,1483.47
573.369,1534.87
574.360,1487.20
575.351,1506.53
576.341,1536.20
577.332,1478.23
578.323,1503.93
579.313,1518.00
580.303,1521.33
581.293,1538.00
582.283,1549.53
583.273,1522.07
584.263,1532.50
585.253,1528.33
586.243,1569.40
587.232,1523.90
588.222,1555.23
589.211,1503.63
590.200,1515.57
591.189,1525.67
592.178,1455.43
593.167,1530.23
594.156,1494.67
595.145,1508.67
596.133,1509.33
597.122,1492.07
598.110,1510.00
599.098,1470.07
600.086,1471.00
601.074,1490.73
602.062,1425.50
603.050,1446.80
604.038,1448.33
605.025,1414.50
606.013,1447.80
607.000,1405.13
607.987,1394.90
608.975,1361.57
609.962,1421.47
610.949,1384.57
611.936,1423.47
612.922,1359.23
613.909,1356.27
614.895,1338.50
615.882,1338.37
616.868,1335.37
617.854,1351.00
618.841,1335.97
619.826,1302.03
620.812,1302.47
621.798,1312.03
622.784,1317.43
623.769,1310.67
624.755,1259.23
625.740,1285.23
626.725,1287.10
627.711,1260.10
628.698,1262.57
629.683,1257.73
630.667,1262.57
631.652,1274.77
632.637,1240.30
633.621,1218.53
634.606,1225.43
635.590,1222.00
636.574,1218.67
637.558,1209.00
638.542,1226.53
639.526,1204.77
640.510,1189.70
641.493,1204.17
642.477,1204.43
643.460,1177.20
644.444,1156.93
645.427,1191.03
646.410,1184.30
647.393,1127.77
648.376,1169.10
649.359,1174.47
650.341,1118.53
651.324,1138.13
652.307,1147.57
653.289,1143.70
654.271,1145.33
655.253,1158.20
656.235,1093.27
657.217,1129.37
658.199,1151.87
659.181,1146.10
660.163,1177.77
661.144,1124.93
662.126,1147.70
663.107,1117.63
664.088,1179.57
665.069,1128.07
666.050,1108.20
667.033,1099.07
668.014,1085.07
668.995,1089.67
669.975,1098.03
670.956,1092.37
671.936,1073.97
672.916,1051.40
673.896,1091.50
674.876,1054.90
675.856,1042.33
676.836,1058.87
677.816,1056.13
678.795,1052.53
679.775,1032.33
680.754,1061.07
681.734,1016.90
682.713,1024.40
683.692,1018.57
684.671,1008.20
685.650,985.73
686.629,984.87
687.607,974.77
688.586,968.77
689.564,982.13
690.543,983.17
691.523,987.83
692.501,1046.33
693.479,1013.23
694.457,956.87
695.435,998.50
696.413,986.80
697.390,975.93
698.368,912.33
699.345,958.90
700.322,948.93
701.300,957.60
702.277,934.17
703.254,949.33
704.231,956.33
705.207,952.83
706.184,890.57
707.161,941.13
708.137,969.80
709.113,927.63
710.090,920.67
711.068,925.73
712.044,939.07
713.020,908.63
713.996,943.20
714.971,953.90
715.947,945.53
716.922,915.53
717.898,908.87
718.873,907.20
719.848,921.30
720.823,913.80
721.798,968.93
722.773,919.50
723.748,948.90
724.723,880.53
725.697,901.97
726.672,937.60
727.646,890.47
728.622,898.37
729.596,927.03
730.570,903.03
731.544,883.37
732.518,913.30
733.492,921.27
734.466,833.63
735.439,880.77
736.413,872.47
737.386,888.87
738.359,859.57
739.332,889.97
740.305,874.73
741.278,891.30
742.251,878.83
743.224,895.53
744.196,863.27
745.171,870.57
746.143,877.00
747.115,878.17
748.087,857.67
749.059,864.87
750.031,844.00
751.003,909.87
751.975,892.07
752.947,874.10
753.918,871.03
754.890,854.10
755.861,850.87
756.832,872.13
757.803,825.17
758.774,865.23
759.747,846.63
760.718,851.63
761.689,848.83
762.659,832.07
763.630,859.20
764.600,875.50
765.570,863.63
766.540,859.50
767.510,822.37
768.480,823.57
769.450,820.93
770.420,812.23
771.390,867.73
772.359,863.07
773.329,849.43
774.300,788.93
775.269,840.27
776.238,848.17
777.207,847.43
778.176,816.90
779.145,826.20
780.114,842.37
781.083,842.50
782.051,829.03
783.019,813.07
783.988,850.80
784.956,819.47
785.924,825.37
786.894,782.87
787.862,818.40
788.830,792.67
789.797,807.90
790.765,841.90
791.732,787.23
792.700,868.20
793.667,810.63
794.634,784.20
795.601,817.00
796.568,791.83
797.535,804.83
798.502,810.47
799.468,797.50
800.437,827.40
801.403,774.63
802.370,771.13
803.336,815.20
804.302,774.40
805.268,756.83
806.234,790.57
807.200,796.53
808.166,770.63
809.131,758.43
810.097,822.90
811.062,792.03
812.027,787.10
812.994,797.57
813.960,758.93
814.925,764.07
815.889,775.60
816.854,797.20
817.819,762.70
818.783,763.80
819.748,784.13
820.712,752.33
821.677,801.10
822.641,751.93
823.605,778.43
824.571,784.77
825.534,755.30
826.498,776.30
827.462,759.37
828.425,750.90
829.389,734.07
830.352,743.60
831.315,737.97
832.279,768.17
833.242,738.57
834.204,733.40
835.167,805.27
836.132,722.73
837.095,768.23
838.057,779.60
839.020,717.07
839.982,780.57
840.944,746.53
841.906,737.37
842.868,727.70
843.830,776.40
844.792,728.03
845.753,720.40
846.715,756.07
847.679,755.40
848.640,735.17
849.601,773.90
850.562,743.50
851.523,756.80
852.484,755.20
853.445,738.57
854.406,730.73
855.367,716.50
856.327,739.60
857.288,736.83
858.248,730.10
859.210,717.67
860.170,715.23
861.130,759.07
862.090,729.87
863.050,744.30
864.010,723.43
864.969,710.60
865.929,722.73
866.888,725.53
867.848,721.33
868.807,744.77
869.766,697.27
870.727,740.47
871.686,726.10
872.645,719.63
873.604,728.97
874.562,727.67
875.521,730.97
876.479,683.50
877.437,726.10
878.396,722.03
879.354,713.67
880.312,762.17
881.270,707.87
882.229,707.03
883.187,736.30
884.145,710.23
885.102,720.77
886.059,742.50
887.017,720.73
887.974,722.80
888.931,730.63
889.888,700.73
890.845,703.80
891.802,699.70
892.758,728.37
893.717,723.27
894.673,694.17
895.630,697.53
896.586,679.77
897.542,703.80
898.498,675.27
899.454,729.87
900.410,718.30
901.366,702.30
902.321,705.23
903.277,720.70
904.232,701.67
905.189,715.10
906.145,729.27
907.100,727.57
908.055,709.67
909.010,717.83
909.965,694.00
910.919,715.87
911.874,713.03
912.828,711.70
913.783,682.80
914.737,698.50
915.693,744.80
916.648,706.77
917.602,683.57
918.555,681.17
919.509,708.30
920.463,714.93
921.417,701.70
922.370,685.77
923.324,676.40
924.277,703.20
925.230,748.20
926.183,684.43
927.138,711.83
928.091,710.87
929.044,715.80
929.996,699.10
930.949,719.37
931.902,662.20
932.854,693.87
933.806,730.97
934.758,681.93
935.711,686.10
936.663,694.40
937.614,695.53
938.568,695.87
939.520,674.93
940.471,676.03
941.423,723.97
942.374,677.70
943.326,692.93
944.277,727.90
945.228,714.60
946.179,713.57
947.130,721.17
948.080,714.67
949.031,692.83
949.984,701.73
950.934,677.57
951.884,684.63
952.835,693.73
953.785,694.40
954.735,701.27
955.685,697.13
956.635,703.53
957.585,738.83
958.534,665.07
959.484,697.70
960.433,671.63
961.383,688.40
962.334,676.23
963.283,662.30
964.232,677.10
965.181,689.40
966.130,702.80
967.079,718.30
968.027,691.57
968.976,695.47
969.924,673.13
970.873,703.53
971.821,695.20
972.769,689.37
973.719,731.20
974.667,675.90
975.615,675.33
976.562,697.87
977.510,680.97
978.458,698.27
979.405,679.00
980.352,676.83
981.300,723.17
982.247,691.47
983.194,681.93
984.141,695.60
985.088,676.87
986.036,694.03
986.983,687.37
987.930,723.43
988.876,729.10
989.822,681.50
990.769,741.53
991.715,690.93
992.661,693.17
993.607,715.07
994.553,689.40
995.498,709.63
996.444,694.37
997.389,687.27
998.337,707.27
999.282,723.10
1000.227,662.67
1001.173,685.90
1002.118,707.57
1003.062,658.27
1004.007,697.93
1004.952,661.20
1005.897,704.53
1006.841,692.33
1007.786,688.27
1008.730,666.60
1009.674,741.03
1010.618,695.70
1011.564,728.10
1012.508,709.73
1013.452,717.53
1014.396,697.57
1015.339,664.07
1016.283,705.83
1017.226,700.30
1018.170,716.53
1019.113,682.67
1020.056,733.67
1020.999,717.93
1021.942,687.07
1022.885,755.57
1023.828,717.67
1024.770,723.37
1025.715,706.60
1026.657,713.60
1027.600,743.03
1028.542,704.07
1029.484,684.13
1030.426,724.03
1031.368,731.07
1032.310,719.87
1033.251,685.07
1034.193,725.70
1035.135,698.03
1036.076,725.00
1037.017,672.50
1037.959,702.93
1038.900,719.80
1039.843,717.13
1040.784,724.43
1041.725,716.00
1042.665,699.47
1043.606,775.17
1044.547,723.87
1045.487,715.07
1046.427,700.73
1047.368,721.87
1048.308,739.63
1049.248,695.60
1050.188,728.00
1051.128,704.53
1052.067,730.27
1053.007,729.00
1053.947,733.63
1054.886,720.47
1055.827,708.47
1056.766,749.70
1057.706,713.90
1058.645,721.37
1059.584,746.43
1060.522,736.47
1061.461,674.17
1062.400,709.10
1063.338,711.60
1064.277,747.07
1065.215,725.10
1066.154,724.33
1067.092,736.30
1068.030,739.03
1068.968,701.07
1069.906,758.70
1070.843,732.90
1071.781,740.10
1072.720,748.63
1073.658,764.77
1074.595,762.17
1075.533,714.83
1076.470,744.63
1077.407,736.87
1078.344,752.50
1079.281,760.30
1080.217,757.03
1081.154,739.93
1082.091,761.73
1083.027,757.33
1083.964,761.60
1084.900,735.70
1085.836,744.03
1086.772,768.53
1087.708,771.17
1088.644,736.07
1089.580,728.53
1090.515,750.33
1091.451,738.77
1092.388,762.60
1093.324,766.17
1094.259,746.07
1095.194,760.83
1096.129,775.27
1097.064,734.17
1097.999,736.73
1098.934,766.70
1099.869,768.73
1100.803,759.67
1101.738,725.13
1102.672,710.63
1103.607,704.57
1104.541,738.53
1105.475,738.03
1106.409,732.70
1107.343,720.00
1108.277,736.73
1109.210,737.73
1110.144,719.47
1111.078,755.37
1112.011,735.27
1112.944,732.20
1113.878,729.90
1114.811,773.30
1115.744,729.47
1116.678,736.33
1117.611,747.97
1118.544,704.57
1119.477,718.33
1120.409,732.13
1121.342,728.83
1122.274,738.90
1123.206,733.13
1124.138,731.50
1125.070,722.77
1126.002,717.50
1126.934,742.20
1127.866,746.57
1128.798,746.67
1129.729,681.57
1130.661,713.30
1131.592,731.00
1132.523,713.97
1133.454,727.97
1134.385,696.50
1135.317,733.37
1136.247,742.63
1137.178,699.80
1138.109,712.87
1139.039,727.70
1139.970,722.67
1140.900,729.63
1141.831,728.47
1142.761,710.07
1143.691,761.17
1144.621,694.17
1145.551,715.57
1146.480,715.03
1147.410,729.07
1148.340,714.93
1149.269,701.27
1150.199,714.33
1151.128,721.23
1152.057,723.53
1152.979,713.97
1153.898,744.00
1154.819,661.47
1155.739,717.67
1156.658,712.90
1157.579,709.50
1158.498,742.23
1159.419,702.20
1160.338,721.70
1161.256,768.03
1162.177,700.77
1163.095,702.37
1164.016,726.20
1164.934,698.50
1165.852,702.57
1166.772,720.50
1167.690,716.93
1168.610,745.20
1169.528,752.60
1170.446,755.40
1171.365,728.53
1172.283,748.40
1173.202,719.53
1174.120,792.63
1175.037,690.93
1175.956,698.70
1176.873,726.50
1177.792,723.13
1178.709,729.97
1179.626,708.93
1180.544,750.10
1181.461,749.67
1182.379,734.00
1183.296,741.00
1184.212,692.30
1185.130,729.90
1186.046,735.97
1186.962,757.03
1187.880,729.47
1188.796,771.13
1189.714,721.73
1190.629,746.53
1191.545,728.40
1192.462,780.33
1193.378,761.13
1194.295,775.20
1195.210,758.47
1196.125,732.53
1197.042,756.50
1197.957,732.87
1198.872,761.17
1199.788,735.67
1200.703,755.27
1201.619,764.73
1202.534,763.73
1203.448,775.30
1204.364,763.80
1205.278,755.47
1206.192,771.70
1207.108,775.03
1208.022,787.03
1208.938,812.60
1209.851,768.73
1210.765,823.90
1211.680,778.67
1212.594,783.27
1213.507,765.50
1214.422,807.40
1215.335,776.73
1216.248,796.97
1217.163,813.73
1218.076,744.87
1218.990,770.77
1219.903,794.37
1220.816,763.93
1221.730,805.07
1222.642,812.17
1223.554,814.80
1224.469,809.87
1225.380,797.23
1226.292,795.37
1227.206,776.73
1228.118,817.57
1229.032,816.53
1229.943,792.77
1230.855,846.47
1231.768,807.47
1232.679,784.17
1233.590,831.43
1234.503,809.53
1235.414,832.83
1236.325,825.60
1237.238,837.60
1238.149,843.17
1239.059,811.63
1239.972,857.00
1240.882,866.63
1241.793,870.27
1242.705,845.57
1243.615,851.43
1244.525,850.13
1245.437,836.13
1246.347,849.97
1247.259,843.27
1248.168,854.03
1249.078,821.07
1249.989,874.53
1250.899,842.20
1251.808,813.13
1252.719,848.97
1253.628,855.13
1254.537,883.13
1255.448,857.73
1256.357,831.30
1257.266,872.47
1258.176,854.23
1259.085,870.37
1259.993,846.73
1260.904,871.40
1261.812,922.87
1262.720,891.13
1263.630,874.17
1264.538,873.07
1265.446,880.43
1266.356,884.93
1267.263,857.80
1268.171,863.10
1269.080,873.43
1269.988,901.60
1270.895,888.47
1271.804,851.03
1272.711,866.87
1273.619,901.20
1274.527,914.77
1275.434,885.77
1276.341,861.13
1277.248,878.17
1278.156,854.30
1279.063,895.43
1279.969,872.97
1280.877,846.00
1281.783,856.47
1282.690,876.77
1283.598,870.33
1284.503,864.60
1285.409,865.57
1286.317,864.50
1287.223,854.33
1288.128,855.80
1289.036,870.90
1289.941,846.00
1290.846,868.70
1291.751,848.80
1292.658,846.40
1293.563,853.83
1294.468,849.37
1295.375,841.33
1296.280,854.10
1297.184,837.07
1298.091,829.63
1298.995,849.97
1299.900,822.50
1300.806,818.33
1301.710,839.00
1302.614,784.20
1303.518,827.27
1304.424,822.33
1305.327,824.30
1306.231,823.87
1307.137,799.40
1308.040,827.73
1308.943,796.90
1309.847,739.00
1310.752,808.33
1311.655,749.53
1312.558,795.00
1313.463,778.30
1314.366,758.73
1315.269,739.40
1316.171,781.80
1317.076,767.50
1317.978,765.73
1318.881,753.43
1319.785,794.83
1320.687,767.30
1321.589,736.13
1322.491,754.73
1323.395,729.03
1324.297,735.67
1325.198,752.20
1326.102,739.70
1327.004,725.93
1327.905,722.83
1328.806,721.10
1329.709,715.60
1330.611,678.83
1331.512,699.40
1332.413,735.40
1333.316,719.03
1334.216,731.87
1335.117,701.87
1336.020,698.40
1336.920,703.33
1337.821,683.40
1338.721,702.00
1339.623,712.03
1340.523,693.13
1341.423,669.83
1342.323,658.87
1343.225,661.37
1344.125,610.10
1345.025,678.13
1345.924,655.07
1346.826,652.50
1347.725,676.07
1348.624,676.90
1349.524,634.23
1350.425,630.50
1351.324,656.20
1352.223,659.03
1353.121,670.53
1354.022,633.47
1354.921,652.50
1355.819,626.37
1356.718,627.00
1357.618,651.50
1358.516,633.17
1359.415,623.40
1360.313,590.23
1361.213,620.10
1362.111,596.77
1363.008,644.83
1363.906,613.07
1364.806,627.90
1365.703,589.33
1366.601,592.17
1367.498,581.97
1368.397,622.33
1369.295,596.40
1370.192,579.10
1371.089,597.90
1371.987,568.30
1372.884,587.07
1373.781,589.57
1374.678,558.00
1375.574,585.40
1376.473,542.77
1377.369,549.63
1378.265,572.30
1379.161,579.97
1380.059,545.53
1380.955,574.93
1381.851,562.97
1382.747,559.90
1383.643,598.43
1384.540,542.67
1385.436,529.27
1386.331,546.97
1387.227,532.43
1388.124,578.20
1389.019,561.07
1389.914,528.80
1390.809,527.80
1391.704,539.60
1392.601,523.63
1393.495,568.43
1394.390,503.23
1395.285,531.43
1396.179,534.60
1397.075,540.03
1397.969,521.23
1398.864,527.90
1399.758,520.67
1400.652,478.67
1401.547,532.67
1402.441,560.27
1403.335,533.60
1404.229,515.77
1405.122,518.03
1406.017,527.23
1406.911,492.03
1407.804,482.37
1408.697,560.33
1409.590,542.87
1410.485,545.23
1411.378,554.53
1412.271,483.00
1413.163,551.30
1414.056,473.80
1414.949,501.23
1415.843,527.40
1416.735,478.23
1417.627,511.53
1418.520,493.60
1419.412,474.33
1420.306,489.77
1421.197,533.37
1422.089,486.73
1422.981,530.23
1423.873,453.77
1424.764,477.40
1425.657,507.97
1426.549,462.53
1427.440,496.50
1428.331,486.20
1429.222,509.90
1430.113,483.33
1431.006,454.00
1431.897,479.17
1432.787,489.37
1433.678,492.20
1434.568,490.50
1435.459,506.47
1436.351,433.20
1437.241,460.87
1438.131,483.40
1439.021,474.83
1439.911,484.73
1440.801,453.67
1441.693,454.17
1442.583,472.50
1443.472,434.10
1444.362,457.03
1445.251,469.00
1446.140,467.87
1447.030,485.57
1447.921,466.63
1448.810,485.40
1449.699,420.40
1450.588,470.90
1451.476,455.30
1452.365,457.60
1453.254,494.70
1454.144,474.93
1455.032,479.30
1455.921,481.50
1456.809,415.57
1457.697,462.17
1458.585,437.17
1459.473,476.63
1460.361,458.83
1461.251,440.60
1462.138,455.50
1463.026,448.77
1463.913,438.10
1464.801,437.47
1465.688,433.80
1466.575,430.53
1467.463,425.87
1468.351,485.73
1469.238,455.17
1470.125,452.97
1471.012,489.20
1471.899,464.37
1472.785,450.60
1473.672,440.03
1474.558,441.90
1475.446,438.10
1476.333,468.63
1477.219,469.40
1478.105,433.80
1478.991,465.33
1479.877,462.50
1480.762,474.23
1481.648,407.57
1482.534,448.93
1483.419,458.70
1484.307,447.53
1485.192,468.90
1486.077,441.47
1486.962,451.33
1487.847,427.70
1488.732,441.80
1489.617,475.93
1490.502,448.03
1491.387,417.63
1492.271,420.43
1493.156,429.57
1494.042,434.20
1494.927,419.03
1495.811,419.80
1496.695,443.90
1497.579,435.87
1498.463,440.63
1499.347,420.57
1500.231,426.93
1501.114,425.30
1501.998,404.27
1502.881,425.03
1503.765,427.47
1504.648,388.40
1505.533,375.33
1506.417,439.53
1507.300,423.30
1508.183,418.40
1509.066,411.47
1509.948,383.40
1510.831,422.20
1511.714,400.87
1512.596,399.37
1513.479,372.77
1514.361,444.23
1515.243,444.60
1516.125,413.10
1517.008,441.00
1517.890,437.93
1518.771,401.80
1519.655,431.20
1520.537,387.97
1521.419,387.97
1522.300,389.47
1523.182,421.67
1524.063,434.03
1524.944,399.10
1525.825,406.47
1526.707,421.70
1527.588,426.57
1528.468,432.93
1529.349,362.33
1530.230,362.77
1531.111,374.93
1531.991,390.20
1532.872,401.30
1533.752,393.53
1534.632,379.63
1535.513,421.67
1536.393,363.57
1537.273,400.83
1538.153,432.63
1539.032,407.70
1539.912,394.57
1540.792,413.97
1541.672,390.23
1542.551,382.73
1543.430,399.67
1544.310,400.57
1545.189,382.07
1546.068,374.43
1546.947,428.67
1547.826,389.40
1548.705,354.00
1549.584,370.03
1550.462,400.07
1551.341,358.73
1552.219,404.07
1553.098,363.80
1553.976,409.73
1554.854,406.17
1555.733,409.60
1556.611,354.10
1557.489,369.17
1558.367,352.57
1559.244,405.27
1560.122,387.53
1561.000,435.20
1561.877,380.50
1562.755,395.10
1563.632,378.50
1564.509,390.17
1565.386,388.97
1566.264,343.33
1567.141,372.63
1568.017,396.00
1568.894,392.87
1569.771,403.03
1570.648,418.93
1571.524,373.70
1572.401,398.77
1573.277,389.93
1574.153,390.03
1575.029,387.77
1575.906,373.73
1576.781,428.93
1577.657,371.57
1578.533,405.03
1579.409,381.83
1580.285,396.33
1581.160,391.50
1582.036,376.43
1582.911,342.13
1583.786,371.47
1584.662,333.73
1585.537,376.30
1586.412,365.30
1587.287,393.17
1588.160,389.37
1589.035,363.93
1589.909,307.10
1590.784,351.23
1591.658,361.43
1592.533,357.97
1593.407,402.40
1594.281,336.07
1595.155,377.23
1596.029,412.57
1596.903,348.77
1597.777,357.03
1598.651,357.63
1599.525,388.00
1600.398,371.67
1601.272,388.13
1602.144,349.13
1603.017,407.37
1603.890,372.83
1604.763,344.07
1605.636,342.43
1606.509,360.83
1607.382,347.50
1608.255,361.87
1609.128,338.80
1610.000,371.53
1610.873,386.27
1611.746,372.23
1612.616,358.90
1613.488,394.10
1614.361,390.47
1615.233,345.83
1616.105,379.90
1616.977,386.03
1617.849,381.80
1618.720,370.40
1619.592,379.47
1620.464,376.10
1621.333,375.47
1622.205,368.80
1623.076,378.90
1623.947,340.33
1624.818,373.77
1625.689,358.60
1626.560,348.87
1627.431,351.33
1628.302,341.97
1629.171,380.17
1630.042,359.73
1630.912,368.70
1631.782,352.50
1632.653,327.73
1633.523,369.93
1634.393,328.47
1635.263,342.43
1636.131,356.33
1637.001,356.77
1637.871,343.33
1638.741,358.03
1639.611,322.77
1640.480,403.27
1641.350,351.10
1642.219,356.20
1643.087,327.73
1643.956,372.70
1644.825,326.77
1645.694,322.47
1646.563,359.13
1647.432,379.37
1648.299,396.87
1649.167,348.80
1650.036,362.87
1650.904,411.97
1651.773,357.00
1652.641,369.70
1653.509,330.33
1654.376,343.80
1655.244,330.57
1656.112,330.20
1656.980,362.17
1657.847,347.77
1658.715,404.90
1659.581,355.43
1660.448,372.87
1661.316,342.67
1662.183,358.77
1663.051,330.83
1663.918,338.00
1664.783,354.83
1665.650,354.80
1666.517,324.97
1667.384,338.30
1668.251,340.07
1669.115,387.40
1669.982,349.77
1670.849,346.80
1671.715,329.33
1672.581,346.00
1673.446,345.60
1674.312,332.97
1675.178,370.47
1676.044,345.33
1676.910,384.80
1677.774,324.53
1678.639,354.10
1679.505,340.57
1680.370,332.70
1681.236,388.60
1682.099,352.37
1682.965,357.97
1683.830,354.90
1684.695,321.07
1685.560,338.10
1686.423,343.33
1687.288,333.07
1688.153,366.67
1689.017,333.17
1689.880,336.53
1690.745,337.27
1691.609,335.27
1692.473,360.13
1693.338,385.27
1694.200,351.67
1695.064,324.93
1695.928,331.03
1696.792,317.00
1697.654,356.40
1698.517,343.03
1699.381,352.67
1700.245,321.90
1701.106,348.47
1701.969,351.97
1702.833,356.10
1703.696,315.77
1704.557,355.93
1705.420,349.60
1706.283,302.37
1707.146,343.23
1708.007,344.93
1708.870,341.97
1709.732,356.23
1710.595,347.77
1711.455,355.77
1712.318,336.90
1713.180,333.23
1714.040,356.63
1714.902,306.70
1715.764,368.97
1716.626,325.90
1717.486,323.53
1718.348,363.50
1719.209,340.23
1720.071,315.10
1720.930,367.23
1721.792,316.20
1722.653,343.10
1723.512,336.13
1724.374,350.83
1725.234,338.60
1726.095,327.20
1726.954,339.37
1727.815,360.63
1728.676,336.77
1729.535,364.03
1730.395,364.67
1731.256,324.27
1732.114,319.80
1732.974,364.77
1733.834,327.37
1734.693,320.90
1735.553,341.13
1736.413,286.67
1737.272,337.73
1738.130,300.10
1738.990,357.47
1739.849,336.77
1740.707,363.27
1741.566,299.30
1742.426,335.67
1743.283,364.53
1744.142,331.73
1745.001,323.73
1745.858,346.37
1746.717,336.87
1747.576,349.80
1748.433,337.53
1749.292,296.63
1750.150,341.83
1751.007,351.57
1751.865,331.30
1752.723,338.90
1753.579,336.77
1754.438,313.80
1755.296,339.93
1756.152,318.53
1757.010,334.67
1757.865,327.07
1758.723,365.73
1759.581,327.83
1760.436,361.93
1761.294,354.43
1762.151,269.63
1763.006,351.70
1763.864,328.03
1764.721,341.90
1765.576,355.77
1766.433,296.23
1767.288,345.20
1768.144,327.83
1769.001,339.50
1769.856,312.60
1770.712,336.07
1771.568,317.20
1772.423,329.10
1773.279,364.90
1774.133,325.90
1774.989,326.47
1775.845,335.83
1776.699,324.30
1777.555,339.47
1778.409,347.77
1779.265,331.63
1780.120,311.60
1780.974,335.73
1781.829,262.37
1782.682,335.10
1783.538,300.23
1784.393,320.87
1785.246,348.00
1786.101,322.53
1786.954,342.50
1787.808,351.43
1788.661,326.87
1789.516,315.67
1790.370,304.80
1791.223,337.40
1792.077,298.87
1792.930,340.13
1793.784,330.57
1794.636,331.23
1795.490,328.17
1796.344,323.90
1797.196,306.13
1798.049,332.67
1798.901,340.97
1799.755,320.50
1800.606,376.30
1801.460,359.43
1802.311,331.57
1803.165,319.33
1804.018,333.93
1804.869,311.40
1805.722,324.13
1806.573,310.07
1807.426,326.67
1808.276,324.43
1809.129,330.50
1809.980,332.07
1810.832,328.03
1811.683,308.77
1812.535,342.00
1813.385,338.17
1814.237,296.70
1815.089,293.17
1815.940,347.13
1816.791,347.27
1817.641,307.27
1818.493,306.80
1819.343,294.67
1820.194,320.97
1821.044,328.97
1821.895,355.50
1822.745,306.33
1823.596,321.13
1824.445,347.97
1825.296,327.47
1826.145,334.93
1826.996,320.77
1827.845,280.67
1828.695,320.07
1829.544,295.40
1830.395,324.77
1831.243,337.07
1832.094,327.57
1832.942,307.80
1833.792,318.00
1834.640,323.47
1835.490,309.63
1836.338,288.03
1837.186,365.07
1838.036,339.57
1838.884,315.37
1839.733,351.27
1840.581,304.70
1841.430,320.20
1842.278,317.17
1843.127,351.47
1843.974,294.53
1844.823,314.63
1845.671,283.70
1846.519,299.87
1847.366,327.97
1848.213,321.07
1849.062,341.67
1849.909,316.43
1850.757,289.80
1851.604,334.23
1852.452,302.37
1853.298,340.83
1854.146,324.50
1854.993,346.57
1855.839,299.23
1856.687,311.20
1857.532,359.20
1858.380,277.10
1859.226,350.63
1860.073,339.17
1860.919,318.77
1861.765,318.33
1862.612,320.17
1863.457,328.87
1864.304,330.53
1865.150,277.57
1865.995,334.43
1866.842,308.77
1867.686,344.77
1868.533,301.80
1869.378,322.23
1870.223,354.70
1871.069,329.23
1871.914,327.97
1872.760,322.87
1873.604,328.73
1874.448,303.47
1875.294,304.70
1876.139,312.97
1876.984,343.43
1877.828,315.70
1878.672,321.43
1879.518,327.60
1880.361,302.80
1881.205,342.20
1882.050,309.57
1882.894,331.13
1883.739,292.43
1884.582,336.43
1885.425,300.33
1886.270,331.87
1887.113,334.53
1887.956,333.83
1888.801,328.90
1889.644,316.20
1890.486,307.67
1891.331,320.67
1892.173,292.77
1893.017,304.23
1893.860,341.93
1894.702,350.17
1895.546,289.70
1896.388,333.37
1897.230,264.73
1898.074,305.40
1898.916,308.13
1899.757,316.10
1900.601,299.33
1901.443,313.93
1902.284,281.23
1903.125,299.30
1903.969,329.13
1904.810,324.47
1905.651,273.93
1906.494,341.33
1907.335,312.27
1908.176,275.93
1909.018,316.23
1909.859,282.30
1910.700,302.40
1911.542,327.30
1912.383,320.03
1913.223,306.90
1914.064,298.33
1914.906,301.57
1915.746,307.40
1916.586,297.50
1917.428,314.87
1918.268,328.33
1919.107,317.10
1919.947,297.87
1920.789,273.63
1921.628,265.43
1922.468,315.27
1923.309,342.07
1924.148,287.53
1924.988,293.93
1925.827,297.60
1926.667,290.20
1927.507,328.53
1928.345,326.20
1929.184,301.47
1930.025,307.83
1930.864,302.77
1931.702,286.33
1932.541,239.27
1933.381,350.53
1934.219,334.83
1935.057,334.40
1935.896,275.10
1936.735,312.70
1937.573,326.10
1938.411,332.37
1939.249,299.30
1940.089,339.40
1940.927,279.30
1941.764,325.00
1942.602,304.57
1943.439,319.30
1944.278,301.93
1945.115,309.77
1945.953,309.37
1946.790,309.93
1947.628,299.30
1948.465,288.63
1949.302,325.33
1950.139,320.57
1950.976,306.40
1951.814,337.43
1952.651,335.63
1953.487,310.33
1954.323,292.17
1955.160,314.20
1955.998,270.33
1956.834,292.27
1957.670,280.30
1958.506,334.90
1959.342,319.97
1960.177,313.33
1961.015,308.03
1961.850,314.20
1962.686,293.87
1963.521,300.53
1964.357,333.57
1965.192,297.47
1966.029,301.77
1966.864,310.27
1967.699,301.60
1968.534,348.67
1969.369,310.30
1970.204,304.33
1971.040,289.03
1971.875,335.03
1972.709,296.97
1973.544,302.13
1974.378,304.90
1975.212,279.27
1976.047,328.93
1976.882,309.17
1977.716,350.80
1978.550,302.37
1979.384,313.40
1980.218,338.43
1981.052,307.17
1981.885,334.63
1982.719,301.57
1983.554,300.57
1984.388,298.43
1985.221,326.80
1986.054,311.70
1986.887,349.07
1987.720,297.80
1988.553,294.03
1989.386,323.07
1990.219,342.90
1991.053,331.43
1991.886,327.57
1992.719,311.73
1993.551,299.47
1994.383,331.97
1995.216,308.23
1996.048,271.80
1996.880,329.17
1997.712,320.13
1998.544,326.73
1999.376,306.27
2000.208,290.47
2001.040,350.70
2001.873,322.37
2002.705,323.17
2003.536,348.00
2004.367,325.73
2005.199,306.93
2006.030,292.80
2006.861,300.10
2007.692,308.67
2008.523,320.73
2009.354,309.07
2010.185,300.07
2011.016,326.63
2011.846,300.43
2012.677,324.77
2013.507,324.90
2014.338,290.03
2015.168,319.67
2015.999,276.53
2016.829,340.23
2017.659,333.83
2018.489,313.47
2019.319,340.30
2020.149,335.50
2020.980,341.20
2021.810,302.07
2022.639,328.40
2023.469,292.03
2024.298,311.67
2025.128,348.53
2025.957,305.10
2026.786,319.73
2027.615,335.17
2028.444,303.37
2029.273,331.93
2030.102,297.03
2030.931,324.17
2031.758,319.17
2032.586,305.93
2033.415,309.07
2034.243,298.00
2035.072,315.43
2035.900,303.27
2036.728,329.20
2037.556,331.73
2038.385,281.57
2039.213,317.00
2040.040,298.17
2040.868,305.93
2041.696,327.40
2042.524,323.77
2043.351,312.33
2044.179,297.63
2045.006,322.57
2045.006,322.57

Max Intensity Wave.,219.929
Max Intensity Data,5465.50
Min Intensity Wave.,1932.541
Min Intensity Data,239.27
FWHM Wave.,409.397
FWHM Value,0.83
Pressure Wave.,692.637
Pressure Value [GPa],-3.72571
G/D Ratio,0.51759
G/D Gband Wave.,1560.969
G/D Gband Intensity,435.26
G/D Dband Wave.,1301.505
G/D Dband Intensity,840.93

<< BACKGROUND SPECTRUM >>
Wave[dcm-1],No311
146.591,2287.00
147.626,2107.00
148.664,2057.00
149.699,2553.00
150.737,2243.00
151.772,2430.00
152.809,2399.00
153.846,2322.00
154.881,2418.00
155.918,1983.00
156.953,2285.00
157.989,2643.00
159.026,2476.00
160.060,2676.00
161.096,2878.00
162.130,2499.00
163.167,2606.00
164.200,2501.00
165.236,2648.00
166.272,2724.00
167.305,2307.00
168.341,2628.00
169.374,2779.00
170.409,2836.00
171.445,2744.00
172.477,2551.00
173.512,2428.00
174.545,2694.00
175.580,2881.00
176.614,3052.00
177.647,2815.00
178.681,3089.00
179.713,3385.00
180.747,2834.00
181.781,2729.00
182.813,3051.00
183.847,3102.00
184.878,2750.00
185.912,2996.00
186.945,3183.00
187.976,3106.00
189.010,2725.00
190.043,2853.00
191.073,2953.00
192.106,2770.00
193.137,3209.00
194.170,2598.00
195.202,2950.00
196.232,2706.00
197.265,3037.00
198.297,3114.00
199.327,2777.00
200.359,2972.00
201.388,3332.00
202.420,2938.00
203.452,3140.00
204.481,2682.00
205.512,3288.00
206.544,3113.00
207.573,3084.00
208.604,3416.00
209.635,3532.00
210.663,3009.00
211.694,3011.00
212.725,2872.00
213.753,2804.00
214.783,3389.00
215.813,3274.00
216.841,3038.00
217.871,3228.00
218.899,2972.00
219.929,3135.00
220.959,2921.00
221.986,3197.00
223.016,2865.00
224.045,3160.00
225.072,3127.00
226.101,3202.00
227.130,3251.00
228.157,2858.00
229.185,2357.00
230.214,3206.00
231.241,2909.00
232.269,2487.00
233.297,2733.00
234.323,3298.00
235.351,2840.00
236.379,3095.00
237.407,2794.00
238.433,2967.00
239.460,3128.00
240.488,3132.00
241.513,3242.00
242.540,3105.00
243.568,3251.00
244.592,3237.00
245.619,3261.00
246.646,2985.00
247.671,3015.00
248.697,2847.00
249.724,3050.00
250.748,3067.00
251.774,2990.00
252.801,3354.00
253.827,3174.00
254.850,3088.00
255.876,2731.00
256.902,3136.00
257.925,3060.00
258.951,2785.00
259.976,2821.00
260.999,3147.00
262.024,2789.00
263.049,3676.00
264.074,3147.00
265.097,3062.00
266.122,3083.00
267.146,3074.00
268.168,3256.00
269.193,2907.00
270.217,3240.00
271.241,2738.00
272.263,2869.00
273.287,3208.00
274.311,2818.00
275.332,3348.00
276.356,2864.00
277.379,3091.00
278.402,3165.00
279.424,2945.00
280.447,2900.00
281.470,2753.00
282.492,3102.00
283.513,2935.00
284.536,3211.00
285.558,3160.00
286.581,3159.00
287.601,2869.00
288.623,2815.00
289.645,3075.00
290.665,3128.00
291.687,3131.00
292.709,3130.00
293.730,3427.00
294.750,2935.00
295.771,2805.00
296.792,3146.00
297.813,2961.00
298.832,3078.00
299.853,2763.00
300.874,2978.00
301.895,3009.00
302.913,3003.00
303.934,3304.00
304.954,3083.00
305.975,4332.00
306.993,2770.00
308.013,3174.00
309.033,3072.00
310.052,2954.00
311.072,2933.00
312.090,3076.00
313.109,3324.00
314.129,3381.00
315.148,3072.00
316.165,3087.00
317.184,3261.00
318.203,2781.00
319.222,2791.00
320.238,3157.00
321.257,2815.00
322.275,2706.00
323.294,3043.00
324.312,3182.00
325.328,3294.00
326.346,3298.00
327.364,3256.00
328.382,3142.00
329.397,3161.00
330.415,3208.00
331.432,3257.00
332.450,3268.00
333.467,3469.00
334.482,2602.00
335.499,3413.00
336.516,2875.00
337.533,2589.00
338.547,2898.00
339.564,2897.00
340.580,3102.00
341.597,3006.00
342.613,3383.00
343.627,3004.00
344.643,3034.00
345.659,3137.00
346.675,3004.00
347.690,2919.00
348.704,3125.00
349.719,2925.00
350.735,2810.00
351.750,3236.00
352.765,3026.00
353.778,3035.00
354.793,3166.00
355.808,2865.00
356.822,3265.00
357.837,2653.00
358.851,3303.00
359.864,2976.00
360.878,2751.00
361.892,3003.00
362.906,3186.00
363.920,2622.00
364.932,3129.00
365.945,3115.00
366.959,3027.00
367.972,2953.00
368.986,2736.00
369.999,3402.00
371.010,2851.00
372.023,3315.00
373.036,2978.00
374.049,3441.00
375.061,3133.00
376.072,3031.00
377.084,2846.00
378.097,2768.00
379.109,3207.00
380.121,3027.00
381.133,2730.00
382.143,3193.00
383.155,2789.00
384.166,2938.00
385.178,3122.00
386.189,3213.00
387.201,2714.00
388.212,2987.00
389.221,2952.00
390.232,3044.00
391.243,2955.00
392.254,3048.00
393.264,2854.00
394.275,3316.00
395.283,3213.00
396.294,3650.00
397.304,3520.00
398.314,3116.00
399.324,3024.00
400.334,2674.00
401.344,3200.00
402.351,2709.00
403.361,3261.00
404.370,2964.00
405.380,2925.00
406.389,3392.00
407.398,3094.00
408.407,3123.00
409.414,3161.00
410.423,3331.00
411.431,2801.00
412.440,2696.00
413.448,3359.00
414.457,2906.00
415.465,2819.00
416.471,2927.00
417.479,3065.00
418.487,2838.00
419.495,3364.00
420.503,3099.00
421.510,2619.00
422.518,3203.00
423.525,3204.00
424.530,3464.00
425.537,2966.00
426.544,3251.00
427.551,2902.00
428.558,3620.00
429.565,3452.00
430.571,2888.00
431.578,2959.00
432.582,2913.00
433.588,3020.00
434.595,2653.00
435.601,3325.00
436.607,3258.00
437.612,2770.00
438.618,3361.00
439.624,2987.00
440.627,2906.00
441.633,3173.00
442.638,3613.00
443.643,3171.00
444.648,3058.00
445.653,3209.00
446.658,2879.00
447.663,3086.00
448.667,2918.00
449.672,2952.00
450.674,2999.00
451.678,2738.00
452.682,2873.00
453.687,2864.00
454.690,3669.00
455.694,3350.00
456.698,2588.00
457.702,2675.00
458.705,2825.00
459.709,2818.00
460.710,2905.00
461.713,3068.00
462.716,3071.00
463.719,3019.00
464.722,3232.00
465.725,2978.00
466.727,2825.00
467.730,3066.00
468.732,2806.00
469.735,3320.00
470.737,2912.00
471.737,2902.00
472.739,2917.00
473.741,2841.00
474.742,3097.00
475.744,3137.00
476.746,3016.00
477.747,2979.00
478.748,3194.00
479.750,2922.00
480.751,3074.00
481.752,3733.00
482.753,3086.00
483.751,3560.00
484.752,2668.00
485.753,2988.00
486.753,2875.00
487.753,3020.00
488.754,3436.00
489.754,2756.00
490.754,3329.00
491.754,3118.00
492.754,2681.00
493.753,3016.00
494.753,2897.00
495.752,3366.00
496.752,3053.00
497.749,2995.00
498.748,2892.00
499.747,3443.00
500.746,3137.00
501.745,2799.00
502.744,2791.00
503.742,3324.00
504.741,2954.00
505.739,2494.00
506.737,2910.00
507.735,3163.00
508.734,3417.00
509.732,3189.00
510.729,3368.00
511.727,2921.00
512.725,2934.00
513.720,2819.00
514.718,3242.00
515.715,2688.00
516.712,2654.00
517.709,2976.00
518.706,2903.00
519.703,3068.00
520.700,3201.00
521.696,3369.00
522.693,2944.00
523.689,2886.00
524.686,3169.00
525.682,2798.00
526.678,3462.00
527.674,2921.00
528.670,2613.00
529.666,3547.00
530.661,3500.00
531.657,3696.00
532.652,3163.00
533.648,3010.00
534.641,3274.00
535.636,3108.00
536.631,3116.00
537.626,3195.00
538.621,2732.00
539.616,2581.00
540.610,2516.00
541.605,3005.00
542.599,3122.00
543.593,3000.00
544.587,3954.00
545.581,2856.00
546.575,3034.00
547.569,3053.00
548.563,2729.00
549.557,2672.00
550.550,2792.00
551.543,2752.00
552.537,3158.00
553.530,2770.00
554.523,2804.00
555.516,3125.00
556.509,3005.00
557.502,2668.00
558.494,3220.00
559.487,2964.00
560.479,3219.00
561.472,3279.00
562.464,3120.00
563.456,3340.00
564.448,2945.00
565.440,3055.00
566.432,3414.00
567.423,2892.00
568.415,2912.00
569.404,3163.00
570.396,2843.00
571.387,3125.00
572.378,3049.00
573.369,3925.00
574.360,3702.00
575.351,2974.00
576.341,2846.00
577.332,2923.00
578.323,2711.00
579.313,2905.00
580.303,3273.00
581.293,3137.00
582.283,2982.00
583.273,3146.00
584.263,3026.00
585.253,3122.00
586.243,3150.00
587.232,2681.00
588.222,2961.00
589.211,3224.00
590.200,3085.00
591.189,2956.00
592.178,3039.00
593.167,3414.00
594.156,3308.00
595.145,2919.00
596.133,3472.00
597.122,3138.00
598.110,3197.00
599.098,3081.00
600.086,3007.00
601.074,3168.00
602.062,2877.00
603.050,2779.00
604.038,3110.00
605.025,2807.00
606.013,3197.00
607.000,3407.00
607.987,3058.00
608.975,3108.00
609.962,2758.00
610.949,3139.00
611.936,3238.00
612.922,3200.00
613.909,2728.00
614.895,3388.00
615.882,2867.00
616.868,3036.00
617.854,2749.00
618.841,3032.00
619.826,3144.00
620.812,3014.00
621.798,2809.00
622.784,3182.00
623.769,3108.00
624.755,2757.00
625.740,3069.00
626.725,2750.00
627.711,2897.00
628.698,3108.00
629.683,2838.00
630.667,3187.00
631.652,2756.00
632.637,2983.00
633.621,3212.00
634.606,2957.00
635.590,3147.00
636.574,2969.00
637.558,3106.00
638.542,3040.00
639.526,2866.00
640.510,2662.00
641.493,3055.00
642.477,2996.00
643.460,2729.00
644.444,3284.00
645.427,3241.00
646.410,2683.00
647.393,3021.00
648.376,3078.00
649.359,2909.00
650.341,3139.00
651.324,3115.00
652.307,3063.00
653.289,2960.00
654.271,2894.00
655.253,2895.00
656.235,3171.00
657.217,3254.00
658.199,2628.00
659.181,2745.00
660.163,2962.00
661.144,2886.00
662.126,2872.00
663.107,2785.00
664.088,6187.00
665.069,3225.00
666.050,2821.00
667.033,2728.00
668.014,3067.00
668.995,2606.00
669.975,3002.00
670.956,2991.00
671.936,3144.00
672.916,2995.00
673.896,3085.00
674.876,2944.00
675.856,2891.00
676.836,2745.00
677.816,2319.00
678.795,2822.00
679.775,2709.00
680.754,3027.00
681.734,3171.00
682.713,3158.00
683.692,2801.00
684.671,2674.00
685.650,2791.00
686.629,2894.00
687.607,2796.00
688.586,2823.00
689.564,2888.00
690.543,3278.00
691.523,2396.00
692.501,2828.00
693.479,2943.00
694.457,2821.00
695.435,2868.00
696.413,2680.00
697.390,2529.00
698.368,2742.00
699.345,3115.00
700.322,2965.00
701.300,3092.00
702.277,3091.00
703.254,3268.00
704.231,2570.00
705.207,2975.00
706.184,2852.00
707.161,2679.00
708.137,2813.00
709.113,2829.00
710.090,2831.00
711.068,2616.00
712.044,2618.00
713.020,2927.00
713.996,2623.00
714.971,2803.00
715.947,2856.00
716.922,2836.00
717.898,2775.00
718.873,2910.00
719.848,2723.00
720.823,2708.00
721.798,2948.00
722.773,2770.00
723.748,2516.00
724.723,3058.00
725.697,2845.00
726.672,2744.00
727.646,2541.00
728.622,3008.00
729.596,2584.00
730.570,2738.00
731.544,3104.00
732.518,3266.00
733.492,2804.00
734.466,2948.00
735.439,3017.00
736.413,3153.00
737.386,2472.00
738.359,2453.00
739.332,2549.00
740.305,2867.00
741.278,3298.00
742.251,2933.00
743.224,2738.00
744.196,2574.00
745.171,3138.00
746.143,3041.00
747.115,2779.00
748.087,2745.00
749.059,3100.00
750.031,2937.00
751.003,3662.00
751.975,3242.00
752.947,2690.00
753.918,3093.00
754.890,2607.00
755.861,2785.00
756.832,3024.00
757.803,2896.00
758.774,2838.00
759.747,2646.00
760.718,3214.00
761.689,2749.00
762.659,2632.00
763.630,3152.00
764.600,2525.00
765.570,3049.00
766.540,3126.00
767.510,2964.00
768.480,3080.00
769.450,2747.00
770.420,2862.00
771.390,2624.00
772.359,2741.00
773.329,2669.00
774.300,2570.00
775.269,2752.00
776.238,2980.00
777.207,3155.00
778.176,2518.00
779.145,2820.00
780.114,2673.00
781.083,2573.00
782.051,2755.00
783.019,2704.00
783.988,3068.00
784.956,2854.00
785.924,2974.00
786.894,2907.00
787.862,2709.00
788.830,3172.00
789.797,2649.00
790.765,2584.00
791.732,2791.00
792.700,2606.00
793.667,2616.00
794.634,2782.00
795.601,2745.00
796.568,2798.00
797.535,2840.00
798.502,3444.00
799.468,2921.00
800.437,2383.00
801.403,2684.00
802.370,3296.00
803.336,2972.00
804.302,2890.00
805.268,2478.00
806.234,2572.00
807.200,2737.00
808.166,2805.00
809.131,2605.00
810.097,2952.00
811.062,3649.00
812.027,3023.00
812.994,2595.00
813.960,2635.00
814.925,2968.00
815.889,2527.00
816.854,3002.00
817.819,2663.00
818.783,2750.00
819.748,3088.00
820.712,2762.00
821.677,2657.00
822.641,2735.00
823.605,2712.00
824.571,3125.00
825.534,2760.00
826.498,2679.00
827.462,2814.00
828.425,2629.00
829.389,3094.00
830.352,2865.00
831.315,2939.00
832.279,2500.00
833.242,2791.00
834.204,2680.00
835.167,2614.00
836.132,3095.00
837.095,2512.00
838.057,2690.00
839.020,2860.00
839.982,2820.00
840.944,2703.00
841.906,2656.00
842.868,2989.00
843.830,2516.00
844.792,3073.00
845.753,2719.00
846.715,2436.00
847.679,2590.00
848.640,2637.00
849.601,2723.00
850.562,3246.00
851.523,2700.00
852.484,2469.00
853.445,2999.00
854.406,2722.00
855.367,2749.00
856.327,3052.00
857.288,2510.00
858.248,2706.00
859.210,2721.00
860.170,2550.00
861.130,2997.00
862.090,2436.00
863.050,2617.00
864.010,2702.00
864.969,2928.00
865.929,2614.00
866.888,2540.00
867.848,2847.00
868.807,2652.00
869.766,2888.00
870.727,2720.00
871.686,2993.00
872.645,3006.00
873.604,3300.00
874.562,2764.00
875.521,2793.00
876.479,3410.00
877.437,2592.00
878.396,2600.00
879.354,3196.00
880.312,2567.00
881.270,2685.00
882.229,3117.00
883.187,2613.00
884.145,2684.00
885.102,2939.00
886.059,2822.00
887.017,2906.00
887.974,2950.00
888.931,3065.00
889.888,2535.00
890.845,2457.00
891.802,2373.00
892.758,2636.00
893.717,2434.00
894.673,2594.00
895.630,2658.00
896.586,2943.00
897.542,2697.00
898.498,2573.00
899.454,2849.00
900.410,2680.00
901.366,2686.00
902.321,2630.00
903.277,2699.00
904.232,2766.00
905.189,2480.00
906.145,2649.00
907.100,2204.00
908.055,2723.00
909.010,2917.00
909.965,2357.00
910.919,2794.00
911.874,2568.00
912.828,2763.00
913.783,2798.00
914.737,2366.00
915.693,2729.00
916.648,2925.00
917.602,2975.00
918.555,2812.00
919.509,2844.00
920.463,2747.00
921.417,2766.00
922.370,2598.00
923.324,2713.00
924.277,2677.00
925.230,2727.00
926.183,2440.00
927.138,2681.00
928.091,2938.00
929.044,2811.00
929.996,2659.00
930.949,2641.00
931.902,2871.00
932.854,2853.00
933.806,2551.00
934.758,2990.00
935.711,3002.00
936.663,2795.00
937.614,2803.00
938.568,2747.00
939.520,2433.00
940.471,2733.00
941.423,2755.00
942.374,2918.00
943.326,2762.00
944.277,2567.00
945.228,2831.00
946.179,2703.00
947.130,3013.00
948.080,2649.00
949.031,2579.00
949.984,2678.00
950.934,2711.00
951.884,2490.00
952.835,2718.00
953.785,2759.00
954.735,2600.00
955.685,2358.00
956.635,2625.00
957.585,2608.00
958.534,2659.00
959.484,2740.00
960.433,2636.00
961.383,2475.00
962.334,2980.00
963.283,2810.00
964.232,2877.00
965.181,2736.00
966.130,2775.00
967.079,2604.00
968.027,2732.00
968.976,2743.00
969.924,2640.00
970.873,2794.00
971.821,2741.00
972.769,2936.00
973.719,2827.00
974.667,2505.00
975.615,2737.00
976.562,2730.00
977.510,2425.00
978.458,2610.00
979.405,2847.00
980.352,2787.00
981.300,2937.00
982.247,2803.00
983.194,2560.00
984.141,2626.00
985.088,2747.00
986.036,2783.00
986.983,3019.00
987.930,3097.00
988.876,2348.00
989.822,2971.00
990.769,2522.00
991.715,2611.00
992.661,2431.00
993.607,2773.00
994.553,3286.00
995.498,2577.00
996.444,2294.00
997.389,2802.00
998.337,2523.00
999.282,2856.00
1000.227,2695.00
1001.173,2741.00
1002.118,2445.00
1003.062,2947.00
1004.007,2689.00
1004.952,3023.00
1005.897,2943.00
1006.841,2714.00
1007.786,2482.00
1008.730,2471.00
1009.674,3138.00
1010.618,2670.00
1011.564,2497.00
1012.508,2393.00
1013.452,2930.00
1014.396,2724.00
1015.339,2653.00
1016.283,2698.00
1017.226,2754.00
1018.170,2700.00
1019.113,2916.00
1020.056,2715.00
1020.999,2717.00
1021.942,2632.00
1022.885,2820.00
1023.828,3001.00
1024.770,2490.00
1025.715,2758.00
1026.657,2689.00
1027.600,2724.00
1028.542,2934.00
1029.484,2757.00
1030.426,2841.00
1031.368,2763.00
1032.310,2565.00
1033.251,2556.00
1034.193,2682.00
1035.135,2519.00
1036.076,2618.00
1037.017,2579.00
1037.959,2836.00
1038.900,2772.00
1039.843,2802.00
1040.784,2745.00
1041.725,2819.00
1042.665,2637.00
1043.606,2713.00
1044.547,2753.00
1045.487,2378.00
1046.427,2694.00
1047.368,2775.00
1048.308,2227.00
1049.248,2543.00
1050.188,2693.00
1051.128,2636.00
1052.067,2658.00
1053.007,2399.00
1053.947,2386.00
1054.886,2582.00
1055.827,2509.00
1056.766,2873.00
1057.706,2471.00
1058.645,2685.00
1059.584,2740.00
1060.522,2967.00
1061.461,2514.00
1062.400,2499.00
1063.338,2666.00
1064.277,2492.00
1065.215,2535.00
1066.154,2412.00
1067.092,2590.00
1068.030,2629.00
1068.968,2897.00
1069.906,2975.00
1070.843,2965.00
1071.781,2745.00
1072.720,2807.00
1073.658,2799.00
1074.595,2582.00
1075.533,2582.00
1076.470,2579.00
1077.407,2975.00
1078.344,2755.00
1079.281,2793.00
1080.217,2301.00
1081.154,2675.00
1082.091,2715.00
1083.027,2442.00
1083.964,2923.00
1084.900,2566.00
1085.836,2606.00
1086.772,2858.00
1087.708,2437.00
1088.644,2834.00
1089.580,2705.00
1090.515,2752.00
1091.451,2620.00
1092.388,2711.00
1093.324,2432.00
1094.259,3234.00
1095.194,2745.00
1096.129,2588.00
1097.064,2590.00
1097.999,2832.00
1098.934,2525.00
1099.869,2518.00
1100.803,2700.00
1101.738,2737.00
1102.672,2424.00
1103.607,2854.00
1104.541,2545.00
1105.475,2540.00
1106.409,2431.00
1107.343,2629.00
1108.277,2441.00
1109.210,2714.00
1110.144,2696.00
1111.078,2659.00
1112.011,2451.00
1112.944,2770.00
1113.878,2732.00
1114.811,2152.00
1115.744,2594.00
1116.678,2315.00
1117.611,2549.00
1118.544,2624.00
1119.477,2752.00
1120.409,2556.00
1121.342,3127.00
1122.274,2730.00
1123.206,3041.00
1124.138,2664.00
1125.070,2980.00
1126.002,2846.00
1126.934,2281.00
1127.866,2554.00
1128.798,2309.00
1129.729,2417.00
1130.661,2664.00
1131.592,2563.00
1132.523,2740.00
1133.454,2759.00
1134.385,2327.00
1135.317,2640.00
1136.247,2550.00
1137.178,2884.00
1138.109,2375.00
1139.039,2999.00
1139.970,2820.00
1140.900,2561.00
1141.831,2336.00
1142.761,2243.00
1143.691,3134.00
1144.621,2672.00
1145.551,2694.00
1146.480,2692.00
1147.410,2843.00
1148.340,2309.00
1149.269,2381.00
1150.199,2577.00
1151.128,3024.00
1152.057,2435.00
1152.979,2575.00
1153.898,2599.00
1154.819,2783.00
1155.739,2624.00
1156.658,2543.00
1157.579,2679.00
1158.498,2607.00
1159.419,2198.00
1160.338,2676.00
1161.256,2651.00
1162.177,2506.00
1163.095,2639.00
1164.016,2697.00
1164.934,2925.00
1165.852,2839.00
1166.772,2620.00
1167.690,2634.00
1168.610,2682.00
1169.528,2619.00
1170.446,2170.00
1171.365,2548.00
1172.283,2489.00
1173.202,2640.00
1174.120,2607.00
1175.037,2521.00
1175.956,2484.00
1176.873,2503.00
1177.792,2533.00
1178.709,3107.00
1179.626,2555.00
1180.544,2829.00
1181.461,2491.00
1182.379,2714.00
1183.296,2618.00
1184.212,2323.00
1185.130,2483.00
1186.046,2962.00
1186.962,2613.00
1187.880,2917.00
1188.796,2654.00
1189.714,2442.00
1190.629,2760.00
1191.545,2711.00
1192.462,2530.00
1193.378,2581.00
1194.295,2324.00
1195.210,2632.00
1196.125,2790.00
1197.042,2700.00
1197.957,2642.00
1198.872,2497.00
1199.788,2556.00
1200.703,2956.00
1201.619,2637.00
1202.534,2488.00
1203.448,2694.00
1204.364,2553.00
1205.278,2305.00
1206.192,2675.00
1207.108,3121.00
1208.022,2973.00
1208.938,2434.00
1209.851,2775.00
1210.765,2811.00
1211.680,2515.00
1212.594,2402.00
1213.507,2572.00
1214.422,2987.00
1215.335,2763.00
1216.248,2550.00
1217.163,2620.00
1218.076,3260.00
1218.990,2767.00
1219.903,2407.00
1220.816,2477.00
1221.730,2585.00
1222.642,2472.00
1223.554,2530.00
1224.469,2695.00
1225.380,2583.00
1226.292,2299.00
1227.206,2789.00
1228.118,2937.00
1229.032,2255.00
1229.943,2515.00
1230.855,2547.00
1231.768,2386.00
1232.679,2747.00
1233.590,2587.00
1234.503,2862.00
1235.414,2474.00
1236.325,2520.00
1237.238,2690.00
1238.149,2718.00
1239.059,2473.00
1239.972,2781.00
1240.882,2413.00
1241.793,2713.00
1242.705,2969.00
1243.615,2571.00
1244.525,2711.00
1245.437,2210.00
1246.347,2682.00
1247.259,2791.00
1248.168,3050.00
1249.078,2902.00
1249.989,2885.00
1250.899,2448.00
1251.808,2542.00
1252.719,2573.00
1253.628,2496.00
1254.537,2967.00
1255.448,2461.00
1256.357,2484.00
1257.266,2634.00
1258.176,2380.00
1259.085,2347.00
1259.993,2467.00
1260.904,2465.00
1261.812,2405.00
1262.720,3213.00
1263.630,2791.00
1264.538,2463.00
1265.446,2715.00
1266.356,2599.00
1267.263,2915.00
1268.171,2438.00
1269.080,2698.00
1269.988,2779.00
1270.895,2531.00
1271.804,2615.00
1272.711,2809.00
1273.619,2752.00
1274.527,2410.00
1275.434,2739.00
1276.341,2447.00
1277.248,2654.00
1278.156,2917.00
1279.063,2472.00
1279.969,2715.00
1280.877,3546.00
1281.783,2852.00
1282.690,2683.00
1283.598,2588.00
1284.503,2498.00
1285.409,2465.00
1286.317,3004.00
1287.223,3026.00
1288.128,2697.00
1289.036,2516.00
1289.941,2582.00
1290.846,2636.00
1291.751,2477.00
1292.658,2542.00
1293.563,3068.00
1294.468,2653.00
1295.375,2796.00
1296.280,2863.00
1297.184,3332.00
1298.091,2732.00
1298.995,2767.00
1299.900,3017.00
1300.806,2534.00
1301.710,2380.00
1302.614,2241.00
1303.518,2867.00
1304.424,2575.00
1305.327,2813.00
1306.231,2604.00
1307.137,2778.00
1308.040,2667.00
1308.943,2655.00
1309.847,2903.00
1310.752,2805.00
1311.655,2316.00
1312.558,2398.00
1313.463,2562.00
1314.366,2534.00
1315.269,2715.00
1316.171,2605.00
1317.076,2520.00
1317.978,2432.00
1318.881,2253.00
1319.785,2447.00
1320.687,2487.00
1321.589,2269.00
1322.491,2457.00
1323.395,2722.00
1324.297,3190.00
1325.198,2747.00
1326.102,2434.00
1327.004,2458.00
1327.905,3021.00
1328.806,2605.00
1329.709,2695.00
1330.611,2597.00
1331.512,2473.00
1332.413,3063.00
1333.316,2671.00
1334.216,2778.00
1335.117,2362.00
1336.020,2666.00
1336.920,2631.00
1337.821,2498.00
1338.721,2876.00
1339.623,2656.00
1340.523,2585.00
1341.423,2506.00
1342.323,2912.00
1343.225,2729.00
1344.125,2516.00
1345.025,2490.00
1345.924,2312.00
1346.826,2969.00
1347.725,3018.00
1348.624,2837.00
1349.524,2504.00
1350.425,2600.00
1351.324,2715.00
1352.223,2788.00
1353.121,2590.00
1354.022,2821.00
1354.921,2996.00
1355.819,2754.00
1356.718,2676.00
1357.618,2361.00
1358.516,2731.00
1359.415,3016.00
1360.313,2748.00
1361.213,2572.00
1362.111,2927.00
1363.008,3242.00
1363.906,2605.00
1364.806,2616.00
1365.703,2724.00
1366.601,2470.00
1367.498,2469.00
1368.397,2791.00
1369.295,2692.00
1370.192,2484.00
1371.089,2705.00
1371.987,2635.00
1372.884,2879.00
1373.781,2421.00
1374.678,2640.00
1375.574,2458.00
1376.473,2783.00
1377.369,2879.00
1378.265,2475.00
1379.161,2580.00
1380.059,2373.00
1380.955,2751.00
1381.851,2411.00
1382.747,2522.00
1383.643,2528.00
1384.540,2447.00
1385.436,2551.00
1386.331,2698.00
1387.227,2796.00
1388.124,2716.00
1389.019,2435.00
1389.914,2622.00
1390.809,2292.00
1391.704,3052.00
1392.601,2557.00
1393.495,2882.00
1394.390,2824.00
1395.285,2889.00
1396.179,2716.00
1397.075,2591.00
1397.969,2712.00
1398.864,2328.00
1399.758,2591.00
1400.652,2708.00
1401.547,2447.00
1402.441,2385.00
1403.335,2964.00
1404.229,2679.00
1405.122,2716.00
1406.017,2619.00
1406.911,2807.00
1407.804,3072.00
1408.697,2574.00
1409.590,2436.00
1410.485,2791.00
1411.378,2654.00
1412.271,2377.00
1413.163,2660.00
1414.056,2809.00
1414.949,3027.00
1415.843,2653.00
1416.735,2618.00
1417.627,2641.00
1418.520,2630.00
1419.412,2890.00
1420.306,2814.00
1421.197,2885.00
1422.089,2866.00
1422.981,3057.00
1423.873,2849.00
1424.764,2768.00
1425.657,2662.00
1426.549,2813.00
1427.440,2831.00
1428.331,2558.00
1429.222,2321.00
1430.113,2688.00
1431.006,2855.00
1431.897,2566.00
1432.787,2656.00
1433.678,2566.00
1434.568,2456.00
1435.459,2855.00
1436.351,2868.00
1437.241,2804.00
1438.131,2797.00
1439.021,2417.00
1439.911,2614.00
1440.801,2732.00
1441.693,2896.00
1442.583,2659.00
1443.472,2686.00
1444.362,2769.00
1445.251,2601.00
1446.140,2580.00
1447.030,2818.00
1447.921,2852.00
1448.810,2470.00
1449.699,3050.00
1450.588,2677.00
1451.476,2568.00
1452.365,2765.00
1453.254,2525.00
1454.144,2521.00
1455.032,2774.00
1455.921,2368.00
1456.809,2982.00
1457.697,2450.00
1458.585,2611.00
1459.473,2577.00
1460.361,2484.00
1461.251,2733.00
1462.138,2712.00
1463.026,2623.00
1463.913,2902.00
1464.801,2572.00
1465.688,2750.00
1466.575,2688.00
1467.463,3134.00
1468.351,2477.00
1469.238,2605.00
1470.125,2265.00
1471.012,2660.00
1471.899,2720.00
1472.785,2467.00
1473.672,2659.00
1474.558,2878.00
1475.446,2805.00
1476.333,2781.00
1477.219,2443.00
1478.105,2630.00
1478.991,2580.00
1479.877,2918.00
1480.762,2626.00
1481.648,2554.00
1482.534,2781.00
1483.419,2692.00
1484.307,2761.00
1485.192,2597.00
1486.077,2497.00
1486.962,2502.00
1487.847,2408.00
1488.732,2490.00
1489.617,2627.00
1490.502,2910.00
1491.387,2788.00
1492.271,2505.00
1493.156,2501.00
1494.042,2459.00
1494.927,2857.00
1495.811,2561.00
1496.695,2786.00
1497.579,2927.00
1498.463,2639.00
1499.347,2702.00
1500.231,2686.00
1501.114,2724.00
1501.998,2935.00
1502.881,2691.00
1503.765,2945.00
1504.648,3089.00
1505.533,2816.00
1506.417,2647.00
1507.300,2623.00
1508.183,2738.00
1509.066,2158.00
1509.948,2916.00
1510.831,2995.00
1511.714,2458.00
1512.596,2809.00
1513.479,2932.00
1514.361,2836.00
1515.243,2667.00
1516.125,2812.00
1517.008,2882.00
1517.890,2589.00
1518.771,2705.00
1519.655,2858.00
1520.537,2637.00
1521.419,2520.00
1522.300,2723.00
1523.182,2790.00
1524.063,2772.00
1524.944,2959.00
1525.825,2848.00
1526.707,2474.00
1527.588,2424.00
1528.468,2708.00
1529.349,2382.00
1530.230,2621.00
1531.111,2869.00
1531.991,2729.00
1532.872,2377.00
1533.752,2640.00
1534.632,2551.00
1535.513,2522.00
1536.393,2851.00
1537.273,2963.00
1538.153,3281.00
1539.032,2406.00
1539.912,2649.00
1540.792,2667.00
1541.672,2675.00
1542.551,2787.00
1543.430,3260.00
1544.310,2691.00
1545.189,2570.00
1546.068,3115.00
1546.947,2751.00
1547.826,2989.00
1548.705,2706.00
1549.584,2912.00
1550.462,2618.00
1551.341,2855.00
1552.219,2714.00
1553.098,2844.00
1553.976,2869.00
1554.854,3068.00
1555.733,2847.00
1556.611,2649.00
1557.489,2493.00
1558.367,2715.00
1559.244,2817.00
1560.122,2655.00
1561.000,2690.00
1561.877,2975.00
1562.755,2551.00
1563.632,2646.00
1564.509,2927.00
1565.386,3036.00
1566.264,2482.00
1567.141,2322.00
1568.017,2808.00
1568.894,2650.00
1569.771,2704.00
1570.648,2757.00
1571.524,2709.00
1572.401,2409.00
1573.277,2449.00
1574.153,2716.00
1575.029,2526.00
1575.906,3395.00
1576.781,2795.00
1577.657,2626.00
1578.533,2881.00
1579.409,2309.00
1580.285,2626.00
1581.160,3083.00
1582.036,2845.00
1582.911,2539.00
1583.786,3023.00
1584.662,2529.00
1585.537,2638.00
1586.412,2723.00
1587.287,2498.00
1588.160,2839.00
1589.035,2338.00
1589.909,2769.00
1590.784,2662.00
1591.658,2489.00
1592.533,2751.00
1593.407,2668.00
1594.281,2611.00
1595.155,3081.00
1596.029,2567.00
1596.903,2646.00
1597.777,2605.00
1598.651,2947.00
1599.525,2379.00
1600.398,2703.00
1601.272,2625.00
1602.144,3250.00
1603.017,2587.00
1603.890,2915.00
1604.763,2806.00
1605.636,2855.00
1606.509,2401.00
1607.382,2535.00
1608.255,2755.00
1609.128,2924.00
1610.000,2639.00
1610.873,2366.00
1611.746,2570.00
1612.616,2630.00
1613.488,2240.00
1614.361,2658.00
1615.233,2657.00
1616.105,2876.00
1616.977,2588.00
1617.849,2501.00
1618.720,2989.00
1619.592,2970.00
1620.464,2761.00
1621.333,3121.00
1622.205,2678.00
1623.076,2643.00
1623.947,2692.00
1624.818,2914.00
1625.689,2815.00
1626.560,2609.00
1627.431,2738.00
1628.302,3089.00
1629.171,2801.00
1630.042,2998.00
1630.912,3638.00
1631.782,3265.00
1632.653,2539.00
1633.523,2839.00
1634.393,2960.00
1635.263,2580.00
1636.131,2666.00
1637.001,2614.00
1637.871,2331.00
1638.741,2337.00
1639.611,2464.00
1640.480,2761.00
1641.350,2568.00
1642.219,2526.00
1643.087,2219.00
1643.956,3101.00
1644.825,2958.00
1645.694,2920.00
1646.563,2848.00
1647.432,2702.00
1648.299,2674.00
1649.167,2829.00
1650.036,2492.00
1650.904,2832.00
1651.773,2908.00
1652.641,2709.00
1653.509,2914.00
1654.376,2568.00
1655.244,2765.00
1656.112,2757.00
1656.980,2695.00
1657.847,2552.00
1658.715,2804.00
1659.581,2595.00
1660.448,2902.00
1661.316,2215.00
1662.183,2713.00
1663.051,2757.00
1663.918,2730.00
1664.783,2705.00
1665.650,2783.00
1666.517,2879.00
1667.384,2722.00
1668.251,2736.00
1669.115,2866.00
1669.982,2655.00
1670.849,2974.00
1671.715,2693.00
1672.581,2844.00
1673.446,2801.00
1674.312,2719.00
1675.178,3065.00
1676.044,2778.00
1676.910,2745.00
1677.774,2755.00
1678.639,2342.00
1679.505,2694.00
1680.370,2832.00
1681.236,3294.00
1682.099,2635.00
1682.965,2712.00
1683.830,2288.00
1684.695,2541.00
1685.560,2633.00
1686.423,2850.00
1687.288,2837.00
1688.153,2717.00
1689.017,2635.00
1689.880,2778.00
1690.745,2856.00
1691.609,2547.00
1692.473,2835.00
1693.338,2882.00
1694.200,2960.00
1695.064,2721.00
1695.928,2614.00
1696.792,2738.00
1697.654,3184.00
1698.517,2724.00
1699.381,2442.00
1700.245,2377.00
1701.106,2981.00
1701.969,2585.00
1702.833,2832.00
1703.696,2629.00
1704.557,2638.00
1705.420,2555.00
1706.283,2755.00
1707.146,2840.00
1708.007,2502.00
1708.870,2489.00
1709.732,2370.00
1710.595,2578.00
1711.455,2452.00
1712.318,2617.00
1713.180,2970.00
1714.040,2724.00
1714.902,2904.00
1715.764,2681.00
1716.626,2502.00
1717.486,2681.00
1718.348,2932.00
1719.209,3981.00
1720.071,2390.00
1720.930,2429.00
1721.792,2563.00
1722.653,2552.00
1723.512,2595.00
1724.374,2640.00
1725.234,2746.00
1726.095,2726.00
1726.954,2700.00
1727.815,2806.00
1728.676,2705.00
1729.535,2893.00
1730.395,2644.00
1731.256,2624.00
1732.114,2772.00
1732.974,2151.00
1733.834,3070.00
1734.693,2877.00
1735.553,2704.00
1736.413,3165.00
1737.272,2591.00
1738.130,2673.00
1738.990,2763.00
1739.849,2600.00
1740.707,3663.00
1741.566,2774.00
1742.426,2746.00
1743.283,3075.00
1744.142,2593.00
1745.001,2374.00
1745.858,2856.00
1746.717,2764.00
1747.576,2787.00
1748.433,2851.00
1749.292,3309.00
1750.150,3305.00
1751.007,2873.00
1751.865,2918.00
1752.723,2714.00
1753.579,2626.00
1754.438,2954.00
1755.296,2907.00
1756.152,2292.00
1757.010,2385.00
1757.865,2901.00
1758.723,2328.00
1759.581,3023.00
1760.436,2641.00
1761.294,3055.00
1762.151,2751.00
1763.006,2604.00
1763.864,2354.00
1764.721,2891.00
1765.576,2718.00
1766.433,2887.00
1767.288,2600.00
1768.144,2753.00
1769.001,2651.00
1769.856,2816.00
1770.712,2911.00
1771.568,2509.00
1772.423,2618.00
1773.279,2590.00
1774.133,2612.00
1774.989,3107.00
1775.845,3095.00
1776.699,2960.00
1777.555,2684.00
1778.409,3229.00
1779.265,2662.00
1780.120,2687.00
1780.974,2685.00
1781.829,2380.00
1782.682,2751.00
1783.538,2557.00
1784.393,2763.00
1785.246,2582.00
1786.101,2817.00
1786.954,2826.00
1787.808,2890.00
1788.661,2446.00
1789.516,2640.00
1790.370,2662.00
1791.223,2885.00
1792.077,2744.00
1792.930,2780.00
1793.784,2588.00
1794.636,2725.00
1795.490,2675.00
1796.344,2736.00
1797.196,2721.00
1798.049,2868.00
1798.901,2587.00
1799.755,2943.00
1800.606,2461.00
1801.460,3211.00
1802.311,3009.00
1803.165,3118.00
1804.018,3051.00
1804.869,2803.00
1805.722,3178.00
1806.573,2762.00
1807.426,2545.00
1808.276,2707.00
1809.129,2611.00
1809.980,2908.00
1810.832,3000.00
1811.683,2650.00
1812.535,3026.00
1813.385,2631.00
1814.237,3025.00
1815.089,2785.00
1815.940,2973.00
1816.791,2641.00
1817.641,2598.00
1818.493,2883.00
1819.343,2814.00
1820.194,2594.00
1821.044,2819.00
1821.895,2904.00
1822.745,2462.00
1823.596,2613.00
1824.445,3097.00
1825.296,2826.00
1826.145,2673.00
1826.996,2920.00
1827.845,2803.00
1828.695,2791.00
1829.544,2732.00
1830.395,2763.00
1831.243,2632.00
1832.094,2459.00
1832.942,3346.00
1833.792,2845.00
1834.640,2779.00
1835.490,2756.00
1836.338,2815.00
1837.186,2573.00
1838.036,2558.00
1838.884,2722.00
1839.733,3017.00
1840.581,2919.00
1841.430,2843.00
1842.278,3069.00
1843.127,2588.00
1843.974,2434.00
1844.823,3159.00
1845.671,2910.00
1846.519,2755.00
1847.366,2781.00
1848.213,2365.00
1849.062,2519.00
1849.909,2461.00
1850.757,3402.00
1851.604,2827.00
1852.452,2666.00
1853.298,2886.00
1854.146,2770.00
1854.993,2740.00
1855.839,3254.00
1856.687,2869.00
1857.532,2808.00
1858.380,2776.00
1859.226,2764.00
1860.073,2829.00
1860.919,2570.00
1861.765,2616.00
1862.612,2965.00
1863.457,2932.00
1864.304,2671.00
1865.150,2888.00
1865.995,2696.00
1866.842,2846.00
1867.686,2940.00
1868.533,2822.00
1869.378,2784.00
1870.223,2732.00
1871.069,2616.00
1871.914,2733.00
1872.760,2708.00
1873.604,2509.00
1874.448,2892.00
1875.294,2921.00
1876.139,2610.00
1876.984,2829.00
1877.828,2395.00
1878.672,2241.00
1879.518,2594.00
1880.361,2924.00
1881.205,2863.00
1882.050,2555.00
1882.894,3211.00
1883.739,2625.00
1884.582,2484.00
1885.425,2579.00
1886.270,2974.00
1887.113,2475.00
1887.956,2822.00
1888.801,2769.00
1889.644,2550.00
1890.486,2349.00
1891.331,2662.00
1892.173,2793.00
1893.017,2811.00
1893.860,2993.00
1894.702,3007.00
1895.546,2772.00
1896.388,3411.00
1897.230,3138.00
1898.074,2654.00
1898.916,2539.00
1899.757,2568.00
1900.601,3427.00
1901.443,3032.00
1902.284,3068.00
1903.125,3231.00
1903.969,2920.00
1904.810,2946.00
1905.651,2864.00
1906.494,3024.00
1907.335,3191.00
1908.176,2896.00
1909.018,2829.00
1909.859,2733.00
1910.700,2617.00
1911.542,3263.00
1912.383,2808.00
1913.223,2387.00
1914.064,2887.00
1914.906,3014.00
1915.746,3091.00
1916.586,3228.00
1917.428,2734.00
1918.268,2758.00
1919.107,2637.00
1919.947,2530.00
1920.789,2713.00
1921.628,3029.00
1922.468,2721.00
1923.309,2566.00
1924.148,3085.00
1924.988,2846.00
1925.827,2735.00
1926.667,2662.00
1927.507,2777.00
1928.345,2559.00
1929.184,2929.00
1930.025,2583.00
1930.864,3005.00
1931.702,3075.00
1932.541,2727.00
1933.381,2838.00
1934.219,2879.00
1935.057,3019.00
1935.896,2495.00
1936.735,2707.00
1937.573,2648.00
1938.411,2526.00
1939.249,2926.00
1940.089,2610.00
1940.927,3027.00
1941.764,3020.00
1942.602,2676.00
1943.439,2633.00
1944.278,2733.00
1945.115,2678.00
1945.953,2492.00
1946.790,2829.00
1947.628,3107.00
1948.465,2878.00
1949.302,2881.00
1950.139,2885.00
1950.976,2634.00
1951.814,2887.00
1952.651,2797.00
1953.487,2550.00
1954.323,3026.00
1955.160,2733.00
1955.998,3150.00
1956.834,2758.00
1957.670,2861.00
1958.506,2961.00
1959.342,2839.00
1960.177,2788.00
1961.015,2892.00
1961.850,2791.00
1962.686,2827.00
1963.521,2815.00
1964.357,3017.00
1965.192,2553.00
1966.029,2918.00
1966.864,2686.00
1967.699,2987.00
1968.534,2762.00
1969.369,3035.00
1970.204,2733.00
1971.040,2816.00
1971.875,2670.00
1972.709,2805.00
1973.544,2598.00
1974.378,2659.00
1975.212,2892.00
1976.047,2636.00
1976.882,2630.00
1977.716,3117.00
1978.550,2474.00
1979.384,2720.00
1980.218,2693.00
1981.052,2697.00
1981.885,2763.00
1982.719,2765.00
1983.554,2921.00
1984.388,3079.00
1985.221,2827.00
1986.054,3007.00
1986.887,2766.00
1987.720,2622.00
1988.553,3083.00
1989.386,2831.00
1990.219,2870.00
1991.053,3061.00
1991.886,2628.00
1992.719,2959.00
1993.551,2299.00
1994.383,2885.00
1995.216,2679.00
1996.048,2528.00
1996.880,2902.00
1997.712,2646.00
1998.544,2758.00
1999.376,2843.00
2000.208,3073.00
2001.040,3160.00
2001.873,2581.00
2002.705,2577.00
2003.536,2778.00
2004.367,2803.00
2005.199,2809.00
2006.030,2662.00
2006.861,2571.00
2007.692,2780.00
2008.523,2615.00
2009.354,2803.00
2010.185,2584.00
2011.016,2890.00
2011.846,2981.00
2012.677,2691.00
2013.507,3098.00
2014.338,3017.00
2015.168,2689.00
2015.999,3330.00
2016.829,2678.00
2017.659,2968.00
2018.489,3287.00
2019.319,2563.00
2020.149,2920.00
2020.980,2769.00
2021.810,2600.00
2022.639,2630.00
2023.469,2675.00
2024.298,2465.00
2025.128,2358.00
2025.957,2409.00
2026.786,2216.00
2027.615,2418.00
2028.444,2634.00
2029.273,2772.00
2030.102,2402.00
2030.931,2613.00
2031.758,2889.00
2032.586,2572.00
2033.415,2637.00
2034.243,2272.00
2035.072,2054.00
2035.900,2527.00
2036.728,2329.00
2037.556,2367.00
2038.385,2428.00
2039.213,2209.00
2040.040,2215.00
2040.868,2179.00
2041.696,2219.00
2042.524,2240.00
2043.351,2438.00
2044.179,2243.00
2045.006,2010.00
