RamanScope Measure Spectrum Data V3.72

<< MEASURE CONDITION >>
Exposure Type,Aver
Exposure Time [sec],15
Exposure Count,4
Measure Time,2023/07/14 22:11:16
Data Name,""
Data Comment,""
Rayleigh Wave[nm],532.0

<< SAMPLE SPECTRUM >>
Wave[dcm-1],No113
146.591,718.00
147.626,879.50
148.664,1049.75
149.699,1260.75
150.737,1470.75
151.772,1640.25
152.809,1817.75
153.846,2036.50
154.881,2210.00
155.918,2379.00
156.953,2536.25
157.989,2656.75
159.026,2762.50
160.060,2862.00
161.096,2975.25
162.130,2986.50
163.167,3021.00
164.200,3064.00
165.236,3175.25
166.272,3186.00
167.305,3223.25
168.341,3282.75
169.374,3387.50
170.409,3477.25
171.445,3494.50
172.477,3583.00
173.512,3605.75
174.545,3652.75
175.580,3747.25
176.614,3728.00
177.647,3722.50
178.681,3764.00
179.713,3729.50
180.747,3743.50
181.781,3729.50
182.813,3715.75
183.847,3675.25
184.878,3673.50
185.912,3707.75
186.945,3637.00
187.976,3655.00
189.010,3723.75
190.043,3750.00
191.073,3723.25
192.106,3724.75
193.137,3752.75
194.170,3831.00
195.202,3831.75
196.232,3879.00
197.265,3948.50
198.297,3980.25
199.327,3991.75
200.359,4078.75
201.388,4156.00
202.420,4219.75
203.452,4218.25
204.481,4325.00
205.512,4334.25
206.544,4442.75
207.573,4540.00
208.604,4593.50
209.635,4689.00
210.663,4879.50
211.694,4910.25
212.725,4954.00
213.753,5012.50
214.783,5227.50
215.813,5238.00
216.841,5206.75
217.871,5249.75
218.899,5289.75
219.929,5361.75
220.959,5295.00
221.986,5290.25
223.016,5211.75
224.045,5190.25
225.072,5048.00
226.101,4985.50
227.130,4902.25
228.157,4861.25
229.185,4791.25
230.214,4728.75
231.241,4740.50
232.269,4621.00
233.297,4647.75
234.323,4550.00
235.351,4579.00
236.379,4572.25
237.407,4588.75
238.433,4503.00
239.460,4546.75
240.488,4649.75
241.513,4652.00
242.540,4614.00
243.568,4638.00
244.592,4681.75
245.619,4687.25
246.646,4736.00
247.671,4744.50
248.697,4765.50
249.724,4643.25
250.748,4630.50
251.774,4716.50
252.801,4688.00
253.827,4674.25
254.850,4706.75
255.876,4694.75
256.902,4727.25
257.925,4702.75
258.951,4774.00
259.976,4751.75
260.999,4755.25
262.024,4870.25
263.049,4844.50
264.074,4835.25
265.097,4899.50
266.122,4962.75
267.146,5017.25
268.168,5008.50
269.193,5066.75
270.217,5031.50
271.241,5138.25
272.263,5191.75
273.287,5182.50
274.311,5194.75
275.332,5242.50
276.356,5216.00
277.379,5186.25
278.402,5220.50
279.424,5201.25
280.447,5186.50
281.470,5101.75
282.492,5062.00
283.513,5018.75
284.536,4990.25
285.558,4929.25
286.581,4930.00
287.601,4842.50
288.623,4764.25
289.645,4719.25
290.665,4623.00
291.687,4615.00
292.709,4571.50
293.730,4552.00
294.750,4431.25
295.771,4365.50
296.792,4362.75
297.813,4320.00
298.832,4309.00
299.853,4201.00
300.874,4190.50
301.895,4153.00
302.913,4123.75
303.934,4047.00
304.954,4040.25
305.975,3986.75
306.993,3922.25
308.013,3879.75
309.033,3893.50
310.052,3856.00
311.072,3863.50
312.090,3835.00
313.109,3824.00
314.129,3795.75
315.148,3824.25
316.165,3793.50
317.184,3783.25
318.203,3721.75
319.222,3764.00
320.238,3708.50
321.257,3688.25
322.275,3653.75
323.294,3688.50
324.312,3657.25
325.328,3684.75
326.346,3596.00
327.364,3557.75
328.382,3634.50
329.397,3580.00
330.415,3568.00
331.432,3541.75
332.450,3520.75
333.467,3531.75
334.482,3572.75
335.499,3558.25
336.516,3584.25
337.533,3558.25
338.547,3572.75
339.564,3574.00
340.580,3547.00
341.597,3506.25
342.613,3533.75
343.627,3535.25
344.643,3514.75
345.659,3532.75
346.675,3492.50
347.690,3488.00
348.704,3471.25
349.719,3565.25
350.735,3517.25
351.750,3505.75
352.765,3516.50
353.778,3482.25
354.793,3470.75
355.808,3501.00
356.822,3501.00
357.837,3456.50
358.851,3532.25
359.864,3497.25
360.878,3512.75
361.892,3494.50
362.906,3495.50
363.920,3518.00
364.932,3545.00
365.945,3553.50
366.959,3498.25
367.972,3486.75
368.986,3543.25
369.999,3531.50
371.010,3509.50
372.023,3554.25
373.036,3517.50
374.049,3548.25
375.061,3576.00
376.072,3578.75
377.084,3589.00
378.097,3592.50
379.109,3646.00
380.121,3628.75
381.133,3621.00
382.143,3581.00
383.155,3536.75
384.166,3591.75
385.178,3583.25
386.189,3581.50
387.201,3554.25
388.212,3594.25
389.221,3639.50
390.232,3588.75
391.243,3560.25
392.254,3552.25
393.264,3517.00
394.275,3552.50
395.283,3541.75
396.294,3559.00
397.304,3499.25
398.314,3551.25
399.324,3461.75
400.334,3506.25
401.344,3518.50
402.351,3477.25
403.361,3447.25
404.370,3433.00
405.380,3420.00
406.389,3410.75
407.398,3387.00
408.407,3417.75
409.414,3391.50
410.423,3307.75
411.431,3359.25
412.440,3367.75
413.448,3378.50
414.457,3333.25
415.465,3326.00
416.471,3369.75
417.479,3285.00
418.487,3295.50
419.495,3297.75
420.503,3312.25
421.510,3320.00
422.518,3279.50
423.525,3287.50
424.530,3181.25
425.537,3220.75
426.544,3269.00
427.551,3244.50
428.558,3231.50
429.565,3192.00
430.571,3191.00
431.578,3205.75
432.582,3192.00
433.588,3210.75
434.595,3158.25
435.601,3170.25
436.607,3160.00
437.612,3220.50
438.618,3270.75
439.624,3215.75
440.627,3171.00
441.633,3192.00
442.638,3195.25
443.643,3160.50
444.648,3142.75
445.653,3186.50
446.658,3184.50
447.663,3209.25
448.667,3225.00
449.672,3156.75
450.674,3148.50
451.678,3171.00
452.682,3230.25
453.687,3173.50
454.690,3206.00
455.694,3129.75
456.698,3184.75
457.702,3209.00
458.705,3168.50
459.709,3200.50
460.710,3148.25
461.713,3153.00
462.716,3239.50
463.719,3226.50
464.722,3194.75
465.725,3176.50
466.727,3223.50
467.730,3237.00
468.732,3236.00
469.735,3221.75
470.737,3155.50
471.737,3233.50
472.739,3241.50
473.741,3228.50
474.742,3180.25
475.744,3175.50
476.746,3220.50
477.747,3227.50
478.748,3213.00
479.750,3226.00
480.751,3212.75
481.752,3201.25
482.753,3171.50
483.751,3257.25
484.752,3201.75
485.753,3252.75
486.753,3160.25
487.753,3238.25
488.754,3245.75
489.754,3223.00
490.754,3192.25
491.754,3243.75
492.754,3222.00
493.753,3232.25
494.753,3263.50
495.752,3204.50
496.752,3200.25
497.749,3196.50
498.748,3217.00
499.747,3187.50
500.746,3196.50
501.745,3148.50
502.744,3166.50
503.742,3151.50
504.741,3148.50
505.739,3134.75
506.737,3098.75
507.735,3110.50
508.734,3123.50
509.732,3108.00
510.729,3090.25
511.727,3031.75
512.725,3086.25
513.720,3048.00
514.718,3016.25
515.715,3086.50
516.712,3084.25
517.709,3038.25
518.706,3012.25
519.703,3041.25
520.700,3060.75
521.696,3101.00
522.693,3057.25
523.689,3047.75
524.686,3026.00
525.682,3061.25
526.678,3018.75
527.674,3049.00
528.670,3009.75
529.666,3008.75
530.661,3007.75
531.657,2994.00
532.652,2971.25
533.648,2983.75
534.641,3010.00
535.636,3013.00
536.631,3065.50
537.626,2995.75
538.621,2993.00
539.616,3015.75
540.610,3081.75
541.605,3014.75
542.599,3013.00
543.593,2998.50
544.587,2991.50
545.581,3033.25
546.575,3096.00
547.569,3022.75
548.563,2959.50
549.557,3015.50
550.550,3000.00
551.543,2998.25
552.537,3034.00
553.530,2985.25
554.523,3007.50
555.516,3012.25
556.509,3009.25
557.502,2979.25
558.494,2969.50
559.487,3015.25
560.479,2963.75
561.472,3003.00
562.464,3023.00
563.456,2976.75
564.448,2946.75
565.440,3060.25
566.432,2981.50
567.423,3024.75
568.415,3003.25
569.404,3002.00
570.396,2993.00
571.387,3047.75
572.378,3047.25
573.369,3009.00
574.360,2993.75
575.351,3021.25
576.341,3023.75
577.332,2983.75
578.323,3043.50
579.313,3089.75
580.303,3024.00
581.293,3042.75
582.283,3081.50
583.273,3043.50
584.263,3017.00
585.253,3079.25
586.243,3061.00
587.232,3066.50
588.222,3088.50
589.211,3060.25
590.200,3129.75
591.189,3101.50
592.178,3047.50
593.167,3071.00
594.156,3070.00
595.145,3071.00
596.133,3066.25
597.122,3054.75
598.110,3092.00
599.098,3056.50
600.086,3089.50
601.074,3105.25
602.062,3080.75
603.050,3071.00
604.038,3052.50
605.025,3033.25
606.013,3027.25
607.000,3058.00
607.987,3015.25
608.975,3011.75
609.962,3007.75
610.949,2992.25
611.936,2936.25
612.922,3013.75
613.909,2985.00
614.895,2928.50
615.882,2907.75
616.868,2957.00
617.854,2895.50
618.841,2889.75
619.826,2862.50
620.812,2853.25
621.798,2850.50
622.784,2851.50
623.769,2793.75
624.755,2767.00
625.740,2766.25
626.725,2770.50
627.711,2746.00
628.698,2757.25
629.683,2715.75
630.667,2723.25
631.652,2648.75
632.637,2620.50
633.621,2710.00
634.606,2709.50
635.590,2588.75
636.574,2621.25
637.558,2577.75
638.542,2588.25
639.526,2562.75
640.510,2572.00
641.493,2585.25
642.477,2517.75
643.460,2576.25
644.444,2525.75
645.427,2554.00
646.410,2483.75
647.393,2541.75
648.376,2477.25
649.359,2473.25
650.341,2456.50
651.324,2431.25
652.307,2443.25
653.289,2442.25
654.271,2481.00
655.253,2460.50
656.235,2410.00
657.217,2420.50
658.199,2392.00
659.181,2453.50
660.163,2432.75
661.144,2395.25
662.126,2383.75
663.107,2405.50
664.088,2463.50
665.069,2382.25
666.050,2388.25
667.033,2373.25
668.014,2311.00
668.995,2393.50
669.975,2387.75
670.956,2358.75
671.936,2349.75
672.916,2304.50
673.896,2310.00
674.876,2315.75
675.856,2261.75
676.836,2266.75
677.816,2282.50
678.795,2240.75
679.775,2204.75
680.754,2248.00
681.734,2241.75
682.713,2171.75
683.692,2180.00
684.671,2203.00
685.650,2199.50
686.629,2198.25
687.607,2143.50
688.586,2142.00
689.564,2125.50
690.543,2128.75
691.523,2149.25
692.501,2059.50
693.479,2090.25
694.457,2100.00
695.435,2066.75
696.413,2109.00
697.390,2116.50
698.368,2079.25
699.345,2041.75
700.322,2033.75
701.300,2010.50
702.277,2059.75
703.254,2002.00
704.231,1976.25
705.207,2026.75
706.184,2071.75
707.161,2011.00
708.137,1993.25
709.113,1998.75
710.090,1951.00
711.068,2031.50
712.044,1988.25
713.020,1981.00
713.996,1973.00
714.971,1959.50
715.947,1901.25
716.922,1947.50
717.898,1964.25
718.873,1936.75
719.848,1961.75
720.823,1895.25
721.798,1942.25
722.773,1934.50
723.748,1918.00
724.723,1911.00
725.697,1903.00
726.672,1864.75
727.646,1838.50
728.622,1894.25
729.596,1828.50
730.570,1872.75
731.544,1880.25
732.518,1900.25
733.492,1884.00
734.466,1844.75
735.439,1824.25
736.413,1869.25
737.386,1850.25
738.359,1853.75
739.332,1856.25
740.305,1844.00
741.278,1805.75
742.251,1857.00
743.224,1839.75
744.196,1840.00
745.171,1821.75
746.143,1821.00
747.115,1750.50
748.087,1799.75
749.059,1793.50
750.031,1798.00
751.003,1813.50
751.975,1744.00
752.947,1801.25
753.918,1761.50
754.890,1762.75
755.861,1786.50
756.832,1734.25
757.803,1700.75
758.774,1759.75
759.747,1765.00
760.718,1769.50
761.689,1757.50
762.659,1743.25
763.630,1764.25
764.600,1676.50
765.570,1689.50
766.540,1672.75
767.510,1700.25
768.480,1743.00
769.450,1732.00
770.420,1640.25
771.390,1667.00
772.359,1691.75
773.329,1692.25
774.300,1717.00
775.269,1678.75
776.238,1628.25
777.207,1666.75
778.176,1717.25
779.145,1680.00
780.114,1668.75
781.083,1630.00
782.051,1603.25
783.019,1647.50
783.988,1673.50
784.956,1666.75
785.924,1635.00
786.894,1649.75
787.862,1607.50
788.830,1576.50
789.797,1637.75
790.765,1591.75
791.732,1558.25
792.700,1619.75
793.667,1571.75
794.634,1545.00
795.601,1584.75
796.568,1611.50
797.535,1577.25
798.502,1587.25
799.468,1586.75
800.437,1541.00
801.403,1571.50
802.370,1597.00
803.336,1560.00
804.302,1506.75
805.268,1517.50
806.234,1532.25
807.200,1523.75
808.166,1528.00
809.131,1576.00
810.097,1517.25
811.062,1544.75
812.027,1538.50
812.994,1511.75
813.960,1545.50
814.925,1530.75
815.889,1496.00
816.854,1490.25
817.819,1532.50
818.783,1527.50
819.748,1474.50
820.712,1527.00
821.677,1489.75
822.641,1496.75
823.605,1477.75
824.571,1466.25
825.534,1496.25
826.498,1488.25
827.462,1507.25
828.425,1514.00
829.389,1412.25
830.352,1501.50
831.315,1462.25
832.279,1486.25
833.242,1499.50
834.204,1488.00
835.167,1468.50
836.132,1501.00
837.095,1531.75
838.057,1494.00
839.020,1439.75
839.982,1499.75
840.944,1472.75
841.906,1488.75
842.868,1459.75
843.830,1476.25
844.792,1508.75
845.753,1465.00
846.715,1460.50
847.679,1446.50
848.640,1423.75
849.601,1486.75
850.562,1448.25
851.523,1453.50
852.484,1419.25
853.445,1453.00
854.406,1491.00
855.367,1445.00
856.327,1468.25
857.288,1455.00
858.248,1494.00
859.210,1486.25
860.170,1498.50
861.130,1446.75
862.090,1466.75
863.050,1456.75
864.010,1461.00
864.969,1483.00
865.929,1484.00
866.888,1424.25
867.848,1464.25
868.807,1472.75
869.766,1501.25
870.727,1504.75
871.686,1463.75
872.645,1441.00
873.604,1504.00
874.562,1462.50
875.521,1525.00
876.479,1473.75
877.437,1551.50
878.396,1457.50
879.354,1493.25
880.312,1465.75
881.270,1446.50
882.229,1442.25
883.187,1463.50
884.145,1463.00
885.102,1460.00
886.059,1530.25
887.017,1458.25
887.974,1472.00
888.931,1470.25
889.888,1493.25
890.845,1484.75
891.802,1494.00
892.758,1447.00
893.717,1466.00
894.673,1490.75
895.630,1493.25
896.586,1534.50
897.542,1516.75
898.498,1489.75
899.454,1516.00
900.410,1507.00
901.366,1480.25
902.321,1481.50
903.277,1546.25
904.232,1462.00
905.189,1519.00
906.145,1505.00
907.100,1525.50
908.055,1505.00
909.010,1533.50
909.965,1493.25
910.919,1480.75
911.874,1510.50
912.828,1512.50
913.783,1478.00
914.737,1514.25
915.693,1510.50
916.648,1500.00
917.602,1549.25
918.555,1517.75
919.509,1494.25
920.463,1524.25
921.417,1494.50
922.370,1517.50
923.324,1531.75
924.277,1525.00
925.230,1540.75
926.183,1531.25
927.138,1500.25
928.091,1505.25
929.044,1503.25
929.996,1531.75
930.949,1533.25
931.902,1547.75
932.854,1523.25
933.806,1510.50
934.758,1524.50
935.711,1543.25
936.663,1488.00
937.614,1521.50
938.568,1497.50
939.520,1494.50
940.471,1540.50
941.423,1529.25
942.374,1577.75
943.326,1548.75
944.277,1550.50
945.228,1505.75
946.179,1571.25
947.130,1551.75
948.080,1527.75
949.031,1530.50
949.984,1447.00
950.934,1498.00
951.884,1483.75
952.835,1524.75
953.785,1519.75
954.735,1507.50
955.685,1497.50
956.635,1478.00
957.585,1469.00
958.534,1477.00
959.484,1484.25
960.433,1449.50
961.383,1489.50
962.334,1488.75
963.283,1454.50
964.232,1480.00
965.181,1445.50
966.130,1417.25
967.079,1433.75
968.027,1507.50
968.976,1452.50
969.924,1436.50
970.873,1439.25
971.821,1453.25
972.769,1463.00
973.719,1463.25
974.667,1464.75
975.615,1466.75
976.562,1406.00
977.510,1414.50
978.458,1436.25
979.405,1404.00
980.352,1421.50
981.300,1449.75
982.247,1407.50
983.194,1407.75
984.141,1419.25
985.088,1431.50
986.036,1415.00
986.983,1430.25
987.930,1406.00
988.876,1410.00
989.822,1404.50
990.769,1397.75
991.715,1399.00
992.661,1412.50
993.607,1403.75
994.553,1404.25
995.498,1391.75
996.444,1360.75
997.389,1376.50
998.337,1398.00
999.282,1389.00
1000.227,1382.00
1001.173,1358.00
1002.118,1381.25
1003.062,1322.00
1004.007,1394.50
1004.952,1387.00
1005.897,1375.50
1006.841,1327.75
1007.786,1308.75
1008.730,1405.50
1009.674,1370.75
1010.618,1347.50
1011.564,1365.00
1012.508,1338.25
1013.452,1370.50
1014.396,1425.75
1015.339,1338.25
1016.283,1316.50
1017.226,1360.00
1018.170,1314.50
1019.113,1354.75
1020.056,1306.75
1020.999,1343.50
1021.942,1362.75
1022.885,1323.75
1023.828,1340.50
1024.770,1365.75
1025.715,1312.50
1026.657,1381.50
1027.600,1346.25
1028.542,1334.50
1029.484,1302.00
1030.426,1329.50
1031.368,1341.25
1032.310,1329.00
1033.251,1338.75
1034.193,1330.75
1035.135,1337.00
1036.076,1330.50
1037.017,1296.25
1037.959,1301.25
1038.900,1352.75
1039.843,1324.25
1040.784,1322.25
1041.725,1358.75
1042.665,1341.00
1043.606,1334.00
1044.547,1318.25
1045.487,1316.25
1046.427,1354.25
1047.368,1323.25
1048.308,1353.50
1049.248,1329.75
1050.188,1317.75
1051.128,1345.25
1052.067,1360.75
1053.007,1310.25
1053.947,1365.25
1054.886,1330.00
1055.827,1357.75
1056.766,1310.50
1057.706,1309.75
1058.645,1334.25
1059.584,1362.00
1060.522,1298.00
1061.461,1334.00
1062.400,1324.75
1063.338,1329.25
1064.277,1322.25
1065.215,1347.50
1066.154,1348.25
1067.092,1346.75
1068.030,1322.75
1068.968,1377.00
1069.906,1312.00
1070.843,1334.00
1071.781,1353.50
1072.720,1339.25
1073.658,1345.25
1074.595,1379.75
1075.533,1338.50
1076.470,1341.00
1077.407,1317.00
1078.344,1317.00
1079.281,1340.75
1080.217,1351.50
1081.154,1322.75
1082.091,1348.00
1083.027,1360.50
1083.964,1327.75
1084.900,1365.00
1085.836,1353.25
1086.772,1383.00
1087.708,1356.75
1088.644,1321.75
1089.580,1372.75
1090.515,1361.00
1091.451,1341.50
1092.388,1321.75
1093.324,1327.00
1094.259,1293.50
1095.194,1357.25
1096.129,1300.75
1097.064,1333.75
1097.999,1303.50
1098.934,1312.25
1099.869,1324.75
1100.803,1318.00
1101.738,1333.25
1102.672,1325.50
1103.607,1334.00
1104.541,1297.50
1105.475,1300.50
1106.409,1327.00
1107.343,1307.25
1108.277,1239.50
1109.210,1264.75
1110.144,1339.75
1111.078,1291.25
1112.011,1268.50
1112.944,1268.50
1113.878,1275.75
1114.811,1304.00
1115.744,1255.25
1116.678,1242.75
1117.611,1264.50
1118.544,1252.00
1119.477,1227.50
1120.409,1247.25
1121.342,1265.00
1122.274,1260.75
1123.206,1246.50
1124.138,1297.00
1125.070,1245.50
1126.002,1215.50
1126.934,1210.00
1127.866,1267.00
1128.798,1264.50
1129.729,1205.50
1130.661,1233.25
1131.592,1236.50
1132.523,1240.75
1133.454,1189.00
1134.385,1198.25
1135.317,1207.75
1136.247,1205.50
1137.178,1214.00
1138.109,1193.25
1139.039,1210.25
1139.970,1183.75
1140.900,1174.25
1141.831,1229.25
1142.761,1222.25
1143.691,965.00
1144.621,1144.75
1145.551,1215.50
1146.480,1201.00
1147.410,1195.75
1148.340,1169.00
1149.269,1167.50
1150.199,1186.75
1151.128,1153.00
1152.057,1195.00
1152.979,1160.25
1153.898,1156.25
1154.819,1197.00
1155.739,1177.50
1156.658,1182.75
1157.579,1147.75
1158.498,1166.25
1159.419,1141.25
1160.338,1156.25
1161.256,1148.00
1162.177,1166.00
1163.095,1128.00
1164.016,1171.75
1164.934,1127.75
1165.852,1143.25
1166.772,1107.75
1167.690,1112.00
1168.610,1141.75
1169.528,1146.25
1170.446,1131.75
1171.365,1165.75
1172.283,1178.75
1173.202,1128.00
1174.120,1142.75
1175.037,1189.25
1175.956,1133.75
1176.873,1138.50
1177.792,1093.25
1178.709,1113.25
1179.626,1144.25
1180.544,1124.00
1181.461,1153.00
1182.379,1116.00
1183.296,1123.25
1184.212,1108.00
1185.130,1126.50
1186.046,1105.25
1186.962,1145.25
1187.880,1122.75
1188.796,1134.50
1189.714,1135.00
1190.629,1116.75
1191.545,1138.75
1192.462,1122.75
1193.378,1168.50
1194.295,1112.50
1195.210,1135.50
1196.125,1095.50
1197.042,1095.75
1197.957,1092.25
1198.872,1072.75
1199.788,1096.25
1200.703,1123.50
1201.619,1102.00
1202.534,1148.00
1203.448,1105.00
1204.364,1103.00
1205.278,1096.50
1206.192,1150.75
1207.108,1143.50
1208.022,1159.00
1208.938,1099.00
1209.851,1142.75
1210.765,1106.25
1211.680,1095.50
1212.594,1123.25
1213.507,1153.00
1214.422,1123.25
1215.335,1114.00
1216.248,1099.50
1217.163,1076.25
1218.076,1088.50
1218.990,1101.00
1219.903,1104.00
1220.816,1116.25
1221.730,1122.75
1222.642,1146.75
1223.554,1126.25
1224.469,1138.25
1225.380,1100.75
1226.292,1132.75
1227.206,1108.75
1228.118,1135.25
1229.032,1132.50
1229.943,1107.75
1230.855,1109.75
1231.768,1112.50
1232.679,1127.00
1233.590,1118.00
1234.503,1140.00
1235.414,1098.25
1236.325,1101.00
1237.238,1161.25
1238.149,1154.25
1239.059,1107.50
1239.972,1160.50
1240.882,1117.25
1241.793,1070.50
1242.705,1094.50
1243.615,1110.50
1244.525,1136.75
1245.437,1095.25
1246.347,1164.25
1247.259,1140.50
1248.168,1125.50
1249.078,1151.00
1249.989,1125.25
1250.899,1108.25
1251.808,1112.50
1252.719,1113.50
1253.628,1157.50
1254.537,1106.00
1255.448,1115.00
1256.357,1114.50
1257.266,1097.50
1258.176,1182.25
1259.085,1114.50
1259.993,1154.75
1260.904,1108.50
1261.812,1137.50
1262.720,1104.75
1263.630,1118.75
1264.538,1162.00
1265.446,1152.25
1266.356,1128.25
1267.263,1150.75
1268.171,1115.00
1269.080,1097.50
1269.988,1174.75
1270.895,1168.00
1271.804,1117.50
1272.711,1149.50
1273.619,1179.25
1274.527,1147.00
1275.434,1112.00
1276.341,1130.25
1277.248,1086.00
1278.156,1130.00
1279.063,1138.75
1279.969,1138.50
1280.877,1108.25
1281.783,1158.25
1282.690,1123.25
1283.598,1112.75
1284.503,1139.75
1285.409,1100.00
1286.317,1127.50
1287.223,1105.25
1288.128,1129.75
1289.036,1105.25
1289.941,1105.50
1290.846,1116.75
1291.751,1112.25
1292.658,1102.25
1293.563,1102.25
1294.468,1115.75
1295.375,1115.25
1296.280,1116.00
1297.184,1108.75
1298.091,1075.25
1298.995,1063.25
1299.900,1064.75
1300.806,1100.25
1301.710,1096.50
1302.614,1129.25
1303.518,1087.50
1304.424,1117.75
1305.327,1061.00
1306.231,1090.75
1307.137,1089.00
1308.040,1106.00
1308.943,1108.75
1309.847,1030.25
1310.752,1084.25
1311.655,1064.50
1312.558,1055.25
1313.463,1038.00
1314.366,1058.25
1315.269,1073.00
1316.171,1097.25
1317.076,1070.00
1317.978,1064.25
1318.881,1037.75
1319.785,1051.75
1320.687,1008.00
1321.589,1017.50
1322.491,1001.00
1323.395,1035.75
1324.297,1024.00
1325.198,999.25
1326.102,1038.75
1327.004,1007.25
1327.905,1088.25
1328.806,1058.50
1329.709,1017.25
1330.611,1014.75
1331.512,1033.75
1332.413,1014.00
1333.316,1020.50
1334.216,1029.75
1335.117,1039.75
1336.020,1048.50
1336.920,1000.00
1337.821,1023.75
1338.721,981.25
1339.623,1014.00
1340.523,963.50
1341.423,1028.50
1342.323,988.25
1343.225,1013.50
1344.125,975.50
1345.025,971.25
1345.924,966.25
1346.826,974.00
1347.725,1017.50
1348.624,987.00
1349.524,991.25
1350.425,978.25
1351.324,982.50
1352.223,971.50
1353.121,976.50
1354.022,978.25
1354.921,964.00
1355.819,952.00
1356.718,1020.50
1357.618,997.75
1358.516,972.50
1359.415,976.50
1360.313,951.50
1361.213,942.25
1362.111,987.00
1363.008,952.50
1363.906,949.75
1364.806,978.75
1365.703,949.00
1366.601,903.25
1367.498,947.50
1368.397,932.25
1369.295,973.75
1370.192,967.50
1371.089,936.75
1371.987,917.50
1372.884,900.75
1373.781,892.25
1374.678,942.50
1375.574,914.75
1376.473,882.50
1377.369,959.50
1378.265,923.75
1379.161,931.50
1380.059,905.75
1380.955,942.75
1381.851,924.50
1382.747,925.75
1383.643,918.00
1384.540,912.50
1385.436,916.75
1386.331,912.25
1387.227,887.25
1388.124,920.25
1389.019,886.50
1389.914,884.75
1390.809,904.00
1391.704,918.25
1392.601,901.75
1393.495,863.75
1394.390,870.25
1395.285,925.50
1396.179,922.00
1397.075,874.75
1397.969,876.75
1398.864,894.00
1399.758,861.75
1400.652,883.50
1401.547,930.50
1402.441,919.00
1403.335,837.75
1404.229,932.00
1405.122,880.75
1406.017,899.25
1406.911,877.50
1407.804,893.00
1408.697,858.50
1409.590,869.25
1410.485,855.75
1411.378,845.00
1412.271,860.50
1413.163,860.75
1414.056,871.25
1414.949,874.75
1415.843,841.00
1416.735,917.50
1417.627,850.75
1418.520,893.00
1419.412,844.25
1420.306,851.50
1421.197,834.50
1422.089,809.00
1422.981,832.00
1423.873,854.00
1424.764,846.50
1425.657,857.75
1426.549,888.00
1427.440,855.25
1428.331,815.00
1429.222,852.50
1430.113,859.75
1431.006,856.50
1431.897,847.75
1432.787,834.50
1433.678,801.50
1434.568,830.75
1435.459,867.75
1436.351,815.25
1437.241,855.50
1438.131,837.75
1439.021,837.75
1439.911,819.75
1440.801,839.75
1441.693,792.00
1442.583,875.75
1443.472,799.25
1444.362,819.00
1445.251,829.75
1446.140,839.25
1447.030,798.00
1447.921,854.00
1448.810,825.75
1449.699,821.25
1450.588,795.00
1451.476,812.25
1452.365,795.50
1453.254,862.00
1454.144,812.00
1455.032,790.50
1455.921,827.00
1456.809,866.75
1457.697,831.25
1458.585,804.25
1459.473,768.25
1460.361,813.50
1461.251,855.50
1462.138,789.00
1463.026,788.25
1463.913,801.50
1464.801,786.75
1465.688,847.50
1466.575,776.50
1467.463,804.00
1468.351,806.75
1469.238,831.00
1470.125,790.50
1471.012,787.50
1471.899,784.25
1472.785,770.00
1473.672,773.75
1474.558,813.75
1475.446,805.00
1476.333,754.75
1477.219,809.25
1478.105,798.00
1478.991,784.00
1479.877,786.50
1480.762,779.75
1481.648,771.75
1482.534,767.00
1483.419,809.25
1484.307,768.25
1485.192,786.75
1486.077,771.25
1486.962,814.50
1487.847,748.75
1488.732,794.25
1489.617,828.00
1490.502,773.00
1491.387,740.75
1492.271,731.50
1493.156,798.00
1494.042,762.50
1494.927,752.50
1495.811,815.25
1496.695,807.75
1497.579,749.50
1498.463,760.00
1499.347,799.00
1500.231,751.00
1501.114,745.00
1501.998,806.50
1502.881,758.25
1503.765,721.75
1504.648,768.50
1505.533,753.50
1506.417,753.00
1507.300,741.75
1508.183,759.25
1509.066,750.50
1509.948,775.50
1510.831,777.50
1511.714,780.00
1512.596,772.00
1513.479,752.75
1514.361,761.50
1515.243,748.50
1516.125,729.75
1517.008,734.00
1517.890,781.25
1518.771,718.50
1519.655,755.50
1520.537,755.75
1521.419,767.50
1522.300,747.00
1523.182,716.75
1524.063,737.00
1524.944,734.25
1525.825,749.50
1526.707,716.50
1527.588,745.75
1528.468,734.50
1529.349,710.75
1530.230,719.50
1531.111,719.50
1531.991,716.25
1532.872,700.00
1533.752,755.00
1534.632,704.25
1535.513,717.25
1536.393,694.00
1537.273,723.75
1538.153,677.50
1539.032,720.00
1539.912,710.00
1540.792,700.00
1541.672,766.00
1542.551,712.25
1543.430,682.50
1544.310,682.00
1545.189,687.50
1546.068,741.50
1546.947,727.75
1547.826,764.50
1548.705,728.00
1549.584,727.50
1550.462,725.50
1551.341,735.75
1552.219,718.50
1553.098,703.00
1553.976,722.50
1554.854,721.50
1555.733,704.00
1556.611,726.25
1557.489,726.75
1558.367,724.50
1559.244,730.50
1560.122,681.75
1561.000,714.00
1561.877,716.50
1562.755,665.25
1563.632,747.00
1564.509,696.25
1565.386,710.75
1566.264,735.00
1567.141,716.75
1568.017,745.25
1568.894,694.25
1569.771,711.75
1570.648,732.25
1571.524,728.25
1572.401,701.25
1573.277,691.00
1574.153,753.25
1575.029,739.75
1575.906,692.50
1576.781,711.75
1577.657,707.75
1578.533,684.25
1579.409,661.00
1580.285,702.75
1581.160,709.75
1582.036,696.25
1582.911,687.25
1583.786,710.75
1584.662,679.00
1585.537,666.25
1586.412,717.50
1587.287,664.25
1588.160,681.75
1589.035,642.25
1589.909,706.00
1590.784,685.00
1591.658,672.00
1592.533,710.25
1593.407,687.75
1594.281,724.25
1595.155,668.75
1596.029,664.50
1596.903,681.00
1597.777,687.75
1598.651,716.25
1599.525,694.25
1600.398,632.50
1601.272,681.25
1602.144,673.00
1603.017,660.75
1603.890,693.00
1604.763,702.25
1605.636,738.00
1606.509,689.50
1607.382,670.00
1608.255,665.50
1609.128,646.25
1610.000,692.75
1610.873,713.75
1611.746,683.25
1612.616,654.25
1613.488,679.75
1614.361,657.50
1615.233,661.50
1616.105,683.00
1616.977,657.75
1617.849,707.00
1618.720,672.00
1619.592,702.00
1620.464,681.25
1621.333,677.25
1622.205,664.50
1623.076,663.00
1623.947,677.75
1624.818,610.75
1625.689,653.00
1626.560,647.50
1627.431,668.75
1628.302,654.00
1629.171,693.00
1630.042,681.25
1630.912,709.25
1631.782,657.75
1632.653,644.00
1633.523,732.50
1634.393,666.00
1635.263,674.25
1636.131,650.00
1637.001,675.50
1637.871,686.75
1638.741,699.25
1639.611,681.50
1640.480,677.75
1641.350,608.25
1642.219,667.25
1643.087,645.00
1643.956,658.75
1644.825,669.25
1645.694,653.75
1646.563,634.00
1647.432,659.25
1648.299,666.75
1649.167,636.25
1650.036,616.25
1650.904,652.75
1651.773,684.00
1652.641,629.00
1653.509,666.00
1654.376,660.00
1655.244,635.00
1656.112,653.00
1656.980,661.75
1657.847,663.50
1658.715,688.50
1659.581,676.00
1660.448,677.75
1661.316,655.00
1662.183,665.75
1663.051,694.50
1663.918,627.75
1664.783,650.25
1665.650,682.75
1666.517,656.00
1667.384,646.50
1668.251,655.25
1669.115,638.25
1669.982,656.25
1670.849,601.00
1671.715,634.00
1672.581,616.00
1673.446,662.00
1674.312,644.00
1675.178,649.50
1676.044,657.00
1676.910,643.50
1677.774,633.50
1678.639,621.25
1679.505,663.50
1680.370,648.50
1681.236,619.25
1682.099,649.75
1682.965,651.00
1683.830,635.00
1684.695,633.75
1685.560,621.75
1686.423,667.75
1687.288,663.00
1688.153,647.75
1689.017,640.25
1689.880,652.25
1690.745,631.50
1691.609,607.00
1692.473,625.25
1693.338,625.50
1694.200,634.00
1695.064,641.25
1695.928,649.50
1696.792,627.00
1697.654,640.75
1698.517,647.50
1699.381,636.00
1700.245,642.00
1701.106,594.00
1701.969,604.50
1702.833,648.75
1703.696,632.25
1704.557,616.50
1705.420,643.25
1706.283,683.50
1707.146,661.25
1708.007,635.00
1708.870,634.50
1709.732,673.00
1710.595,627.25
1711.455,656.25
1712.318,674.50
1713.180,661.25
1714.040,640.50
1714.902,644.00
1715.764,655.25
1716.626,577.25
1717.486,617.00
1718.348,643.25
1719.209,632.50
1720.071,618.50
1720.930,631.25
1721.792,623.50
1722.653,659.50
1723.512,653.75
1724.374,626.75
1725.234,628.75
1726.095,645.25
1726.954,632.50
1727.815,612.25
1728.676,624.50
1729.535,641.50
1730.395,636.75
1731.256,602.50
1732.114,606.25
1732.974,638.50
1733.834,641.00
1734.693,633.50
1735.553,630.50
1736.413,603.00
1737.272,612.25
1738.130,627.75
1738.990,641.50
1739.849,623.50
1740.707,593.75
1741.566,575.00
1742.426,640.75
1743.283,614.25
1744.142,619.50
1745.001,600.00
1745.858,643.50
1746.717,620.25
1747.576,642.75
1748.433,594.50
1749.292,620.00
1750.150,628.75
1751.007,623.00
1751.865,622.75
1752.723,615.75
1753.579,579.25
1754.438,615.25
1755.296,648.25
1756.152,620.25
1757.010,616.25
1757.865,609.75
1758.723,634.00
1759.581,607.00
1760.436,596.25
1761.294,620.50
1762.151,659.25
1763.006,592.75
1763.864,630.75
1764.721,596.50
1765.576,594.75
1766.433,634.75
1767.288,578.00
1768.144,646.00
1769.001,646.50
1769.856,639.00
1770.712,627.00
1771.568,605.75
1772.423,613.50
1773.279,627.75
1774.133,623.00
1774.989,635.25
1775.845,618.50
1776.699,623.25
1777.555,620.00
1778.409,677.75
1779.265,573.00
1780.120,599.50
1780.974,615.25
1781.829,610.25
1782.682,626.00
1783.538,648.00
1784.393,634.50
1785.246,583.25
1786.101,617.50
1786.954,613.75
1787.808,632.50
1788.661,599.50
1789.516,599.25
1790.370,609.00
1791.223,598.00
1792.077,637.75
1792.930,576.25
1793.784,603.00
1794.636,596.50
1795.490,600.25
1796.344,605.25
1797.196,641.00
1798.049,655.00
1798.901,622.75
1799.755,629.25
1800.606,611.00
1801.460,634.75
1802.311,618.50
1803.165,624.25
1804.018,629.75
1804.869,606.50
1805.722,613.25
1806.573,661.50
1807.426,600.00
1808.276,649.50
1809.129,590.50
1809.980,584.00
1810.832,577.75
1811.683,595.50
1812.535,615.50
1813.385,615.50
1814.237,580.75
1815.089,633.00
1815.940,637.50
1816.791,648.50
1817.641,573.25
1818.493,592.00
1819.343,645.50
1820.194,615.50
1821.044,612.25
1821.895,593.00
1822.745,606.75
1823.596,587.25
1824.445,617.25
1825.296,633.00
1826.145,600.25
1826.996,651.00
1827.845,599.00
1828.695,597.25
1829.544,619.50
1830.395,594.50
1831.243,589.75
1832.094,583.75
1832.942,596.00
1833.792,620.25
1834.640,617.25
1835.490,618.25
1836.338,598.25
1837.186,612.25
1838.036,596.75
1838.884,556.50
1839.733,605.75
1840.581,580.25
1841.430,603.00
1842.278,597.00
1843.127,602.75
1843.974,638.75
1844.823,607.25
1845.671,598.50
1846.519,650.25
1847.366,592.00
1848.213,592.00
1849.062,619.75
1849.909,604.75
1850.757,596.00
1851.604,605.75
1852.452,573.50
1853.298,604.75
1854.146,622.75
1854.993,603.75
1855.839,609.50
1856.687,593.50
1857.532,599.50
1858.380,597.75
1859.226,582.75
1860.073,590.00
1860.919,545.50
1861.765,594.50
1862.612,602.00
1863.457,606.00
1864.304,598.25
1865.150,618.25
1865.995,634.75
1866.842,585.25
1867.686,631.50
1868.533,586.75
1869.378,574.25
1870.223,610.75
1871.069,585.00
1871.914,612.25
1872.760,610.00
1873.604,566.50
1874.448,553.00
1875.294,603.75
1876.139,552.75
1876.984,561.50
1877.828,595.75
1878.672,629.25
1879.518,581.25
1880.361,576.00
1881.205,552.75
1882.050,585.25
1882.894,594.00
1883.739,553.75
1884.582,570.75
1885.425,567.75
1886.270,588.00
1887.113,563.00
1887.956,587.50
1888.801,557.00
1889.644,542.75
1890.486,567.75
1891.331,594.25
1892.173,578.75
1893.017,587.50
1893.860,601.75
1894.702,606.75
1895.546,629.50
1896.388,610.00
1897.230,581.50
1898.074,551.00
1898.916,581.25
1899.757,600.25
1900.601,580.75
1901.443,605.75
1902.284,601.50
1903.125,608.50
1903.969,590.25
1904.810,576.75
1905.651,583.25
1906.494,566.00
1907.335,587.25
1908.176,610.25
1909.018,608.50
1909.859,590.75
1910.700,553.50
1911.542,544.75
1912.383,560.00
1913.223,601.75
1914.064,590.25
1914.906,561.75
1915.746,622.00
1916.586,564.25
1917.428,533.75
1918.268,589.50
1919.107,583.25
1919.947,592.50
1920.789,574.25
1921.628,597.00
1922.468,586.25
1923.309,584.75
1924.148,568.50
1924.988,558.00
1925.827,606.50
1926.667,547.75
1927.507,574.00
1928.345,616.75
1929.184,581.50
1930.025,581.50
1930.864,581.00
1931.702,584.50
1932.541,623.25
1933.381,532.50
1934.219,573.25
1935.057,552.50
1935.896,564.75
1936.735,552.75
1937.573,581.25
1938.411,548.00
1939.249,598.75
1940.089,604.00
1940.927,572.50
1941.764,584.00
1942.602,569.00
1943.439,542.75
1944.278,605.75
1945.115,558.50
1945.953,570.75
1946.790,561.75
1947.628,579.75
1948.465,565.25
1949.302,562.50
1950.139,566.25
1950.976,537.75
1951.814,583.50
1952.651,576.25
1953.487,595.00
1954.323,584.00
1955.160,576.00
1955.998,591.50
1956.834,607.75
1957.670,577.75
1958.506,589.75
1959.342,569.25
1960.177,596.50
1961.015,577.25
1961.850,599.75
1962.686,560.00
1963.521,573.75
1964.357,572.50
1965.192,535.25
1966.029,563.75
1966.864,549.75
1967.699,619.00
1968.534,542.00
1969.369,538.50
1970.204,562.50
1971.040,596.25
1971.875,572.25
1972.709,512.00
1973.544,572.50
1974.378,567.75
1975.212,567.00
1976.047,559.00
1976.882,541.25
1977.716,555.25
1978.550,549.75
1979.384,550.00
1980.218,605.50
1981.052,583.25
1981.885,562.75
1982.719,599.75
1983.554,583.25
1984.388,565.00
1985.221,546.75
1986.054,604.00
1986.887,553.75
1987.720,582.00
1988.553,551.50
1989.386,521.75
1990.219,555.50
1991.053,566.00
1991.886,598.50
1992.719,579.75
1993.551,554.00
1994.383,564.50
1995.216,568.50
1996.048,554.50
1996.880,563.00
1997.712,585.75
1998.544,600.75
1999.376,539.25
2000.208,575.25
2001.040,560.25
2001.873,568.00
2002.705,578.50
2003.536,552.00
2004.367,581.25
2005.199,609.50
2006.030,576.75
2006.861,572.75
2007.692,537.25
2008.523,569.25
2009.354,558.75
2010.185,610.50
2011.016,540.25
2011.846,544.25
2012.677,535.00
2013.507,562.00
2014.338,556.25
2015.168,562.00
2015.999,522.00
2016.829,597.75
2017.659,566.00
2018.489,582.25
2019.319,526.50
2020.149,598.25
2020.980,572.00
2021.810,584.75
2022.639,572.25
2023.469,557.50
2024.298,559.75
2025.128,589.00
2025.957,547.00
2026.786,598.50
2027.615,583.75
2028.444,577.75
2029.273,560.25
2030.102,572.50
2030.931,563.25
2031.758,573.00
2032.586,554.25
2033.415,585.75
2034.243,580.50
2035.072,577.50
2035.900,564.25
2036.728,561.50
2037.556,573.75
2038.385,610.25
2039.213,619.75
2040.040,593.75
2040.868,601.50
2041.696,634.75
2042.524,613.00
2043.351,583.75
2044.179,572.25
2045.006,567.75
2045.006,567.75

Max Intensity Wave.,219.929
Max Intensity Data,5361.75
Min Intensity Wave.,1972.709
Min Intensity Data,512.00
FWHM Wave.,400.991
FWHM Value,1.43
Pressure Wave.,684.671
Pressure Value [GPa],-24.91530
G/D Ratio,0.67838
G/D Gband Wave.,1541.716
G/D Gband Intensity,766.16
G/D Dband Wave.,1302.559
G/D Dband Intensity,1129.39

<< BACKGROUND SPECTRUM >>
Wave[dcm-1],No113
146.591,2350.00
147.626,2177.00
148.664,2145.00
149.699,2621.00
150.737,2321.00
151.772,2508.00
152.809,2527.00
153.846,2402.00
154.881,2518.00
155.918,2051.00
156.953,2356.00
157.989,2707.00
159.026,2585.00
160.060,2761.00
161.096,2974.00
162.130,2585.00
163.167,2671.00
164.200,2562.00
165.236,2750.00
166.272,2808.00
167.305,2378.00
168.341,2639.00
169.374,2885.00
170.409,2889.00
171.445,2868.00
172.477,2604.00
173.512,2475.00
174.545,2798.00
175.580,2958.00
176.614,3177.00
177.647,2941.00
178.681,3158.00
179.713,3524.00
180.747,2964.00
181.781,2830.00
182.813,3095.00
183.847,3240.00
184.878,2832.00
185.912,3085.00
186.945,3301.00
187.976,3230.00
189.010,2825.00
190.043,2976.00
191.073,3059.00
192.106,2874.00
193.137,3341.00
194.170,2671.00
195.202,3064.00
196.232,2819.00
197.265,3104.00
198.297,3203.00
199.327,2903.00
200.359,3045.00
201.388,3490.00
202.420,3033.00
203.452,3243.00
204.481,2763.00
205.512,3494.00
206.544,3232.00
207.573,3198.00
208.604,3522.00
209.635,3707.00
210.663,3065.00
211.694,3092.00
212.725,2977.00
213.753,2928.00
214.783,3478.00
215.813,3354.00
216.841,3152.00
217.871,3291.00
218.899,3048.00
219.929,3244.00
220.959,3016.00
221.986,3296.00
223.016,2891.00
224.045,3276.00
225.072,3284.00
226.101,3369.00
227.130,3389.00
228.157,2950.00
229.185,2433.00
230.214,3341.00
231.241,2967.00
232.269,2550.00
233.297,2788.00
234.323,3394.00
235.351,2930.00
236.379,3234.00
237.407,2889.00
238.433,3088.00
239.460,3233.00
240.488,3212.00
241.513,3337.00
242.540,3274.00
243.568,3360.00
244.592,3374.00
245.619,3385.00
246.646,3059.00
247.671,3077.00
248.697,2901.00
249.724,3144.00
250.748,3166.00
251.774,3159.00
252.801,3426.00
253.827,3251.00
254.850,3213.00
255.876,2784.00
256.902,3267.00
257.925,3148.00
258.951,2855.00
259.976,2886.00
260.999,3261.00
262.024,2902.00
263.049,3828.00
264.074,3258.00
265.097,3140.00
266.122,3211.00
267.146,3164.00
268.168,3381.00
269.193,2924.00
270.217,3365.00
271.241,2807.00
272.263,2968.00
273.287,3311.00
274.311,2913.00
275.332,3431.00
276.356,2990.00
277.379,3305.00
278.402,3282.00
279.424,3050.00
280.447,2995.00
281.470,2841.00
282.492,3230.00
283.513,3060.00
284.536,3289.00
285.558,3299.00
286.581,3246.00
287.601,2976.00
288.623,2928.00
289.645,3191.00
290.665,3287.00
291.687,3268.00
292.709,3216.00
293.730,3501.00
294.750,3035.00
295.771,2890.00
296.792,3197.00
297.813,3056.00
298.832,3202.00
299.853,2867.00
300.874,3128.00
301.895,3071.00
302.913,3121.00
303.934,3421.00
304.954,3134.00
305.975,3349.00
306.993,2899.00
308.013,3327.00
309.033,3174.00
310.052,3089.00
311.072,3031.00
312.090,3211.00
313.109,3410.00
314.129,3576.00
315.148,3103.00
316.165,3178.00
317.184,3375.00
318.203,2860.00
319.222,2860.00
320.238,3287.00
321.257,2957.00
322.275,2826.00
323.294,3104.00
324.312,3284.00
325.328,3386.00
326.346,3435.00
327.364,3408.00
328.382,3296.00
329.397,3285.00
330.415,3397.00
331.432,3402.00
332.450,3465.00
333.467,3657.00
334.482,2711.00
335.499,3535.00
336.516,3001.00
337.533,2691.00
338.547,2974.00
339.564,2962.00
340.580,3227.00
341.597,3127.00
342.613,3626.00
343.627,3112.00
344.643,3160.00
345.659,3226.00
346.675,3122.00
347.690,3029.00
348.704,3261.00
349.719,2973.00
350.735,2860.00
351.750,3329.00
352.765,3130.00
353.778,3115.00
354.793,3295.00
355.808,2964.00
356.822,3298.00
357.837,2777.00
358.851,3370.00
359.864,3114.00
360.878,2849.00
361.892,3096.00
362.906,3294.00
363.920,2712.00
364.932,3205.00
365.945,3206.00
366.959,3148.00
367.972,3076.00
368.986,2813.00
369.999,3519.00
371.010,2985.00
372.023,3500.00
373.036,3109.00
374.049,3539.00
375.061,3230.00
376.072,3110.00
377.084,2993.00
378.097,2795.00
379.109,3290.00
380.121,3137.00
381.133,2768.00
382.143,3295.00
383.155,2855.00
384.166,3025.00
385.178,3262.00
386.189,3369.00
387.201,2870.00
388.212,3027.00
389.221,3014.00
390.232,3128.00
391.243,3078.00
392.254,3169.00
393.264,2967.00
394.275,3348.00
395.283,3309.00
396.294,3761.00
397.304,3647.00
398.314,3251.00
399.324,3217.00
400.334,2746.00
401.344,3242.00
402.351,2759.00
403.361,3354.00
404.370,3087.00
405.380,3041.00
406.389,3501.00
407.398,3283.00
408.407,3217.00
409.414,3283.00
410.423,3502.00
411.431,2895.00
412.440,2794.00
413.448,3462.00
414.457,3002.00
415.465,2925.00
416.471,2967.00
417.479,3164.00
418.487,2929.00
419.495,3412.00
420.503,3226.00
421.510,2715.00
422.518,3272.00
423.525,3326.00
424.530,3609.00
425.537,3057.00
426.544,3379.00
427.551,2993.00
428.558,3740.00
429.565,3603.00
430.571,3015.00
431.578,3058.00
432.582,3047.00
433.588,3069.00
434.595,2738.00
435.601,3474.00
436.607,3417.00
437.612,2859.00
438.618,3467.00
439.624,3024.00
440.627,3069.00
441.633,3259.00
442.638,3759.00
443.643,3223.00
444.648,3208.00
445.653,3354.00
446.658,3027.00
447.663,3135.00
448.667,2983.00
449.672,3045.00
450.674,3085.00
451.678,2843.00
452.682,2991.00
453.687,2982.00
454.690,3739.00
455.694,3471.00
456.698,2695.00
457.702,2791.00
458.705,2937.00
459.709,2926.00
460.710,3022.00
461.713,3171.00
462.716,3186.00
463.719,3118.00
464.722,3340.00
465.725,3064.00
466.727,2946.00
467.730,3152.00
468.732,2904.00
469.735,3429.00
470.737,3061.00
471.737,3016.00
472.739,3001.00
473.741,2937.00
474.742,3206.00
475.744,3271.00
476.746,3169.00
477.747,3066.00
478.748,3306.00
479.750,3045.00
480.751,3138.00
481.752,3922.00
482.753,3237.00
483.751,3692.00
484.752,2739.00
485.753,3080.00
486.753,2996.00
487.753,3106.00
488.754,3569.00
489.754,2811.00
490.754,3453.00
491.754,3204.00
492.754,2796.00
493.753,3110.00
494.753,2990.00
495.752,3466.00
496.752,3157.00
497.749,3088.00
498.748,2984.00
499.747,3540.00
500.746,3208.00
501.745,2866.00
502.744,2841.00
503.742,3473.00
504.741,3064.00
505.739,2580.00
506.737,3036.00
507.735,3294.00
508.734,3503.00
509.732,3284.00
510.729,3501.00
511.727,3032.00
512.725,3021.00
513.720,2875.00
514.718,3424.00
515.715,2775.00
516.712,2684.00
517.709,3107.00
518.706,3022.00
519.703,3141.00
520.700,3298.00
521.696,3460.00
522.693,3014.00
523.689,2929.00
524.686,3307.00
525.682,2929.00
526.678,3624.00
527.674,3021.00
528.670,2703.00
529.666,3667.00
530.661,3638.00
531.657,3308.00
532.652,3310.00
533.648,3154.00
534.641,3359.00
535.636,3200.00
536.631,3213.00
537.626,3289.00
538.621,2876.00
539.616,2706.00
540.610,2585.00
541.605,3155.00
542.599,3194.00
543.593,3128.00
544.587,4081.00
545.581,2947.00
546.575,3115.00
547.569,3148.00
548.563,2821.00
549.557,2735.00
550.550,2886.00
551.543,2846.00
552.537,3273.00
553.530,2906.00
554.523,2862.00
555.516,3240.00
556.509,3085.00
557.502,2731.00
558.494,3309.00
559.487,2993.00
560.479,3340.00
561.472,3379.00
562.464,3251.00
563.456,3451.00
564.448,3050.00
565.440,3097.00
566.432,3531.00
567.423,2995.00
568.415,3018.00
569.404,3233.00
570.396,2935.00
571.387,3214.00
572.378,3134.00
573.369,4149.00
574.360,3834.00
575.351,3095.00
576.341,2968.00
577.332,3036.00
578.323,2810.00
579.313,2973.00
580.303,3415.00
581.293,3264.00
582.283,3117.00
583.273,3221.00
584.263,3138.00
585.253,3234.00
586.243,3321.00
587.232,2762.00
588.222,3098.00
589.211,3332.00
590.200,3144.00
591.189,3034.00
592.178,3116.00
593.167,3561.00
594.156,3428.00
595.145,3024.00
596.133,3604.00
597.122,3241.00
598.110,3314.00
599.098,3205.00
600.086,3105.00
601.074,3273.00
602.062,2930.00
603.050,2888.00
604.038,3243.00
605.025,2918.00
606.013,3327.00
607.000,3513.00
607.987,3164.00
608.975,3198.00
609.962,2860.00
610.949,3254.00
611.936,3431.00
612.922,3265.00
613.909,2805.00
614.895,3532.00
615.882,2980.00
616.868,3102.00
617.854,2874.00
618.841,3163.00
619.826,3261.00
620.812,3105.00
621.798,2877.00
622.784,3284.00
623.769,3223.00
624.755,2843.00
625.740,3182.00
626.725,2802.00
627.711,2944.00
628.698,3182.00
629.683,2927.00
630.667,3264.00
631.652,2892.00
632.637,3092.00
633.621,3245.00
634.606,3007.00
635.590,3261.00
636.574,3057.00
637.558,3225.00
638.542,3179.00
639.526,2986.00
640.510,2734.00
641.493,3150.00
642.477,3099.00
643.460,2770.00
644.444,3388.00
645.427,3413.00
646.410,2812.00
647.393,3051.00
648.376,3181.00
649.359,3044.00
650.341,3250.00
651.324,3264.00
652.307,3191.00
653.289,3059.00
654.271,2976.00
655.253,3032.00
656.235,3288.00
657.217,3371.00
658.199,2750.00
659.181,2856.00
660.163,3129.00
661.144,2992.00
662.126,3022.00
663.107,2897.00
664.088,4813.00
665.069,3383.00
666.050,2944.00
667.033,2833.00
668.014,3194.00
668.995,2647.00
669.975,3095.00
670.956,3109.00
671.936,3271.00
672.916,3101.00
673.896,3238.00
674.876,3030.00
675.856,2994.00
676.836,2866.00
677.816,2386.00
678.795,2917.00
679.775,2805.00
680.754,3141.00
681.734,3289.00
682.713,3316.00
683.692,2890.00
684.671,2735.00
685.650,2875.00
686.629,2951.00
687.607,2889.00
688.586,2877.00
689.564,2963.00
690.543,3386.00
691.523,2459.00
692.501,2978.00
693.479,3038.00
694.457,2911.00
695.435,2996.00
696.413,2734.00
697.390,2581.00
698.368,2789.00
699.345,3227.00
700.322,3064.00
701.300,3200.00
702.277,3150.00
703.254,3398.00
704.231,2690.00
705.207,3064.00
706.184,2864.00
707.161,2749.00
708.137,2965.00
709.113,2908.00
710.090,2921.00
711.068,2669.00
712.044,2718.00
713.020,2987.00
713.996,2693.00
714.971,2891.00
715.947,2971.00
716.922,2924.00
717.898,2838.00
718.873,3015.00
719.848,2791.00
720.823,2807.00
721.798,3073.00
722.773,2837.00
723.748,2615.00
724.723,3126.00
725.697,2930.00
726.672,2870.00
727.646,2635.00
728.622,3107.00
729.596,2745.00
730.570,2840.00
731.544,3185.00
732.518,3355.00
733.492,2903.00
734.466,2979.00
735.439,3137.00
736.413,3218.00
737.386,2539.00
738.359,2499.00
739.332,2642.00
740.305,2939.00
741.278,3444.00
742.251,3019.00
743.224,2815.00
744.196,2632.00
745.171,3251.00
746.143,3133.00
747.115,2890.00
748.087,2803.00
749.059,3232.00
750.031,3007.00
751.003,3810.00
751.975,3416.00
752.947,2775.00
753.918,3212.00
754.890,2667.00
755.861,2849.00
756.832,3180.00
757.803,2955.00
758.774,2921.00
759.747,2710.00
760.718,3322.00
761.689,2813.00
762.659,2682.00
763.630,3263.00
764.600,2669.00
765.570,3189.00
766.540,3283.00
767.510,3033.00
768.480,3122.00
769.450,2791.00
770.420,2959.00
771.390,2775.00
772.359,2859.00
773.329,2748.00
774.300,2587.00
775.269,2862.00
776.238,3139.00
777.207,3287.00
778.176,2553.00
779.145,2907.00
780.114,2781.00
781.083,2682.00
782.051,2871.00
783.019,2779.00
783.988,3183.00
784.956,2926.00
785.924,3085.00
786.894,2962.00
787.862,2806.00
788.830,3279.00
789.797,2684.00
790.765,2702.00
791.732,2897.00
792.700,2737.00
793.667,2686.00
794.634,2893.00
795.601,2853.00
796.568,2878.00
797.535,2938.00
798.502,3565.00
799.468,3007.00
800.437,2502.00
801.403,2757.00
802.370,3405.00
803.336,3086.00
804.302,3003.00
805.268,2596.00
806.234,2650.00
807.200,2855.00
808.166,2888.00
809.131,2635.00
810.097,3121.00
811.062,3777.00
812.027,3126.00
812.994,2709.00
813.960,2694.00
814.925,3023.00
815.889,2623.00
816.854,3180.00
817.819,2742.00
818.783,2813.00
819.748,3214.00
820.712,2831.00
821.677,2716.00
822.641,2804.00
823.605,2839.00
824.571,3269.00
825.534,2842.00
826.498,2781.00
827.462,2908.00
828.425,2714.00
829.389,3226.00
830.352,2905.00
831.315,3038.00
832.279,2593.00
833.242,2869.00
834.204,2768.00
835.167,2767.00
836.132,3144.00
837.095,2590.00
838.057,2758.00
839.020,2968.00
839.982,2934.00
840.944,2761.00
841.906,2713.00
842.868,3096.00
843.830,2624.00
844.792,3129.00
845.753,2783.00
846.715,2539.00
847.679,2697.00
848.640,2749.00
849.601,2842.00
850.562,3375.00
851.523,2810.00
852.484,2603.00
853.445,3114.00
854.406,2784.00
855.367,2842.00
856.327,3152.00
857.288,2574.00
858.248,2761.00
859.210,2772.00
860.170,2597.00
861.130,3148.00
862.090,2513.00
863.050,2678.00
864.010,2793.00
864.969,2987.00
865.929,2684.00
866.888,2638.00
867.848,2908.00
868.807,2742.00
869.766,2930.00
870.727,2784.00
871.686,3096.00
872.645,3112.00
873.604,3389.00
874.562,2860.00
875.521,2893.00
876.479,3473.00
877.437,2637.00
878.396,2674.00
879.354,3276.00
880.312,2710.00
881.270,2783.00
882.229,3246.00
883.187,2709.00
884.145,2773.00
885.102,3041.00
886.059,2895.00
887.017,3012.00
887.974,3055.00
888.931,3187.00
889.888,2595.00
890.845,2526.00
891.802,2424.00
892.758,2766.00
893.717,2539.00
894.673,2631.00
895.630,2701.00
896.586,2952.00
897.542,2769.00
898.498,2630.00
899.454,2910.00
900.410,2767.00
901.366,2776.00
902.321,3919.00
903.277,2748.00
904.232,2873.00
905.189,2551.00
906.145,2737.00
907.100,2271.00
908.055,2809.00
909.010,3003.00
909.965,2411.00
910.919,2910.00
911.874,2659.00
912.828,2883.00
913.783,2906.00
914.737,2430.00
915.693,2860.00
916.648,2995.00
917.602,3034.00
918.555,2864.00
919.509,2949.00
920.463,2853.00
921.417,2898.00
922.370,2660.00
923.324,2764.00
924.277,2762.00
925.230,2843.00
926.183,2488.00
927.138,2801.00
928.091,3057.00
929.044,2924.00
929.996,2719.00
930.949,2733.00
931.902,2930.00
932.854,2947.00
933.806,2709.00
934.758,3071.00
935.711,3103.00
936.663,2909.00
937.614,2890.00
938.568,2846.00
939.520,2482.00
940.471,2770.00
941.423,2887.00
942.374,2949.00
943.326,2840.00
944.277,2669.00
945.228,2912.00
946.179,2751.00
947.130,3118.00
948.080,2729.00
949.031,2639.00
949.984,2809.00
950.934,2803.00
951.884,2565.00
952.835,2782.00
953.785,2831.00
954.735,2715.00
955.685,2459.00
956.635,2727.00
957.585,2733.00
958.534,2727.00
959.484,2847.00
960.433,2731.00
961.383,2538.00
962.334,3030.00
963.283,2906.00
964.232,2931.00
965.181,2838.00
966.130,2916.00
967.079,2740.00
968.027,2780.00
968.976,2823.00
969.924,2740.00
970.873,2901.00
971.821,2829.00
972.769,2992.00
973.719,2943.00
974.667,2545.00
975.615,2794.00
976.562,2862.00
977.510,2525.00
978.458,2702.00
979.405,2938.00
980.352,2881.00
981.300,3064.00
982.247,2902.00
983.194,2629.00
984.141,2744.00
985.088,2811.00
986.036,2860.00
986.983,3117.00
987.930,3235.00
988.876,2457.00
989.822,3058.00
990.769,2652.00
991.715,2698.00
992.661,2498.00
993.607,2879.00
994.553,3400.00
995.498,2676.00
996.444,2384.00
997.389,2880.00
998.337,2614.00
999.282,2953.00
1000.227,2749.00
1001.173,2796.00
1002.118,2524.00
1003.062,3048.00
1004.007,2746.00
1004.952,3079.00
1005.897,3045.00
1006.841,2828.00
1007.786,2572.00
1008.730,2489.00
1009.674,3263.00
1010.618,2738.00
1011.564,2581.00
1012.508,2501.00
1013.452,3003.00
1014.396,2754.00
1015.339,2724.00
1016.283,2818.00
1017.226,2830.00
1018.170,2811.00
1019.113,3001.00
1020.056,2857.00
1020.999,2816.00
1021.942,2668.00
1022.885,2951.00
1023.828,3094.00
1024.770,2563.00
1025.715,2872.00
1026.657,2757.00
1027.600,2838.00
1028.542,3036.00
1029.484,2871.00
1030.426,2925.00
1031.368,2891.00
1032.310,2657.00
1033.251,2629.00
1034.193,2802.00
1035.135,2563.00
1036.076,2699.00
1037.017,2622.00
1037.959,2958.00
1038.900,2856.00
1039.843,2883.00
1040.784,2847.00
1041.725,2876.00
1042.665,2725.00
1043.606,2861.00
1044.547,2823.00
1045.487,2434.00
1046.427,2737.00
1047.368,2858.00
1048.308,2290.00
1049.248,2602.00
1050.188,2780.00
1051.128,2663.00
1052.067,2745.00
1053.007,2524.00
1053.947,2453.00
1054.886,2653.00
1055.827,2558.00
1056.766,3079.00
1057.706,2544.00
1058.645,2766.00
1059.584,2811.00
1060.522,3105.00
1061.461,2519.00
1062.400,2580.00
1063.338,2725.00
1064.277,2611.00
1065.215,2623.00
1066.154,2463.00
1067.092,2669.00
1068.030,2735.00
1068.968,2938.00
1069.906,3135.00
1070.843,3074.00
1071.781,2835.00
1072.720,2894.00
1073.658,2921.00
1074.595,2647.00
1075.533,2656.00
1076.470,2678.00
1077.407,3105.00
1078.344,2882.00
1079.281,2903.00
1080.217,2369.00
1081.154,2761.00
1082.091,2814.00
1083.027,2513.00
1083.964,3019.00
1084.900,2610.00
1085.836,2670.00
1086.772,2953.00
1087.708,2510.00
1088.644,2906.00
1089.580,2749.00
1090.515,2796.00
1091.451,2686.00
1092.388,2808.00
1093.324,2512.00
1094.259,3371.00
1095.194,2808.00
1096.129,2713.00
1097.064,2637.00
1097.999,2924.00
1098.934,2622.00
1099.869,2632.00
1100.803,2794.00
1101.738,2795.00
1102.672,2456.00
1103.607,2892.00
1104.541,2633.00
1105.475,2625.00
1106.409,2494.00
1107.343,2681.00
1108.277,2544.00
1109.210,2819.00
1110.144,2727.00
1111.078,2745.00
1112.011,2542.00
1112.944,2869.00
1113.878,2790.00
1114.811,2235.00
1115.744,2666.00
1116.678,2389.00
1117.611,2675.00
1118.544,2689.00
1119.477,2887.00
1120.409,2625.00
1121.342,3226.00
1122.274,2810.00
1123.206,3130.00
1124.138,2723.00
1125.070,3090.00
1126.002,2957.00
1126.934,2388.00
1127.866,2628.00
1128.798,2391.00
1129.729,2429.00
1130.661,2718.00
1131.592,2636.00
1132.523,2805.00
1133.454,2870.00
1134.385,2390.00
1135.317,2732.00
1136.247,2660.00
1137.178,2935.00
1138.109,2468.00
1139.039,3077.00
1139.970,2925.00
1140.900,2668.00
1141.831,2395.00
1142.761,2257.00
1143.691,3242.00
1144.621,2766.00
1145.551,2764.00
1146.480,2775.00
1147.410,2922.00
1148.340,2381.00
1149.269,2449.00
1150.199,2657.00
1151.128,3174.00
1152.057,2497.00
1152.979,2655.00
1153.898,2727.00
1154.819,2778.00
1155.739,2717.00
1156.658,2634.00
1157.579,2767.00
1158.498,2726.00
1159.419,2253.00
1160.338,2747.00
1161.256,2789.00
1162.177,2563.00
1163.095,2705.00
1164.016,2774.00
1164.934,3023.00
1165.852,2919.00
1166.772,2719.00
1167.690,2746.00
1168.610,2800.00
1169.528,2727.00
1170.446,2275.00
1171.365,2614.00
1172.283,2557.00
1173.202,2745.00
1174.120,2739.00
1175.037,2511.00
1175.956,2533.00
1176.873,2571.00
1177.792,2634.00
1178.709,3215.00
1179.626,2622.00
1180.544,2950.00
1181.461,2566.00
1182.379,2836.00
1183.296,2714.00
1184.212,2360.00
1185.130,2548.00
1186.046,3092.00
1186.962,2701.00
1187.880,3000.00
1188.796,2748.00
1189.714,2501.00
1190.629,2865.00
1191.545,2775.00
1192.462,2641.00
1193.378,2633.00
1194.295,2426.00
1195.210,2755.00
1196.125,2871.00
1197.042,2806.00
1197.957,2727.00
1198.872,2641.00
1199.788,2622.00
1200.703,3050.00
1201.619,2761.00
1202.534,2567.00
1203.448,2819.00
1204.364,2660.00
1205.278,2372.00
1206.192,2754.00
1207.108,3219.00
1208.022,3059.00
1208.938,2553.00
1209.851,2857.00
1210.765,2968.00
1211.680,2650.00
1212.594,2467.00
1213.507,2650.00
1214.422,3134.00
1215.335,2829.00
1216.248,2660.00
1217.163,2747.00
1218.076,3365.00
1218.990,2844.00
1219.903,2502.00
1220.816,2541.00
1221.730,2666.00
1222.642,2555.00
1223.554,2616.00
1224.469,2792.00
1225.380,2679.00
1226.292,2352.00
1227.206,2839.00
1228.118,3032.00
1229.032,2325.00
1229.943,2623.00
1230.855,2652.00
1231.768,2451.00
1232.679,2797.00
1233.590,2695.00
1234.503,2922.00
1235.414,2577.00
1236.325,2614.00
1237.238,2767.00
1238.149,2803.00
1239.059,2525.00
1239.972,2891.00
1240.882,2521.00
1241.793,2874.00
1242.705,3102.00
1243.615,2691.00
1244.525,2811.00
1245.437,2294.00
1246.347,2724.00
1247.259,2896.00
1248.168,3166.00
1249.078,2935.00
1249.989,2976.00
1250.899,2533.00
1251.808,2581.00
1252.719,2668.00
1253.628,2538.00
1254.537,3129.00
1255.448,2530.00
1256.357,2558.00
1257.266,2732.00
1258.176,2408.00
1259.085,2447.00
1259.993,2496.00
1260.904,2568.00
1261.812,2521.00
1262.720,3312.00
1263.630,2894.00
1264.538,2488.00
1265.446,2813.00
1266.356,2698.00
1267.263,2984.00
1268.171,2512.00
1269.080,2797.00
1269.988,2863.00
1270.895,2581.00
1271.804,2669.00
1272.711,2880.00
1273.619,2851.00
1274.527,2511.00
1275.434,2851.00
1276.341,2506.00
1277.248,2777.00
1278.156,2998.00
1279.063,2575.00
1279.969,2802.00
1280.877,3633.00
1281.783,2871.00
1282.690,2793.00
1283.598,2690.00
1284.503,2545.00
1285.409,2558.00
1286.317,3063.00
1287.223,3130.00
1288.128,2752.00
1289.036,2602.00
1289.941,2645.00
1290.846,2715.00
1291.751,2520.00
1292.658,2609.00
1293.563,3185.00
1294.468,2714.00
1295.375,2858.00
1296.280,2957.00
1297.184,3426.00
1298.091,2822.00
1298.995,2888.00
1299.900,3136.00
1300.806,2615.00
1301.710,2440.00
1302.614,2261.00
1303.518,2969.00
1304.424,2624.00
1305.327,2959.00
1306.231,2692.00
1307.137,2870.00
1308.040,2766.00
1308.943,2724.00
1309.847,2975.00
1310.752,2881.00
1311.655,2357.00
1312.558,2513.00
1313.463,2665.00
1314.366,2598.00
1315.269,2755.00
1316.171,2663.00
1317.076,2563.00
1317.978,2494.00
1318.881,2317.00
1319.785,2574.00
1320.687,2603.00
1321.589,2318.00
1322.491,2573.00
1323.395,2791.00
1324.297,3317.00
1325.198,2867.00
1326.102,2505.00
1327.004,2530.00
1327.905,3091.00
1328.806,2670.00
1329.709,2767.00
1330.611,2654.00
1331.512,2521.00
1332.413,3191.00
1333.316,2780.00
1334.216,2891.00
1335.117,2429.00
1336.020,2722.00
1336.920,2722.00
1337.821,2557.00
1338.721,3002.00
1339.623,2770.00
1340.523,2684.00
1341.423,2532.00
1342.323,3023.00
1343.225,2800.00
1344.125,2561.00
1345.025,2601.00
1345.924,2380.00
1346.826,3079.00
1347.725,3105.00
1348.624,2958.00
1349.524,2570.00
1350.425,2701.00
1351.324,2815.00
1352.223,2914.00
1353.121,2692.00
1354.022,2901.00
1354.921,3138.00
1355.819,2847.00
1356.718,2701.00
1357.618,2424.00
1358.516,2838.00
1359.415,3116.00
1360.313,2826.00
1361.213,2675.00
1362.111,2989.00
1363.008,3365.00
1363.906,2700.00
1364.806,2697.00
1365.703,2810.00
1366.601,2566.00
1367.498,2535.00
1368.397,2933.00
1369.295,2746.00
1370.192,2525.00
1371.089,2804.00
1371.987,2715.00
1372.884,3007.00
1373.781,2536.00
1374.678,2718.00
1375.574,2548.00
1376.473,2874.00
1377.369,2907.00
1378.265,2540.00
1379.161,2680.00
1380.059,2428.00
1380.955,2813.00
1381.851,2487.00
1382.747,2589.00
1383.643,2653.00
1384.540,2489.00
1385.436,2595.00
1386.331,2758.00
1387.227,2871.00
1388.124,2822.00
1389.019,2527.00
1389.914,2715.00
1390.809,2344.00
1391.704,3134.00
1392.601,2613.00
1393.495,3031.00
1394.390,2898.00
1395.285,2945.00
1396.179,2792.00
1397.075,2683.00
1397.969,2806.00
1398.864,2397.00
1399.758,2683.00
1400.652,2753.00
1401.547,2522.00
1402.441,2480.00
1403.335,3103.00
1404.229,2826.00
1405.122,2810.00
1406.017,2677.00
1406.911,2876.00
1407.804,3134.00
1408.697,2732.00
1409.590,2552.00
1410.485,2927.00
1411.378,2816.00
1412.271,2420.00
1413.163,2784.00
1414.056,2889.00
1414.949,3090.00
1415.843,2788.00
1416.735,2652.00
1417.627,2744.00
1418.520,2675.00
1419.412,2940.00
1420.306,2909.00
1421.197,3045.00
1422.089,2992.00
1422.981,3251.00
1423.873,2912.00
1424.764,2871.00
1425.657,2751.00
1426.549,2829.00
1427.440,2910.00
1428.331,2649.00
1429.222,2398.00
1430.113,2775.00
1431.006,2914.00
1431.897,2629.00
1432.787,2743.00
1433.678,2697.00
1434.568,2542.00
1435.459,2952.00
1436.351,2943.00
1437.241,2863.00
1438.131,2895.00
1439.021,2492.00
1439.911,2696.00
1440.801,2795.00
1441.693,2979.00
1442.583,2738.00
1443.472,2769.00
1444.362,2852.00
1445.251,2674.00
1446.140,2650.00
1447.030,2972.00
1447.921,2930.00
1448.810,2552.00
1449.699,3093.00
1450.588,2772.00
1451.476,2657.00
1452.365,2873.00
1453.254,2617.00
1454.144,2611.00
1455.032,2877.00
1455.921,2467.00
1456.809,3010.00
1457.697,2514.00
1458.585,2687.00
1459.473,2706.00
1460.361,2562.00
1461.251,2788.00
1462.138,2841.00
1463.026,2706.00
1463.913,2980.00
1464.801,2656.00
1465.688,2808.00
1466.575,2787.00
1467.463,3209.00
1468.351,2585.00
1469.238,2684.00
1470.125,2336.00
1471.012,2810.00
1471.899,2850.00
1472.785,2555.00
1473.672,2768.00
1474.558,2936.00
1475.446,2901.00
1476.333,2936.00
1477.219,2530.00
1478.105,2701.00
1478.991,2701.00
1479.877,3023.00
1480.762,2765.00
1481.648,2608.00
1482.534,2894.00
1483.419,2798.00
1484.307,2858.00
1485.192,2715.00
1486.077,2593.00
1486.962,2573.00
1487.847,2480.00
1488.732,2569.00
1489.617,2739.00
1490.502,3030.00
1491.387,2894.00
1492.271,2600.00
1493.156,2575.00
1494.042,2539.00
1494.927,2956.00
1495.811,2608.00
1496.695,2872.00
1497.579,3046.00
1498.463,2755.00
1499.347,2781.00
1500.231,2776.00
1501.114,2809.00
1501.998,2993.00
1502.881,2782.00
1503.765,3062.00
1504.648,3168.00
1505.533,2871.00
1506.417,2763.00
1507.300,2720.00
1508.183,2817.00
1509.066,2205.00
1509.948,2991.00
1510.831,3099.00
1511.714,2517.00
1512.596,2890.00
1513.479,2998.00
1514.361,2950.00
1515.243,2762.00
1516.125,2938.00
1517.008,3033.00
1517.890,2697.00
1518.771,2805.00
1519.655,2952.00
1520.537,2657.00
1521.419,2575.00
1522.300,2779.00
1523.182,2919.00
1524.063,2889.00
1524.944,3050.00
1525.825,2938.00
1526.707,2574.00
1527.588,2530.00
1528.468,2858.00
1529.349,2441.00
1530.230,2692.00
1531.111,2936.00
1531.991,2833.00
1532.872,2484.00
1533.752,2714.00
1534.632,2636.00
1535.513,2617.00
1536.393,2939.00
1537.273,3089.00
1538.153,3456.00
1539.032,2489.00
1539.912,2759.00
1540.792,2794.00
1541.672,2754.00
1542.551,2873.00
1543.430,3386.00
1544.310,2818.00
1545.189,2673.00
1546.068,3188.00
1546.947,2871.00
1547.826,3068.00
1548.705,2753.00
1549.584,2990.00
1550.462,2697.00
1551.341,2895.00
1552.219,2849.00
1553.098,2914.00
1553.976,2973.00
1554.854,3150.00
1555.733,2979.00
1556.611,2666.00
1557.489,2552.00
1558.367,2759.00
1559.244,2912.00
1560.122,2771.00
1561.000,2817.00
1561.877,3064.00
1562.755,2662.00
1563.632,2700.00
1564.509,3026.00
1565.386,3167.00
1566.264,2477.00
1567.141,2364.00
1568.017,2892.00
1568.894,2753.00
1569.771,2799.00
1570.648,2866.00
1571.524,2768.00
1572.401,2501.00
1573.277,2538.00
1574.153,2778.00
1575.029,2584.00
1575.906,3512.00
1576.781,2947.00
1577.657,2700.00
1578.533,3041.00
1579.409,2420.00
1580.285,2708.00
1581.160,3162.00
1582.036,2948.00
1582.911,2586.00
1583.786,3109.00
1584.662,2569.00
1585.537,2733.00
1586.412,2796.00
1587.287,2625.00
1588.160,2959.00
1589.035,2423.00
1589.909,2766.00
1590.784,2733.00
1591.658,2555.00
1592.533,2791.00
1593.407,2774.00
1594.281,2613.00
1595.155,3194.00
1596.029,2675.00
1596.903,2706.00
1597.777,2653.00
1598.651,3023.00
1599.525,2469.00
1600.398,2831.00
1601.272,2720.00
1602.144,3330.00
1603.017,2738.00
1603.890,3023.00
1604.763,2851.00
1605.636,2876.00
1606.509,2445.00
1607.382,2605.00
1608.255,2855.00
1609.128,3023.00
1610.000,2709.00
1610.873,2435.00
1611.746,2654.00
1612.616,2735.00
1613.488,2343.00
1614.361,2798.00
1615.233,2718.00
1616.105,3009.00
1616.977,2687.00
1617.849,2590.00
1618.720,3084.00
1619.592,3069.00
1620.464,2838.00
1621.333,3250.00
1622.205,2773.00
1623.076,2757.00
1623.947,2743.00
1624.818,3072.00
1625.689,2897.00
1626.560,2711.00
1627.431,2835.00
1628.302,3199.00
1629.171,2901.00
1630.042,3107.00
1630.912,3415.00
1631.782,3371.00
1632.653,2591.00
1633.523,2914.00
1634.393,3047.00
1635.263,2643.00
1636.131,2771.00
1637.001,2686.00
1637.871,2385.00
1638.741,2383.00
1639.611,2483.00
1640.480,2878.00
1641.350,2689.00
1642.219,2594.00
1643.087,2271.00
1643.956,3215.00
1644.825,3020.00
1645.694,2983.00
1646.563,2964.00
1647.432,2818.00
1648.299,2799.00
1649.167,2920.00
1650.036,2622.00
1650.904,2865.00
1651.773,2988.00
1652.641,2830.00
1653.509,2961.00
1654.376,2616.00
1655.244,2823.00
1656.112,2817.00
1656.980,2788.00
1657.847,2615.00
1658.715,2936.00
1659.581,2666.00
1660.448,3007.00
1661.316,2272.00
1662.183,2799.00
1663.051,2793.00
1663.918,2809.00
1664.783,2799.00
1665.650,2853.00
1666.517,2946.00
1667.384,2823.00
1668.251,2830.00
1669.115,3011.00
1669.982,2743.00
1670.849,3105.00
1671.715,2758.00
1672.581,2937.00
1673.446,2874.00
1674.312,2811.00
1675.178,3215.00
1676.044,2873.00
1676.910,2875.00
1677.774,2817.00
1678.639,2446.00
1679.505,2755.00
1680.370,2942.00
1681.236,3483.00
1682.099,2743.00
1682.965,2801.00
1683.830,2355.00
1684.695,2601.00
1685.560,2739.00
1686.423,2915.00
1687.288,2907.00
1688.153,2818.00
1689.017,2727.00
1689.880,2874.00
1690.745,2938.00
1691.609,2619.00
1692.473,2940.00
1693.338,3027.00
1694.200,3073.00
1695.064,2789.00
1695.928,2695.00
1696.792,2805.00
1697.654,3299.00
1698.517,2831.00
1699.381,2531.00
1700.245,2434.00
1701.106,3103.00
1701.969,2694.00
1702.833,2926.00
1703.696,2711.00
1704.557,2784.00
1705.420,2654.00
1706.283,2797.00
1707.146,2924.00
1708.007,2578.00
1708.870,2569.00
1709.732,2421.00
1710.595,2682.00
1711.455,2532.00
1712.318,2660.00
1713.180,3050.00
1714.040,2835.00
1714.902,2960.00
1715.764,2780.00
1716.626,2613.00
1717.486,2784.00
1718.348,3046.00
1719.209,5033.00
1720.071,2440.00
1720.930,2522.00
1721.792,2656.00
1722.653,2600.00
1723.512,2663.00
1724.374,2745.00
1725.234,2844.00
1726.095,2804.00
1726.954,2796.00
1727.815,2926.00
1728.676,2783.00
1729.535,3017.00
1730.395,2760.00
1731.256,2709.00
1732.114,2864.00
1732.974,2263.00
1733.834,3158.00
1734.693,2977.00
1735.553,2807.00
1736.413,3229.00
1737.272,2682.00
1738.130,2717.00
1738.990,2870.00
1739.849,2675.00
1740.707,3859.00
1741.566,2849.00
1742.426,2838.00
1743.283,3212.00
1744.142,2682.00
1745.001,2478.00
1745.858,2954.00
1746.717,2889.00
1747.576,2881.00
1748.433,2977.00
1749.292,3420.00
1750.150,3457.00
1751.007,2987.00
1751.865,3011.00
1752.723,2823.00
1753.579,2744.00
1754.438,3035.00
1755.296,2998.00
1756.152,2334.00
1757.010,2459.00
1757.865,3028.00
1758.723,2439.00
1759.581,3149.00
1760.436,2797.00
1761.294,3167.00
1762.151,2757.00
1763.006,2743.00
1763.864,2418.00
1764.721,3022.00
1765.576,2838.00
1766.433,2959.00
1767.288,2739.00
1768.144,2808.00
1769.001,2721.00
1769.856,2881.00
1770.712,3011.00
1771.568,2587.00
1772.423,2693.00
1773.279,2679.00
1774.133,2695.00
1774.989,3198.00
1775.845,3195.00
1776.699,3038.00
1777.555,2767.00
1778.409,3283.00
1779.265,2781.00
1780.120,2747.00
1780.974,2789.00
1781.829,2395.00
1782.682,2855.00
1783.538,2595.00
1784.393,2839.00
1785.246,2710.00
1786.101,2882.00
1786.954,2938.00
1787.808,2998.00
1788.661,2502.00
1789.516,2733.00
1790.370,2716.00
1791.223,3004.00
1792.077,2773.00
1792.930,2932.00
1793.784,2674.00
1794.636,2829.00
1795.490,2784.00
1796.344,2827.00
1797.196,2761.00
1798.049,2929.00
1798.901,2687.00
1799.755,3033.00
1800.606,2579.00
1801.460,3323.00
1802.311,3127.00
1803.165,3227.00
1804.018,3155.00
1804.869,2891.00
1805.722,3263.00
1806.573,2798.00
1807.426,2618.00
1808.276,2762.00
1809.129,2703.00
1809.980,3047.00
1810.832,3120.00
1811.683,2740.00
1812.535,3148.00
1813.385,2714.00
1814.237,3107.00
1815.089,2841.00
1815.940,3068.00
1816.791,2720.00
1817.641,2689.00
1818.493,2978.00
1819.343,2838.00
1820.194,2653.00
1821.044,2920.00
1821.895,3046.00
1822.745,2513.00
1823.596,2704.00
1824.445,3210.00
1825.296,2893.00
1826.145,2792.00
1826.996,2994.00
1827.845,2860.00
1828.695,2857.00
1829.544,2807.00
1830.395,2864.00
1831.243,2741.00
1832.094,2540.00
1832.942,3447.00
1833.792,2926.00
1834.640,2869.00
1835.490,2783.00
1836.338,2888.00
1837.186,2666.00
1838.036,2656.00
1838.884,2838.00
1839.733,3147.00
1840.581,3017.00
1841.430,2940.00
1842.278,3156.00
1843.127,2716.00
1843.974,2438.00
1844.823,3255.00
1845.671,2977.00
1846.519,2792.00
1847.366,2892.00
1848.213,2460.00
1849.062,2607.00
1849.909,2530.00
1850.757,3504.00
1851.604,2924.00
1852.452,2756.00
1853.298,3011.00
1854.146,2868.00
1854.993,2845.00
1855.839,3341.00
1856.687,2932.00
1857.532,2938.00
1858.380,2816.00
1859.226,2899.00
1860.073,2951.00
1860.919,2676.00
1861.765,2689.00
1862.612,3052.00
1863.457,3031.00
1864.304,2742.00
1865.150,2933.00
1865.995,2767.00
1866.842,2940.00
1867.686,3018.00
1868.533,2900.00
1869.378,2887.00
1870.223,2842.00
1871.069,2713.00
1871.914,2832.00
1872.760,2789.00
1873.604,2622.00
1874.448,3012.00
1875.294,2994.00
1876.139,2696.00
1876.984,2974.00
1877.828,2453.00
1878.672,2293.00
1879.518,2717.00
1880.361,3017.00
1881.205,3017.00
1882.050,2642.00
1882.894,3331.00
1883.739,2710.00
1884.582,2598.00
1885.425,2638.00
1886.270,3096.00
1887.113,2574.00
1887.956,2917.00
1888.801,2897.00
1889.644,2657.00
1890.486,2405.00
1891.331,2744.00
1892.173,2879.00
1893.017,2906.00
1893.860,3102.00
1894.702,3102.00
1895.546,2817.00
1896.388,3511.00
1897.230,3201.00
1898.074,2748.00
1898.916,2601.00
1899.757,2651.00
1900.601,3518.00
1901.443,3143.00
1902.284,3113.00
1903.125,3279.00
1903.969,3019.00
1904.810,3088.00
1905.651,2914.00
1906.494,3186.00
1907.335,3279.00
1908.176,2911.00
1909.018,2904.00
1909.859,2785.00
1910.700,2705.00
1911.542,3418.00
1912.383,2914.00
1913.223,2425.00
1914.064,2943.00
1914.906,3139.00
1915.746,3160.00
1916.586,3313.00
1917.428,2851.00
1918.268,2866.00
1919.107,2718.00
1919.947,2561.00
1920.789,2770.00
1921.628,3075.00
1922.468,2829.00
1923.309,2668.00
1924.148,3155.00
1924.988,2925.00
1925.827,2811.00
1926.667,2742.00
1927.507,2892.00
1928.345,2623.00
1929.184,3014.00
1930.025,2655.00
1930.864,3105.00
1931.702,3152.00
1932.541,2702.00
1933.381,2996.00
1934.219,3002.00
1935.057,3162.00
1935.896,2564.00
1936.735,2829.00
1937.573,2728.00
1938.411,2652.00
1939.249,2996.00
1940.089,2701.00
1940.927,3086.00
1941.764,3133.00
1942.602,2773.00
1943.439,2768.00
1944.278,2798.00
1945.115,2789.00
1945.953,2594.00
1946.790,2938.00
1947.628,3184.00
1948.465,2961.00
1949.302,3022.00
1950.139,2993.00
1950.976,2733.00
1951.814,3008.00
1952.651,2910.00
1953.487,2616.00
1954.323,3103.00
1955.160,2811.00
1955.998,3205.00
1956.834,2784.00
1957.670,2917.00
1958.506,3070.00
1959.342,2951.00
1960.177,2890.00
1961.015,2980.00
1961.850,2858.00
1962.686,2908.00
1963.521,2890.00
1964.357,3125.00
1965.192,2649.00
1966.029,2996.00
1966.864,2784.00
1967.699,3068.00
1968.534,2899.00
1969.369,3170.00
1970.204,2817.00
1971.040,2857.00
1971.875,2764.00
1972.709,2950.00
1973.544,2660.00
1974.378,2739.00
1975.212,2978.00
1976.047,2748.00
1976.882,2733.00
1977.716,3297.00
1978.550,2562.00
1979.384,2796.00
1980.218,2801.00
1981.052,2771.00
1981.885,2903.00
1982.719,2840.00
1983.554,2996.00
1984.388,3170.00
1985.221,2946.00
1986.054,3094.00
1986.887,2937.00
1987.720,2669.00
1988.553,3181.00
1989.386,3001.00
1990.219,3012.00
1991.053,3167.00
1991.886,2687.00
1992.719,3047.00
1993.551,2378.00
1994.383,3012.00
1995.216,2771.00
1996.048,2579.00
1996.880,3035.00
1997.712,2713.00
1998.544,2829.00
1999.376,2970.00
2000.208,3142.00
2001.040,3303.00
2001.873,2670.00
2002.705,2638.00
2003.536,2940.00
2004.367,2901.00
2005.199,2899.00
2006.030,2725.00
2006.861,2640.00
2007.692,2909.00
2008.523,2699.00
2009.354,2918.00
2010.185,2623.00
2011.016,3028.00
2011.846,3098.00
2012.677,2819.00
2013.507,3216.00
2014.338,3119.00
2015.168,2764.00
2015.999,3448.00
2016.829,2775.00
2017.659,3092.00
2018.489,3402.00
2019.319,2717.00
2020.149,3029.00
2020.980,2923.00
2021.810,2661.00
2022.639,2744.00
2023.469,2754.00
2024.298,2562.00
2025.128,2474.00
2025.957,2486.00
2026.786,2268.00
2027.615,2481.00
2028.444,2712.00
2029.273,2880.00
2030.102,2480.00
2030.931,2716.00
2031.758,3023.00
2032.586,2649.00
2033.415,2712.00
2034.243,2320.00
2035.072,2105.00
2035.900,2607.00
2036.728,2435.00
2037.556,2457.00
2038.385,2440.00
2039.213,2258.00
2040.040,2255.00
2040.868,2214.00
2041.696,2262.00
2042.524,2281.00
2043.351,2509.00
2044.179,2295.00
2045.006,2084.00
