RamanScope Measure Spectrum Data V3.72

<< MEASURE CONDITION >>
Exposure Type,Aver
Exposure Time [sec],15
Exposure Count,30
Measure Time,2023/07/12 11:24:16
Data Name,""
Data Comment,""
Rayleigh Wave[nm],532.0

<< SAMPLE SPECTRUM >>
Wave[dcm-1],No7
146.591,1055.60
147.626,1224.50
148.664,1399.43
149.699,1651.40
150.737,1834.47
151.772,2043.50
152.809,2199.60
153.846,2354.70
154.881,2483.47
155.918,2595.87
156.953,2706.20
157.989,2768.07
159.026,2841.70
160.060,2906.37
161.096,2998.60
162.130,3036.37
163.167,3044.50
164.200,3123.37
165.236,3151.97
166.272,3224.07
167.305,3226.20
168.341,3303.20
169.374,3408.40
170.409,3386.07
171.445,3505.17
172.477,3514.27
173.512,3540.43
174.545,3617.33
175.580,3611.93
176.614,3653.10
177.647,3624.30
178.681,3650.07
179.713,3642.20
180.747,3605.83
181.781,3623.20
182.813,3638.53
183.847,3642.63
184.878,3591.57
185.912,3600.50
186.945,3620.90
187.976,3695.27
189.010,3681.80
190.043,3698.80
191.073,3726.97
192.106,3754.33
193.137,3808.67
194.170,3863.90
195.202,3879.20
196.232,3933.13
197.265,3951.07
198.297,4097.93
199.327,4142.90
200.359,4163.07
201.388,4281.20
202.420,4347.73
203.452,4494.57
204.481,4620.73
205.512,4706.53
206.544,4805.80
207.573,5021.93
208.604,5116.87
209.635,5368.77
210.663,5539.77
211.694,5750.17
212.725,5898.27
213.753,6189.03
214.783,6370.57
215.813,6493.40
216.841,6646.20
217.871,6592.70
218.899,6554.47
219.929,6431.83
220.959,6379.30
221.986,6181.40
223.016,6013.30
224.045,5830.57
225.072,5645.17
226.101,5425.83
227.130,5290.97
228.157,5123.30
229.185,4996.00
230.214,4926.83
231.241,4802.90
232.269,4691.67
233.297,4661.03
234.323,4673.97
235.351,4566.30
236.379,4542.93
237.407,4534.53
238.433,4521.97
239.460,4543.57
240.488,4589.50
241.513,4558.37
242.540,4585.30
243.568,4650.33
244.592,4722.63
245.619,4690.07
246.646,4643.37
247.671,4628.10
248.697,4606.57
249.724,4650.67
250.748,4553.73
251.774,4550.47
252.801,4596.77
253.827,4600.63
254.850,4616.73
255.876,4614.80
256.902,4673.13
257.925,4616.73
258.951,4663.90
259.976,4734.03
260.999,4760.50
262.024,4856.10
263.049,4873.90
264.074,4990.80
265.097,5024.87
266.122,5053.40
267.146,5122.50
268.168,5176.43
269.193,5245.47
270.217,5358.53
271.241,5364.43
272.263,5369.90
273.287,5504.17
274.311,5564.33
275.332,5584.37
276.356,5561.97
277.379,5543.00
278.402,5506.47
279.424,5508.33
280.447,5483.40
281.470,5418.13
282.492,5300.60
283.513,5253.93
284.536,5191.10
285.558,5094.50
286.581,5004.97
287.601,4906.27
288.623,4868.67
289.645,4776.57
290.665,4699.00
291.687,4627.27
292.709,4546.87
293.730,4454.50
294.750,4399.60
295.771,4335.80
296.792,4299.47
297.813,4187.10
298.832,4140.43
299.853,4105.53
300.874,4006.53
301.895,4011.13
302.913,3957.20
303.934,3867.47
304.954,3829.47
305.975,3836.73
306.993,3737.13
308.013,3706.00
309.033,3684.73
310.052,3605.43
311.072,3664.10
312.090,3597.63
313.109,3543.83
314.129,3548.57
315.148,3497.20
316.165,3541.37
317.184,3466.43
318.203,3469.13
319.222,3470.27
320.238,3412.70
321.257,3426.60
322.275,3421.40
323.294,3399.60
324.312,3377.03
325.328,3422.40
326.346,3335.07
327.364,3364.77
328.382,3329.60
329.397,3345.53
330.415,3327.97
331.432,3328.40
332.450,3313.80
333.467,3289.37
334.482,3261.73
335.499,3240.23
336.516,3258.20
337.533,3246.17
338.547,3237.93
339.564,3205.57
340.580,3216.23
341.597,3256.57
342.613,3241.53
343.627,3239.43
344.643,3227.57
345.659,3216.63
346.675,3196.10
347.690,3177.43
348.704,3198.83
349.719,3149.40
350.735,3196.10
351.750,3217.70
352.765,3163.63
353.778,3185.70
354.793,3162.03
355.808,3193.33
356.822,3203.37
357.837,3166.57
358.851,3199.77
359.864,3213.03
360.878,3191.20
361.892,3205.50
362.906,3202.13
363.920,3201.93
364.932,3211.33
365.945,3207.10
366.959,3226.43
367.972,3290.93
368.986,3234.00
369.999,3268.67
371.010,3243.57
372.023,3306.30
373.036,3324.37
374.049,3354.20
375.061,3300.70
376.072,3332.47
377.084,3320.70
378.097,3350.73
379.109,3387.70
380.121,3357.07
381.133,3364.13
382.143,3396.67
383.155,3367.43
384.166,3344.90
385.178,3386.70
386.189,3389.37
387.201,3388.40
388.212,3420.37
389.221,3388.10
390.232,3400.53
391.243,3396.47
392.254,3352.73
393.264,3387.60
394.275,3356.87
395.283,3340.80
396.294,3313.50
397.304,3318.63
398.314,3316.83
399.324,3314.70
400.334,3282.93
401.344,3235.43
402.351,3255.53
403.361,3214.27
404.370,3192.27
405.380,3219.00
406.389,3201.13
407.398,3172.33
408.407,3151.83
409.414,3193.63
410.423,3092.57
411.431,3134.27
412.440,3107.77
413.448,3095.00
414.457,3125.17
415.465,3079.83
416.471,3041.73
417.479,2996.37
418.487,2994.37
419.495,3062.80
420.503,3019.23
421.510,2995.00
422.518,3020.23
423.525,3002.40
424.530,3061.70
425.537,3024.50
426.544,3001.03
427.551,2965.97
428.558,3004.30
429.565,2998.43
430.571,2986.50
431.578,2926.37
432.582,2950.57
433.588,2959.47
434.595,2940.13
435.601,2955.67
436.607,2962.53
437.612,2963.43
438.618,3016.13
439.624,2988.30
440.627,2996.67
441.633,2986.60
442.638,2959.80
443.643,2947.17
444.648,2979.00
445.653,2983.43
446.658,2984.50
447.663,3002.43
448.667,2974.03
449.672,2971.00
450.674,2955.13
451.678,2974.33
452.682,2993.37
453.687,2926.37
454.690,2991.30
455.694,3002.93
456.698,3013.53
457.702,2974.80
458.705,2983.93
459.709,2976.40
460.710,3031.40
461.713,3020.53
462.716,2985.50
463.719,2971.40
464.722,3023.90
465.725,3026.90
466.727,3056.73
467.730,3051.10
468.732,3005.33
469.735,3054.27
470.737,3071.87
471.737,3082.30
472.739,3027.17
473.741,3017.23
474.742,3041.57
475.744,3047.03
476.746,3047.43
477.747,3053.07
478.748,3017.40
479.750,3042.47
480.751,3090.53
481.752,3078.80
482.753,3103.60
483.751,3038.87
484.752,3033.07
485.753,3036.60
486.753,3032.93
487.753,3084.50
488.754,3102.33
489.754,3018.23
490.754,3062.53
491.754,3093.93
492.754,3064.93
493.753,3054.53
494.753,3058.27
495.752,3070.87
496.752,3014.50
497.749,3010.10
498.748,3038.17
499.747,3040.33
500.746,3028.33
501.745,2982.00
502.744,3015.40
503.742,3020.53
504.741,2995.40
505.739,2924.53
506.737,2973.87
507.735,3039.53
508.734,3026.13
509.732,2971.13
510.729,2954.33
511.727,2979.67
512.725,2967.50
513.720,2952.07
514.718,2956.83
515.715,2932.10
516.712,2925.13
517.709,2967.37
518.706,2967.97
519.703,2939.20
520.700,2946.43
521.696,2958.80
522.693,2955.03
523.689,2930.87
524.686,2942.00
525.682,2964.17
526.678,2967.67
527.674,2970.33
528.670,2961.37
529.666,3002.07
530.661,2967.60
531.657,3020.70
532.652,3020.93
533.648,3020.73
534.641,3015.57
535.636,2997.40
536.631,3039.93
537.626,3030.53
538.621,3017.60
539.616,2998.23
540.610,2961.03
541.605,3000.27
542.599,3009.60
543.593,2999.33
544.587,3074.60
545.581,3003.10
546.575,3006.13
547.569,3002.10
548.563,3028.30
549.557,3031.47
550.550,2987.47
551.543,2981.43
552.537,3019.07
553.530,3004.70
554.523,3030.77
555.516,3048.67
556.509,3003.33
557.502,2984.43
558.494,3009.87
559.487,3020.77
560.479,2987.70
561.472,2991.27
562.464,3015.10
563.456,3027.50
564.448,3026.97
565.440,3019.13
566.432,3017.97
567.423,3024.37
568.415,3049.40
569.404,3026.63
570.396,3017.07
571.387,3029.13
572.378,3060.87
573.369,3126.70
574.360,3092.67
575.351,3116.33
576.341,3048.60
577.332,3056.20
578.323,3064.37
579.313,3057.30
580.303,3050.47
581.293,3065.43
582.283,3066.33
583.273,3111.60
584.263,3108.73
585.253,3131.10
586.243,3084.73
587.232,3088.30
588.222,3037.80
589.211,3105.10
590.200,3080.70
591.189,3086.57
592.178,3086.13
593.167,3099.57
594.156,3105.53
595.145,3114.20
596.133,3120.50
597.122,3087.33
598.110,3066.50
599.098,3029.17
600.086,3021.13
601.074,3069.77
602.062,3026.30
603.050,3028.57
604.038,3035.67
605.025,3039.97
606.013,3032.27
607.000,3004.60
607.987,3039.97
608.975,3003.07
609.962,3001.37
610.949,2931.23
611.936,2963.83
612.922,2956.57
613.909,2916.07
614.895,2952.33
615.882,2893.67
616.868,2948.67
617.854,2872.10
618.841,2886.60
619.826,2792.00
620.812,2785.93
621.798,2832.53
622.784,2763.63
623.769,2784.17
624.755,2752.93
625.740,2731.20
626.725,2691.60
627.711,2662.50
628.698,2715.67
629.683,2650.10
630.667,2651.43
631.652,2627.27
632.637,2652.00
633.621,2638.83
634.606,2645.10
635.590,2563.50
636.574,2620.07
637.558,2598.73
638.542,2555.43
639.526,2487.00
640.510,2473.60
641.493,2560.90
642.477,2518.10
643.460,2469.67
644.444,2442.03
645.427,2465.90
646.410,2457.73
647.393,2454.07
648.376,2415.73
649.359,2426.53
650.341,2390.67
651.324,2385.93
652.307,2432.10
653.289,2405.53
654.271,2391.10
655.253,2371.67
656.235,2358.40
657.217,2388.03
658.199,2328.83
659.181,2325.83
660.163,2309.67
661.144,2313.50
662.126,2284.83
663.107,2282.10
664.088,2337.83
665.069,2310.63
666.050,2285.87
667.033,2270.00
668.014,2256.30
668.995,2227.63
669.975,2238.90
670.956,2248.17
671.936,2240.83
672.916,2204.23
673.896,2188.83
674.876,2186.30
675.856,2156.90
676.836,2163.53
677.816,2114.23
678.795,2105.27
679.775,2060.20
680.754,2090.50
681.734,2098.10
682.713,2063.17
683.692,2042.67
684.671,2078.97
685.650,2016.87
686.629,2063.57
687.607,2005.53
688.586,2031.63
689.564,2003.33
690.543,2014.47
691.523,1945.10
692.501,1970.90
693.479,1985.97
694.457,1954.00
695.435,1924.33
696.413,1891.27
697.390,1932.03
698.368,1904.63
699.345,1941.77
700.322,1925.27
701.300,1904.17
702.277,1932.40
703.254,1878.87
704.231,1864.43
705.207,1905.83
706.184,1889.37
707.161,1841.87
708.137,1874.83
709.113,1850.60
710.090,1859.20
711.068,1840.80
712.044,1825.33
713.020,1828.57
713.996,1811.40
714.971,1842.93
715.947,1808.47
716.922,1815.63
717.898,1783.77
718.873,1799.67
719.848,1737.30
720.823,1749.70
721.798,1782.03
722.773,1744.27
723.748,1763.60
724.723,1797.03
725.697,1742.97
726.672,1793.93
727.646,1727.97
728.622,1750.73
729.596,1713.83
730.570,1715.93
731.544,1737.87
732.518,1756.40
733.492,1751.73
734.466,1734.80
735.439,1731.33
736.413,1707.20
737.386,1677.10
738.359,1681.60
739.332,1667.60
740.305,1643.90
741.278,1738.23
742.251,1748.83
743.224,1700.83
744.196,1671.93
745.171,1689.73
746.143,1690.67
747.115,1668.47
748.087,1659.07
749.059,1687.03
750.031,1650.37
751.003,1705.20
751.975,1653.93
752.947,1644.70
753.918,1646.50
754.890,1618.27
755.861,1588.10
756.832,1664.23
757.803,1651.13
758.774,1629.83
759.747,1570.97
760.718,1621.33
761.689,1621.33
762.659,1591.63
763.630,1637.93
764.600,1593.70
765.570,1589.67
766.540,1624.23
767.510,1572.80
768.480,1592.60
769.450,1595.70
770.420,1588.53
771.390,1550.13
772.359,1573.50
773.329,1571.77
774.300,1524.77
775.269,1535.63
776.238,1554.30
777.207,1557.33
778.176,1557.07
779.145,1577.63
780.114,1528.90
781.083,1476.77
782.051,1530.63
783.019,1514.73
783.988,1553.53
784.956,1526.83
785.924,1535.80
786.894,1497.57
787.862,1541.30
788.830,1578.83
789.797,1475.37
790.765,1501.53
791.732,1479.97
792.700,1477.50
793.667,1512.57
794.634,1499.90
795.601,1448.77
796.568,1481.13
797.535,1477.80
798.502,1519.47
799.468,1457.37
800.437,1434.17
801.403,1485.80
802.370,1485.23
803.336,1488.67
804.302,1432.83
805.268,1475.67
806.234,1470.17
807.200,1459.70
808.166,1460.73
809.131,1439.27
810.097,1483.77
811.062,1509.43
812.027,1417.37
812.994,1376.13
813.960,1432.07
814.925,1436.57
815.889,1412.90
816.854,1417.50
817.819,1443.73
818.783,1404.27
819.748,1482.53
820.712,1374.47
821.677,1424.33
822.641,1420.33
823.605,1410.50
824.571,1412.23
825.534,1372.40
826.498,1416.87
827.462,1421.17
828.425,1433.50
829.389,1459.20
830.352,1429.53
831.315,1442.67
832.279,1425.93
833.242,1445.67
834.204,1418.97
835.167,1390.23
836.132,1441.83
837.095,1454.57
838.057,1432.23
839.020,1432.53
839.982,1472.07
840.944,1454.80
841.906,1439.60
842.868,1433.20
843.830,1400.00
844.792,1439.87
845.753,1459.87
846.715,1431.53
847.679,1432.90
848.640,1423.83
849.601,1443.93
850.562,1459.30
851.523,1432.13
852.484,1445.37
853.445,1468.57
854.406,1426.07
855.367,1413.30
856.327,1418.63
857.288,1440.40
858.248,1464.20
859.210,1401.27
860.170,1449.43
861.130,1449.10
862.090,1423.70
863.050,1432.90
864.010,1441.03
864.969,1400.63
865.929,1377.10
866.888,1412.97
867.848,1430.23
868.807,1445.77
869.766,1419.17
870.727,1444.50
871.686,1427.00
872.645,1420.00
873.604,1444.17
874.562,1434.63
875.521,1454.27
876.479,1454.33
877.437,1414.07
878.396,1437.67
879.354,1443.17
880.312,1442.97
881.270,1439.33
882.229,1450.03
883.187,1417.63
884.145,1423.03
885.102,1435.73
886.059,1429.00
887.017,1428.33
887.974,1452.43
888.931,1434.63
889.888,1398.43
890.845,1424.33
891.802,1400.53
892.758,1406.80
893.717,1421.37
894.673,1449.30
895.630,1447.47
896.586,1463.90
897.542,1447.07
898.498,1420.77
899.454,1477.03
900.410,1460.00
901.366,1399.10
902.321,1428.77
903.277,1431.23
904.232,1420.07
905.189,1433.70
906.145,1430.13
907.100,1397.57
908.055,1436.00
909.010,1421.13
909.965,1415.57
910.919,1435.80
911.874,1440.97
912.828,1459.80
913.783,1442.57
914.737,1415.10
915.693,1451.67
916.648,1464.10
917.602,1480.13
918.555,1423.17
919.509,1435.37
920.463,1458.90
921.417,1459.10
922.370,1415.73
923.324,1443.60
924.277,1437.03
925.230,1426.77
926.183,1427.10
927.138,1428.47
928.091,1425.83
929.044,1431.93
929.996,1437.47
930.949,1463.60
931.902,1450.33
932.854,1437.33
933.806,1440.43
934.758,1461.53
935.711,1440.37
936.663,1420.97
937.614,1410.50
938.568,1439.87
939.520,1414.23
940.471,1409.00
941.423,1425.40
942.374,1442.87
943.326,1398.30
944.277,1431.77
945.228,1414.10
946.179,1430.03
947.130,1444.23
948.080,1419.80
949.031,1407.00
949.984,1465.20
950.934,1417.13
951.884,1422.03
952.835,1405.53
953.785,1418.80
954.735,1386.30
955.685,1402.67
956.635,1404.73
957.585,1411.00
958.534,1400.67
959.484,1392.77
960.433,1382.23
961.383,1413.63
962.334,1392.30
963.283,1362.20
964.232,1393.23
965.181,1455.57
966.130,1424.87
967.079,1415.80
968.027,1388.60
968.976,1415.10
969.924,1389.43
970.873,1385.10
971.821,1435.03
972.769,1372.77
973.719,1398.90
974.667,1392.77
975.615,1400.93
976.562,1413.10
977.510,1379.10
978.458,1385.17
979.405,1422.63
980.352,1411.90
981.300,1433.57
982.247,1436.97
983.194,1419.87
984.141,1421.80
985.088,1393.47
986.036,1384.17
986.983,1439.93
987.930,1447.03
988.876,1367.40
989.822,1450.80
990.769,1407.23
991.715,1412.67
992.661,1389.77
993.607,1372.20
994.553,1397.10
995.498,1373.67
996.444,1398.23
997.389,1352.40
998.337,1444.17
999.282,1386.57
1000.227,1431.30
1001.173,1407.27
1002.118,1369.13
1003.062,1418.73
1004.007,1413.30
1004.952,1396.77
1005.897,1451.10
1006.841,1403.83
1007.786,1399.63
1008.730,1378.43
1009.674,1407.67
1010.618,1446.83
1011.564,1410.53
1012.508,1397.27
1013.452,1410.43
1014.396,1420.37
1015.339,1399.33
1016.283,1405.00
1017.226,1403.03
1018.170,1408.43
1019.113,1428.07
1020.056,1422.73
1020.999,1443.70
1021.942,1380.83
1022.885,1422.30
1023.828,1431.13
1024.770,1450.77
1025.715,1443.37
1026.657,1420.07
1027.600,1427.73
1028.542,1445.53
1029.484,1430.83
1030.426,1465.03
1031.368,1435.83
1032.310,1420.33
1033.251,1420.63
1034.193,1443.13
1035.135,1446.73
1036.076,1445.90
1037.017,1489.70
1037.959,1487.37
1038.900,1472.83
1039.843,1492.03
1040.784,1463.67
1041.725,1435.80
1042.665,1430.03
1043.606,1491.67
1044.547,1489.90
1045.487,1483.33
1046.427,1485.83
1047.368,1452.50
1048.308,1479.83
1049.248,1470.20
1050.188,1491.50
1051.128,1480.57
1052.067,1502.93
1053.007,1499.73
1053.947,1487.40
1054.886,1484.70
1055.827,1515.33
1056.766,1552.43
1057.706,1525.03
1058.645,1543.93
1059.584,1513.27
1060.522,1560.47
1061.461,1526.43
1062.400,1497.17
1063.338,1556.70
1064.277,1552.03
1065.215,1563.77
1066.154,1538.73
1067.092,1595.83
1068.030,1559.80
1068.968,1537.87
1069.906,1587.40
1070.843,1546.63
1071.781,1605.10
1072.720,1577.27
1073.658,1572.73
1074.595,1571.67
1075.533,1568.13
1076.470,1602.53
1077.407,1612.60
1078.344,1579.43
1079.281,1580.07
1080.217,1567.90
1081.154,1574.40
1082.091,1569.80
1083.027,1577.37
1083.964,1593.20
1084.900,1587.70
1085.836,1573.73
1086.772,1569.90
1087.708,1570.80
1088.644,1594.43
1089.580,1570.17
1090.515,1569.17
1091.451,1556.43
1092.388,1538.97
1093.324,1538.23
1094.259,1546.87
1095.194,1532.00
1096.129,1543.23
1097.064,1512.13
1097.999,1555.60
1098.934,1516.03
1099.869,1486.20
1100.803,1542.73
1101.738,1498.47
1102.672,1484.60
1103.607,1547.63
1104.541,1502.40
1105.475,1484.13
1106.409,1484.27
1107.343,1439.00
1108.277,1475.57
1109.210,1439.60
1110.144,1479.03
1111.078,1464.43
1112.011,1420.77
1112.944,1417.07
1113.878,1421.47
1114.811,1423.67
1115.744,1400.30
1116.678,1386.57
1117.611,1419.53
1118.544,1380.83
1119.477,1379.67
1120.409,1375.47
1121.342,1387.90
1122.274,1355.97
1123.206,2276.53
1124.138,1350.10
1125.070,1388.23
1126.002,1340.00
1126.934,1317.13
1127.866,1316.23
1128.798,1291.07
1129.729,1333.53
1130.661,1285.03
1131.592,1307.50
1132.523,1324.53
1133.454,1279.53
1134.385,1267.27
1135.317,1301.37
1136.247,1267.93
1137.178,1317.40
1138.109,1281.63
1139.039,1295.17
1139.970,1271.63
1140.900,1269.17
1141.831,1245.33
1142.761,1220.03
1143.691,1174.37
1144.621,1272.57
1145.551,1254.80
1146.480,1264.43
1147.410,1232.93
1148.340,1193.83
1149.269,1217.30
1150.199,1202.27
1151.128,1245.53
1152.057,1164.50
1152.979,1182.73
1153.898,1194.57
1154.819,1184.53
1155.739,1226.87
1156.658,1133.97
1157.579,1212.47
1158.498,1178.30
1159.419,1170.17
1160.338,1157.47
1161.256,1227.07
1162.177,1182.00
1163.095,1178.90
1164.016,1195.63
1164.934,1195.67
1165.852,1162.27
1166.772,1156.73
1167.690,1203.23
1168.610,1170.60
1169.528,1166.70
1170.446,1166.97
1171.365,1164.43
1172.283,1173.87
1173.202,1156.10
1174.120,1114.70
1175.037,1180.77
1175.956,1129.57
1176.873,1123.47
1177.792,1152.03
1178.709,1163.90
1179.626,1116.30
1180.544,1141.03
1181.461,1125.13
1182.379,1162.20
1183.296,1110.43
1184.212,1121.47
1185.130,1143.07
1186.046,1140.53
1186.962,1124.17
1187.880,1110.07
1188.796,1125.60
1189.714,1129.83
1190.629,1114.03
1191.545,1106.67
1192.462,1081.33
1193.378,1149.27
1194.295,1121.17
1195.210,1128.73
1196.125,1133.57
1197.042,1124.27
1197.957,1115.90
1198.872,1123.40
1199.788,1133.20
1200.703,1159.93
1201.619,1139.70
1202.534,1159.17
1203.448,1120.30
1204.364,1139.63
1205.278,1120.17
1206.192,1126.67
1207.108,1156.97
1208.022,1143.57
1208.938,1138.47
1209.851,1115.40
1210.765,1132.43
1211.680,1120.73
1212.594,1141.17
1213.507,1120.13
1214.422,1165.13
1215.335,1161.63
1216.248,1159.80
1217.163,1132.83
1218.076,1165.17
1218.990,1132.97
1219.903,1122.10
1220.816,1145.93
1221.730,1138.50
1222.642,1122.17
1223.554,1141.47
1224.469,1161.80
1225.380,1154.80
1226.292,1158.50
1227.206,1177.83
1228.118,1162.30
1229.032,1142.70
1229.943,1197.73
1230.855,1150.60
1231.768,1138.90
1232.679,1173.00
1233.590,1178.77
1234.503,1172.97
1235.414,1140.97
1236.325,1159.70
1237.238,1140.17
1238.149,1190.20
1239.059,1182.90
1239.972,1191.20
1240.882,1197.43
1241.793,1151.67
1242.705,1155.57
1243.615,1162.17
1244.525,1155.70
1245.437,1178.20
1246.347,1185.37
1247.259,1223.57
1248.168,1205.93
1249.078,1178.13
1249.989,1161.87
1250.899,1191.97
1251.808,1187.57
1252.719,1188.73
1253.628,1172.57
1254.537,1217.33
1255.448,1195.53
1256.357,1184.87
1257.266,1201.17
1258.176,1159.50
1259.085,1187.63
1259.993,1190.13
1260.904,1205.77
1261.812,1158.13
1262.720,1225.00
1263.630,1196.73
1264.538,1178.53
1265.446,1203.23
1266.356,1174.77
1267.263,1211.03
1268.171,1162.57
1269.080,1177.00
1269.988,1235.93
1270.895,1196.43
1271.804,1215.60
1272.711,1185.13
1273.619,1230.93
1274.527,1144.97
1275.434,1217.07
1276.341,1192.30
1277.248,1191.90
1278.156,1209.93
1279.063,1147.90
1279.969,1209.13
1280.877,1245.03
1281.783,1210.07
1282.690,1154.80
1283.598,1194.00
1284.503,1209.67
1285.409,1183.27
1286.317,1223.07
1287.223,1202.27
1288.128,1162.90
1289.036,1188.23
1289.941,1158.70
1290.846,1171.27
1291.751,1128.03
1292.658,1152.77
1293.563,1192.77
1294.468,1194.90
1295.375,1129.37
1296.280,1162.83
1297.184,1167.33
1298.091,1132.90
1298.995,1186.20
1299.900,1152.90
1300.806,1145.50
1301.710,1110.17
1302.614,1087.70
1303.518,1153.40
1304.424,1162.03
1305.327,1139.70
1306.231,1132.20
1307.137,1118.10
1308.040,1102.17
1308.943,1105.27
1309.847,1134.77
1310.752,1134.47
1311.655,1093.43
1312.558,1088.07
1313.463,1106.93
1314.366,1078.20
1315.269,1044.63
1316.171,1042.17
1317.076,1093.83
1317.978,1027.47
1318.881,1051.93
1319.785,1047.57
1320.687,1079.90
1321.589,1016.07
1322.491,1052.20
1323.395,1072.00
1324.297,1069.77
1325.198,1027.17
1326.102,1015.60
1327.004,1017.93
1327.905,1078.13
1328.806,1020.87
1329.709,1025.03
1330.611,1036.03
1331.512,1015.53
1332.413,984.60
1333.316,1041.70
1334.216,1026.23
1335.117,989.00
1336.020,1021.43
1336.920,978.97
1337.821,965.10
1338.721,984.93
1339.623,1018.13
1340.523,990.77
1341.423,961.80
1342.323,1011.43
1343.225,990.73
1344.125,957.73
1345.025,1002.17
1345.924,947.53
1346.826,972.70
1347.725,967.67
1348.624,965.87
1349.524,945.97
1350.425,931.20
1351.324,958.60
1352.223,961.07
1353.121,975.37
1354.022,946.20
1354.921,929.40
1355.819,912.67
1356.718,918.83
1357.618,959.00
1358.516,939.63
1359.415,930.13
1360.313,949.23
1361.213,897.57
1362.111,934.80
1363.008,943.60
1363.906,917.77
1364.806,914.37
1365.703,889.13
1366.601,904.77
1367.498,922.60
1368.397,906.07
1369.295,950.60
1370.192,909.27
1371.089,910.67
1371.987,879.50
1372.884,927.93
1373.781,865.33
1374.678,908.03
1375.574,878.03
1376.473,914.00
1377.369,893.83
1378.265,863.50
1379.161,865.63
1380.059,882.70
1380.955,878.33
1381.851,793.17
1382.747,877.93
1383.643,852.70
1384.540,826.63
1385.436,860.93
1386.331,863.80
1387.227,844.40
1388.124,865.60
1389.019,816.70
1389.914,823.13
1390.809,849.13
1391.704,803.23
1392.601,793.87
1393.495,842.60
1394.390,821.47
1395.285,805.73
1396.179,857.13
1397.075,816.50
1397.969,818.50
1398.864,819.87
1399.758,833.20
1400.652,781.73
1401.547,804.97
1402.441,842.57
1403.335,830.93
1404.229,831.20
1405.122,816.83
1406.017,819.23
1406.911,816.83
1407.804,789.43
1408.697,811.63
1409.590,779.23
1410.485,785.50
1411.378,814.27
1412.271,801.77
1413.163,792.43
1414.056,796.97
1414.949,869.57
1415.843,793.30
1416.735,789.30
1417.627,788.37
1418.520,777.90
1419.412,795.87
1420.306,800.33
1421.197,834.17
1422.089,797.87
1422.981,787.13
1423.873,780.20
1424.764,754.97
1425.657,790.93
1426.549,791.07
1427.440,776.60
1428.331,774.97
1429.222,762.23
1430.113,776.30
1431.006,780.67
1431.897,773.47
1432.787,798.07
1433.678,756.93
1434.568,783.63
1435.459,762.90
1436.351,781.70
1437.241,777.93
1438.131,776.40
1439.021,748.27
1439.911,759.83
1440.801,741.90
1441.693,771.93
1442.583,771.90
1443.472,765.80
1444.362,790.20
1445.251,755.83
1446.140,774.07
1447.030,779.17
1447.921,755.70
1448.810,745.27
1449.699,806.23
1450.588,756.87
1451.476,727.90
1452.365,802.93
1453.254,775.07
1454.144,736.83
1455.032,780.53
1455.921,728.27
1456.809,770.67
1457.697,731.50
1458.585,735.63
1459.473,743.33
1460.361,724.03
1461.251,714.77
1462.138,727.43
1463.026,704.40
1463.913,720.57
1464.801,710.87
1465.688,759.60
1466.575,761.23
1467.463,754.50
1468.351,750.00
1469.238,722.87
1470.125,713.60
1471.012,758.60
1471.899,711.90
1472.785,703.33
1473.672,751.10
1474.558,780.17
1475.446,715.87
1476.333,765.27
1477.219,700.37
1478.105,721.80
1478.991,682.53
1479.877,719.93
1480.762,708.70
1481.648,738.47
1482.534,721.37
1483.419,686.20
1484.307,727.17
1485.192,687.57
1486.077,688.03
1486.962,693.77
1487.847,714.43
1488.732,701.73
1489.617,681.93
1490.502,713.30
1491.387,744.07
1492.271,673.33
1493.156,663.83
1494.042,708.23
1494.927,690.80
1495.811,702.27
1496.695,710.07
1497.579,711.07
1498.463,664.80
1499.347,703.17
1500.231,715.47
1501.114,696.73
1501.998,677.10
1502.881,654.90
1503.765,721.20
1504.648,731.73
1505.533,662.97
1506.417,707.17
1507.300,670.63
1508.183,693.60
1509.066,635.20
1509.948,714.40
1510.831,709.53
1511.714,701.93
1512.596,697.37
1513.479,681.20
1514.361,726.40
1515.243,639.67
1516.125,675.17
1517.008,694.00
1517.890,676.60
1518.771,661.43
1519.655,662.93
1520.537,644.07
1521.419,665.47
1522.300,681.40
1523.182,676.60
1524.063,707.83
1524.944,692.70
1525.825,656.87
1526.707,610.57
1527.588,664.27
1528.468,655.63
1529.349,612.67
1530.230,622.00
1531.111,679.03
1531.991,637.53
1532.872,638.60
1533.752,665.83
1534.632,662.63
1535.513,677.40
1536.393,665.83
1537.273,679.23
1538.153,626.57
1539.032,628.50
1539.912,672.70
1540.792,661.67
1541.672,672.83
1542.551,671.90
1543.430,646.87
1544.310,684.63
1545.189,620.97
1546.068,642.57
1546.947,627.20
1547.826,675.90
1548.705,663.93
1549.584,652.07
1550.462,639.73
1551.341,648.73
1552.219,610.67
1553.098,656.70
1553.976,675.40
1554.854,665.80
1555.733,621.87
1556.611,667.57
1557.489,613.40
1558.367,693.70
1559.244,629.93
1560.122,615.70
1561.000,670.20
1561.877,647.23
1562.755,618.30
1563.632,615.63
1564.509,638.20
1565.386,669.90
1566.264,591.53
1567.141,621.57
1568.017,654.40
1568.894,625.53
1569.771,646.20
1570.648,674.00
1571.524,646.40
1572.401,629.80
1573.277,612.27
1574.153,625.53
1575.029,624.30
1575.906,676.13
1576.781,618.00
1577.657,580.97
1578.533,631.17
1579.409,656.87
1580.285,648.40
1581.160,621.43
1582.036,652.90
1582.911,612.67
1583.786,636.13
1584.662,623.80
1585.537,582.50
1586.412,622.93
1587.287,631.77
1588.160,592.77
1589.035,597.50
1589.909,634.97
1590.784,612.70
1591.658,612.57
1592.533,623.63
1593.407,624.57
1594.281,608.57
1595.155,671.70
1596.029,600.97
1596.903,566.53
1597.777,626.77
1598.651,605.70
1599.525,580.03
1600.398,617.67
1601.272,627.03
1602.144,659.17
1603.017,604.37
1603.890,645.27
1604.763,641.83
1605.636,612.63
1606.509,605.20
1607.382,564.73
1608.255,608.30
1609.128,611.77
1610.000,572.23
1610.873,603.40
1611.746,623.33
1612.616,560.13
1613.488,597.90
1614.361,614.23
1615.233,613.63
1616.105,622.40
1616.977,554.73
1617.849,612.53
1618.720,642.47
1619.592,633.90
1620.464,582.03
1621.333,635.03
1622.205,602.10
1623.076,585.87
1623.947,600.73
1624.818,629.40
1625.689,643.27
1626.560,614.57
1627.431,614.50
1628.302,614.60
1629.171,619.43
1630.042,650.93
1630.912,638.83
1631.782,609.73
1632.653,606.33
1633.523,594.57
1634.393,594.80
1635.263,590.97
1636.131,648.33
1637.001,549.10
1637.871,555.10
1638.741,593.33
1639.611,590.03
1640.480,619.03
1641.350,622.97
1642.219,585.27
1643.087,576.60
1643.956,622.07
1644.825,644.67
1645.694,580.20
1646.563,612.87
1647.432,567.87
1648.299,585.43
1649.167,634.17
1650.036,593.73
1650.904,597.40
1651.773,576.03
1652.641,602.17
1653.509,549.20
1654.376,579.17
1655.244,600.73
1656.112,600.27
1656.980,607.53
1657.847,575.87
1658.715,571.90
1659.581,585.30
1660.448,585.73
1661.316,561.87
1662.183,584.73
1663.051,580.57
1663.918,580.73
1664.783,576.47
1665.650,590.97
1666.517,600.73
1667.384,549.80
1668.251,561.50
1669.115,603.00
1669.982,568.50
1670.849,593.27
1671.715,580.00
1672.581,589.43
1673.446,589.30
1674.312,603.63
1675.178,596.57
1676.044,584.47
1676.910,591.30
1677.774,558.50
1678.639,509.07
1679.505,539.03
1680.370,582.67
1681.236,588.37
1682.099,557.77
1682.965,589.07
1683.830,589.70
1684.695,568.13
1685.560,549.80
1686.423,580.77
1687.288,563.37
1688.153,550.33
1689.017,586.30
1689.880,566.93
1690.745,559.27
1691.609,564.40
1692.473,540.40
1693.338,581.20
1694.200,583.70
1695.064,559.70
1695.928,560.57
1696.792,575.27
1697.654,599.43
1698.517,558.80
1699.381,571.23
1700.245,527.17
1701.106,578.30
1701.969,531.83
1702.833,538.20
1703.696,569.07
1704.557,592.57
1705.420,587.57
1706.283,564.67
1707.146,594.10
1708.007,558.13
1708.870,554.57
1709.732,534.43
1710.595,561.90
1711.455,551.23
1712.318,550.23
1713.180,555.37
1714.040,557.43
1714.902,591.70
1715.764,527.13
1716.626,547.53
1717.486,559.60
1718.348,558.73
1719.209,484.50
1720.071,525.80
1720.930,538.10
1721.792,535.07
1722.653,580.37
1723.512,540.67
1724.374,556.27
1725.234,545.10
1726.095,552.23
1726.954,590.63
1727.815,516.90
1728.676,542.07
1729.535,552.37
1730.395,536.53
1731.256,550.57
1732.114,521.73
1732.974,556.43
1733.834,544.33
1734.693,572.03
1735.553,533.60
1736.413,543.50
1737.272,531.90
1738.130,563.27
1738.990,590.23
1739.849,543.03
1740.707,599.50
1741.566,530.03
1742.426,542.00
1743.283,572.23
1744.142,540.40
1745.001,546.13
1745.858,562.03
1746.717,527.03
1747.576,573.63
1748.433,573.93
1749.292,541.00
1750.150,596.37
1751.007,532.70
1751.865,555.87
1752.723,536.93
1753.579,564.23
1754.438,521.23
1755.296,589.40
1756.152,526.73
1757.010,552.63
1757.865,553.77
1758.723,511.63
1759.581,544.30
1760.436,542.47
1761.294,592.27
1762.151,534.47
1763.006,497.43
1763.864,591.40
1764.721,555.77
1765.576,552.70
1766.433,536.60
1767.288,541.73
1768.144,535.67
1769.001,546.23
1769.856,536.33
1770.712,526.60
1771.568,532.53
1772.423,538.30
1773.279,542.47
1774.133,527.40
1774.989,577.00
1775.845,575.77
1776.699,498.93
1777.555,526.47
1778.409,578.60
1779.265,513.57
1780.120,541.43
1780.974,541.97
1781.829,500.97
1782.682,522.10
1783.538,529.23
1784.393,529.27
1785.246,554.97
1786.101,523.53
1786.954,527.23
1787.808,551.43
1788.661,553.93
1789.516,506.10
1790.370,529.80
1791.223,525.07
1792.077,547.10
1792.930,555.80
1793.784,532.30
1794.636,536.37
1795.490,547.67
1796.344,521.83
1797.196,540.40
1798.049,514.93
1798.901,510.10
1799.755,546.87
1800.606,496.57
1801.460,534.00
1802.311,581.17
1803.165,523.33
1804.018,476.97
1804.869,511.60
1805.722,505.13
1806.573,469.00
1807.426,517.40
1808.276,523.23
1809.129,520.10
1809.980,536.33
1810.832,573.67
1811.683,524.17
1812.535,540.87
1813.385,529.97
1814.237,548.10
1815.089,538.83
1815.940,543.07
1816.791,543.70
1817.641,488.27
1818.493,503.20
1819.343,549.50
1820.194,492.03
1821.044,570.53
1821.895,542.07
1822.745,515.70
1823.596,504.70
1824.445,564.40
1825.296,519.87
1826.145,515.83
1826.996,541.87
1827.845,487.40
1828.695,535.17
1829.544,558.63
1830.395,511.57
1831.243,481.23
1832.094,501.10
1832.942,539.80
1833.792,497.03
1834.640,532.13
1835.490,531.57
1836.338,519.80
1837.186,498.53
1838.036,490.33
1838.884,505.73
1839.733,549.67
1840.581,499.97
1841.430,482.43
1842.278,549.53
1843.127,541.30
1843.974,514.80
1844.823,512.83
1845.671,538.63
1846.519,484.87
1847.366,502.33
1848.213,494.70
1849.062,492.60
1849.909,516.90
1850.757,553.27
1851.604,531.63
1852.452,507.53
1853.298,504.10
1854.146,540.63
1854.993,472.77
1855.839,525.57
1856.687,533.60
1857.532,500.23
1858.380,479.03
1859.226,502.60
1860.073,504.43
1860.919,511.30
1861.765,503.77
1862.612,514.73
1863.457,515.97
1864.304,475.47
1865.150,500.53
1865.995,519.13
1866.842,548.77
1867.686,511.20
1868.533,523.80
1869.378,515.07
1870.223,559.80
1871.069,522.50
1871.914,502.73
1872.760,530.37
1873.604,504.17
1874.448,514.30
1875.294,543.40
1876.139,449.00
1876.984,498.27
1877.828,457.33
1878.672,482.50
1879.518,524.57
1880.361,495.47
1881.205,505.53
1882.050,497.93
1882.894,529.57
1883.739,460.80
1884.582,521.77
1885.425,482.43
1886.270,550.73
1887.113,457.83
1887.956,513.13
1888.801,512.27
1889.644,504.70
1890.486,479.07
1891.331,545.33
1892.173,517.40
1893.017,510.47
1893.860,485.50
1894.702,537.63
1895.546,479.03
1896.388,576.50
1897.230,540.90
1898.074,487.37
1898.916,496.03
1899.757,478.80
1900.601,517.33
1901.443,537.10
1902.284,517.80
1903.125,504.93
1903.969,557.87
1904.810,488.20
1905.651,519.50
1906.494,527.90
1907.335,525.13
1908.176,536.93
1909.018,489.90
1909.859,468.13
1910.700,478.50
1911.542,530.03
1912.383,478.00
1913.223,463.23
1914.064,466.23
1914.906,451.83
1915.746,512.47
1916.586,489.40
1917.428,519.00
1918.268,493.30
1919.107,514.23
1919.947,502.17
1920.789,491.30
1921.628,522.43
1922.468,467.53
1923.309,485.30
1924.148,507.03
1924.988,513.80
1925.827,491.83
1926.667,518.00
1927.507,512.17
1928.345,488.83
1929.184,513.33
1930.025,468.80
1930.864,513.97
1931.702,558.97
1932.541,501.50
1933.381,488.63
1934.219,468.40
1935.057,468.93
1935.896,461.53
1936.735,531.13
1937.573,499.73
1938.411,497.60
1939.249,485.77
1940.089,491.83
1940.927,500.50
1941.764,510.47
1942.602,473.40
1943.439,451.97
1944.278,518.17
1945.115,480.63
1945.953,502.77
1946.790,464.40
1947.628,476.43
1948.465,504.27
1949.302,513.83
1950.139,487.17
1950.976,466.53
1951.814,517.53
1952.651,470.80
1953.487,469.97
1954.323,492.57
1955.160,484.60
1955.998,523.70
1956.834,472.50
1957.670,502.53
1958.506,454.77
1959.342,445.37
1960.177,440.03
1961.015,505.07
1961.850,486.73
1962.686,492.23
1963.521,501.40
1964.357,468.90
1965.192,479.53
1966.029,499.97
1966.864,496.67
1967.699,533.87
1968.534,496.60
1969.369,500.60
1970.204,458.77
1971.040,483.10
1971.875,469.87
1972.709,486.30
1973.544,496.77
1974.378,459.70
1975.212,517.13
1976.047,490.37
1976.882,471.67
1977.716,497.37
1978.550,459.50
1979.384,445.90
1980.218,491.87
1981.052,447.53
1981.885,487.30
1982.719,478.00
1983.554,478.83
1984.388,476.50
1985.221,521.90
1986.054,516.43
1986.887,474.13
1987.720,457.30
1988.553,561.03
1989.386,483.40
1990.219,482.30
1991.053,504.60
1991.886,511.50
1992.719,497.30
1993.551,453.70
1994.383,477.93
1995.216,449.53
1996.048,460.97
1996.880,508.43
1997.712,475.07
1998.544,470.67
1999.376,478.87
2000.208,523.97
2000.208,523.97

Max Intensity Wave.,216.841
Max Intensity Data,6646.20
Min Intensity Wave.,1960.177
Min Intensity Data,440.03
FWHM Wave.,386.002
FWHM Value,28.86
Pressure Wave.,1123.205
Pressure Value [GPa],3847.77715
G/D Ratio,0.59678
G/D Gband Wave.,1558.417
G/D Gband Intensity,693.94
G/D Dband Wave.,1304.223
G/D Dband Intensity,1162.80

<< BACKGROUND SPECTRUM >>
Wave[dcm-1],No7
146.591,2346.00
147.626,2188.00
148.664,2150.00
149.699,2592.00
150.737,2327.00
151.772,2456.00
152.809,2437.00
153.846,2348.00
154.881,2456.00
155.918,2010.00
156.953,2320.00
157.989,2695.00
159.026,2545.00
160.060,2732.00
161.096,2929.00
162.130,2568.00
163.167,2666.00
164.200,2518.00
165.236,2745.00
166.272,2747.00
167.305,2368.00
168.341,2624.00
169.374,2833.00
170.409,2907.00
171.445,2790.00
172.477,2608.00
173.512,2480.00
174.545,2727.00
175.580,2951.00
176.614,3128.00
177.647,2900.00
178.681,3125.00
179.713,3439.00
180.747,2891.00
181.781,2776.00
182.813,3052.00
183.847,3163.00
184.878,2818.00
185.912,3079.00
186.945,3245.00
187.976,3145.00
189.010,2790.00
190.043,2932.00
191.073,3023.00
192.106,2810.00
193.137,3299.00
194.170,2608.00
195.202,3000.00
196.232,2759.00
197.265,3129.00
198.297,3135.00
199.327,2832.00
200.359,3053.00
201.388,3427.00
202.420,3007.00
203.452,3178.00
204.481,2705.00
205.512,3423.00
206.544,3202.00
207.573,3114.00
208.604,3552.00
209.635,3606.00
210.663,3039.00
211.694,3064.00
212.725,2976.00
213.753,2869.00
214.783,3477.00
215.813,3311.00
216.841,2989.00
217.871,3268.00
218.899,2999.00
219.929,3278.00
220.959,2931.00
221.986,3255.00
223.016,2808.00
224.045,3235.00
225.072,3192.00
226.101,3306.00
227.130,3315.00
228.157,2892.00
229.185,2387.00
230.214,3261.00
231.241,2904.00
232.269,2542.00
233.297,2780.00
234.323,3295.00
235.351,2887.00
236.379,3192.00
237.407,2808.00
238.433,3000.00
239.460,3190.00
240.488,3182.00
241.513,3312.00
242.540,3220.00
243.568,3297.00
244.592,3276.00
245.619,3273.00
246.646,3001.00
247.671,3028.00
248.697,2894.00
249.724,3057.00
250.748,3115.00
251.774,3091.00
252.801,3357.00
253.827,3196.00
254.850,3151.00
255.876,2727.00
256.902,3191.00
257.925,3094.00
258.951,2840.00
259.976,2863.00
260.999,3218.00
262.024,2843.00
263.049,3748.00
264.074,3153.00
265.097,3082.00
266.122,3181.00
267.146,3094.00
268.168,3301.00
269.193,2943.00
270.217,3293.00
271.241,2775.00
272.263,3021.00
273.287,3246.00
274.311,2818.00
275.332,3395.00
276.356,2954.00
277.379,3198.00
278.402,3261.00
279.424,3033.00
280.447,2958.00
281.470,2757.00
282.492,3185.00
283.513,2975.00
284.536,3254.00
285.558,3253.00
286.581,3214.00
287.601,2930.00
288.623,2854.00
289.645,3164.00
290.665,3215.00
291.687,3228.00
292.709,3197.00
293.730,3525.00
294.750,2992.00
295.771,2835.00
296.792,3141.00
297.813,3010.00
298.832,3146.00
299.853,2796.00
300.874,3114.00
301.895,3015.00
302.913,3029.00
303.934,3380.00
304.954,3153.00
305.975,4396.00
306.993,2834.00
308.013,3231.00
309.033,3108.00
310.052,3071.00
311.072,2965.00
312.090,3149.00
313.109,3414.00
314.129,3524.00
315.148,3130.00
316.165,3158.00
317.184,3371.00
318.203,2816.00
319.222,2804.00
320.238,3248.00
321.257,2888.00
322.275,2758.00
323.294,3053.00
324.312,3229.00
325.328,3325.00
326.346,3424.00
327.364,3329.00
328.382,3259.00
329.397,3183.00
330.415,3323.00
331.432,3316.00
332.450,3350.00
333.467,3571.00
334.482,2643.00
335.499,3490.00
336.516,2957.00
337.533,2637.00
338.547,2923.00
339.564,2950.00
340.580,3220.00
341.597,3022.00
342.613,3562.00
343.627,3035.00
344.643,3069.00
345.659,3173.00
346.675,3080.00
347.690,3004.00
348.704,3171.00
349.719,2982.00
350.735,2798.00
351.750,3260.00
352.765,3108.00
353.778,3050.00
354.793,3260.00
355.808,2900.00
356.822,3281.00
357.837,2725.00
358.851,3360.00
359.864,3017.00
360.878,2816.00
361.892,3042.00
362.906,3283.00
363.920,2668.00
364.932,3199.00
365.945,3180.00
366.959,3093.00
367.972,2982.00
368.986,2776.00
369.999,3471.00
371.010,2932.00
372.023,3439.00
373.036,3012.00
374.049,3452.00
375.061,3190.00
376.072,3061.00
377.084,2975.00
378.097,2777.00
379.109,3288.00
380.121,3080.00
381.133,2746.00
382.143,3218.00
383.155,2814.00
384.166,3021.00
385.178,3180.00
386.189,3293.00
387.201,2800.00
388.212,2984.00
389.221,2998.00
390.232,3080.00
391.243,2971.00
392.254,3136.00
393.264,2893.00
394.275,3312.00
395.283,3260.00
396.294,3742.00
397.304,3580.00
398.314,3195.00
399.324,3085.00
400.334,2701.00
401.344,3269.00
402.351,2701.00
403.361,3311.00
404.370,3058.00
405.380,2962.00
406.389,3414.00
407.398,3195.00
408.407,3175.00
409.414,3196.00
410.423,3440.00
411.431,2809.00
412.440,2731.00
413.448,3439.00
414.457,2916.00
415.465,2856.00
416.471,2955.00
417.479,3135.00
418.487,2922.00
419.495,3384.00
420.503,3220.00
421.510,2691.00
422.518,3231.00
423.525,3288.00
424.530,3473.00
425.537,2949.00
426.544,3318.00
427.551,2939.00
428.558,3685.00
429.565,3543.00
430.571,2946.00
431.578,3008.00
432.582,2955.00
433.588,3050.00
434.595,2699.00
435.601,3416.00
436.607,3328.00
437.612,2823.00
438.618,3388.00
439.624,2999.00
440.627,2992.00
441.633,3168.00
442.638,3711.00
443.643,3197.00
444.648,3091.00
445.653,3280.00
446.658,2945.00
447.663,3059.00
448.667,2947.00
449.672,2979.00
450.674,3081.00
451.678,2782.00
452.682,2935.00
453.687,2959.00
454.690,3726.00
455.694,3370.00
456.698,2596.00
457.702,2746.00
458.705,2871.00
459.709,2888.00
460.710,2933.00
461.713,3116.00
462.716,3168.00
463.719,3126.00
464.722,3268.00
465.725,3035.00
466.727,2885.00
467.730,3100.00
468.732,2857.00
469.735,3381.00
470.737,2971.00
471.737,2943.00
472.739,2997.00
473.741,2903.00
474.742,3167.00
475.744,3199.00
476.746,3130.00
477.747,3031.00
478.748,3287.00
479.750,3011.00
480.751,3054.00
481.752,3872.00
482.753,3142.00
483.751,3670.00
484.752,2707.00
485.753,3076.00
486.753,2977.00
487.753,3048.00
488.754,3485.00
489.754,2786.00
490.754,3404.00
491.754,3183.00
492.754,2765.00
493.753,3090.00
494.753,2957.00
495.752,3401.00
496.752,3142.00
497.749,3099.00
498.748,2937.00
499.747,3470.00
500.746,3175.00
501.745,2880.00
502.744,2842.00
503.742,3399.00
504.741,3004.00
505.739,2587.00
506.737,2984.00
507.735,3189.00
508.734,3426.00
509.732,3228.00
510.729,3458.00
511.727,2940.00
512.725,2995.00
513.720,2832.00
514.718,3329.00
515.715,2736.00
516.712,2692.00
517.709,3055.00
518.706,2933.00
519.703,3114.00
520.700,3261.00
521.696,3436.00
522.693,2994.00
523.689,2935.00
524.686,3245.00
525.682,2846.00
526.678,3556.00
527.674,2976.00
528.670,2658.00
529.666,3595.00
530.661,3568.00
531.657,3745.00
532.652,3237.00
533.648,3061.00
534.641,3286.00
535.636,3132.00
536.631,3158.00
537.626,3238.00
538.621,2815.00
539.616,2656.00
540.610,2597.00
541.605,3084.00
542.599,3152.00
543.593,3087.00
544.587,3981.00
545.581,2918.00
546.575,3128.00
547.569,3132.00
548.563,2762.00
549.557,2722.00
550.550,2861.00
551.543,2837.00
552.537,3233.00
553.530,2840.00
554.523,2833.00
555.516,3162.00
556.509,3034.00
557.502,2703.00
558.494,3288.00
559.487,2975.00
560.479,3292.00
561.472,3333.00
562.464,3210.00
563.456,3356.00
564.448,2998.00
565.440,3072.00
566.432,3483.00
567.423,2969.00
568.415,2928.00
569.404,3205.00
570.396,2896.00
571.387,3199.00
572.378,3078.00
573.369,4013.00
574.360,3782.00
575.351,2988.00
576.341,2907.00
577.332,2932.00
578.323,2743.00
579.313,2949.00
580.303,3365.00
581.293,3214.00
582.283,3061.00
583.273,3170.00
584.263,3074.00
585.253,3154.00
586.243,3264.00
587.232,2695.00
588.222,3053.00
589.211,3249.00
590.200,3132.00
591.189,3029.00
592.178,3043.00
593.167,3491.00
594.156,3323.00
595.145,2932.00
596.133,3523.00
597.122,3178.00
598.110,3290.00
599.098,3186.00
600.086,3129.00
601.074,3266.00
602.062,2933.00
603.050,2789.00
604.038,3204.00
605.025,2859.00
606.013,3284.00
607.000,3506.00
607.987,3070.00
608.975,3137.00
609.962,2815.00
610.949,3281.00
611.936,3357.00
612.922,3241.00
613.909,2763.00
614.895,3430.00
615.882,2927.00
616.868,3039.00
617.854,2826.00
618.841,3063.00
619.826,3216.00
620.812,3090.00
621.798,2818.00
622.784,3297.00
623.769,3155.00
624.755,2764.00
625.740,3148.00
626.725,2809.00
627.711,2958.00
628.698,3115.00
629.683,2877.00
630.667,3257.00
631.652,2822.00
632.637,3008.00
633.621,3223.00
634.606,2954.00
635.590,3226.00
636.574,2969.00
637.558,3120.00
638.542,3110.00
639.526,2932.00
640.510,2716.00
641.493,3070.00
642.477,3041.00
643.460,2764.00
644.444,3353.00
645.427,3340.00
646.410,2705.00
647.393,3027.00
648.376,3164.00
649.359,2958.00
650.341,3176.00
651.324,3178.00
652.307,3079.00
653.289,3000.00
654.271,2912.00
655.253,2965.00
656.235,3181.00
657.217,3299.00
658.199,2701.00
659.181,2816.00
660.163,3078.00
661.144,2931.00
662.126,2963.00
663.107,2859.00
664.088,4844.00
665.069,3300.00
666.050,2862.00
667.033,2762.00
668.014,3131.00
668.995,2648.00
669.975,3053.00
670.956,3045.00
671.936,3204.00
672.916,3030.00
673.896,3200.00
674.876,2983.00
675.856,2919.00
676.836,2796.00
677.816,2372.00
678.795,2916.00
679.775,2790.00
680.754,3122.00
681.734,3232.00
682.713,3240.00
683.692,2857.00
684.671,2673.00
685.650,2848.00
686.629,2893.00
687.607,2817.00
688.586,2807.00
689.564,2914.00
690.543,3316.00
691.523,2442.00
692.501,2894.00
693.479,2983.00
694.457,2852.00
695.435,2952.00
696.413,2760.00
697.390,2545.00
698.368,2759.00
699.345,3160.00
700.322,3005.00
701.300,3136.00
702.277,3095.00
703.254,3354.00
704.231,2629.00
705.207,3002.00
706.184,2825.00
707.161,2734.00
708.137,2884.00
709.113,2863.00
710.090,2845.00
711.068,2650.00
712.044,2665.00
713.020,2941.00
713.996,2671.00
714.971,2846.00
715.947,2912.00
716.922,2862.00
717.898,2802.00
718.873,2939.00
719.848,2833.00
720.823,2789.00
721.798,3053.00
722.773,2829.00
723.748,2574.00
724.723,3055.00
725.697,2922.00
726.672,2782.00
727.646,2570.00
728.622,3056.00
729.596,2683.00
730.570,2816.00
731.544,3145.00
732.518,3336.00
733.492,2864.00
734.466,2915.00
735.439,3053.00
736.413,3210.00
737.386,2521.00
738.359,2485.00
739.332,2591.00
740.305,2958.00
741.278,3368.00
742.251,2946.00
743.224,2758.00
744.196,2622.00
745.171,3212.00
746.143,3100.00
747.115,2836.00
748.087,2769.00
749.059,3148.00
750.031,2981.00
751.003,3752.00
751.975,3349.00
752.947,2754.00
753.918,3164.00
754.890,2634.00
755.861,2864.00
756.832,3083.00
757.803,2885.00
758.774,2908.00
759.747,2689.00
760.718,3292.00
761.689,2786.00
762.659,2667.00
763.630,3196.00
764.600,2607.00
765.570,3140.00
766.540,3177.00
767.510,3014.00
768.480,3105.00
769.450,2762.00
770.420,2877.00
771.390,2722.00
772.359,2824.00
773.329,2710.00
774.300,2580.00
775.269,2835.00
776.238,3080.00
777.207,3245.00
778.176,2552.00
779.145,2825.00
780.114,2742.00
781.083,2656.00
782.051,2807.00
783.019,2753.00
783.988,3146.00
784.956,2904.00
785.924,3024.00
786.894,2970.00
787.862,2731.00
788.830,3156.00
789.797,2705.00
790.765,2625.00
791.732,2829.00
792.700,2719.00
793.667,2612.00
794.634,2795.00
795.601,2842.00
796.568,2835.00
797.535,2898.00
798.502,3497.00
799.468,2995.00
800.437,2489.00
801.403,2687.00
802.370,3356.00
803.336,3031.00
804.302,2954.00
805.268,2467.00
806.234,2587.00
807.200,2780.00
808.166,2822.00
809.131,2636.00
810.097,3019.00
811.062,3703.00
812.027,3108.00
812.994,2700.00
813.960,2665.00
814.925,3022.00
815.889,2578.00
816.854,3097.00
817.819,2681.00
818.783,2810.00
819.748,3128.00
820.712,2837.00
821.677,2683.00
822.641,2750.00
823.605,2781.00
824.571,3245.00
825.534,2866.00
826.498,2750.00
827.462,2877.00
828.425,2667.00
829.389,3110.00
830.352,2873.00
831.315,2968.00
832.279,2555.00
833.242,2794.00
834.204,2708.00
835.167,2727.00
836.132,3129.00
837.095,2539.00
838.057,2741.00
839.020,2868.00
839.982,2878.00
840.944,2711.00
841.906,2682.00
842.868,3027.00
843.830,2612.00
844.792,3112.00
845.753,2711.00
846.715,2481.00
847.679,2630.00
848.640,2661.00
849.601,2804.00
850.562,3319.00
851.523,2763.00
852.484,2512.00
853.445,3030.00
854.406,2769.00
855.367,2791.00
856.327,3146.00
857.288,2536.00
858.248,2704.00
859.210,2766.00
860.170,2542.00
861.130,3068.00
862.090,2452.00
863.050,2657.00
864.010,2717.00
864.969,2988.00
865.929,2688.00
866.888,2585.00
867.848,2895.00
868.807,2683.00
869.766,2925.00
870.727,2765.00
871.686,3066.00
872.645,3083.00
873.604,3362.00
874.562,2814.00
875.521,2847.00
876.479,3429.00
877.437,2663.00
878.396,2637.00
879.354,3229.00
880.312,2646.00
881.270,2706.00
882.229,3170.00
883.187,2683.00
884.145,2731.00
885.102,2985.00
886.059,2884.00
887.017,2981.00
887.974,3007.00
888.931,3147.00
889.888,2590.00
890.845,2477.00
891.802,2403.00
892.758,2718.00
893.717,2491.00
894.673,2605.00
895.630,2659.00
896.586,2931.00
897.542,2720.00
898.498,2582.00
899.454,2875.00
900.410,2710.00
901.366,2738.00
902.321,2669.00
903.277,2736.00
904.232,2815.00
905.189,2528.00
906.145,2689.00
907.100,2271.00
908.055,2756.00
909.010,3015.00
909.965,2396.00
910.919,2854.00
911.874,2607.00
912.828,2796.00
913.783,2827.00
914.737,2409.00
915.693,2800.00
916.648,2922.00
917.602,2973.00
918.555,2850.00
919.509,2906.00
920.463,2801.00
921.417,2809.00
922.370,2615.00
923.324,2717.00
924.277,2712.00
925.230,2822.00
926.183,2439.00
927.138,2743.00
928.091,3014.00
929.044,2888.00
929.996,2701.00
930.949,2678.00
931.902,2867.00
932.854,2909.00
933.806,2633.00
934.758,3014.00
935.711,3053.00
936.663,2826.00
937.614,2882.00
938.568,2799.00
939.520,2445.00
940.471,2783.00
941.423,2849.00
942.374,2944.00
943.326,2830.00
944.277,2639.00
945.228,2914.00
946.179,2730.00
947.130,3089.00
948.080,2709.00
949.031,2619.00
949.984,2697.00
950.934,2773.00
951.884,2506.00
952.835,2770.00
953.785,2803.00
954.735,2679.00
955.685,2406.00
956.635,2669.00
957.585,2681.00
958.534,2679.00
959.484,2799.00
960.433,2664.00
961.383,2498.00
962.334,3031.00
963.283,2866.00
964.232,2918.00
965.181,2713.00
966.130,2817.00
967.079,2651.00
968.027,2793.00
968.976,2756.00
969.924,2670.00
970.873,2875.00
971.821,2758.00
972.769,3010.00
973.719,2913.00
974.667,2524.00
975.615,2771.00
976.562,2768.00
977.510,2488.00
978.458,2679.00
979.405,2865.00
980.352,2814.00
981.300,3005.00
982.247,2813.00
983.194,2562.00
984.141,2654.00
985.088,2780.00
986.036,2838.00
986.983,3039.00
987.930,3153.00
988.876,2420.00
989.822,2973.00
990.769,2585.00
991.715,2638.00
992.661,2478.00
993.607,2876.00
994.553,3346.00
995.498,2659.00
996.444,2317.00
997.389,2876.00
998.337,2536.00
999.282,2945.00
1000.227,2671.00
1001.173,2735.00
1002.118,2513.00
1003.062,2949.00
1004.007,2718.00
1004.952,3071.00
1005.897,2979.00
1006.841,2755.00
1007.786,2494.00
1008.730,2488.00
1009.674,3254.00
1010.618,2658.00
1011.564,2534.00
1012.508,2433.00
1013.452,3004.00
1014.396,2784.00
1015.339,2688.00
1016.283,2757.00
1017.226,2811.00
1018.170,2773.00
1019.113,2945.00
1020.056,2797.00
1020.999,2754.00
1021.942,2682.00
1022.885,2927.00
1023.828,3066.00
1024.770,2530.00
1025.715,2797.00
1026.657,2744.00
1027.600,2815.00
1028.542,2981.00
1029.484,2812.00
1030.426,2883.00
1031.368,2844.00
1032.310,2635.00
1033.251,2594.00
1034.193,2749.00
1035.135,2538.00
1036.076,2692.00
1037.017,2550.00
1037.959,2861.00
1038.900,2807.00
1039.843,2824.00
1040.784,2793.00
1041.725,2877.00
1042.665,2714.00
1043.606,2795.00
1044.547,2784.00
1045.487,2403.00
1046.427,2711.00
1047.368,2865.00
1048.308,2270.00
1049.248,2577.00
1050.188,2766.00
1051.128,2678.00
1052.067,2723.00
1053.007,2445.00
1053.947,2430.00
1054.886,2628.00
1055.827,2525.00
1056.766,2991.00
1057.706,2490.00
1058.645,2676.00
1059.584,2808.00
1060.522,3011.00
1061.461,2498.00
1062.400,2556.00
1063.338,2672.00
1064.277,2528.00
1065.215,2534.00
1066.154,2437.00
1067.092,2588.00
1068.030,2685.00
1068.968,2937.00
1069.906,3048.00
1070.843,3031.00
1071.781,2760.00
1072.720,2862.00
1073.658,2874.00
1074.595,2649.00
1075.533,2606.00
1076.470,2608.00
1077.407,3016.00
1078.344,2817.00
1079.281,2854.00
1080.217,2344.00
1081.154,2708.00
1082.091,2797.00
1083.027,2495.00
1083.964,2968.00
1084.900,2588.00
1085.836,2660.00
1086.772,2939.00
1087.708,2495.00
1088.644,2873.00
1089.580,2729.00
1090.515,2796.00
1091.451,2643.00
1092.388,2795.00
1093.324,2511.00
1094.259,3331.00
1095.194,2816.00
1096.129,2650.00
1097.064,2638.00
1097.999,2850.00
1098.934,2591.00
1099.869,2621.00
1100.803,2749.00
1101.738,2761.00
1102.672,2452.00
1103.607,2834.00
1104.541,2582.00
1105.475,2590.00
1106.409,2454.00
1107.343,2677.00
1108.277,2457.00
1109.210,2785.00
1110.144,2693.00
1111.078,2701.00
1112.011,2499.00
1112.944,2819.00
1113.878,2782.00
1114.811,2199.00
1115.744,2643.00
1116.678,2366.00
1117.611,2595.00
1118.544,2644.00
1119.477,2807.00
1120.409,2594.00
1121.342,3197.00
1122.274,2803.00
1123.206,3120.00
1124.138,2731.00
1125.070,2997.00
1126.002,2899.00
1126.934,2334.00
1127.866,2612.00
1128.798,2390.00
1129.729,2399.00
1130.661,2734.00
1131.592,2612.00
1132.523,2769.00
1133.454,2832.00
1134.385,2346.00
1135.317,2685.00
1136.247,2640.00
1137.178,2879.00
1138.109,2389.00
1139.039,3036.00
1139.970,2878.00
1140.900,2613.00
1141.831,2391.00
1142.761,2286.00
1143.691,3324.00
1144.621,2665.00
1145.551,2726.00
1146.480,2715.00
1147.410,2909.00
1148.340,2356.00
1149.269,2411.00
1150.199,2660.00
1151.128,3087.00
1152.057,2522.00
1152.979,2660.00
1153.898,2670.00
1154.819,2785.00
1155.739,2658.00
1156.658,2661.00
1157.579,2708.00
1158.498,2692.00
1159.419,2222.00
1160.338,2760.00
1161.256,2698.00
1162.177,2537.00
1163.095,2665.00
1164.016,2740.00
1164.934,2929.00
1165.852,2880.00
1166.772,2675.00
1167.690,2667.00
1168.610,2733.00
1169.528,2687.00
1170.446,2209.00
1171.365,2586.00
1172.283,2543.00
1173.202,2678.00
1174.120,2766.00
1175.037,2498.00
1175.956,2509.00
1176.873,2563.00
1177.792,2572.00
1178.709,3156.00
1179.626,2597.00
1180.544,2911.00
1181.461,2559.00
1182.379,2752.00
1183.296,2688.00
1184.212,2314.00
1185.130,2510.00
1186.046,3026.00
1186.962,2677.00
1187.880,2992.00
1188.796,2729.00
1189.714,2469.00
1190.629,2836.00
1191.545,2763.00
1192.462,2649.00
1193.378,2626.00
1194.295,2378.00
1195.210,2693.00
1196.125,2811.00
1197.042,2767.00
1197.957,2700.00
1198.872,2545.00
1199.788,2567.00
1200.703,2991.00
1201.619,2690.00
1202.534,2509.00
1203.448,2775.00
1204.364,2622.00
1205.278,2342.00
1206.192,2720.00
1207.108,3183.00
1208.022,3047.00
1208.938,2501.00
1209.851,2853.00
1210.765,2908.00
1211.680,2583.00
1212.594,2435.00
1213.507,2631.00
1214.422,3071.00
1215.335,2785.00
1216.248,2586.00
1217.163,2694.00
1218.076,3279.00
1218.990,2806.00
1219.903,2478.00
1220.816,2500.00
1221.730,2632.00
1222.642,2566.00
1223.554,2604.00
1224.469,2757.00
1225.380,2620.00
1226.292,2308.00
1227.206,2776.00
1228.118,3013.00
1229.032,2307.00
1229.943,2504.00
1230.855,2621.00
1231.768,2421.00
1232.679,2754.00
1233.590,2626.00
1234.503,2889.00
1235.414,2554.00
1236.325,2546.00
1237.238,2781.00
1238.149,2764.00
1239.059,2479.00
1239.972,2852.00
1240.882,2448.00
1241.793,2842.00
1242.705,3057.00
1243.615,2647.00
1244.525,2781.00
1245.437,2232.00
1246.347,2732.00
1247.259,2819.00
1248.168,3103.00
1249.078,2935.00
1249.989,2980.00
1250.899,2469.00
1251.808,2547.00
1252.719,2603.00
1253.628,2555.00
1254.537,3057.00
1255.448,2498.00
1256.357,2510.00
1257.266,2671.00
1258.176,2427.00
1259.085,2387.00
1259.993,2485.00
1260.904,2500.00
1261.812,2531.00
1262.720,3202.00
1263.630,2867.00
1264.538,2526.00
1265.446,2780.00
1266.356,2675.00
1267.263,2956.00
1268.171,2499.00
1269.080,2780.00
1269.988,2816.00
1270.895,2591.00
1271.804,2628.00
1272.711,2891.00
1273.619,2809.00
1274.527,2532.00
1275.434,2783.00
1276.341,2477.00
1277.248,2718.00
1278.156,2966.00
1279.063,2572.00
1279.969,2762.00
1280.877,3554.00
1281.783,2856.00
1282.690,2780.00
1283.598,2633.00
1284.503,2496.00
1285.409,2493.00
1286.317,3021.00
1287.223,3073.00
1288.128,2746.00
1289.036,2541.00
1289.941,2618.00
1290.846,2690.00
1291.751,2514.00
1292.658,2609.00
1293.563,3114.00
1294.468,2669.00
1295.375,2865.00
1296.280,2924.00
1297.184,3410.00
1298.091,2793.00
1298.995,2806.00
1299.900,3075.00
1300.806,2568.00
1301.710,2433.00
1302.614,2278.00
1303.518,2921.00
1304.424,2590.00
1305.327,2873.00
1306.231,2647.00
1307.137,2833.00
1308.040,2755.00
1308.943,2721.00
1309.847,2875.00
1310.752,2858.00
1311.655,2331.00
1312.558,2462.00
1313.463,2603.00
1314.366,2570.00
1315.269,2764.00
1316.171,2706.00
1317.076,2548.00
1317.978,2522.00
1318.881,2281.00
1319.785,2545.00
1320.687,2520.00
1321.589,2304.00
1322.491,2497.00
1323.395,2735.00
1324.297,3238.00
1325.198,2836.00
1326.102,2505.00
1327.004,2519.00
1327.905,3042.00
1328.806,2661.00
1329.709,2761.00
1330.611,2598.00
1331.512,2507.00
1332.413,3177.00
1333.316,2711.00
1334.216,2847.00
1335.117,2436.00
1336.020,2707.00
1336.920,2714.00
1337.821,2567.00
1338.721,2962.00
1339.623,2725.00
1340.523,2630.00
1341.423,2556.00
1342.323,2935.00
1343.225,2753.00
1344.125,2515.00
1345.025,2521.00
1345.924,2341.00
1346.826,3042.00
1347.725,3102.00
1348.624,2911.00
1349.524,2550.00
1350.425,2663.00
1351.324,2769.00
1352.223,2844.00
1353.121,2622.00
1354.022,2885.00
1354.921,3106.00
1355.819,2822.00
1356.718,2745.00
1357.618,2385.00
1358.516,2786.00
1359.415,3080.00
1360.313,2745.00
1361.213,2651.00
1362.111,2958.00
1363.008,3344.00
1363.906,2656.00
1364.806,2686.00
1365.703,2786.00
1366.601,2492.00
1367.498,2480.00
1368.397,2868.00
1369.295,2689.00
1370.192,2485.00
1371.089,2748.00
1371.987,2672.00
1372.884,2933.00
1373.781,2482.00
1374.678,2663.00
1375.574,2520.00
1376.473,2776.00
1377.369,2886.00
1378.265,2521.00
1379.161,2650.00
1380.059,2340.00
1380.955,2784.00
1381.851,2517.00
1382.747,2542.00
1383.643,2620.00
1384.540,2488.00
1385.436,2573.00
1386.331,2743.00
1387.227,2841.00
1388.124,2788.00
1389.019,2508.00
1389.914,2690.00
1390.809,2299.00
1391.704,3162.00
1392.601,2632.00
1393.495,2972.00
1394.390,2869.00
1395.285,2966.00
1396.179,2745.00
1397.075,2669.00
1397.969,2749.00
1398.864,2366.00
1399.758,2624.00
1400.652,2743.00
1401.547,2507.00
1402.441,2427.00
1403.335,3044.00
1404.229,2705.00
1405.122,2762.00
1406.017,2659.00
1406.911,2834.00
1407.804,3144.00
1408.697,2671.00
1409.590,2528.00
1410.485,2895.00
1411.378,2752.00
1412.271,2365.00
1413.163,2759.00
1414.056,2845.00
1414.949,3018.00
1415.843,2728.00
1416.735,2651.00
1417.627,2707.00
1418.520,2666.00
1419.412,2925.00
1420.306,2849.00
1421.197,2935.00
1422.089,2906.00
1422.981,3173.00
1423.873,2883.00
1424.764,2834.00
1425.657,2722.00
1426.549,2825.00
1427.440,2907.00
1428.331,2594.00
1429.222,2376.00
1430.113,2744.00
1431.006,2870.00
1431.897,2591.00
1432.787,2688.00
1433.678,2637.00
1434.568,2493.00
1435.459,2936.00
1436.351,2879.00
1437.241,2832.00
1438.131,2839.00
1439.021,2447.00
1439.911,2664.00
1440.801,2790.00
1441.693,2929.00
1442.583,2718.00
1443.472,2682.00
1444.362,2788.00
1445.251,2636.00
1446.140,2598.00
1447.030,2873.00
1447.921,2901.00
1448.810,2512.00
1449.699,3041.00
1450.588,2732.00
1451.476,2619.00
1452.365,2762.00
1453.254,2577.00
1454.144,2583.00
1455.032,2805.00
1455.921,2439.00
1456.809,2985.00
1457.697,2494.00
1458.585,2655.00
1459.473,2634.00
1460.361,2526.00
1461.251,2799.00
1462.138,2785.00
1463.026,2699.00
1463.913,2957.00
1464.801,2628.00
1465.688,2774.00
1466.575,2698.00
1467.463,3151.00
1468.351,2523.00
1469.238,2668.00
1470.125,2301.00
1471.012,2712.00
1471.899,2802.00
1472.785,2530.00
1473.672,2676.00
1474.558,2875.00
1475.446,2860.00
1476.333,2832.00
1477.219,2513.00
1478.105,2668.00
1478.991,2686.00
1479.877,3012.00
1480.762,2700.00
1481.648,2527.00
1482.534,2833.00
1483.419,2796.00
1484.307,2801.00
1485.192,2701.00
1486.077,2566.00
1486.962,2566.00
1487.847,2428.00
1488.732,2539.00
1489.617,2742.00
1490.502,2980.00
1491.387,2808.00
1492.271,2544.00
1493.156,2571.00
1494.042,2485.00
1494.927,2933.00
1495.811,2584.00
1496.695,2833.00
1497.579,2990.00
1498.463,2735.00
1499.347,2747.00
1500.231,2701.00
1501.114,2774.00
1501.998,3004.00
1502.881,2782.00
1503.765,2990.00
1504.648,3098.00
1505.533,2841.00
1506.417,2696.00
1507.300,2688.00
1508.183,2772.00
1509.066,2209.00
1509.948,2927.00
1510.831,3052.00
1511.714,2468.00
1512.596,2840.00
1513.479,2971.00
1514.361,2867.00
1515.243,2772.00
1516.125,2881.00
1517.008,2973.00
1517.890,2659.00
1518.771,2759.00
1519.655,2936.00
1520.537,2679.00
1521.419,2547.00
1522.300,2746.00
1523.182,2854.00
1524.063,2820.00
1524.944,3003.00
1525.825,2923.00
1526.707,2561.00
1527.588,2485.00
1528.468,2816.00
1529.349,2410.00
1530.230,2670.00
1531.111,2878.00
1531.991,2794.00
1532.872,2429.00
1533.752,2677.00
1534.632,2565.00
1535.513,2557.00
1536.393,2877.00
1537.273,3018.00
1538.153,3399.00
1539.032,2467.00
1539.912,2666.00
1540.792,2719.00
1541.672,2720.00
1542.551,2810.00
1543.430,3339.00
1544.310,2721.00
1545.189,2635.00
1546.068,3172.00
1546.947,2845.00
1547.826,3023.00
1548.705,2694.00
1549.584,2951.00
1550.462,2676.00
1551.341,2887.00
1552.219,2814.00
1553.098,2861.00
1553.976,2922.00
1554.854,3128.00
1555.733,2959.00
1556.611,2608.00
1557.489,2538.00
1558.367,2673.00
1559.244,2901.00
1560.122,2730.00
1561.000,2765.00
1561.877,3020.00
1562.755,2606.00
1563.632,2706.00
1564.509,2997.00
1565.386,3074.00
1566.264,2512.00
1567.141,2337.00
1568.017,2861.00
1568.894,2722.00
1569.771,2765.00
1570.648,2800.00
1571.524,2734.00
1572.401,2462.00
1573.277,2508.00
1574.153,2783.00
1575.029,2584.00
1575.906,3445.00
1576.781,2908.00
1577.657,2708.00
1578.533,2970.00
1579.409,2313.00
1580.285,2662.00
1581.160,3168.00
1582.036,2884.00
1582.911,2544.00
1583.786,3079.00
1584.662,2513.00
1585.537,2721.00
1586.412,2761.00
1587.287,2536.00
1588.160,2942.00
1589.035,2375.00
1589.909,2738.00
1590.784,2687.00
1591.658,2517.00
1592.533,2777.00
1593.407,2730.00
1594.281,2624.00
1595.155,3098.00
1596.029,2654.00
1596.903,2711.00
1597.777,2628.00
1598.651,3001.00
1599.525,2436.00
1600.398,2761.00
1601.272,2667.00
1602.144,3257.00
1603.017,2686.00
1603.890,2952.00
1604.763,2790.00
1605.636,2874.00
1606.509,2422.00
1607.382,2596.00
1608.255,2800.00
1609.128,2957.00
1610.000,2717.00
1610.873,2412.00
1611.746,2604.00
1612.616,2689.00
1613.488,2306.00
1614.361,2714.00
1615.233,2680.00
1616.105,2933.00
1616.977,2671.00
1617.849,2541.00
1618.720,3021.00
1619.592,3020.00
1620.464,2839.00
1621.333,3198.00
1622.205,2722.00
1623.076,2711.00
1623.947,2720.00
1624.818,2959.00
1625.689,2820.00
1626.560,2625.00
1627.431,2758.00
1628.302,3149.00
1629.171,2842.00
1630.042,3009.00
1630.912,3719.00
1631.782,3320.00
1632.653,2514.00
1633.523,2908.00
1634.393,2982.00
1635.263,2595.00
1636.131,2661.00
1637.001,2689.00
1637.871,2381.00
1638.741,2341.00
1639.611,2467.00
1640.480,2823.00
1641.350,2558.00
1642.219,2551.00
1643.087,2222.00
1643.956,3159.00
1644.825,2943.00
1645.694,2965.00
1646.563,2887.00
1647.432,2788.00
1648.299,2759.00
1649.167,2834.00
1650.036,2534.00
1650.904,2858.00
1651.773,2980.00
1652.641,2734.00
1653.509,2961.00
1654.376,2597.00
1655.244,2757.00
1656.112,2768.00
1656.980,2733.00
1657.847,2599.00
1658.715,2934.00
1659.581,2631.00
1660.448,2977.00
1661.316,2234.00
1662.183,2779.00
1663.051,2780.00
1663.918,2770.00
1664.783,2762.00
1665.650,2816.00
1666.517,2898.00
1667.384,2784.00
1668.251,2792.00
1669.115,2957.00
1669.982,2700.00
1670.849,3017.00
1671.715,2716.00
1672.581,2869.00
1673.446,2862.00
1674.312,2741.00
1675.178,3159.00
1676.044,2832.00
1676.910,2811.00
1677.774,2804.00
1678.639,2446.00
1679.505,2763.00
1680.370,2881.00
1681.236,3402.00
1682.099,2705.00
1682.965,2756.00
1683.830,2302.00
1684.695,2554.00
1685.560,2685.00
1686.423,2875.00
1687.288,2877.00
1688.153,2816.00
1689.017,2652.00
1689.880,2818.00
1690.745,2922.00
1691.609,2567.00
1692.473,2932.00
1693.338,2957.00
1694.200,3017.00
1695.064,2765.00
1695.928,2643.00
1696.792,2741.00
1697.654,3242.00
1698.517,2791.00
1699.381,2482.00
1700.245,2415.00
1701.106,3055.00
1701.969,2660.00
1702.833,2934.00
1703.696,2645.00
1704.557,2683.00
1705.420,2583.00
1706.283,2764.00
1707.146,2865.00
1708.007,2547.00
1708.870,2538.00
1709.732,2430.00
1710.595,2632.00
1711.455,2487.00
1712.318,2675.00
1713.180,3032.00
1714.040,2792.00
1714.902,2901.00
1715.764,2782.00
1716.626,2526.00
1717.486,2737.00
1718.348,3028.00
1719.209,4867.00
1720.071,2421.00
1720.930,2493.00
1721.792,2607.00
1722.653,2557.00
1723.512,2650.00
1724.374,2694.00
1725.234,2823.00
1726.095,2774.00
1726.954,2714.00
1727.815,2924.00
1728.676,2756.00
1729.535,2986.00
1730.395,2737.00
1731.256,2657.00
1732.114,2845.00
1732.974,2189.00
1733.834,3141.00
1734.693,2902.00
1735.553,2794.00
1736.413,3191.00
1737.272,2643.00
1738.130,2667.00
1738.990,2785.00
1739.849,2644.00
1740.707,3755.00
1741.566,2803.00
1742.426,2798.00
1743.283,3151.00
1744.142,2645.00
1745.001,2403.00
1745.858,2930.00
1746.717,2853.00
1747.576,2834.00
1748.433,2891.00
1749.292,3394.00
1750.150,3365.00
1751.007,2970.00
1751.865,2960.00
1752.723,2775.00
1753.579,2648.00
1754.438,3014.00
1755.296,2949.00
1756.152,2313.00
1757.010,2403.00
1757.865,2961.00
1758.723,2421.00
1759.581,3091.00
1760.436,2735.00
1761.294,3094.00
1762.151,2739.00
1763.006,2715.00
1763.864,2335.00
1764.721,2947.00
1765.576,2793.00
1766.433,2923.00
1767.288,2638.00
1768.144,2823.00
1769.001,2698.00
1769.856,2850.00
1770.712,2998.00
1771.568,2540.00
1772.423,2647.00
1773.279,2661.00
1774.133,2660.00
1774.989,3136.00
1775.845,3124.00
1776.699,3046.00
1777.555,2742.00
1778.409,3276.00
1779.265,2728.00
1780.120,2700.00
1780.974,2728.00
1781.829,2372.00
1782.682,2833.00
1783.538,2576.00
1784.393,2808.00
1785.246,2621.00
1786.101,2872.00
1786.954,2910.00
1787.808,2965.00
1788.661,2429.00
1789.516,2682.00
1790.370,2688.00
1791.223,2972.00
1792.077,2735.00
1792.930,2835.00
1793.784,2624.00
1794.636,2773.00
1795.490,2704.00
1796.344,2795.00
1797.196,2734.00
1798.049,2941.00
1798.901,2658.00
1799.755,3001.00
1800.606,2578.00
1801.460,3309.00
1802.311,3034.00
1803.165,3201.00
1804.018,3179.00
1804.869,2869.00
1805.722,3266.00
1806.573,2857.00
1807.426,2590.00
1808.276,2747.00
1809.129,2659.00
1809.980,2964.00
1810.832,3022.00
1811.683,2684.00
1812.535,3107.00
1813.385,2686.00
1814.237,3024.00
1815.089,2788.00
1815.940,3044.00
1816.791,2687.00
1817.641,2652.00
1818.493,2945.00
1819.343,2809.00
1820.194,2645.00
1821.044,2835.00
1821.895,2980.00
1822.745,2483.00
1823.596,2666.00
1824.445,3162.00
1825.296,2883.00
1826.145,2728.00
1826.996,2955.00
1827.845,2845.00
1828.695,2817.00
1829.544,2723.00
1830.395,2821.00
1831.243,2714.00
1832.094,2518.00
1832.942,3390.00
1833.792,2922.00
1834.640,2831.00
1835.490,2765.00
1836.338,2845.00
1837.186,2676.00
1838.036,2645.00
1838.884,2774.00
1839.733,3082.00
1840.581,2987.00
1841.430,2928.00
1842.278,3094.00
1843.127,2632.00
1843.974,2436.00
1844.823,3227.00
1845.671,2929.00
1846.519,2812.00
1847.366,2852.00
1848.213,2409.00
1849.062,2602.00
1849.909,2486.00
1850.757,3429.00
1851.604,2868.00
1852.452,2691.00
1853.298,2984.00
1854.146,2793.00
1854.993,2850.00
1855.839,3304.00
1856.687,2867.00
1857.532,2908.00
1858.380,2807.00
1859.226,2861.00
1860.073,2905.00
1860.919,2598.00
1861.765,2669.00
1862.612,3022.00
1863.457,3011.00
1864.304,2762.00
1865.150,2913.00
1865.995,2731.00
1866.842,2860.00
1867.686,3026.00
1868.533,2848.00
1869.378,2830.00
1870.223,2743.00
1871.069,2669.00
1871.914,2812.00
1872.760,2748.00
1873.604,2557.00
1874.448,2927.00
1875.294,2934.00
1876.139,2704.00
1876.984,2912.00
1877.828,2474.00
1878.672,2291.00
1879.518,2628.00
1880.361,2984.00
1881.205,2949.00
1882.050,2589.00
1882.894,3298.00
1883.739,2688.00
1884.582,2505.00
1885.425,2615.00
1886.270,3002.00
1887.113,2549.00
1887.956,2888.00
1888.801,2827.00
1889.644,2586.00
1890.486,2381.00
1891.331,2651.00
1892.173,2812.00
1893.017,2842.00
1893.860,3096.00
1894.702,3066.00
1895.546,2822.00
1896.388,3437.00
1897.230,3121.00
1898.074,2681.00
1898.916,2572.00
1899.757,2621.00
1900.601,3478.00
1901.443,3059.00
1902.284,3091.00
1903.125,3280.00
1903.969,2946.00
1904.810,3048.00
1905.651,2862.00
1906.494,3094.00
1907.335,3237.00
1908.176,2880.00
1909.018,2893.00
1909.859,2785.00
1910.700,2665.00
1911.542,3331.00
1912.383,2881.00
1913.223,2426.00
1914.064,2970.00
1914.906,3122.00
1915.746,3135.00
1916.586,3287.00
1917.428,2756.00
1918.268,2833.00
1919.107,2661.00
1919.947,2523.00
1920.789,2719.00
1921.628,3020.00
1922.468,2811.00
1923.309,2635.00
1924.148,3115.00
1924.988,2862.00
1925.827,2780.00
1926.667,2646.00
1927.507,2827.00
1928.345,2634.00
1929.184,2953.00
1930.025,2625.00
1930.864,3044.00
1931.702,3055.00
1932.541,2697.00
1933.381,2946.00
1934.219,2998.00
1935.057,3124.00
1935.896,2523.00
1936.735,2726.00
1937.573,2680.00
1938.411,2584.00
1939.249,2980.00
1940.089,2678.00
1940.927,3060.00
1941.764,3088.00
1942.602,2733.00
1943.439,2720.00
1944.278,2740.00
1945.115,2737.00
1945.953,2521.00
1946.790,2903.00
1947.628,3184.00
1948.465,2893.00
1949.302,2934.00
1950.139,2942.00
1950.976,2687.00
1951.814,2949.00
1952.651,2874.00
1953.487,2601.00
1954.323,3080.00
1955.160,2783.00
1955.998,3158.00
1956.834,2804.00
1957.670,2858.00
1958.506,3073.00
1959.342,2951.00
1960.177,2901.00
1961.015,2940.00
1961.850,2848.00
1962.686,2858.00
1963.521,2846.00
1964.357,3123.00
1965.192,2585.00
1966.029,2956.00
1966.864,2705.00
1967.699,3001.00
1968.534,2835.00
1969.369,3083.00
1970.204,2784.00
1971.040,2846.00
1971.875,2747.00
1972.709,2854.00
1973.544,2623.00
1974.378,2725.00
1975.212,2897.00
1976.047,2699.00
1976.882,2680.00
1977.716,3226.00
1978.550,2518.00
1979.384,2786.00
1980.218,2754.00
1981.052,2772.00
1981.885,2841.00
1982.719,2825.00
1983.554,2977.00
1984.388,3148.00
1985.221,2853.00
1986.054,3047.00
1986.887,2863.00
1987.720,2663.00
1988.553,3069.00
1989.386,2907.00
1990.219,2959.00
1991.053,3118.00
1991.886,2646.00
1992.719,3015.00
1993.551,2347.00
1994.383,2966.00
1995.216,2753.00
1996.048,2529.00
1996.880,2966.00
1997.712,2690.00
1998.544,2816.00
1999.376,2907.00
2000.208,3071.00
