RamanScope Measure Spectrum Data V3.72

<< MEASURE CONDITION >>
Exposure Type,Aver
Exposure Time [sec],15
Exposure Count,30
Measure Time,2023/07/12 12:43:17
Data Name,""
Data Comment,""
Rayleigh Wave[nm],532.0

<< SAMPLE SPECTRUM >>
Wave[dcm-1],No23
146.591,1112.20
147.626,1270.73
148.664,1534.80
149.699,1663.10
150.737,1898.93
151.772,2087.57
152.809,2238.57
153.846,2444.87
154.881,2557.50
155.918,2671.20
156.953,2803.13
157.989,2881.43
159.026,2976.07
160.060,3069.03
161.096,3138.93
162.130,3167.07
163.167,3176.37
164.200,3225.57
165.236,3278.90
166.272,3333.43
167.305,3432.93
168.341,3456.93
169.374,3508.90
170.409,3560.60
171.445,3623.10
172.477,3700.37
173.512,3687.47
174.545,3690.77
175.580,3712.00
176.614,3726.47
177.647,3719.40
178.681,3730.10
179.713,3716.67
180.747,3685.90
181.781,3661.97
182.813,3689.00
183.847,3706.87
184.878,3709.17
185.912,3686.23
186.945,3765.40
187.976,3781.77
189.010,3772.53
190.043,3827.70
191.073,3861.80
192.106,3870.03
193.137,3893.37
194.170,3977.00
195.202,3962.60
196.232,3987.17
197.265,4043.37
198.297,4146.77
199.327,4106.57
200.359,4193.20
201.388,4222.77
202.420,4292.10
203.452,4371.47
204.481,4453.53
205.512,4530.30
206.544,4542.23
207.573,4640.57
208.604,4747.03
209.635,4805.37
210.663,4904.20
211.694,5052.73
212.725,5118.70
213.753,5267.83
214.783,5274.00
215.813,5310.00
216.841,5366.83
217.871,5410.03
218.899,5452.37
219.929,5436.10
220.959,5404.77
221.986,5343.27
223.016,5251.67
224.045,5249.60
225.072,5114.03
226.101,5029.87
227.130,4912.97
228.157,4910.00
229.185,4851.73
230.214,4819.97
231.241,4708.43
232.269,4688.63
233.297,4693.13
234.323,4666.33
235.351,4603.93
236.379,4583.40
237.407,4624.47
238.433,4578.70
239.460,4655.17
240.488,4649.60
241.513,4704.70
242.540,4736.67
243.568,4846.23
244.592,4777.60
245.619,4838.70
246.646,4863.40
247.671,4812.00
248.697,4784.63
249.724,4756.80
250.748,4718.70
251.774,4692.97
252.801,4683.50
253.827,4729.77
254.850,4729.70
255.876,4665.93
256.902,4715.73
257.925,4743.73
258.951,4784.27
259.976,4789.33
260.999,4759.33
262.024,4775.07
263.049,4818.33
264.074,4830.77
265.097,4854.50
266.122,4926.27
267.146,4950.73
268.168,4926.10
269.193,5041.83
270.217,5039.80
271.241,5106.67
272.263,5144.03
273.287,5141.07
274.311,5183.03
275.332,5240.30
276.356,5192.63
277.379,5191.87
278.402,5192.33
279.424,5153.33
280.447,5114.70
281.470,5053.87
282.492,5008.13
283.513,4954.37
284.536,4894.33
285.558,4846.27
286.581,4794.63
287.601,4689.27
288.623,4668.13
289.645,4620.40
290.665,4581.17
291.687,4510.13
292.709,4472.20
293.730,4390.93
294.750,4419.17
295.771,4325.67
296.792,4274.73
297.813,4215.73
298.832,4158.60
299.853,4134.63
300.874,4087.63
301.895,4057.83
302.913,4042.03
303.934,4050.83
304.954,3979.97
305.975,3999.13
306.993,3891.50
308.013,3933.03
309.033,3857.30
310.052,3849.03
311.072,3817.63
312.090,3799.13
313.109,3793.83
314.129,3760.97
315.148,3752.67
316.165,3753.93
317.184,3716.43
318.203,3686.67
319.222,3663.60
320.238,3696.07
321.257,3629.07
322.275,3636.93
323.294,3619.20
324.312,3578.00
325.328,3577.43
326.346,3615.30
327.364,3562.97
328.382,3592.13
329.397,3560.53
330.415,3545.40
331.432,3510.00
332.450,3547.50
333.467,3472.97
334.482,3494.43
335.499,3478.87
336.516,3513.67
337.533,3486.37
338.547,3481.10
339.564,3455.43
340.580,3496.63
341.597,3468.23
342.613,3468.40
343.627,3455.10
344.643,3443.70
345.659,3425.87
346.675,3440.37
347.690,3432.57
348.704,3397.47
349.719,3430.70
350.735,3388.07
351.750,3393.23
352.765,3418.13
353.778,3427.40
354.793,3392.97
355.808,3443.13
356.822,3456.20
357.837,3418.80
358.851,3379.97
359.864,3410.83
360.878,3392.93
361.892,3396.23
362.906,3399.53
363.920,3427.17
364.932,3417.47
365.945,3438.03
366.959,3409.53
367.972,3512.67
368.986,3471.20
369.999,3433.30
371.010,3487.00
372.023,3475.83
373.036,3479.47
374.049,3477.20
375.061,3481.53
376.072,3519.93
377.084,3519.03
378.097,3537.93
379.109,3535.33
380.121,3500.87
381.133,3552.00
382.143,3571.67
383.155,3576.13
384.166,3516.03
385.178,3592.90
386.189,3553.20
387.201,3561.80
388.212,3594.50
389.221,3577.37
390.232,3560.20
391.243,3553.33
392.254,3578.10
393.264,3547.27
394.275,3513.67
395.283,3483.80
396.294,3472.60
397.304,3476.37
398.314,3474.87
399.324,3494.07
400.334,3470.03
401.344,3419.07
402.351,3424.23
403.361,3455.23
404.370,3428.20
405.380,3391.10
406.389,3339.10
407.398,3355.67
408.407,3347.63
409.414,3381.60
410.423,3318.63
411.431,3337.17
412.440,3293.67
413.448,3260.80
414.457,3299.00
415.465,3299.33
416.471,3293.80
417.479,3252.17
418.487,3280.87
419.495,3261.53
420.503,3240.97
421.510,3189.13
422.518,3198.10
423.525,3157.10
424.530,3209.27
425.537,3198.47
426.544,3187.77
427.551,3160.37
428.558,3177.17
429.565,3179.70
430.571,3194.53
431.578,3175.33
432.582,3181.70
433.588,3137.83
434.595,3167.60
435.601,3183.80
436.607,3202.40
437.612,3161.87
438.618,3144.73
439.624,3128.33
440.627,3178.80
441.633,3157.73
442.638,3116.97
443.643,3130.13
444.648,3168.67
445.653,3152.87
446.658,3148.53
447.663,3156.57
448.667,3150.03
449.672,3178.20
450.674,3164.10
451.678,3186.60
452.682,3185.37
453.687,3189.53
454.690,3164.70
455.694,3201.63
456.698,3209.80
457.702,3161.33
458.705,3223.73
459.709,3175.60
460.710,3200.73
461.713,3229.07
462.716,3187.27
463.719,3231.80
464.722,3216.87
465.725,3174.13
466.727,3237.87
467.730,3242.23
468.732,3231.20
469.735,3244.47
470.737,3227.83
471.737,3248.47
472.739,3209.57
473.741,3218.13
474.742,3224.47
475.744,3234.53
476.746,3250.53
477.747,3226.77
478.748,3221.53
479.750,3225.23
480.751,3238.87
481.752,3229.60
482.753,3264.57
483.751,3208.20
484.752,3245.20
485.753,3244.70
486.753,3253.07
487.753,3265.53
488.754,3220.83
489.754,3222.53
490.754,3251.20
491.754,3275.10
492.754,3236.30
493.753,3278.67
494.753,3226.83
495.752,3254.87
496.752,3235.40
497.749,3249.27
498.748,3255.27
499.747,3203.93
500.746,3225.53
501.745,3245.60
502.744,3239.50
503.742,3210.33
504.741,3165.83
505.739,3216.10
506.737,3213.53
507.735,3185.73
508.734,3196.43
509.732,3187.80
510.729,3180.97
511.727,3213.77
512.725,3188.87
513.720,3200.87
514.718,3149.97
515.715,3154.93
516.712,3198.57
517.709,3212.07
518.706,3163.27
519.703,3157.67
520.700,3176.20
521.696,3148.27
522.693,3209.93
523.689,3243.07
524.686,3158.20
525.682,3185.87
526.678,3195.13
527.674,3242.70
528.670,3252.47
529.666,3201.97
530.661,3271.60
531.657,3249.53
532.652,3240.17
533.648,3261.03
534.641,3308.13
535.636,3205.80
536.631,3259.67
537.626,3308.33
538.621,3330.07
539.616,3291.03
540.610,3277.53
541.605,3287.90
542.599,3281.10
543.593,3303.60
544.587,3263.17
545.581,3286.63
546.575,3290.73
547.569,3283.43
548.563,3309.10
549.557,3298.13
550.550,3260.23
551.543,3251.03
552.537,3257.43
553.530,3312.90
554.523,3318.67
555.516,3265.30
556.509,3269.10
557.502,3269.37
558.494,3281.73
559.487,3275.50
560.479,3279.30
561.472,3244.13
562.464,3284.10
563.456,3280.37
564.448,3249.63
565.440,3297.23
566.432,3259.27
567.423,3268.53
568.415,3273.03
569.404,3307.10
570.396,3289.23
571.387,3347.83
572.378,3337.07
573.369,3338.07
574.360,3350.10
575.351,3371.63
576.341,3349.97
577.332,3364.80
578.323,3384.53
579.313,3373.97
580.303,3378.03
581.293,3372.77
582.283,3363.33
583.273,3416.70
584.263,3383.87
585.253,3477.03
586.243,3440.30
587.232,3417.97
588.222,3423.80
589.211,3388.60
590.200,3457.87
591.189,3465.67
592.178,3422.80
593.167,3438.03
594.156,3408.63
595.145,3439.37
596.133,3444.87
597.122,3388.30
598.110,3426.17
599.098,3392.10
600.086,3467.07
601.074,3513.47
602.062,3475.30
603.050,3463.73
604.038,3434.43
605.025,3465.33
606.013,3534.77
607.000,3477.63
607.987,3489.17
608.975,3431.03
609.962,3433.20
610.949,3459.27
611.936,3377.87
612.922,3368.27
613.909,3368.87
614.895,3369.00
615.882,3389.73
616.868,3353.60
617.854,3333.37
618.841,3280.77
619.826,3267.37
620.812,3220.30
621.798,3248.73
622.784,3204.07
623.769,3133.67
624.755,3146.73
625.740,3133.80
626.725,3115.83
627.711,3147.27
628.698,3074.97
629.683,3038.63
630.667,3090.17
631.652,3073.20
632.637,3014.40
633.621,2984.93
634.606,2938.13
635.590,2934.80
636.574,2934.67
637.558,2866.67
638.542,2881.27
639.526,2859.07
640.510,2859.93
641.493,2863.47
642.477,2830.50
643.460,2840.63
644.444,2804.03
645.427,2787.47
646.410,2806.17
647.393,2772.23
648.376,2780.93
649.359,2751.57
650.341,2749.97
651.324,2759.63
652.307,2717.30
653.289,2724.93
654.271,2726.73
655.253,2699.93
656.235,2689.40
657.217,2715.33
658.199,2650.87
659.181,2658.93
660.163,2645.33
661.144,2651.27
662.126,2671.13
663.107,2623.93
664.088,2690.47
665.069,2596.73
666.050,2600.40
667.033,2584.37
668.014,2605.77
668.995,2572.90
669.975,2562.77
670.956,2539.73
671.936,2517.07
672.916,2566.43
673.896,2485.17
674.876,2515.63
675.856,2488.27
676.836,2460.53
677.816,2496.90
678.795,2444.87
679.775,2392.60
680.754,2393.77
681.734,2373.07
682.713,2337.67
683.692,2375.10
684.671,2351.73
685.650,2345.40
686.629,2330.50
687.607,2295.93
688.586,2301.80
689.564,2239.50
690.543,2230.27
691.523,2221.77
692.501,2235.80
693.479,2155.77
694.457,2208.73
695.435,2178.40
696.413,2179.97
697.390,2154.10
698.368,2167.43
699.345,2161.27
700.322,2177.43
701.300,2197.43
702.277,2104.83
703.254,2112.77
704.231,2099.57
705.207,2130.13
706.184,2128.37
707.161,2074.90
708.137,2068.03
709.113,2083.10
710.090,2069.10
711.068,2054.27
712.044,2010.97
713.020,2038.57
713.996,2030.97
714.971,2053.90
715.947,2003.40
716.922,2010.30
717.898,2035.93
718.873,1984.13
719.848,1951.57
720.823,2002.90
721.798,1991.83
722.773,1985.33
723.748,1963.57
724.723,1980.60
725.697,1937.23
726.672,1990.67
727.646,1925.23
728.622,1925.07
729.596,1971.93
730.570,1941.07
731.544,1915.10
732.518,1907.17
733.492,1931.83
734.466,1918.93
735.439,1904.77
736.413,1942.80
737.386,1921.23
738.359,1910.40
739.332,1902.97
740.305,1883.83
741.278,1891.23
742.251,1880.57
743.224,1885.57
744.196,1878.07
745.171,1897.40
746.143,1848.40
747.115,1849.93
748.087,1884.90
749.059,1871.00
750.031,1851.03
751.003,1845.10
751.975,1801.37
752.947,1845.50
753.918,1835.57
754.890,1846.10
755.861,1838.07
756.832,1801.00
757.803,1798.47
758.774,1766.80
759.747,1772.43
760.718,1790.40
761.689,1752.83
762.659,1777.97
763.630,1836.70
764.600,1733.93
765.570,1742.47
766.540,1773.93
767.510,1744.83
768.480,1752.47
769.450,1714.73
770.420,1732.43
771.390,1748.13
772.359,1717.37
773.329,1742.83
774.300,1698.90
775.269,1720.00
776.238,1700.47
777.207,1726.87
778.176,1745.10
779.145,1708.17
780.114,1691.00
781.083,1672.50
782.051,1660.70
783.019,1702.47
783.988,1645.40
784.956,1634.23
785.924,1618.83
786.894,1647.23
787.862,1675.47
788.830,1698.23
789.797,1601.70
790.765,1615.47
791.732,1617.53
792.700,1605.57
793.667,1607.80
794.634,1582.97
795.601,1598.10
796.568,1587.83
797.535,1582.13
798.502,1562.27
799.468,1616.03
800.437,1584.47
801.403,1589.80
802.370,1519.67
803.336,1573.97
804.302,1581.87
805.268,1586.63
806.234,1558.13
807.200,1570.47
808.166,1540.30
809.131,1543.43
810.097,1550.17
811.062,1507.33
812.027,1563.43
812.994,1545.73
813.960,1536.97
814.925,1499.83
815.889,1495.07
816.854,1480.00
817.819,1514.90
818.783,1549.50
819.748,1517.70
820.712,1496.13
821.677,1502.90
822.641,1494.63
823.605,1477.03
824.571,1464.30
825.534,1539.10
826.498,1541.43
827.462,1525.27
828.425,1498.70
829.389,1454.93
830.352,1480.07
831.315,1471.63
832.279,1496.23
833.242,1520.10
834.204,1460.27
835.167,1515.97
836.132,1477.20
837.095,1515.53
838.057,1490.20
839.020,1485.50
839.982,1465.20
840.944,1494.40
841.906,1493.73
842.868,1518.23
843.830,1487.23
844.792,1467.27
845.753,1480.93
846.715,1439.40
847.679,1478.63
848.640,1483.83
849.601,1451.17
850.562,1449.00
851.523,1483.90
852.484,1472.33
853.445,1456.47
854.406,1415.30
855.367,1443.63
856.327,1426.03
857.288,1433.33
858.248,1472.50
859.210,1434.47
860.170,1448.73
861.130,1449.77
862.090,1427.47
863.050,1409.10
864.010,1415.97
864.969,1436.93
865.929,1439.03
866.888,1408.53
867.848,1450.03
868.807,1425.50
869.766,1411.87
870.727,1421.90
871.686,1372.07
872.645,1411.30
873.604,1403.13
874.562,1405.13
875.521,1386.47
876.479,1413.33
877.437,1411.40
878.396,1469.57
879.354,1401.43
880.312,1405.90
881.270,1411.77
882.229,1356.60
883.187,1404.30
884.145,1384.63
885.102,1393.37
886.059,1433.43
887.017,1369.33
887.974,1428.20
888.931,1376.10
889.888,1436.03
890.845,1386.60
891.802,1404.53
892.758,1426.20
893.717,1396.20
894.673,1399.10
895.630,1402.87
896.586,1410.37
897.542,1391.50
898.498,1411.53
899.454,1384.83
900.410,1444.90
901.366,1387.73
902.321,1419.93
903.277,1399.13
904.232,1419.30
905.189,1449.63
906.145,1404.93
907.100,1431.60
908.055,1398.93
909.010,1424.37
909.965,1386.37
910.919,1445.93
911.874,1359.23
912.828,1416.00
913.783,1383.50
914.737,1384.37
915.693,1443.87
916.648,1422.30
917.602,1399.57
918.555,1427.03
919.509,1435.10
920.463,1451.40
921.417,1402.93
922.370,1413.23
923.324,1435.23
924.277,1387.77
925.230,1438.03
926.183,1405.50
927.138,1382.77
928.091,1408.60
929.044,1434.13
929.996,1413.17
930.949,1416.87
931.902,1435.73
932.854,1402.73
933.806,1437.90
934.758,1422.80
935.711,1426.83
936.663,1443.77
937.614,1424.97
938.568,1453.27
939.520,1416.77
940.471,1447.47
941.423,1421.43
942.374,1429.20
943.326,1428.77
944.277,1454.30
945.228,1433.67
946.179,1451.20
947.130,1458.73
948.080,1472.70
949.031,1443.70
949.984,1430.90
950.934,1403.07
951.884,1446.43
952.835,1410.70
953.785,1398.90
954.735,1433.57
955.685,1407.83
956.635,1439.23
957.585,1414.80
958.534,1424.37
959.484,1414.93
960.433,1441.30
961.383,1415.40
962.334,1414.53
963.283,1415.20
964.232,1472.73
965.181,1426.57
966.130,1428.53
967.079,1423.50
968.027,1438.13
968.976,1417.80
969.924,1430.03
970.873,1447.00
971.821,1466.37
972.769,1416.27
973.719,1468.63
974.667,1387.50
975.615,1468.97
976.562,1435.87
977.510,1421.07
978.458,1427.93
979.405,1433.17
980.352,1441.03
981.300,1412.47
982.247,1430.87
983.194,1442.97
984.141,1450.37
985.088,1455.20
986.036,1451.30
986.983,1427.43
987.930,1390.53
988.876,1408.40
989.822,1449.83
990.769,1418.57
991.715,1431.07
992.661,1452.03
993.607,1405.80
994.553,1378.53
995.498,1397.33
996.444,1423.93
997.389,1388.37
998.337,1432.63
999.282,1422.37
1000.227,1433.50
1001.173,1446.63
1002.118,1444.97
1003.062,1431.73
1004.007,1418.27
1004.952,1413.97
1005.897,1406.07
1006.841,1387.97
1007.786,1415.13
1008.730,1418.40
1009.674,1409.73
1010.618,1474.30
1011.564,1398.07
1012.508,1409.33
1013.452,1438.40
1014.396,1459.77
1015.339,1451.60
1016.283,1398.63
1017.226,1420.97
1018.170,1444.13
1019.113,1425.63
1020.056,1395.03
1020.999,1430.23
1021.942,1451.07
1022.885,1426.47
1023.828,1475.27
1024.770,1475.17
1025.715,1434.37
1026.657,1465.47
1027.600,1434.10
1028.542,1467.87
1029.484,1484.13
1030.426,1435.33
1031.368,1468.80
1032.310,1499.73
1033.251,1463.00
1034.193,1499.03
1035.135,1489.53
1036.076,1498.20
1037.017,1510.97
1037.959,1511.23
1038.900,1454.73
1039.843,1514.47
1040.784,1505.07
1041.725,1507.20
1042.665,1527.90
1043.606,1505.90
1044.547,1525.57
1045.487,1503.03
1046.427,1504.77
1047.368,1499.70
1048.308,1539.40
1049.248,1550.80
1050.188,1572.90
1051.128,1531.50
1052.067,1538.20
1053.007,1524.23
1053.947,1561.97
1054.886,1538.93
1055.827,1574.63
1056.766,1574.83
1057.706,1582.30
1058.645,1573.23
1059.584,1606.77
1060.522,1573.53
1061.461,1575.93
1062.400,1568.63
1063.338,1570.87
1064.277,1600.67
1065.215,1589.63
1066.154,1606.43
1067.092,1598.63
1068.030,1614.00
1068.968,1626.60
1069.906,1617.47
1070.843,1588.50
1071.781,1597.13
1072.720,1637.00
1073.658,1668.87
1074.595,1640.10
1075.533,1642.93
1076.470,1665.03
1077.407,1626.47
1078.344,1674.53
1079.281,1644.20
1080.217,1681.37
1081.154,1660.50
1082.091,1668.83
1083.027,1670.73
1083.964,1708.70
1084.900,1661.70
1085.836,1680.63
1086.772,1659.17
1087.708,1677.30
1088.644,1659.53
1089.580,1694.27
1090.515,1670.53
1091.451,1680.40
1092.388,1623.93
1093.324,1671.00
1094.259,1651.50
1095.194,1661.73
1096.129,1632.53
1097.064,1629.50
1097.999,1655.37
1098.934,1614.87
1099.869,1629.47
1100.803,1624.57
1101.738,1604.87
1102.672,1578.53
1103.607,1597.13
1104.541,1578.30
1105.475,1584.17
1106.409,1603.20
1107.343,1581.67
1108.277,1572.20
1109.210,1573.70
1110.144,1527.77
1111.078,1560.63
1112.011,1538.63
1112.944,1511.90
1113.878,1478.30
1114.811,1502.10
1115.744,1437.77
1116.678,1479.17
1117.611,1457.20
1118.544,1492.03
1119.477,1443.63
1120.409,1471.83
1121.342,1473.73
1122.274,1465.83
1123.206,901.50
1124.138,1418.23
1125.070,1408.63
1126.002,1460.10
1126.934,1407.43
1127.866,1396.13
1128.798,1378.20
1129.729,1372.63
1130.661,1384.80
1131.592,1342.87
1132.523,1384.93
1133.454,1344.97
1134.385,1345.57
1135.317,1395.83
1136.247,1335.40
1137.178,1352.20
1138.109,1324.00
1139.039,1334.83
1139.970,1293.50
1140.900,1300.73
1141.831,1328.00
1142.761,1288.53
1143.691,1308.03
1144.621,1272.67
1145.551,1296.97
1146.480,1269.67
1147.410,1333.70
1148.340,1281.87
1149.269,1295.50
1150.199,1251.73
1151.128,1249.80
1152.057,1289.30
1152.979,1269.50
1153.898,1254.13
1154.819,1236.10
1155.739,1237.37
1156.658,1246.83
1157.579,1212.93
1158.498,1200.07
1159.419,1208.83
1160.338,1250.47
1161.256,1290.00
1162.177,1210.00
1163.095,1238.70
1164.016,1234.87
1164.934,1227.20
1165.852,1215.03
1166.772,1198.03
1167.690,1214.67
1168.610,1194.80
1169.528,1179.70
1170.446,1195.50
1171.365,1190.80
1172.283,1177.40
1173.202,1203.30
1174.120,1184.53
1175.037,1209.03
1175.956,1179.40
1176.873,1206.13
1177.792,1163.40
1178.709,1183.23
1179.626,1159.83
1180.544,1176.07
1181.461,1166.63
1182.379,1187.53
1183.296,1145.13
1184.212,1144.77
1185.130,1150.87
1186.046,1141.23
1186.962,1138.77
1187.880,1136.47
1188.796,1166.53
1189.714,1142.67
1190.629,1138.40
1191.545,1118.80
1192.462,1177.63
1193.378,1135.37
1194.295,1136.27
1195.210,1129.43
1196.125,1125.60
1197.042,1150.60
1197.957,1137.60
1198.872,1175.93
1199.788,1169.07
1200.703,1131.80
1201.619,1159.23
1202.534,1148.97
1203.448,1094.13
1204.364,1163.67
1205.278,1133.90
1206.192,1155.80
1207.108,1134.63
1208.022,1153.03
1208.938,1113.70
1209.851,1155.87
1210.765,1134.23
1211.680,1140.70
1212.594,1146.47
1213.507,1140.43
1214.422,1133.37
1215.335,1131.43
1216.248,1150.93
1217.163,1160.37
1218.076,1137.53
1218.990,1131.47
1219.903,1165.10
1220.816,1167.80
1221.730,1166.73
1222.642,1144.50
1223.554,1131.60
1224.469,1133.37
1225.380,1157.60
1226.292,1150.33
1227.206,1149.77
1228.118,1157.63
1229.032,1149.93
1229.943,1155.67
1230.855,1150.73
1231.768,1163.77
1232.679,1146.13
1233.590,1154.23
1234.503,1129.53
1235.414,1142.00
1236.325,1157.60
1237.238,1190.63
1238.149,1157.03
1239.059,1152.73
1239.972,1146.53
1240.882,1156.83
1241.793,1149.27
1242.705,1139.03
1243.615,1162.23
1244.525,1154.07
1245.437,1161.47
1246.347,1186.83
1247.259,1196.30
1248.168,1156.07
1249.078,1181.37
1249.989,1156.67
1250.899,1154.30
1251.808,1205.17
1252.719,1195.00
1253.628,1169.50
1254.537,1145.87
1255.448,1181.07
1256.357,1179.07
1257.266,1220.27
1258.176,1189.20
1259.085,1203.73
1259.993,1189.43
1260.904,1188.77
1261.812,1194.87
1262.720,1162.57
1263.630,1161.33
1264.538,1206.33
1265.446,1211.33
1266.356,1194.70
1267.263,1183.27
1268.171,1206.20
1269.080,1170.87
1269.988,1168.30
1270.895,1185.20
1271.804,1199.30
1272.711,1196.57
1273.619,1156.50
1274.527,1171.40
1275.434,1215.30
1276.341,1194.20
1277.248,1165.00
1278.156,1152.83
1279.063,1166.27
1279.969,1220.53
1280.877,1161.90
1281.783,1127.67
1282.690,1134.97
1283.598,1182.73
1284.503,1152.93
1285.409,1138.67
1286.317,1175.40
1287.223,1154.67
1288.128,1176.33
1289.036,1133.90
1289.941,1145.00
1290.846,1161.27
1291.751,1161.77
1292.658,1144.90
1293.563,1207.53
1294.468,1177.33
1295.375,1152.53
1296.280,1115.90
1297.184,1159.47
1298.091,1155.30
1298.995,1094.90
1299.900,1132.27
1300.806,1140.47
1301.710,1139.43
1302.614,1106.27
1303.518,1100.83
1304.424,1118.57
1305.327,1106.10
1306.231,1108.43
1307.137,1155.03
1308.040,1175.90
1308.943,1113.90
1309.847,1137.17
1310.752,1098.10
1311.655,1098.87
1312.558,1072.70
1313.463,1074.17
1314.366,1096.37
1315.269,1096.33
1316.171,1078.17
1317.076,1068.63
1317.978,1059.27
1318.881,1074.47
1319.785,1088.50
1320.687,1073.10
1321.589,1030.17
1322.491,1068.70
1323.395,1055.03
1324.297,1093.20
1325.198,1063.17
1326.102,1098.67
1327.004,1046.30
1327.905,1044.67
1328.806,1048.10
1329.709,1036.60
1330.611,1043.57
1331.512,1039.93
1332.413,1050.63
1333.316,1051.07
1334.216,990.07
1335.117,1057.20
1336.020,1042.03
1336.920,1036.57
1337.821,1019.13
1338.721,1014.80
1339.623,1021.20
1340.523,1013.00
1341.423,986.87
1342.323,1000.57
1343.225,1014.43
1344.125,1003.17
1345.025,974.33
1345.924,1031.47
1346.826,1025.97
1347.725,977.97
1348.624,968.93
1349.524,957.07
1350.425,993.17
1351.324,975.37
1352.223,992.60
1353.121,974.60
1354.022,950.90
1354.921,932.77
1355.819,998.67
1356.718,952.17
1357.618,984.97
1358.516,951.17
1359.415,953.00
1360.313,905.10
1361.213,934.83
1362.111,941.00
1363.008,933.97
1363.906,922.50
1364.806,966.30
1365.703,923.00
1366.601,939.40
1367.498,908.43
1368.397,968.93
1369.295,970.17
1370.192,889.67
1371.089,907.00
1371.987,906.23
1372.884,913.70
1373.781,912.10
1374.678,906.50
1375.574,933.30
1376.473,878.33
1377.369,875.67
1378.265,876.23
1379.161,890.30
1380.059,929.90
1380.955,896.53
1381.851,901.83
1382.747,884.47
1383.643,910.63
1384.540,869.37
1385.436,914.37
1386.331,893.53
1387.227,877.53
1388.124,887.90
1389.019,880.40
1389.914,867.70
1390.809,885.03
1391.704,879.03
1392.601,852.97
1393.495,886.10
1394.390,815.93
1395.285,872.33
1396.179,883.27
1397.075,837.63
1397.969,845.83
1398.864,839.40
1399.758,856.57
1400.652,864.20
1401.547,859.37
1402.441,853.67
1403.335,847.73
1404.229,857.00
1405.122,849.93
1406.017,829.70
1406.911,836.77
1407.804,833.37
1408.697,823.57
1409.590,845.83
1410.485,845.67
1411.378,870.17
1412.271,821.87
1413.163,834.50
1414.056,814.13
1414.949,838.90
1415.843,807.60
1416.735,848.60
1417.627,837.43
1418.520,839.47
1419.412,817.17
1420.306,799.07
1421.197,805.00
1422.089,819.73
1422.981,806.00
1423.873,801.63
1424.764,784.13
1425.657,798.67
1426.549,794.43
1427.440,793.53
1428.331,801.50
1429.222,789.73
1430.113,815.10
1431.006,808.60
1431.897,781.70
1432.787,795.37
1433.678,789.43
1434.568,787.63
1435.459,774.27
1436.351,782.43
1437.241,834.13
1438.131,795.07
1439.021,797.43
1439.911,768.70
1440.801,812.13
1441.693,791.40
1442.583,789.43
1443.472,736.80
1444.362,805.93
1445.251,801.50
1446.140,800.30
1447.030,745.07
1447.921,795.57
1448.810,770.33
1449.699,755.27
1450.588,805.20
1451.476,767.40
1452.365,779.17
1453.254,781.00
1454.144,770.63
1455.032,723.80
1455.921,793.17
1456.809,736.13
1457.697,760.87
1458.585,744.00
1459.473,790.73
1460.361,754.67
1461.251,761.83
1462.138,747.37
1463.026,805.13
1463.913,815.10
1464.801,791.00
1465.688,765.87
1466.575,739.37
1467.463,765.77
1468.351,750.37
1469.238,764.10
1470.125,772.53
1471.012,728.10
1471.899,746.90
1472.785,740.93
1473.672,748.63
1474.558,740.53
1475.446,756.33
1476.333,748.73
1477.219,767.20
1478.105,792.37
1478.991,751.53
1479.877,732.00
1480.762,708.23
1481.648,715.60
1482.534,724.13
1483.419,738.93
1484.307,713.43
1485.192,717.20
1486.077,722.83
1486.962,736.70
1487.847,738.53
1488.732,758.47
1489.617,730.53
1490.502,688.37
1491.387,726.97
1492.271,786.00
1493.156,747.87
1494.042,729.40
1494.927,736.53
1495.811,716.23
1496.695,723.47
1497.579,703.47
1498.463,723.43
1499.347,708.00
1500.231,694.23
1501.114,690.83
1501.998,704.20
1502.881,713.73
1503.765,723.50
1504.648,700.13
1505.533,709.20
1506.417,689.27
1507.300,717.33
1508.183,752.17
1509.066,686.70
1509.948,722.47
1510.831,712.17
1511.714,680.50
1512.596,703.90
1513.479,687.53
1514.361,677.90
1515.243,688.23
1516.125,715.93
1517.008,688.97
1517.890,691.27
1518.771,691.27
1519.655,686.50
1520.537,696.77
1521.419,674.80
1522.300,719.87
1523.182,684.67
1524.063,668.87
1524.944,694.60
1525.825,692.43
1526.707,689.27
1527.588,677.80
1528.468,671.03
1529.349,626.13
1530.230,664.43
1531.111,666.80
1531.991,662.47
1532.872,660.53
1533.752,707.23
1534.632,663.43
1535.513,684.47
1536.393,633.80
1537.273,705.93
1538.153,634.60
1539.032,652.97
1539.912,631.33
1540.792,662.07
1541.672,667.27
1542.551,648.83
1543.430,629.67
1544.310,640.00
1545.189,687.77
1546.068,629.67
1546.947,669.00
1547.826,665.60
1548.705,684.93
1549.584,678.60
1550.462,671.70
1551.341,654.27
1552.219,653.70
1553.098,663.37
1553.976,656.67
1554.854,672.10
1555.733,659.33
1556.611,651.50
1557.489,651.83
1558.367,676.27
1559.244,669.90
1560.122,670.57
1561.000,669.63
1561.877,711.30
1562.755,638.90
1563.632,645.10
1564.509,680.60
1565.386,665.37
1566.264,627.70
1567.141,686.17
1568.017,631.57
1568.894,661.77
1569.771,619.70
1570.648,680.37
1571.524,649.23
1572.401,668.60
1573.277,613.23
1574.153,659.93
1575.029,633.23
1575.906,664.63
1576.781,614.03
1577.657,619.77
1578.533,658.73
1579.409,641.27
1580.285,651.30
1581.160,629.17
1582.036,639.23
1582.911,612.80
1583.786,654.60
1584.662,610.40
1585.537,634.90
1586.412,613.60
1587.287,621.77
1588.160,636.73
1589.035,633.03
1589.909,610.07
1590.784,655.30
1591.658,654.93
1592.533,654.10
1593.407,644.73
1594.281,613.13
1595.155,641.53
1596.029,628.73
1596.903,629.03
1597.777,655.97
1598.651,612.30
1599.525,640.80
1600.398,569.77
1601.272,587.17
1602.144,619.90
1603.017,635.87
1603.890,602.00
1604.763,626.23
1605.636,590.00
1606.509,610.20
1607.382,644.20
1608.255,642.07
1609.128,607.17
1610.000,639.73
1610.873,641.70
1611.746,634.43
1612.616,649.57
1613.488,611.63
1614.361,609.40
1615.233,651.37
1616.105,596.63
1616.977,640.33
1617.849,641.43
1618.720,644.27
1619.592,614.57
1620.464,612.80
1621.333,640.67
1622.205,642.07
1623.076,604.17
1623.947,592.30
1624.818,582.33
1625.689,630.30
1626.560,610.07
1627.431,592.67
1628.302,607.77
1629.171,588.20
1630.042,622.20
1630.912,309.20
1631.782,621.13
1632.653,610.03
1633.523,602.23
1634.393,539.77
1635.263,622.53
1636.131,583.70
1637.001,594.40
1637.871,584.37
1638.741,579.23
1639.611,605.97
1640.480,582.77
1641.350,593.53
1642.219,600.43
1643.087,584.83
1643.956,608.20
1644.825,585.80
1645.694,596.80
1646.563,587.47
1647.432,596.17
1648.299,594.20
1649.167,619.67
1650.036,583.73
1650.904,590.60
1651.773,570.93
1652.641,597.33
1653.509,568.53
1654.376,614.03
1655.244,588.10
1656.112,608.90
1656.980,563.17
1657.847,552.53
1658.715,603.90
1659.581,586.73
1660.448,578.90
1661.316,586.60
1662.183,540.63
1663.051,589.57
1663.918,562.70
1664.783,583.07
1665.650,590.83
1666.517,567.97
1667.384,593.87
1668.251,547.63
1669.115,552.60
1669.982,625.67
1670.849,590.37
1671.715,581.87
1672.581,598.00
1673.446,595.90
1674.312,529.27
1675.178,575.53
1676.044,547.07
1676.910,595.77
1677.774,570.90
1678.639,573.43
1679.505,564.97
1680.370,547.60
1681.236,561.43
1682.099,559.33
1682.965,596.33
1683.830,569.13
1684.695,567.63
1685.560,579.30
1686.423,586.47
1687.288,574.47
1688.153,563.53
1689.017,547.93
1689.880,572.03
1690.745,569.93
1691.609,541.07
1692.473,561.60
1693.338,539.60
1694.200,564.20
1695.064,574.50
1695.928,581.20
1696.792,556.67
1697.654,578.23
1698.517,541.83
1699.381,578.83
1700.245,549.60
1701.106,550.27
1701.969,556.57
1702.833,550.97
1703.696,564.60
1704.557,530.57
1705.420,581.63
1706.283,539.03
1707.146,584.47
1708.007,575.43
1708.870,591.77
1709.732,550.87
1710.595,537.03
1711.455,555.20
1712.318,542.53
1713.180,560.23
1714.040,528.73
1714.902,561.47
1715.764,559.03
1716.626,545.37
1717.486,531.53
1718.348,572.50
1719.209,430.07
1720.071,577.03
1720.930,525.60
1721.792,557.73
1722.653,555.10
1723.512,538.43
1724.374,544.37
1725.234,555.17
1726.095,552.00
1726.954,508.07
1727.815,543.87
1728.676,532.53
1729.535,550.97
1730.395,537.50
1731.256,558.67
1732.114,570.07
1732.974,540.23
1733.834,567.87
1734.693,558.70
1735.553,560.50
1736.413,563.93
1737.272,522.27
1738.130,542.53
1738.990,542.27
1739.849,549.63
1740.707,514.20
1741.566,564.77
1742.426,527.30
1743.283,540.93
1744.142,562.00
1745.001,535.07
1745.858,582.30
1746.717,550.83
1747.576,514.87
1748.433,556.63
1749.292,501.30
1750.150,521.27
1751.007,561.67
1751.865,517.27
1752.723,523.80
1753.579,535.20
1754.438,508.03
1755.296,602.00
1756.152,530.97
1757.010,517.93
1757.865,534.20
1758.723,519.50
1759.581,548.67
1760.436,507.53
1761.294,543.60
1762.151,546.20
1763.006,550.77
1763.864,538.30
1764.721,547.80
1765.576,531.83
1766.433,546.17
1767.288,541.37
1768.144,512.93
1769.001,530.50
1769.856,502.87
1770.712,581.37
1771.568,506.90
1772.423,522.47
1773.279,543.03
1774.133,525.50
1774.989,519.07
1775.845,579.20
1776.699,569.50
1777.555,550.30
1778.409,519.00
1779.265,554.10
1780.120,540.87
1780.974,538.60
1781.829,525.10
1782.682,503.20
1783.538,514.27
1784.393,532.07
1785.246,530.17
1786.101,556.13
1786.954,478.83
1787.808,509.13
1788.661,481.77
1789.516,536.37
1790.370,518.30
1791.223,573.63
1792.077,507.40
1792.930,506.47
1793.784,515.10
1794.636,487.97
1795.490,516.57
1796.344,534.43
1797.196,515.23
1798.049,545.33
1798.901,534.13
1799.755,555.77
1800.606,542.17
1801.460,571.60
1802.311,511.10
1803.165,522.07
1804.018,512.67
1804.869,524.10
1805.722,538.87
1806.573,524.30
1807.426,525.03
1808.276,485.90
1809.129,482.70
1809.980,573.67
1810.832,510.20
1811.683,526.93
1812.535,497.63
1813.385,500.33
1814.237,519.33
1815.089,547.07
1815.940,508.77
1816.791,524.63
1817.641,512.50
1818.493,524.67
1819.343,533.77
1820.194,512.37
1821.044,547.23
1821.895,547.40
1822.745,512.90
1823.596,514.80
1824.445,469.27
1825.296,483.37
1826.145,490.37
1826.996,509.47
1827.845,508.53
1828.695,515.53
1829.544,505.97
1830.395,518.17
1831.243,477.93
1832.094,525.10
1832.942,489.50
1833.792,527.17
1834.640,518.17
1835.490,475.03
1836.338,515.17
1837.186,501.07
1838.036,480.07
1838.884,482.27
1839.733,482.67
1840.581,537.90
1841.430,493.57
1842.278,511.10
1843.127,480.43
1843.974,489.53
1844.823,491.17
1845.671,537.83
1846.519,515.50
1847.366,497.33
1848.213,490.37
1849.062,467.50
1849.909,475.80
1850.757,469.53
1851.604,515.67
1852.452,527.47
1853.298,486.50
1854.146,492.83
1854.993,501.77
1855.839,494.73
1856.687,529.27
1857.532,480.27
1858.380,489.93
1859.226,516.67
1860.073,540.47
1860.919,500.67
1861.765,491.70
1862.612,487.70
1863.457,503.10
1864.304,507.47
1865.150,479.90
1865.995,489.87
1866.842,439.37
1867.686,494.80
1868.533,463.67
1869.378,522.73
1870.223,506.23
1871.069,474.47
1871.914,482.13
1872.760,514.03
1873.604,479.00
1874.448,503.83
1875.294,520.27
1876.139,464.83
1876.984,512.10
1877.828,500.60
1878.672,469.17
1879.518,495.90
1880.361,490.47
1881.205,515.57
1882.050,512.03
1882.894,556.30
1883.739,481.40
1884.582,490.27
1885.425,458.03
1886.270,502.50
1887.113,505.67
1887.956,449.47
1888.801,529.17
1889.644,514.40
1890.486,512.33
1891.331,513.60
1892.173,527.73
1893.017,495.40
1893.860,495.23
1894.702,505.67
1895.546,480.70
1896.388,478.90
1897.230,473.17
1898.074,487.60
1898.916,472.97
1899.757,550.53
1900.601,483.77
1901.443,488.23
1902.284,538.90
1903.125,497.33
1903.969,483.67
1904.810,463.10
1905.651,448.33
1906.494,497.90
1907.335,510.87
1908.176,515.33
1909.018,485.30
1909.859,450.57
1910.700,490.67
1911.542,488.10
1912.383,473.03
1913.223,497.80
1914.064,524.77
1914.906,487.93
1915.746,499.13
1916.586,523.93
1917.428,498.70
1918.268,491.83
1919.107,480.40
1919.947,483.07
1920.789,471.23
1921.628,442.77
1922.468,485.10
1923.309,490.00
1924.148,509.43
1924.988,479.23
1925.827,509.23
1926.667,470.10
1927.507,453.67
1928.345,496.63
1929.184,481.17
1930.025,495.10
1930.864,484.00
1931.702,470.43
1932.541,481.33
1933.381,503.70
1934.219,485.23
1935.057,496.83
1935.896,425.97
1936.735,471.83
1937.573,483.30
1938.411,473.20
1939.249,507.13
1940.089,511.77
1940.927,484.13
1941.764,480.83
1942.602,473.53
1943.439,474.70
1944.278,461.50
1945.115,490.10
1945.953,480.13
1946.790,496.80
1947.628,470.87
1948.465,459.60
1949.302,503.90
1950.139,466.43
1950.976,488.03
1951.814,501.77
1952.651,451.40
1953.487,485.17
1954.323,491.67
1955.160,462.90
1955.998,516.80
1956.834,470.23
1957.670,510.27
1958.506,513.57
1959.342,492.77
1960.177,473.13
1961.015,454.67
1961.850,459.70
1962.686,517.37
1963.521,501.67
1964.357,464.47
1965.192,446.80
1966.029,442.23
1966.864,449.27
1967.699,456.13
1968.534,478.23
1969.369,442.07
1970.204,469.50
1971.040,494.73
1971.875,481.17
1972.709,460.13
1973.544,448.07
1974.378,506.20
1975.212,482.53
1976.047,401.97
1976.882,462.33
1977.716,495.97
1978.550,455.03
1979.384,488.17
1980.218,493.27
1981.052,476.30
1981.885,467.37
1982.719,472.83
1983.554,481.47
1984.388,471.97
1985.221,475.97
1986.054,412.47
1986.887,482.07
1987.720,462.43
1988.553,447.07
1989.386,448.97
1990.219,480.37
1991.053,472.77
1991.886,500.37
1992.719,468.80
1993.551,447.03
1994.383,466.23
1995.216,474.07
1996.048,447.83
1996.880,505.73
1997.712,454.33
1998.544,445.47
1999.376,454.17
2000.208,441.90
2001.040,490.00
2001.873,457.27
2002.705,429.93
2003.536,463.37
2004.367,450.80
2005.199,457.37
2006.030,505.27
2006.861,483.80
2007.692,432.70
2008.523,435.30
2009.354,435.87
2010.185,452.80
2011.016,489.40
2011.846,454.50
2012.677,490.10
2013.507,471.33
2014.338,476.47
2015.168,432.20
2015.999,430.53
2016.829,512.70
2017.659,492.33
2018.489,480.53
2019.319,449.30
2020.149,472.70
2020.980,457.30
2021.810,420.23
2022.639,472.70
2023.469,470.63
2024.298,501.27
2025.128,485.10
2025.957,457.20
2026.786,460.67
2027.615,458.70
2028.444,466.77
2029.273,485.63
2030.102,460.57
2030.931,471.90
2031.758,443.03
2032.586,478.27
2033.415,487.13
2034.243,465.03
2035.072,428.73
2035.900,480.07
2036.728,453.23
2037.556,478.03
2038.385,500.00
2039.213,459.57
2040.040,474.07
2040.868,482.83
2041.696,452.93
2042.524,479.77
2043.351,474.93
2044.179,449.83
2045.006,456.70
2045.006,456.70

Max Intensity Wave.,218.899
Max Intensity Data,5452.37
Min Intensity Wave.,1630.912
Min Intensity Data,309.20
FWHM Wave.,595.609
FWHM Value,43.38
Pressure Wave.,684.671
Pressure Value [GPa],-24.91530
G/D Ratio,0.60447
G/D Gband Wave.,1561.759
G/D Gband Intensity,712.34
G/D Dband Wave.,1307.816
G/D Dband Intensity,1178.45

<< BACKGROUND SPECTRUM >>
Wave[dcm-1],No23
146.591,2342.00
147.626,2191.00
148.664,2088.00
149.699,2652.00
150.737,2352.00
151.772,2497.00
152.809,2511.00
153.846,2381.00
154.881,2505.00
155.918,2065.00
156.953,2363.00
157.989,2726.00
159.026,2555.00
160.060,2715.00
161.096,2943.00
162.130,2602.00
163.167,2704.00
164.200,2587.00
165.236,2766.00
166.272,2810.00
167.305,2357.00
168.341,2660.00
169.374,2903.00
170.409,2920.00
171.445,2849.00
172.477,2606.00
173.512,2504.00
174.545,2818.00
175.580,2997.00
176.614,3195.00
177.647,2960.00
178.681,3181.00
179.713,3497.00
180.747,2966.00
181.781,2879.00
182.813,3161.00
183.847,3247.00
184.878,2851.00
185.912,3145.00
186.945,3271.00
187.976,3198.00
189.010,2854.00
190.043,2959.00
191.073,3023.00
192.106,2843.00
193.137,3349.00
194.170,2640.00
195.202,3035.00
196.232,2822.00
197.265,3130.00
198.297,3170.00
199.327,2937.00
200.359,3083.00
201.388,3492.00
202.420,3057.00
203.452,3248.00
204.481,2766.00
205.512,3443.00
206.544,3253.00
207.573,3206.00
208.604,3541.00
209.635,3717.00
210.663,3106.00
211.694,3075.00
212.725,2969.00
213.753,2887.00
214.783,3546.00
215.813,3433.00
216.841,3159.00
217.871,3322.00
218.899,3035.00
219.929,3292.00
220.959,3002.00
221.986,3278.00
223.016,2897.00
224.045,3263.00
225.072,3264.00
226.101,3373.00
227.130,3440.00
228.157,2950.00
229.185,2446.00
230.214,3301.00
231.241,2954.00
232.269,2564.00
233.297,2776.00
234.323,3368.00
235.351,2946.00
236.379,3257.00
237.407,2860.00
238.433,3092.00
239.460,3221.00
240.488,3281.00
241.513,3346.00
242.540,3253.00
243.568,3324.00
244.592,3454.00
245.619,3374.00
246.646,3041.00
247.671,3075.00
248.697,2940.00
249.724,3141.00
250.748,3140.00
251.774,3134.00
252.801,3454.00
253.827,3221.00
254.850,3199.00
255.876,2828.00
256.902,3276.00
257.925,3088.00
258.951,2831.00
259.976,2883.00
260.999,3253.00
262.024,2949.00
263.049,3804.00
264.074,3282.00
265.097,3203.00
266.122,3230.00
267.146,3183.00
268.168,3413.00
269.193,2977.00
270.217,3402.00
271.241,2828.00
272.263,2987.00
273.287,3318.00
274.311,2907.00
275.332,3413.00
276.356,2997.00
277.379,3246.00
278.402,3252.00
279.424,3083.00
280.447,3038.00
281.470,2859.00
282.492,3228.00
283.513,3049.00
284.536,3319.00
285.558,3312.00
286.581,3255.00
287.601,3001.00
288.623,2915.00
289.645,3218.00
290.665,3249.00
291.687,3290.00
292.709,3254.00
293.730,3579.00
294.750,2976.00
295.771,2887.00
296.792,3232.00
297.813,3060.00
298.832,3218.00
299.853,2880.00
300.874,3154.00
301.895,3108.00
302.913,3113.00
303.934,3373.00
304.954,3164.00
305.975,3324.00
306.993,2897.00
308.013,3219.00
309.033,3142.00
310.052,3057.00
311.072,3040.00
312.090,3190.00
313.109,3407.00
314.129,3548.00
315.148,3135.00
316.165,3197.00
317.184,3373.00
318.203,2874.00
319.222,2877.00
320.238,3246.00
321.257,2978.00
322.275,2826.00
323.294,3109.00
324.312,3299.00
325.328,3417.00
326.346,3420.00
327.364,3392.00
328.382,3283.00
329.397,3250.00
330.415,3383.00
331.432,3396.00
332.450,3404.00
333.467,3647.00
334.482,2701.00
335.499,3522.00
336.516,2988.00
337.533,2700.00
338.547,2970.00
339.564,2975.00
340.580,3216.00
341.597,3092.00
342.613,3593.00
343.627,3121.00
344.643,3134.00
345.659,3264.00
346.675,3112.00
347.690,3027.00
348.704,3258.00
349.719,2988.00
350.735,2889.00
351.750,3357.00
352.765,3139.00
353.778,3097.00
354.793,3296.00
355.808,2919.00
356.822,3306.00
357.837,2763.00
358.851,3435.00
359.864,3088.00
360.878,2894.00
361.892,3112.00
362.906,3347.00
363.920,2707.00
364.932,3224.00
365.945,3208.00
366.959,3160.00
367.972,3022.00
368.986,2822.00
369.999,3537.00
371.010,2949.00
372.023,3509.00
373.036,3097.00
374.049,3564.00
375.061,3238.00
376.072,3115.00
377.084,3002.00
378.097,2830.00
379.109,3353.00
380.121,3177.00
381.133,2782.00
382.143,3276.00
383.155,2829.00
384.166,3078.00
385.178,3211.00
386.189,3340.00
387.201,2841.00
388.212,3027.00
389.221,3032.00
390.232,3134.00
391.243,3052.00
392.254,3131.00
393.264,2959.00
394.275,3377.00
395.283,3349.00
396.294,3797.00
397.304,3639.00
398.314,3259.00
399.324,3138.00
400.334,2746.00
401.344,3315.00
402.351,2775.00
403.361,3319.00
404.370,3085.00
405.380,3041.00
406.389,3522.00
407.398,3266.00
408.407,3235.00
409.414,3267.00
410.423,3470.00
411.431,2868.00
412.440,2809.00
413.448,3530.00
414.457,2991.00
415.465,2912.00
416.471,2969.00
417.479,3159.00
418.487,2908.00
419.495,3431.00
420.503,3261.00
421.510,2762.00
422.518,3299.00
423.525,3393.00
424.530,3563.00
425.537,3042.00
426.544,3381.00
427.551,3003.00
428.558,3750.00
429.565,3611.00
430.571,2985.00
431.578,3019.00
432.582,2986.00
433.588,3113.00
434.595,2735.00
435.601,3435.00
436.607,3350.00
437.612,2885.00
438.618,3490.00
439.624,3110.00
440.627,3054.00
441.633,3240.00
442.638,3802.00
443.643,3245.00
444.648,3152.00
445.653,3340.00
446.658,3036.00
447.663,3160.00
448.667,3014.00
449.672,3036.00
450.674,3109.00
451.678,2836.00
452.682,2992.00
453.687,2964.00
454.690,3784.00
455.694,3410.00
456.698,2660.00
457.702,2797.00
458.705,2872.00
459.709,2948.00
460.710,3001.00
461.713,3137.00
462.716,3190.00
463.719,3104.00
464.722,3288.00
465.725,3123.00
466.727,2943.00
467.730,3157.00
468.732,2873.00
469.735,3416.00
470.737,3042.00
471.737,3010.00
472.739,3031.00
473.741,2931.00
474.742,3181.00
475.744,3237.00
476.746,3156.00
477.747,3090.00
478.748,3294.00
479.750,3059.00
480.751,3135.00
481.752,3929.00
482.753,3197.00
483.751,3728.00
484.752,2730.00
485.753,3107.00
486.753,3002.00
487.753,3115.00
488.754,3588.00
489.754,2841.00
490.754,3451.00
491.754,3244.00
492.754,2835.00
493.753,3113.00
494.753,3051.00
495.752,3466.00
496.752,3188.00
497.749,3115.00
498.748,2970.00
499.747,3550.00
500.746,3229.00
501.745,2885.00
502.744,2879.00
503.742,3472.00
504.741,3101.00
505.739,2571.00
506.737,3006.00
507.735,3295.00
508.734,3516.00
509.732,3275.00
510.729,3475.00
511.727,2993.00
512.725,3039.00
513.720,2856.00
514.718,3395.00
515.715,2779.00
516.712,2695.00
517.709,3075.00
518.706,3005.00
519.703,3159.00
520.700,3298.00
521.696,3514.00
522.693,3023.00
523.689,2931.00
524.686,3327.00
525.682,2917.00
526.678,3621.00
527.674,3007.00
528.670,2674.00
529.666,3679.00
530.661,3575.00
531.657,3283.00
532.652,3319.00
533.648,3144.00
534.641,3303.00
535.636,3215.00
536.631,3242.00
537.626,3271.00
538.621,2832.00
539.616,2698.00
540.610,2627.00
541.605,3120.00
542.599,3198.00
543.593,3129.00
544.587,4096.00
545.581,2943.00
546.575,3152.00
547.569,3156.00
548.563,2803.00
549.557,2784.00
550.550,2898.00
551.543,2881.00
552.537,3296.00
553.530,2855.00
554.523,2865.00
555.516,3248.00
556.509,3071.00
557.502,2737.00
558.494,3311.00
559.487,3031.00
560.479,3301.00
561.472,3386.00
562.464,3259.00
563.456,3406.00
564.448,3091.00
565.440,3111.00
566.432,3553.00
567.423,3042.00
568.415,3033.00
569.404,3258.00
570.396,2954.00
571.387,3230.00
572.378,3117.00
573.369,4106.00
574.360,3829.00
575.351,3068.00
576.341,2972.00
577.332,2970.00
578.323,2788.00
579.313,2998.00
580.303,3389.00
581.293,3252.00
582.283,3112.00
583.273,3221.00
584.263,3152.00
585.253,3182.00
586.243,3284.00
587.232,2764.00
588.222,3059.00
589.211,3352.00
590.200,3152.00
591.189,3065.00
592.178,3089.00
593.167,3554.00
594.156,3436.00
595.145,3024.00
596.133,3619.00
597.122,3310.00
598.110,3357.00
599.098,3249.00
600.086,3137.00
601.074,3274.00
602.062,2948.00
603.050,2858.00
604.038,3259.00
605.025,2922.00
606.013,3273.00
607.000,3516.00
607.987,3088.00
608.975,3202.00
609.962,2893.00
610.949,3263.00
611.936,3433.00
612.922,3321.00
613.909,2808.00
614.895,3494.00
615.882,2923.00
616.868,3110.00
617.854,2847.00
618.841,3144.00
619.826,3225.00
620.812,3127.00
621.798,2885.00
622.784,3315.00
623.769,3241.00
624.755,2823.00
625.740,3202.00
626.725,2838.00
627.711,2926.00
628.698,3206.00
629.683,2931.00
630.667,3256.00
631.652,2813.00
632.637,3060.00
633.621,3289.00
634.606,3071.00
635.590,3264.00
636.574,3087.00
637.558,3265.00
638.542,3183.00
639.526,2970.00
640.510,2745.00
641.493,3174.00
642.477,3142.00
643.460,2806.00
644.444,3384.00
645.427,3390.00
646.410,2772.00
647.393,3104.00
648.376,3188.00
649.359,3020.00
650.341,3213.00
651.324,3201.00
652.307,3177.00
653.289,3064.00
654.271,2973.00
655.253,3042.00
656.235,3238.00
657.217,3350.00
658.199,2776.00
659.181,2874.00
660.163,3125.00
661.144,2988.00
662.126,2968.00
663.107,2901.00
664.088,4833.00
665.069,3398.00
666.050,2932.00
667.033,2840.00
668.014,3155.00
668.995,2691.00
669.975,3125.00
670.956,3136.00
671.936,3284.00
672.916,3054.00
673.896,3263.00
674.876,3014.00
675.856,2960.00
676.836,2857.00
677.816,2365.00
678.795,2938.00
679.775,2820.00
680.754,3172.00
681.734,3283.00
682.713,3307.00
683.692,2869.00
684.671,2729.00
685.650,2840.00
686.629,2950.00
687.607,2855.00
688.586,2866.00
689.564,2995.00
690.543,3408.00
691.523,2485.00
692.501,2931.00
693.479,3108.00
694.457,2907.00
695.435,2992.00
696.413,2771.00
697.390,2622.00
698.368,2788.00
699.345,3230.00
700.322,3053.00
701.300,3130.00
702.277,3188.00
703.254,3404.00
704.231,2677.00
705.207,3047.00
706.184,2860.00
707.161,2769.00
708.137,2949.00
709.113,2906.00
710.090,2910.00
711.068,2704.00
712.044,2742.00
713.020,2987.00
713.996,2712.00
714.971,2897.00
715.947,2977.00
716.922,2920.00
717.898,2810.00
718.873,3013.00
719.848,2859.00
720.823,2798.00
721.798,3084.00
722.773,2832.00
723.748,2611.00
724.723,3110.00
725.697,2973.00
726.672,2832.00
727.646,2625.00
728.622,3115.00
729.596,2692.00
730.570,2838.00
731.544,3217.00
732.518,3414.00
733.492,2923.00
734.466,2976.00
735.439,3117.00
736.413,3210.00
737.386,2524.00
738.359,2498.00
739.332,2612.00
740.305,2954.00
741.278,3433.00
742.251,3053.00
743.224,2816.00
744.196,2645.00
745.171,3240.00
746.143,3163.00
747.115,2886.00
748.087,2792.00
749.059,3194.00
750.031,3004.00
751.003,3823.00
751.975,3420.00
752.947,2788.00
753.918,3208.00
754.890,2649.00
755.861,2842.00
756.832,3169.00
757.803,2953.00
758.774,2997.00
759.747,2719.00
760.718,3332.00
761.689,2858.00
762.659,2702.00
763.630,3211.00
764.600,2679.00
765.570,3188.00
766.540,3225.00
767.510,3060.00
768.480,3146.00
769.450,2846.00
770.420,2936.00
771.390,2743.00
772.359,2905.00
773.329,2749.00
774.300,2616.00
775.269,2857.00
776.238,3122.00
777.207,3267.00
778.176,2570.00
779.145,2896.00
780.114,2774.00
781.083,2668.00
782.051,2874.00
783.019,2764.00
783.988,3228.00
784.956,2981.00
785.924,3117.00
786.894,2989.00
787.862,2785.00
788.830,3213.00
789.797,2750.00
790.765,2703.00
791.732,2874.00
792.700,2767.00
793.667,2698.00
794.634,2881.00
795.601,2863.00
796.568,2900.00
797.535,2955.00
798.502,3596.00
799.468,3002.00
800.437,2506.00
801.403,2748.00
802.370,3467.00
803.336,3097.00
804.302,2961.00
805.268,2508.00
806.234,2640.00
807.200,2818.00
808.166,2895.00
809.131,2666.00
810.097,3092.00
811.062,3829.00
812.027,3096.00
812.994,2674.00
813.960,2700.00
814.925,3092.00
815.889,2635.00
816.854,3164.00
817.819,2741.00
818.783,2793.00
819.748,3208.00
820.712,2838.00
821.677,2713.00
822.641,2807.00
823.605,2835.00
824.571,3292.00
825.534,2816.00
826.498,2747.00
827.462,2878.00
828.425,2710.00
829.389,3216.00
830.352,2933.00
831.315,3047.00
832.279,2592.00
833.242,2832.00
834.204,2772.00
835.167,2710.00
836.132,3187.00
837.095,2581.00
838.057,2769.00
839.020,2908.00
839.982,2969.00
840.944,2754.00
841.906,2726.00
842.868,3039.00
843.830,2621.00
844.792,3167.00
845.753,2777.00
846.715,2557.00
847.679,2683.00
848.640,2690.00
849.601,2850.00
850.562,3387.00
851.523,2779.00
852.484,2555.00
853.445,3084.00
854.406,2833.00
855.367,2823.00
856.327,3175.00
857.288,2598.00
858.248,2760.00
859.210,2790.00
860.170,2594.00
861.130,3114.00
862.090,2516.00
863.050,2741.00
864.010,2796.00
864.969,2997.00
865.929,2676.00
866.888,2628.00
867.848,2919.00
868.807,2748.00
869.766,2966.00
870.727,2821.00
871.686,3144.00
872.645,3115.00
873.604,3428.00
874.562,2880.00
875.521,2931.00
876.479,3496.00
877.437,2691.00
878.396,2633.00
879.354,3292.00
880.312,2707.00
881.270,2764.00
882.229,3271.00
883.187,2718.00
884.145,2789.00
885.102,3046.00
886.059,2897.00
887.017,3063.00
887.974,3049.00
888.931,3211.00
889.888,2568.00
890.845,2530.00
891.802,2423.00
892.758,2719.00
893.717,2527.00
894.673,2661.00
895.630,2720.00
896.586,2991.00
897.542,2798.00
898.498,2619.00
899.454,2975.00
900.410,2733.00
901.366,2771.00
902.321,2689.00
903.277,2790.00
904.232,2831.00
905.189,2534.00
906.145,2734.00
907.100,2270.00
908.055,2812.00
909.010,3019.00
909.965,2444.00
910.919,2864.00
911.874,2713.00
912.828,2856.00
913.783,2903.00
914.737,2460.00
915.693,2828.00
916.648,2987.00
917.602,3076.00
918.555,2870.00
919.509,2920.00
920.463,2824.00
921.417,2883.00
922.370,2644.00
923.324,2752.00
924.277,2785.00
925.230,2840.00
926.183,2506.00
927.138,2816.00
928.091,3052.00
929.044,2915.00
929.996,2773.00
930.949,2753.00
931.902,2920.00
932.854,2961.00
933.806,2670.00
934.758,3091.00
935.711,3123.00
936.663,2841.00
937.614,2915.00
938.568,2820.00
939.520,2482.00
940.471,2795.00
941.423,2895.00
942.374,2995.00
943.326,2852.00
944.277,2656.00
945.228,2939.00
946.179,2763.00
947.130,3111.00
948.080,2717.00
949.031,2640.00
949.984,2770.00
950.934,2834.00
951.884,2547.00
952.835,2830.00
953.785,2876.00
954.735,2697.00
955.685,2453.00
956.635,2702.00
957.585,2740.00
958.534,2725.00
959.484,2842.00
960.433,2678.00
961.383,2561.00
962.334,3081.00
963.283,2887.00
964.232,2917.00
965.181,2813.00
966.130,2891.00
967.079,2730.00
968.027,2822.00
968.976,2831.00
969.924,2714.00
970.873,2898.00
971.821,2809.00
972.769,3053.00
973.719,2919.00
974.667,2620.00
975.615,2785.00
976.562,2830.00
977.510,2535.00
978.458,2707.00
979.405,2936.00
980.352,2862.00
981.300,3104.00
982.247,2894.00
983.194,2631.00
984.141,2705.00
985.088,2800.00
986.036,2849.00
986.983,3121.00
987.930,3266.00
988.876,2455.00
989.822,3037.00
990.769,2643.00
991.715,2682.00
992.661,2481.00
993.607,2914.00
994.553,3431.00
995.498,2699.00
996.444,2360.00
997.389,2899.00
998.337,2612.00
999.282,2962.00
1000.227,2734.00
1001.173,2768.00
1002.118,2506.00
1003.062,2997.00
1004.007,2781.00
1004.952,3101.00
1005.897,3056.00
1006.841,2829.00
1007.786,2543.00
1008.730,2511.00
1009.674,3299.00
1010.618,2689.00
1011.564,2606.00
1012.508,2487.00
1013.452,3027.00
1014.396,2810.00
1015.339,2694.00
1016.283,2817.00
1017.226,2851.00
1018.170,2794.00
1019.113,2997.00
1020.056,2876.00
1020.999,2822.00
1021.942,2670.00
1022.885,2981.00
1023.828,3071.00
1024.770,2581.00
1025.715,2868.00
1026.657,2769.00
1027.600,2879.00
1028.542,3022.00
1029.484,2826.00
1030.426,2977.00
1031.368,2874.00
1032.310,2630.00
1033.251,2625.00
1034.193,2772.00
1035.135,2571.00
1036.076,2709.00
1037.017,2596.00
1037.959,2910.00
1038.900,2896.00
1039.843,2870.00
1040.784,2838.00
1041.725,2881.00
1042.665,2688.00
1043.606,2861.00
1044.547,2816.00
1045.487,2457.00
1046.427,2779.00
1047.368,2884.00
1048.308,2299.00
1049.248,2580.00
1050.188,2762.00
1051.128,2715.00
1052.067,2773.00
1053.007,2495.00
1053.947,2453.00
1054.886,2664.00
1055.827,2558.00
1056.766,3047.00
1057.706,2511.00
1058.645,2734.00
1059.584,2805.00
1060.522,3076.00
1061.461,2539.00
1062.400,2578.00
1063.338,2749.00
1064.277,2586.00
1065.215,2608.00
1066.154,2470.00
1067.092,2676.00
1068.030,2727.00
1068.968,2944.00
1069.906,3128.00
1070.843,3080.00
1071.781,2864.00
1072.720,2907.00
1073.658,2893.00
1074.595,2696.00
1075.533,2645.00
1076.470,2653.00
1077.407,3114.00
1078.344,2846.00
1079.281,2908.00
1080.217,2366.00
1081.154,2750.00
1082.091,2817.00
1083.027,2528.00
1083.964,2985.00
1084.900,2641.00
1085.836,2685.00
1086.772,2975.00
1087.708,2536.00
1088.644,2954.00
1089.580,2750.00
1090.515,2827.00
1091.451,2678.00
1092.388,2833.00
1093.324,2520.00
1094.259,3361.00
1095.194,2830.00
1096.129,2716.00
1097.064,2663.00
1097.999,2897.00
1098.934,2630.00
1099.869,2621.00
1100.803,2808.00
1101.738,2803.00
1102.672,2510.00
1103.607,2909.00
1104.541,2654.00
1105.475,2624.00
1106.409,2478.00
1107.343,2672.00
1108.277,2502.00
1109.210,2784.00
1110.144,2780.00
1111.078,2741.00
1112.011,2525.00
1112.944,2861.00
1113.878,2853.00
1114.811,2264.00
1115.744,2719.00
1116.678,2402.00
1117.611,2698.00
1118.544,2666.00
1119.477,2873.00
1120.409,2622.00
1121.342,3216.00
1122.274,2812.00
1123.206,4072.00
1124.138,2775.00
1125.070,3088.00
1126.002,2913.00
1126.934,2377.00
1127.866,2641.00
1128.798,2414.00
1129.729,2476.00
1130.661,2750.00
1131.592,2699.00
1132.523,2827.00
1133.454,2865.00
1134.385,2381.00
1135.317,2701.00
1136.247,2679.00
1137.178,2947.00
1138.109,2458.00
1139.039,3095.00
1139.970,2958.00
1140.900,2687.00
1141.831,2418.00
1142.761,2332.00
1143.691,2870.00
1144.621,2765.00
1145.551,2787.00
1146.480,2797.00
1147.410,2901.00
1148.340,2380.00
1149.269,2431.00
1150.199,2687.00
1151.128,3166.00
1152.057,2506.00
1152.979,2656.00
1153.898,2695.00
1154.819,2830.00
1155.739,2724.00
1156.658,2637.00
1157.579,2792.00
1158.498,2762.00
1159.419,2277.00
1160.338,2752.00
1161.256,2731.00
1162.177,2593.00
1163.095,2689.00
1164.016,2775.00
1164.934,2972.00
1165.852,2906.00
1166.772,2710.00
1167.690,2734.00
1168.610,2794.00
1169.528,2748.00
1170.446,2264.00
1171.365,2633.00
1172.283,2612.00
1173.202,2700.00
1174.120,2768.00
1175.037,2557.00
1175.956,2535.00
1176.873,2552.00
1177.792,2632.00
1178.709,3208.00
1179.626,2626.00
1180.544,2935.00
1181.461,2597.00
1182.379,2804.00
1183.296,2732.00
1184.212,2373.00
1185.130,2570.00
1186.046,3086.00
1186.962,2725.00
1187.880,3025.00
1188.796,2755.00
1189.714,2528.00
1190.629,2868.00
1191.545,2818.00
1192.462,2631.00
1193.378,2699.00
1194.295,2436.00
1195.210,2752.00
1196.125,2888.00
1197.042,2803.00
1197.957,2730.00
1198.872,2572.00
1199.788,2596.00
1200.703,3057.00
1201.619,2715.00
1202.534,2577.00
1203.448,2857.00
1204.364,2653.00
1205.278,2382.00
1206.192,2742.00
1207.108,3251.00
1208.022,3075.00
1208.938,2579.00
1209.851,2869.00
1210.765,2957.00
1211.680,2627.00
1212.594,2486.00
1213.507,2662.00
1214.422,3134.00
1215.335,2858.00
1216.248,2646.00
1217.163,2713.00
1218.076,3325.00
1218.990,2849.00
1219.903,2477.00
1220.816,2520.00
1221.730,2662.00
1222.642,2598.00
1223.554,2646.00
1224.469,2822.00
1225.380,2656.00
1226.292,2360.00
1227.206,2844.00
1228.118,3057.00
1229.032,2341.00
1229.943,2588.00
1230.855,2665.00
1231.768,2449.00
1232.679,2810.00
1233.590,2687.00
1234.503,2965.00
1235.414,2591.00
1236.325,2590.00
1237.238,2768.00
1238.149,2830.00
1239.059,2547.00
1239.972,2926.00
1240.882,2524.00
1241.793,2857.00
1242.705,3100.00
1243.615,2683.00
1244.525,2812.00
1245.437,2289.00
1246.347,2758.00
1247.259,2869.00
1248.168,3174.00
1249.078,2953.00
1249.989,3014.00
1250.899,2536.00
1251.808,2563.00
1252.719,2629.00
1253.628,2582.00
1254.537,3133.00
1255.448,2544.00
1256.357,2554.00
1257.266,2687.00
1258.176,2424.00
1259.085,2399.00
1259.993,2512.00
1260.904,2553.00
1261.812,2519.00
1262.720,3273.00
1263.630,2918.00
1264.538,2521.00
1265.446,2798.00
1266.356,2674.00
1267.263,3002.00
1268.171,2492.00
1269.080,2795.00
1269.988,2904.00
1270.895,2629.00
1271.804,2665.00
1272.711,2897.00
1273.619,2910.00
1274.527,2537.00
1275.434,2811.00
1276.341,2495.00
1277.248,2771.00
1278.156,3044.00
1279.063,2586.00
1279.969,2783.00
1280.877,3651.00
1281.783,2970.00
1282.690,2824.00
1283.598,2677.00
1284.503,2582.00
1285.409,2570.00
1286.317,3088.00
1287.223,3144.00
1288.128,2767.00
1289.036,2637.00
1289.941,2661.00
1290.846,2716.00
1291.751,2517.00
1292.658,2654.00
1293.563,3122.00
1294.468,2715.00
1295.375,2872.00
1296.280,2999.00
1297.184,3441.00
1298.091,2804.00
1298.995,2935.00
1299.900,3121.00
1300.806,2607.00
1301.710,2446.00
1302.614,2305.00
1303.518,3011.00
1304.424,2671.00
1305.327,2946.00
1306.231,2705.00
1307.137,2838.00
1308.040,2723.00
1308.943,2750.00
1309.847,2913.00
1310.752,2931.00
1311.655,2376.00
1312.558,2515.00
1313.463,2676.00
1314.366,2606.00
1315.269,2750.00
1316.171,2713.00
1317.076,2626.00
1317.978,2533.00
1318.881,2317.00
1319.785,2560.00
1320.687,2578.00
1321.589,2353.00
1322.491,2546.00
1323.395,2806.00
1324.297,3252.00
1325.198,2848.00
1326.102,2482.00
1327.004,2540.00
1327.905,3129.00
1328.806,2684.00
1329.709,2805.00
1330.611,2649.00
1331.512,2545.00
1332.413,3155.00
1333.316,2753.00
1334.216,2930.00
1335.117,2439.00
1336.020,2742.00
1336.920,2711.00
1337.821,2566.00
1338.721,2992.00
1339.623,2774.00
1340.523,2676.00
1341.423,2594.00
1342.323,2993.00
1343.225,2793.00
1344.125,2548.00
1345.025,2612.00
1345.924,2336.00
1346.826,3047.00
1347.725,3151.00
1348.624,2981.00
1349.524,2612.00
1350.425,2669.00
1351.324,2810.00
1352.223,2874.00
1353.121,2687.00
1354.022,2936.00
1354.921,3154.00
1355.819,2797.00
1356.718,2773.00
1357.618,2434.00
1358.516,2836.00
1359.415,3125.00
1360.313,2847.00
1361.213,2679.00
1362.111,3012.00
1363.008,3408.00
1363.906,2710.00
1364.806,2698.00
1365.703,2818.00
1366.601,2521.00
1367.498,2565.00
1368.397,2873.00
1369.295,2725.00
1370.192,2577.00
1371.089,2823.00
1371.987,2706.00
1372.884,2999.00
1373.781,2506.00
1374.678,2715.00
1375.574,2531.00
1376.473,2869.00
1377.369,2974.00
1378.265,2585.00
1379.161,2691.00
1380.059,2371.00
1380.955,2818.00
1381.851,2481.00
1382.747,2603.00
1383.643,2626.00
1384.540,2526.00
1385.436,2588.00
1386.331,2775.00
1387.227,2875.00
1388.124,2821.00
1389.019,2521.00
1389.914,2705.00
1390.809,2339.00
1391.704,3143.00
1392.601,2643.00
1393.495,2979.00
1394.390,2938.00
1395.285,2963.00
1396.179,2774.00
1397.075,2718.00
1397.969,2779.00
1398.864,2416.00
1399.758,2671.00
1400.652,2733.00
1401.547,2524.00
1402.441,2491.00
1403.335,3084.00
1404.229,2746.00
1405.122,2787.00
1406.017,2717.00
1406.911,2867.00
1407.804,3148.00
1408.697,2725.00
1409.590,2531.00
1410.485,2886.00
1411.378,2763.00
1412.271,2413.00
1413.163,2786.00
1414.056,2887.00
1414.949,3109.00
1415.843,2786.00
1416.735,2654.00
1417.627,2725.00
1418.520,2675.00
1419.412,2963.00
1420.306,2905.00
1421.197,3032.00
1422.089,2943.00
1422.981,3215.00
1423.873,2915.00
1424.764,2859.00
1425.657,2776.00
1426.549,2886.00
1427.440,2951.00
1428.331,2638.00
1429.222,2422.00
1430.113,2776.00
1431.006,2920.00
1431.897,2646.00
1432.787,2753.00
1433.678,2668.00
1434.568,2560.00
1435.459,2988.00
1436.351,2940.00
1437.241,2842.00
1438.131,2889.00
1439.021,2481.00
1439.911,2716.00
1440.801,2781.00
1441.693,2961.00
1442.583,2762.00
1443.472,2778.00
1444.362,2837.00
1445.251,2662.00
1446.140,2638.00
1447.030,2973.00
1447.921,2921.00
1448.810,2567.00
1449.699,3141.00
1450.588,2752.00
1451.476,2650.00
1452.365,2842.00
1453.254,2627.00
1454.144,2615.00
1455.032,2920.00
1455.921,2444.00
1456.809,3080.00
1457.697,2531.00
1458.585,2707.00
1459.473,2653.00
1460.361,2569.00
1461.251,2825.00
1462.138,2826.00
1463.026,2671.00
1463.913,2935.00
1464.801,2623.00
1465.688,2826.00
1466.575,2785.00
1467.463,3190.00
1468.351,2595.00
1469.238,2703.00
1470.125,2316.00
1471.012,2811.00
1471.899,2825.00
1472.785,2563.00
1473.672,2742.00
1474.558,2972.00
1475.446,2875.00
1476.333,2902.00
1477.219,2519.00
1478.105,2668.00
1478.991,2681.00
1479.877,3063.00
1480.762,2760.00
1481.648,2615.00
1482.534,2893.00
1483.419,2810.00
1484.307,2886.00
1485.192,2733.00
1486.077,2590.00
1486.962,2602.00
1487.847,2480.00
1488.732,2548.00
1489.617,2751.00
1490.502,3060.00
1491.387,2880.00
1492.271,2516.00
1493.156,2556.00
1494.042,2530.00
1494.927,2948.00
1495.811,2641.00
1496.695,2885.00
1497.579,3060.00
1498.463,2736.00
1499.347,2801.00
1500.231,2795.00
1501.114,2834.00
1501.998,3029.00
1502.881,2788.00
1503.765,3030.00
1504.648,3175.00
1505.533,2853.00
1506.417,2775.00
1507.300,2701.00
1508.183,2776.00
1509.066,2234.00
1509.948,2978.00
1510.831,3103.00
1511.714,2558.00
1512.596,2889.00
1513.479,3032.00
1514.361,2969.00
1515.243,2786.00
1516.125,2909.00
1517.008,3034.00
1517.890,2712.00
1518.771,2783.00
1519.655,2969.00
1520.537,2699.00
1521.419,2601.00
1522.300,2765.00
1523.182,2906.00
1524.063,2915.00
1524.944,3042.00
1525.825,2939.00
1526.707,2555.00
1527.588,2540.00
1528.468,2851.00
1529.349,2453.00
1530.230,2691.00
1531.111,2938.00
1531.991,2828.00
1532.872,2471.00
1533.752,2699.00
1534.632,2622.00
1535.513,2600.00
1536.393,2953.00
1537.273,3051.00
1538.153,3450.00
1539.032,2504.00
1539.912,2772.00
1540.792,2778.00
1541.672,2778.00
1542.551,2892.00
1543.430,3412.00
1544.310,2812.00
1545.189,2633.00
1546.068,3232.00
1546.947,2865.00
1547.826,3085.00
1548.705,2736.00
1549.584,2982.00
1550.462,2705.00
1551.341,2934.00
1552.219,2834.00
1553.098,2916.00
1553.976,2993.00
1554.854,3170.00
1555.733,2972.00
1556.611,2688.00
1557.489,2569.00
1558.367,2746.00
1559.244,2912.00
1560.122,2736.00
1561.000,2821.00
1561.877,3011.00
1562.755,2645.00
1563.632,2728.00
1564.509,2996.00
1565.386,3130.00
1566.264,2535.00
1567.141,2338.00
1568.017,2925.00
1568.894,2741.00
1569.771,2840.00
1570.648,2842.00
1571.524,2784.00
1572.401,2490.00
1573.277,2567.00
1574.153,2797.00
1575.029,2629.00
1575.906,3489.00
1576.781,2968.00
1577.657,2730.00
1578.533,3002.00
1579.409,2382.00
1580.285,2719.00
1581.160,3205.00
1582.036,2945.00
1582.911,2597.00
1583.786,3089.00
1584.662,2571.00
1585.537,2722.00
1586.412,2826.00
1587.287,2606.00
1588.160,2946.00
1589.035,2399.00
1589.909,2808.00
1590.784,2704.00
1591.658,2532.00
1592.533,2797.00
1593.407,2771.00
1594.281,2669.00
1595.155,3173.00
1596.029,2685.00
1596.903,2711.00
1597.777,2655.00
1598.651,3042.00
1599.525,2438.00
1600.398,2854.00
1601.272,2763.00
1602.144,3330.00
1603.017,2708.00
1603.890,3041.00
1604.763,2852.00
1605.636,2942.00
1606.509,2473.00
1607.382,2573.00
1608.255,2823.00
1609.128,3012.00
1610.000,2712.00
1610.873,2435.00
1611.746,2647.00
1612.616,2667.00
1613.488,2348.00
1614.361,2777.00
1615.233,2687.00
1616.105,3002.00
1616.977,2639.00
1617.849,2569.00
1618.720,3070.00
1619.592,3087.00
1620.464,2856.00
1621.333,3235.00
1622.205,2730.00
1623.076,2744.00
1623.947,2774.00
1624.818,3053.00
1625.689,2874.00
1626.560,2677.00
1627.431,2824.00
1628.302,3196.00
1629.171,2919.00
1630.042,3088.00
1630.912,3823.00
1631.782,3360.00
1632.653,2556.00
1633.523,2951.00
1634.393,3076.00
1635.263,2619.00
1636.131,2781.00
1637.001,2696.00
1637.871,2410.00
1638.741,2429.00
1639.611,2506.00
1640.480,2915.00
1641.350,2645.00
1642.219,2589.00
1643.087,2267.00
1643.956,3212.00
1644.825,3034.00
1645.694,2990.00
1646.563,2950.00
1647.432,2807.00
1648.299,2800.00
1649.167,2889.00
1650.036,2596.00
1650.904,2912.00
1651.773,3030.00
1652.641,2776.00
1653.509,2987.00
1654.376,2621.00
1655.244,2816.00
1656.112,2804.00
1656.980,2825.00
1657.847,2666.00
1658.715,2951.00
1659.581,2672.00
1660.448,3028.00
1661.316,2266.00
1662.183,2856.00
1663.051,2818.00
1663.918,2828.00
1664.783,2800.00
1665.650,2865.00
1666.517,2969.00
1667.384,2793.00
1668.251,2852.00
1669.115,3045.00
1669.982,2698.00
1670.849,3058.00
1671.715,2758.00
1672.581,2913.00
1673.446,2899.00
1674.312,2853.00
1675.178,3213.00
1676.044,2905.00
1676.910,2846.00
1677.774,2834.00
1678.639,2431.00
1679.505,2783.00
1680.370,2958.00
1681.236,3456.00
1682.099,2748.00
1682.965,2787.00
1683.830,2375.00
1684.695,2609.00
1685.560,2692.00
1686.423,2904.00
1687.288,2923.00
1688.153,2846.00
1689.017,2738.00
1689.880,2852.00
1690.745,2936.00
1691.609,2639.00
1692.473,2961.00
1693.338,3037.00
1694.200,3073.00
1695.064,2793.00
1695.928,2671.00
1696.792,2803.00
1697.654,3291.00
1698.517,2842.00
1699.381,2522.00
1700.245,2439.00
1701.106,3110.00
1701.969,2695.00
1702.833,2964.00
1703.696,2697.00
1704.557,2791.00
1705.420,2632.00
1706.283,2835.00
1707.146,2916.00
1708.007,2583.00
1708.870,2555.00
1709.732,2465.00
1710.595,2706.00
1711.455,2536.00
1712.318,2722.00
1713.180,3062.00
1714.040,2858.00
1714.902,2964.00
1715.764,2796.00
1716.626,2572.00
1717.486,2804.00
1718.348,3044.00
1719.209,4440.00
1720.071,2421.00
1720.930,2565.00
1721.792,2624.00
1722.653,2632.00
1723.512,2701.00
1724.374,2747.00
1725.234,2854.00
1726.095,2813.00
1726.954,2828.00
1727.815,2930.00
1728.676,2806.00
1729.535,3028.00
1730.395,2786.00
1731.256,2692.00
1732.114,2829.00
1732.974,2257.00
1733.834,3169.00
1734.693,2952.00
1735.553,2804.00
1736.413,3202.00
1737.272,2703.00
1738.130,2727.00
1738.990,2877.00
1739.849,2676.00
1740.707,3856.00
1741.566,2819.00
1742.426,2858.00
1743.283,3211.00
1744.142,2668.00
1745.001,2464.00
1745.858,2943.00
1746.717,2869.00
1747.576,2926.00
1748.433,2940.00
1749.292,3452.00
1750.150,3455.00
1751.007,2967.00
1751.865,3037.00
1752.723,2832.00
1753.579,2717.00
1754.438,3059.00
1755.296,2962.00
1756.152,2358.00
1757.010,2484.00
1757.865,3015.00
1758.723,2458.00
1759.581,3116.00
1760.436,2805.00
1761.294,3161.00
1762.151,2771.00
1763.006,2705.00
1763.864,2440.00
1764.721,2991.00
1765.576,2854.00
1766.433,2943.00
1767.288,2687.00
1768.144,2880.00
1769.001,2750.00
1769.856,2916.00
1770.712,2979.00
1771.568,2610.00
1772.423,2708.00
1773.279,2705.00
1774.133,2697.00
1774.989,3230.00
1775.845,3149.00
1776.699,3020.00
1777.555,2759.00
1778.409,3358.00
1779.265,2724.00
1780.120,2742.00
1780.974,2777.00
1781.829,2394.00
1782.682,2892.00
1783.538,2641.00
1784.393,2840.00
1785.246,2683.00
1786.101,2881.00
1786.954,2985.00
1787.808,3039.00
1788.661,2553.00
1789.516,2698.00
1790.370,2738.00
1791.223,2954.00
1792.077,2818.00
1792.930,2919.00
1793.784,2689.00
1794.636,2860.00
1795.490,2765.00
1796.344,2828.00
1797.196,2798.00
1798.049,2938.00
1798.901,2676.00
1799.755,3019.00
1800.606,2573.00
1801.460,3289.00
1802.311,3129.00
1803.165,3228.00
1804.018,3170.00
1804.869,2887.00
1805.722,3267.00
1806.573,2838.00
1807.426,2625.00
1808.276,2825.00
1809.129,2742.00
1809.980,2975.00
1810.832,3116.00
1811.683,2719.00
1812.535,3182.00
1813.385,2749.00
1814.237,3095.00
1815.089,2816.00
1815.940,3110.00
1816.791,2753.00
1817.641,2671.00
1818.493,2959.00
1819.343,2856.00
1820.194,2668.00
1821.044,2891.00
1821.895,3002.00
1822.745,2522.00
1823.596,2697.00
1824.445,3277.00
1825.296,2955.00
1826.145,2793.00
1826.996,3017.00
1827.845,2858.00
1828.695,2867.00
1829.544,2807.00
1830.395,2847.00
1831.243,2755.00
1832.094,2548.00
1832.942,3455.00
1833.792,2926.00
1834.640,2882.00
1835.490,2855.00
1836.338,2877.00
1837.186,2715.00
1838.036,2697.00
1838.884,2825.00
1839.733,3179.00
1840.581,2978.00
1841.430,2954.00
1842.278,3159.00
1843.127,2731.00
1843.974,2499.00
1844.823,3273.00
1845.671,2953.00
1846.519,2819.00
1847.366,2899.00
1848.213,2447.00
1849.062,2670.00
1849.909,2571.00
1850.757,3531.00
1851.604,2922.00
1852.452,2707.00
1853.298,3012.00
1854.146,2886.00
1854.993,2866.00
1855.839,3361.00
1856.687,2910.00
1857.532,2968.00
1858.380,2849.00
1859.226,2876.00
1860.073,2910.00
1860.919,2645.00
1861.765,2709.00
1862.612,3079.00
1863.457,3049.00
1864.304,2765.00
1865.150,2971.00
1865.995,2795.00
1866.842,3003.00
1867.686,3067.00
1868.533,2947.00
1869.378,2863.00
1870.223,2834.00
1871.069,2747.00
1871.914,2867.00
1872.760,2803.00
1873.604,2619.00
1874.448,2964.00
1875.294,2986.00
1876.139,2722.00
1876.984,2942.00
1877.828,2475.00
1878.672,2349.00
1879.518,2692.00
1880.361,3016.00
1881.205,2968.00
1882.050,2614.00
1882.894,3298.00
1883.739,2704.00
1884.582,2580.00
1885.425,2676.00
1886.270,3080.00
1887.113,2540.00
1887.956,2984.00
1888.801,2860.00
1889.644,2616.00
1890.486,2396.00
1891.331,2725.00
1892.173,2836.00
1893.017,2900.00
1893.860,3125.00
1894.702,3120.00
1895.546,2859.00
1896.388,3560.00
1897.230,3221.00
1898.074,2730.00
1898.916,2628.00
1899.757,2599.00
1900.601,3529.00
1901.443,3135.00
1902.284,3088.00
1903.125,3324.00
1903.969,3038.00
1904.810,3099.00
1905.651,2971.00
1906.494,3141.00
1907.335,3276.00
1908.176,2928.00
1909.018,2930.00
1909.859,2839.00
1910.700,2687.00
1911.542,3381.00
1912.383,2921.00
1913.223,2436.00
1914.064,2946.00
1914.906,3115.00
1915.746,3179.00
1916.586,3286.00
1917.428,2808.00
1918.268,2869.00
1919.107,2735.00
1919.947,2583.00
1920.789,2781.00
1921.628,3129.00
1922.468,2839.00
1923.309,2666.00
1924.148,3146.00
1924.988,2930.00
1925.827,2794.00
1926.667,2738.00
1927.507,2920.00
1928.345,2653.00
1929.184,3013.00
1930.025,2637.00
1930.864,3101.00
1931.702,3173.00
1932.541,2739.00
1933.381,2955.00
1934.219,3002.00
1935.057,3138.00
1935.896,2591.00
1936.735,2810.00
1937.573,2731.00
1938.411,2644.00
1939.249,2988.00
1940.089,2691.00
1940.927,3100.00
1941.764,3138.00
1942.602,2777.00
1943.439,2736.00
1944.278,2823.00
1945.115,2764.00
1945.953,2585.00
1946.790,2902.00
1947.628,3213.00
1948.465,2978.00
1949.302,2972.00
1950.139,2995.00
1950.976,2696.00
1951.814,2998.00
1952.651,2937.00
1953.487,2624.00
1954.323,3102.00
1955.160,2836.00
1955.998,3185.00
1956.834,2838.00
1957.670,2889.00
1958.506,3041.00
1959.342,2933.00
1960.177,2906.00
1961.015,3013.00
1961.850,2906.00
1962.686,2859.00
1963.521,2871.00
1964.357,3149.00
1965.192,2647.00
1966.029,3036.00
1966.864,2783.00
1967.699,3102.00
1968.534,2886.00
1969.369,3170.00
1970.204,2801.00
1971.040,2862.00
1971.875,2765.00
1972.709,2908.00
1973.544,2704.00
1974.378,2714.00
1975.212,2957.00
1976.047,2823.00
1976.882,2720.00
1977.716,3244.00
1978.550,2557.00
1979.384,2766.00
1980.218,2786.00
1981.052,2776.00
1981.885,2888.00
1982.719,2859.00
1983.554,3012.00
1984.388,3176.00
1985.221,2937.00
1986.054,3176.00
1986.887,2891.00
1987.720,2697.00
1988.553,3193.00
1989.386,2970.00
1990.219,2996.00
1991.053,3159.00
1991.886,2699.00
1992.719,3070.00
1993.551,2396.00
1994.383,3008.00
1995.216,2771.00
1996.048,2582.00
1996.880,2996.00
1997.712,2740.00
1998.544,2865.00
1999.376,2954.00
2000.208,3181.00
2001.040,3300.00
2001.873,2685.00
2002.705,2718.00
2003.536,2912.00
2004.367,2922.00
2005.199,2909.00
2006.030,2714.00
2006.861,2641.00
2007.692,2917.00
2008.523,2736.00
2009.354,2927.00
2010.185,2680.00
2011.016,2983.00
2011.846,3099.00
2012.677,2776.00
2013.507,3214.00
2014.338,3096.00
2015.168,2831.00
2015.999,3438.00
2016.829,2757.00
2017.659,3076.00
2018.489,3397.00
2019.319,2691.00
2020.149,3045.00
2020.980,2899.00
2021.810,2708.00
2022.639,2743.00
2023.469,2742.00
2024.298,2511.00
2025.128,2450.00
2025.957,2480.00
2026.786,2302.00
2027.615,2504.00
2028.444,2706.00
2029.273,2881.00
2030.102,2484.00
2030.931,2705.00
2031.758,3025.00
2032.586,2636.00
2033.415,2698.00
2034.243,2320.00
2035.072,2143.00
2035.900,2606.00
2036.728,2437.00
2037.556,2457.00
2038.385,2449.00
2039.213,2299.00
2040.040,2265.00
2040.868,2219.00
2041.696,2311.00
2042.524,2298.00
2043.351,2503.00
2044.179,2334.00
2045.006,2094.00
