RamanScope Measure Spectrum Data V3.72

<< MEASURE CONDITION >>
Exposure Type,Aver
Exposure Time [sec],15
Exposure Count,30
Measure Time,2023/07/05 09:13:12
Data Name,""
Data Comment,""
Rayleigh Wave[nm],532.0

<< SAMPLE SPECTRUM >>
Wave[dcm-1],No314
146.591,339.60
147.626,400.07
148.664,519.47
149.699,544.77
150.737,626.93
151.772,681.80
152.809,819.70
153.846,852.60
154.881,919.80
155.918,980.37
156.953,987.80
157.989,1054.37
159.026,1075.10
160.060,1161.13
161.096,1173.77
162.130,1190.03
163.167,1211.77
164.200,1240.83
165.236,1234.87
166.272,1259.50
167.305,1268.97
168.341,1338.33
169.374,1344.50
170.409,1405.73
171.445,1368.83
172.477,1408.83
173.512,1417.47
174.545,1499.23
175.580,1464.47
176.614,1513.20
177.647,1513.97
178.681,1550.23
179.713,1549.47
180.747,1507.10
181.781,1521.27
182.813,1537.33
183.847,1514.47
184.878,1543.77
185.912,1529.00
186.945,1534.10
187.976,1511.07
189.010,1584.97
190.043,1578.00
191.073,1602.73
192.106,1629.93
193.137,1636.70
194.170,1685.33
195.202,1758.17
196.232,1703.57
197.265,1735.63
198.297,1811.73
199.327,1908.30
200.359,1912.00
201.388,1988.60
202.420,2026.10
203.452,2122.23
204.481,2186.57
205.512,2305.23
206.544,2419.07
207.573,2520.17
208.604,2670.50
209.635,2798.73
210.663,3018.47
211.694,3261.63
212.725,3460.43
213.753,3717.33
214.783,4007.80
215.813,4310.37
216.841,4516.87
217.871,4679.93
218.899,4870.87
219.929,4944.33
220.959,4975.37
221.986,4853.77
223.016,4712.83
224.045,4581.37
225.072,4337.07
226.101,4043.83
227.130,3781.23
228.157,3531.83
229.185,3343.47
230.214,3137.47
231.241,2984.80
232.269,2842.53
233.297,2754.77
234.323,2672.63
235.351,2578.73
236.379,2497.17
237.407,2441.67
238.433,2347.43
239.460,2336.77
240.488,2288.80
241.513,2313.07
242.540,2326.70
243.568,2276.47
244.592,2286.33
245.619,2287.23
246.646,2259.63
247.671,2249.37
248.697,2289.40
249.724,2276.87
250.748,2280.70
251.774,2306.77
252.801,2278.50
253.827,2275.47
254.850,2375.57
255.876,2359.03
256.902,2412.67
257.925,2440.83
258.951,2457.20
259.976,2540.03
260.999,2579.03
262.024,2627.37
263.049,2631.50
264.074,2724.87
265.097,2803.13
266.122,2849.70
267.146,2915.67
268.168,3007.23
269.193,3066.17
270.217,3141.87
271.241,3195.00
272.263,3282.47
273.287,3383.43
274.311,3436.73
275.332,3456.73
276.356,3532.67
277.379,3578.77
278.402,3564.43
279.424,3578.07
280.447,3548.53
281.470,3539.27
282.492,3493.73
283.513,3452.57
284.536,3375.73
285.558,3299.10
286.581,3236.53
287.601,3158.43
288.623,3099.27
289.645,2997.87
290.665,2948.43
291.687,2866.83
292.709,2809.73
293.730,2706.67
294.750,2632.20
295.771,2583.27
296.792,2499.53
297.813,2419.73
298.832,2342.10
299.853,2295.07
300.874,2215.60
301.895,2152.17
302.913,2110.30
303.934,2056.23
304.954,2017.10
305.975,1961.57
306.993,1965.83
308.013,1889.77
309.033,1837.47
310.052,1821.50
311.072,1743.60
312.090,1729.13
313.109,1732.80
314.129,1706.00
315.148,1707.07
316.165,1653.77
317.184,1620.70
318.203,1600.93
319.222,1627.43
320.238,1572.63
321.257,1525.07
322.275,1555.17
323.294,1528.30
324.312,1491.10
325.328,1527.97
326.346,1482.10
327.364,1457.80
328.382,1452.47
329.397,1455.33
330.415,1479.37
331.432,1446.77
332.450,1481.30
333.467,1442.80
334.482,1430.03
335.499,1448.53
336.516,1427.93
337.533,1397.17
338.547,1391.00
339.564,1404.13
340.580,1391.03
341.597,1403.17
342.613,1398.77
343.627,1373.17
344.643,1352.00
345.659,1387.00
346.675,1392.03
347.690,1387.43
348.704,1374.43
349.719,1360.60
350.735,1351.33
351.750,1372.20
352.765,1391.93
353.778,1395.13
354.793,1402.60
355.808,1366.23
356.822,1337.63
357.837,1377.23
358.851,1395.10
359.864,1394.47
360.878,1422.97
361.892,1403.50
362.906,1456.70
363.920,1425.30
364.932,1441.90
365.945,1434.27
366.959,1485.13
367.972,1447.27
368.986,1463.50
369.999,1557.80
371.010,1435.00
372.023,1537.87
373.036,1499.77
374.049,1482.37
375.061,1536.53
376.072,1547.03
377.084,1552.17
378.097,1572.40
379.109,1587.97
380.121,1559.10
381.133,1579.43
382.143,1535.47
383.155,1593.40
384.166,1586.67
385.178,1604.20
386.189,1594.03
387.201,1579.43
388.212,1600.37
389.221,1659.13
390.232,1583.93
391.243,1551.77
392.254,1601.87
393.264,1568.80
394.275,1558.93
395.283,1625.67
396.294,1581.27
397.304,1537.53
398.314,1530.17
399.324,1531.97
400.334,1498.07
401.344,1503.20
402.351,1470.13
403.361,1479.93
404.370,1434.10
405.380,1434.43
406.389,1469.37
407.398,1428.50
408.407,1378.57
409.414,950.97
410.423,1413.30
411.431,1392.40
412.440,1335.07
413.448,1336.07
414.457,1318.07
415.465,1334.80
416.471,1304.43
417.479,1281.27
418.487,1302.20
419.495,1285.23
420.503,1300.60
421.510,1277.80
422.518,1217.90
423.525,1266.37
424.530,1285.70
425.537,1268.37
426.544,1243.57
427.551,1267.90
428.558,1231.37
429.565,1198.53
430.571,1199.73
431.578,1204.87
432.582,1242.10
433.588,1182.17
434.595,1186.70
435.601,1223.47
436.607,1209.10
437.612,1205.03
438.618,1183.67
439.624,1230.17
440.627,1205.70
441.633,1266.43
442.638,1200.23
443.643,1182.97
444.648,1198.13
445.653,1210.30
446.658,1225.70
447.663,1195.97
448.667,1227.73
449.672,1195.33
450.674,1174.87
451.678,1214.57
452.682,1191.97
453.687,1231.37
454.690,1177.10
455.694,1251.97
456.698,1223.23
457.702,1198.60
458.705,1215.13
459.709,1222.40
460.710,1215.73
461.713,1246.37
462.716,1223.57
463.719,1206.87
464.722,1256.13
465.725,1250.80
466.727,1209.03
467.730,1292.50
468.732,1253.83
469.735,1190.37
470.737,1233.53
471.737,1249.40
472.739,1250.40
473.741,1237.47
474.742,1234.47
475.744,1278.87
476.746,1306.23
477.747,1313.77
478.748,1266.97
479.750,1294.47
480.751,1299.07
481.752,1300.60
482.753,1273.80
483.751,1255.93
484.752,1271.33
485.753,1265.27
486.753,1303.97
487.753,1305.43
488.754,1275.07
489.754,1303.23
490.754,1273.10
491.754,1272.50
492.754,1268.13
493.753,1268.60
494.753,1302.20
495.752,1213.60
496.752,1267.73
497.749,1247.67
498.748,1238.80
499.747,1252.53
500.746,1211.07
501.745,1248.17
502.744,1260.23
503.742,1237.77
504.741,1198.63
505.739,1214.83
506.737,1236.17
507.735,1244.70
508.734,1238.83
509.732,1198.70
510.729,1178.90
511.727,1232.13
512.725,1243.33
513.720,1207.77
514.718,1222.10
515.715,1163.83
516.712,1215.27
517.709,1180.37
518.706,1184.37
519.703,1227.40
520.700,1218.10
521.696,1191.17
522.693,1148.27
523.689,1205.83
524.686,1195.37
525.682,1202.27
526.678,1190.00
527.674,1214.60
528.670,1187.63
529.666,1182.77
530.661,1206.77
531.657,1183.53
532.652,1190.13
533.648,1206.47
534.641,1188.50
535.636,1204.70
536.631,1214.20
537.626,1213.43
538.621,1225.93
539.616,1223.50
540.610,1212.20
541.605,1197.07
542.599,1209.87
543.593,1227.77
544.587,1209.00
545.581,1234.03
546.575,1195.53
547.569,1240.20
548.563,1220.33
549.557,1200.23
550.550,1217.40
551.543,1220.47
552.537,1218.90
553.530,1201.50
554.523,1229.03
555.516,1211.67
556.509,1231.10
557.502,1253.97
558.494,1222.93
559.487,1241.00
560.479,1248.47
561.472,1245.07
562.464,1263.30
563.456,1247.73
564.448,1267.30
565.440,1255.90
566.432,1245.47
567.423,1265.23
568.415,1289.53
569.404,1221.13
570.396,1292.13
571.387,1291.80
572.378,1314.53
573.369,1274.53
574.360,1329.77
575.351,1312.87
576.341,1323.20
577.332,1312.53
578.323,1335.17
579.313,1305.50
580.303,1341.93
581.293,1306.40
582.283,1378.13
583.273,1347.07
584.263,1349.53
585.253,1364.13
586.243,1332.00
587.232,1352.10
588.222,1341.33
589.211,1324.43
590.200,1339.33
591.189,1297.93
592.178,1370.67
593.167,1324.53
594.156,1345.80
595.145,1344.80
596.133,1321.13
597.122,1316.73
598.110,1304.07
599.098,1329.23
600.086,1278.27
601.074,1250.13
602.062,1303.17
603.050,1286.30
604.038,1271.97
605.025,1229.43
606.013,1299.97
607.000,1268.50
607.987,1201.57
608.975,1249.37
609.962,1259.30
610.949,1244.23
611.936,1237.93
612.922,1215.03
613.909,1253.60
614.895,1177.73
615.882,1198.23
616.868,1169.33
617.854,1189.33
618.841,1200.97
619.826,1234.13
620.812,1149.73
621.798,1206.57
622.784,1157.67
623.769,1169.43
624.755,1186.97
625.740,1170.07
626.725,1156.20
627.711,1159.40
628.698,1178.63
629.683,1171.43
630.667,1117.90
631.652,1155.93
632.637,1134.40
633.621,1136.33
634.606,1118.17
635.590,1099.23
636.574,1096.27
637.558,1081.87
638.542,1052.03
639.526,1089.80
640.510,1053.97
641.493,1114.30
642.477,1097.80
643.460,1091.00
644.444,1065.43
645.427,1070.60
646.410,1058.63
647.393,1020.90
648.376,1083.77
649.359,1045.93
650.341,1034.90
651.324,1037.90
652.307,1055.13
653.289,1041.80
654.271,1008.47
655.253,1030.03
656.235,1022.13
657.217,1033.67
658.199,1022.70
659.181,1032.50
660.163,1018.90
661.144,973.17
662.126,1027.03
663.107,1002.27
664.088,936.83
665.069,964.73
666.050,965.83
667.033,989.43
668.014,972.13
668.995,954.33
669.975,993.70
670.956,965.83
671.936,963.43
672.916,913.40
673.896,989.90
674.876,973.93
675.856,932.03
676.836,949.37
677.816,936.07
678.795,939.10
679.775,974.53
680.754,920.93
681.734,929.97
682.713,923.63
683.692,911.57
684.671,966.27
685.650,884.33
686.629,894.73
687.607,931.93
688.586,887.30
689.564,879.80
690.543,904.83
691.523,892.60
692.501,865.40
693.479,873.63
694.457,888.90
695.435,856.37
696.413,871.20
697.390,870.63
698.368,877.27
699.345,855.80
700.322,853.33
701.300,877.50
702.277,857.33
703.254,818.50
704.231,837.43
705.207,849.27
706.184,863.07
707.161,852.53
708.137,830.03
709.113,820.40
710.090,841.27
711.068,828.17
712.044,858.13
713.020,838.43
713.996,838.37
714.971,813.23
715.947,804.63
716.922,795.10
717.898,818.40
718.873,795.93
719.848,815.13
720.823,804.27
721.798,777.83
722.773,831.67
723.748,788.73
724.723,786.03
725.697,816.43
726.672,794.53
727.646,797.93
728.622,790.33
729.596,807.13
730.570,787.80
731.544,812.00
732.518,806.83
733.492,810.93
734.466,765.20
735.439,803.93
736.413,783.93
737.386,782.50
738.359,768.37
739.332,798.77
740.305,786.87
741.278,776.47
742.251,751.97
743.224,774.67
744.196,764.07
745.171,757.77
746.143,773.30
747.115,773.87
748.087,763.23
749.059,752.60
750.031,768.50
751.003,768.30
751.975,761.20
752.947,766.97
753.918,779.90
754.890,788.93
755.861,726.77
756.832,708.47
757.803,787.93
758.774,786.83
759.747,723.20
760.718,719.13
761.689,724.73
762.659,759.43
763.630,798.50
764.600,697.00
765.570,760.90
766.540,722.07
767.510,730.60
768.480,721.10
769.450,760.77
770.420,736.50
771.390,752.77
772.359,745.80
773.329,758.23
774.300,732.00
775.269,745.77
776.238,748.43
777.207,733.03
778.176,733.27
779.145,707.77
780.114,748.67
781.083,710.87
782.051,730.97
783.019,721.03
783.988,716.13
784.956,757.83
785.924,724.97
786.894,712.97
787.862,742.80
788.830,712.90
789.797,693.53
790.765,696.47
791.732,691.50
792.700,709.23
793.667,736.90
794.634,711.87
795.601,755.40
796.568,714.23
797.535,713.30
798.502,700.93
799.468,702.87
800.437,696.40
801.403,698.63
802.370,705.27
803.336,698.17
804.302,662.30
805.268,711.13
806.234,683.60
807.200,674.13
808.166,674.40
809.131,713.10
810.097,707.57
811.062,725.03
812.027,673.90
812.994,674.93
813.960,692.97
814.925,671.57
815.889,667.23
816.854,706.20
817.819,708.20
818.783,697.17
819.748,644.53
820.712,650.37
821.677,679.60
822.641,703.00
823.605,659.57
824.571,652.73
825.534,683.63
826.498,679.03
827.462,693.57
828.425,646.00
829.389,669.63
830.352,646.30
831.315,696.00
832.279,671.63
833.242,668.60
834.204,678.10
835.167,629.07
836.132,657.17
837.095,683.23
838.057,684.63
839.020,645.93
839.982,655.20
840.944,653.17
841.906,661.53
842.868,649.03
843.830,623.77
844.792,649.70
845.753,660.63
846.715,644.10
847.679,647.73
848.640,655.43
849.601,636.93
850.562,676.30
851.523,653.27
852.484,674.20
853.445,689.87
854.406,683.63
855.367,648.87
856.327,649.43
857.288,644.70
858.248,675.43
859.210,618.90
860.170,656.13
861.130,664.93
862.090,611.33
863.050,602.20
864.010,645.20
864.969,655.43
865.929,663.87
866.888,660.90
867.848,648.20
868.807,627.17
869.766,636.53
870.727,612.30
871.686,656.90
872.645,656.83
873.604,636.50
874.562,649.47
875.521,626.37
876.479,613.57
877.437,624.80
878.396,630.60
879.354,606.97
880.312,613.63
881.270,655.90
882.229,629.67
883.187,605.00
884.145,637.70
885.102,623.67
886.059,607.73
887.017,641.03
887.974,613.93
888.931,675.57
889.888,671.43
890.845,620.57
891.802,607.77
892.758,602.87
893.717,624.37
894.673,624.87
895.630,624.83
896.586,665.53
897.542,631.63
898.498,592.10
899.454,634.50
900.410,628.93
901.366,668.23
902.321,614.63
903.277,628.57
904.232,630.80
905.189,669.67
906.145,640.50
907.100,646.67
908.055,585.83
909.010,601.17
909.965,662.20
910.919,619.73
911.874,599.77
912.828,599.37
913.783,623.50
914.737,650.93
915.693,583.40
916.648,601.03
917.602,638.50
918.555,656.67
919.509,598.87
920.463,592.43
921.417,631.37
922.370,566.17
923.324,622.60
924.277,605.97
925.230,612.93
926.183,584.30
927.138,573.20
928.091,620.40
929.044,635.57
929.996,588.03
930.949,608.40
931.902,554.60
932.854,626.27
933.806,603.47
934.758,626.07
935.711,626.77
936.663,636.10
937.614,610.37
938.568,575.03
939.520,581.70
940.471,595.80
941.423,599.73
942.374,630.50
943.326,589.07
944.277,605.30
945.228,590.93
946.179,590.97
947.130,607.30
948.080,629.23
949.031,567.03
949.984,621.80
950.934,599.90
951.884,605.23
952.835,606.17
953.785,580.53
954.735,652.63
955.685,590.03
956.635,578.53
957.585,599.77
958.534,601.50
959.484,591.37
960.433,601.33
961.383,590.33
962.334,627.00
963.283,610.63
964.232,592.20
965.181,620.13
966.130,618.73
967.079,593.93
968.027,571.63
968.976,605.27
969.924,565.43
970.873,628.13
971.821,598.03
972.769,623.53
973.719,622.87
974.667,615.07
975.615,571.37
976.562,641.50
977.510,598.93
978.458,646.87
979.405,613.27
980.352,584.27
981.300,601.77
982.247,604.50
983.194,609.63
984.141,585.63
985.088,616.03
986.036,609.90
986.983,611.47
987.930,613.97
988.876,594.57
989.822,627.27
990.769,585.10
991.715,619.27
992.661,631.47
993.607,604.07
994.553,597.33
995.498,613.23
996.444,607.67
997.389,625.73
998.337,581.17
999.282,616.03
1000.227,616.10
1001.173,611.90
1002.118,606.50
1003.062,596.97
1004.007,619.77
1004.952,629.33
1005.897,595.27
1006.841,619.20
1007.786,596.57
1008.730,579.63
1009.674,601.50
1010.618,623.23
1011.564,633.07
1012.508,596.13
1013.452,624.57
1014.396,659.63
1015.339,609.27
1016.283,629.10
1017.226,591.50
1018.170,643.40
1019.113,637.60
1020.056,619.63
1020.999,621.73
1021.942,595.63
1022.885,612.80
1023.828,606.63
1024.770,604.93
1025.715,621.97
1026.657,589.07
1027.600,622.10
1028.542,588.97
1029.484,591.47
1030.426,618.83
1031.368,603.47
1032.310,562.83
1033.251,580.27
1034.193,624.50
1035.135,630.70
1036.076,600.33
1037.017,625.07
1037.959,622.07
1038.900,620.00
1039.843,624.10
1040.784,619.03
1041.725,613.60
1042.665,617.70
1043.606,634.47
1044.547,636.93
1045.487,613.20
1046.427,619.73
1047.368,634.90
1048.308,650.93
1049.248,613.57
1050.188,626.70
1051.128,639.23
1052.067,641.67
1053.007,609.30
1053.947,638.93
1054.886,617.73
1055.827,615.80
1056.766,620.47
1057.706,608.03
1058.645,609.77
1059.584,634.67
1060.522,625.97
1061.461,634.70
1062.400,634.53
1063.338,620.07
1064.277,639.93
1065.215,621.40
1066.154,639.10
1067.092,652.80
1068.030,643.27
1068.968,663.90
1069.906,643.40
1070.843,627.17
1071.781,636.83
1072.720,662.37
1073.658,640.27
1074.595,654.33
1075.533,662.97
1076.470,651.83
1077.407,633.53
1078.344,648.10
1079.281,666.97
1080.217,642.07
1081.154,638.00
1082.091,657.00
1083.027,645.47
1083.964,654.50
1084.900,664.30
1085.836,610.53
1086.772,685.43
1087.708,633.63
1088.644,679.33
1089.580,656.87
1090.515,656.43
1091.451,631.07
1092.388,640.03
1093.324,645.63
1094.259,661.10
1095.194,615.33
1096.129,626.20
1097.064,637.83
1097.999,639.27
1098.934,640.10
1099.869,637.27
1100.803,632.87
1101.738,656.67
1102.672,636.37
1103.607,655.13
1104.541,615.53
1105.475,645.30
1106.409,675.33
1107.343,622.83
1108.277,604.60
1109.210,609.07
1110.144,629.00
1111.078,678.70
1112.011,648.93
1112.944,612.27
1113.878,652.33
1114.811,632.27
1115.744,640.97
1116.678,637.90
1117.611,634.97
1118.544,618.70
1119.477,660.30
1120.409,612.13
1121.342,637.43
1122.274,592.67
1123.206,615.67
1124.138,609.50
1125.070,644.53
1126.002,620.30
1126.934,614.77
1127.866,607.67
1128.798,649.33
1129.729,576.50
1130.661,623.70
1131.592,617.60
1132.523,621.97
1133.454,633.37
1134.385,619.37
1135.317,612.90
1136.247,620.57
1137.178,644.03
1138.109,615.37
1139.039,607.53
1139.970,653.00
1140.900,611.53
1141.831,627.57
1142.761,599.77
1143.691,660.00
1144.621,600.53
1145.551,638.10
1146.480,668.20
1147.410,622.97
1148.340,623.83
1149.269,594.50
1150.199,614.67
1151.128,571.83
1152.057,617.23
1152.979,566.90
1153.898,647.27
1154.819,646.43
1155.739,624.13
1156.658,620.57
1157.579,591.87
1158.498,653.63
1159.419,636.73
1160.338,590.17
1161.256,615.27
1162.177,590.47
1163.095,656.03
1164.016,615.07
1164.934,635.77
1165.852,589.00
1166.772,650.47
1167.690,607.97
1168.610,586.90
1169.528,639.80
1170.446,645.33
1171.365,620.33
1172.283,645.97
1173.202,649.87
1174.120,640.10
1175.037,615.80
1175.956,630.97
1176.873,628.70
1177.792,659.30
1178.709,616.10
1179.626,611.47
1180.544,660.43
1181.461,638.47
1182.379,633.53
1183.296,652.93
1184.212,634.73
1185.130,599.13
1186.046,627.83
1186.962,617.40
1187.880,635.43
1188.796,637.63
1189.714,669.87
1190.629,632.73
1191.545,627.53
1192.462,648.00
1193.378,667.33
1194.295,656.00
1195.210,635.50
1196.125,633.20
1197.042,656.43
1197.957,636.03
1198.872,664.43
1199.788,651.87
1200.703,663.87
1201.619,659.07
1202.534,661.07
1203.448,634.77
1204.364,653.07
1205.278,659.67
1206.192,701.10
1207.108,663.40
1208.022,672.40
1208.938,656.07
1209.851,698.73
1210.765,673.03
1211.680,638.77
1212.594,636.53
1213.507,658.83
1214.422,673.63
1215.335,706.33
1216.248,669.50
1217.163,683.97
1218.076,684.77
1218.990,666.37
1219.903,695.47
1220.816,670.20
1221.730,680.60
1222.642,665.20
1223.554,694.93
1224.469,687.33
1225.380,705.40
1226.292,680.57
1227.206,702.27
1228.118,707.20
1229.032,726.47
1229.943,712.87
1230.855,672.40
1231.768,713.73
1232.679,723.20
1233.590,696.03
1234.503,731.43
1235.414,750.33
1236.325,727.93
1237.238,741.93
1238.149,698.47
1239.059,709.23
1239.972,712.57
1240.882,709.43
1241.793,715.87
1242.705,746.37
1243.615,742.30
1244.525,715.93
1245.437,720.23
1246.347,720.83
1247.259,737.67
1248.168,744.23
1249.078,734.00
1249.989,735.53
1250.899,751.10
1251.808,747.20
1252.719,741.93
1253.628,734.17
1254.537,718.73
1255.448,747.47
1256.357,727.53
1257.266,730.23
1258.176,714.40
1259.085,764.07
1259.993,785.03
1260.904,751.33
1261.812,733.63
1262.720,731.07
1263.630,760.50
1264.538,749.77
1265.446,769.50
1266.356,735.47
1267.263,758.57
1268.171,737.87
1269.080,743.83
1269.988,736.17
1270.895,743.03
1271.804,762.50
1272.711,730.23
1273.619,786.27
1274.527,741.90
1275.434,734.83
1276.341,795.10
1277.248,787.23
1278.156,738.90
1279.063,760.03
1279.969,747.27
1280.877,735.63
1281.783,779.03
1282.690,743.50
1283.598,752.57
1284.503,733.60
1285.409,734.83
1286.317,757.00
1287.223,735.97
1288.128,726.13
1289.036,739.27
1289.941,712.00
1290.846,730.67
1291.751,726.23
1292.658,706.23
1293.563,763.30
1294.468,750.40
1295.375,711.60
1296.280,734.17
1297.184,716.97
1298.091,717.70
1298.995,720.67
1299.900,715.27
1300.806,700.13
1301.710,710.30
1302.614,692.07
1303.518,732.63
1304.424,672.47
1305.327,673.63
1306.231,699.47
1307.137,670.60
1308.040,693.47
1308.943,687.60
1309.847,670.37
1310.752,682.53
1311.655,670.00
1312.558,669.63
1313.463,673.40
1314.366,695.03
1315.269,701.20
1316.171,655.30
1317.076,685.70
1317.978,647.20
1318.881,643.13
1319.785,651.60
1320.687,656.70
1321.589,651.87
1322.491,624.80
1323.395,633.43
1324.297,634.70
1325.198,606.40
1326.102,641.00
1327.004,666.03
1327.905,626.37
1328.806,628.33
1329.709,644.90
1330.611,598.50
1331.512,644.13
1332.413,599.00
1333.316,611.10
1334.216,625.00
1335.117,584.43
1336.020,619.97
1336.920,601.83
1337.821,630.90
1338.721,612.00
1339.623,561.27
1340.523,593.43
1341.423,581.20
1342.323,628.33
1343.225,577.33
1344.125,558.13
1345.025,577.13
1345.924,572.03
1346.826,567.70
1347.725,556.33
1348.624,560.23
1349.524,564.53
1350.425,547.43
1351.324,576.90
1352.223,573.97
1353.121,529.40
1354.022,577.77
1354.921,526.43
1355.819,530.77
1356.718,532.03
1357.618,545.80
1358.516,538.87
1359.415,514.87
1360.313,556.03
1361.213,516.53
1362.111,539.80
1363.008,502.00
1363.906,530.27
1364.806,535.47
1365.703,497.67
1366.601,541.20
1367.498,523.33
1368.397,514.50
1369.295,536.43
1370.192,508.80
1371.089,526.93
1371.987,478.97
1372.884,532.83
1373.781,528.90
1374.678,512.07
1375.574,502.43
1376.473,511.33
1377.369,499.17
1378.265,513.67
1379.161,481.03
1380.059,468.50
1380.955,500.27
1381.851,471.90
1382.747,478.80
1383.643,481.73
1384.540,493.63
1385.436,449.27
1386.331,437.67
1387.227,458.50
1388.124,496.00
1389.019,457.67
1389.914,473.83
1390.809,457.30
1391.704,460.17
1392.601,457.97
1393.495,466.70
1394.390,467.40
1395.285,445.80
1396.179,428.33
1397.075,475.47
1397.969,451.63
1398.864,470.53
1399.758,482.03
1400.652,440.83
1401.547,468.97
1402.441,475.20
1403.335,461.30
1404.229,430.20
1405.122,457.40
1406.017,442.63
1406.911,413.37
1407.804,456.60
1408.697,421.23
1409.590,442.47
1410.485,450.27
1411.378,449.43
1412.271,431.37
1413.163,416.97
1414.056,472.80
1414.949,412.80
1415.843,408.67
1416.735,449.53
1417.627,438.27
1418.520,433.00
1419.412,397.87
1420.306,448.50
1421.197,426.07
1422.089,466.10
1422.981,433.93
1423.873,441.63
1424.764,441.50
1425.657,421.83
1426.549,414.17
1427.440,413.23
1428.331,406.20
1429.222,432.13
1430.113,417.03
1431.006,416.77
1431.897,423.93
1432.787,398.77
1433.678,411.47
1434.568,398.37
1435.459,389.20
1436.351,397.53
1437.241,388.30
1438.131,443.40
1439.021,420.27
1439.911,440.37
1440.801,407.53
1441.693,355.07
1442.583,392.67
1443.472,391.00
1444.362,425.50
1445.251,390.87
1446.140,409.17
1447.030,418.33
1447.921,392.83
1448.810,394.33
1449.699,395.70
1450.588,409.90
1451.476,388.27
1452.365,365.40
1453.254,408.93
1454.144,428.53
1455.032,427.37
1455.921,401.33
1456.809,401.90
1457.697,386.77
1458.585,389.33
1459.473,409.93
1460.361,385.90
1461.251,373.33
1462.138,362.50
1463.026,356.77
1463.913,382.00
1464.801,395.03
1465.688,412.30
1466.575,355.83
1467.463,365.17
1468.351,376.13
1469.238,368.57
1470.125,385.67
1471.012,379.60
1471.899,369.73
1472.785,387.10
1473.672,358.33
1474.558,353.53
1475.446,238.37
1476.333,324.27
1477.219,356.30
1478.105,386.77
1478.991,381.17
1479.877,363.53
1480.762,372.23
1481.648,388.17
1482.534,405.37
1483.419,359.90
1484.307,396.27
1485.192,345.67
1486.077,386.50
1486.962,345.23
1487.847,353.03
1488.732,358.80
1489.617,367.73
1490.502,399.97
1491.387,395.37
1492.271,371.33
1493.156,358.83
1494.042,389.23
1494.927,347.43
1495.811,360.90
1496.695,352.57
1497.579,396.93
1498.463,359.77
1499.347,375.67
1500.231,370.50
1501.114,407.40
1501.998,344.93
1502.881,373.13
1503.765,319.83
1504.648,334.90
1505.533,351.77
1506.417,331.63
1507.300,359.10
1508.183,365.80
1509.066,345.60
1509.948,341.73
1510.831,408.80
1511.714,328.13
1512.596,339.10
1513.479,348.23
1514.361,306.73
1515.243,357.93
1516.125,316.93
1517.008,337.30
1517.890,346.90
1518.771,354.17
1519.655,363.23
1520.537,361.20
1521.419,360.10
1522.300,358.13
1523.182,341.53
1524.063,365.90
1524.944,353.07
1525.825,343.10
1526.707,326.60
1527.588,322.83
1528.468,323.60
1529.349,279.90
1530.230,336.70
1531.111,317.80
1531.991,354.70
1532.872,342.97
1533.752,320.73
1534.632,341.87
1535.513,321.73
1536.393,404.67
1537.273,337.60
1538.153,337.13
1539.032,333.30
1539.912,316.77
1540.792,347.90
1541.672,361.67
1542.551,353.90
1543.430,298.80
1544.310,353.73
1545.189,300.37
1546.068,328.50
1546.947,332.67
1547.826,348.67
1548.705,320.23
1549.584,357.37
1550.462,337.93
1551.341,361.73
1552.219,323.40
1553.098,310.93
1553.976,313.43
1554.854,337.10
1555.733,340.07
1556.611,323.77
1557.489,328.63
1558.367,384.93
1559.244,325.23
1560.122,324.83
1561.000,327.03
1561.877,322.07
1562.755,358.40
1563.632,360.43
1564.509,341.37
1565.386,342.13
1566.264,298.50
1567.141,342.40
1568.017,326.77
1568.894,322.97
1569.771,334.33
1570.648,329.47
1571.524,313.53
1572.401,350.00
1573.277,341.80
1574.153,326.73
1575.029,298.60
1575.906,326.57
1576.781,317.10
1577.657,294.93
1578.533,330.33
1579.409,337.73
1580.285,297.67
1581.160,329.83
1582.036,308.77
1582.911,331.77
1583.786,331.43
1584.662,323.97
1585.537,316.07
1586.412,314.67
1587.287,317.17
1588.160,374.17
1589.035,280.73
1589.909,313.13
1590.784,314.27
1591.658,306.07
1592.533,354.33
1593.407,317.47
1594.281,330.00
1595.155,344.27
1596.029,354.40
1596.903,314.80
1597.777,344.57
1598.651,322.37
1599.525,333.73
1600.398,312.17
1601.272,292.37
1602.144,347.73
1603.017,274.20
1603.890,308.27
1604.763,322.17
1605.636,339.10
1606.509,293.57
1607.382,285.83
1608.255,299.50
1609.128,281.53
1610.000,317.20
1610.873,309.63
1611.746,295.27
1612.616,282.87
1613.488,298.63
1614.361,310.67
1615.233,298.13
1616.105,299.17
1616.977,269.40
1617.849,295.13
1618.720,275.57
1619.592,277.43
1620.464,298.37
1621.333,379.43
1622.205,319.73
1623.076,317.67
1623.947,315.17
1624.818,278.13
1625.689,329.13
1626.560,276.93
1627.431,305.10
1628.302,316.10
1629.171,317.77
1630.042,291.47
1630.912,311.43
1631.782,316.57
1632.653,322.63
1633.523,351.37
1634.393,351.30
1635.263,305.27
1636.131,283.37
1637.001,332.50
1637.871,312.90
1638.741,320.03
1639.611,318.17
1640.480,268.00
1641.350,306.20
1642.219,267.87
1643.087,300.17
1643.956,311.00
1644.825,299.33
1645.694,276.87
1646.563,297.07
1647.432,319.73
1648.299,307.60
1649.167,300.57
1650.036,261.30
1650.904,217.10
1651.773,293.57
1652.641,309.07
1653.509,329.20
1654.376,324.20
1655.244,305.77
1656.112,291.90
1656.980,297.93
1657.847,313.20
1658.715,281.67
1659.581,293.37
1660.448,309.83
1661.316,289.97
1662.183,302.90
1663.051,281.23
1663.918,310.37
1664.783,283.40
1665.650,267.90
1666.517,329.50
1667.384,286.13
1668.251,291.77
1669.115,344.70
1669.982,273.60
1670.849,264.53
1671.715,295.33
1672.581,289.23
1673.446,290.83
1674.312,275.80
1675.178,289.03
1676.044,310.10
1676.910,301.77
1677.774,300.00
1678.639,282.77
1679.505,304.50
1680.370,283.07
1681.236,282.27
1682.099,250.20
1682.965,283.50
1683.830,291.23
1684.695,295.90
1685.560,283.40
1686.423,284.57
1687.288,324.00
1688.153,312.23
1689.017,276.03
1689.880,285.90
1690.745,285.93
1691.609,245.17
1692.473,297.10
1693.338,260.20
1694.200,278.67
1695.064,292.33
1695.928,326.20
1696.792,319.70
1697.654,269.90
1698.517,272.23
1699.381,293.50
1700.245,257.40
1701.106,254.93
1701.969,270.30
1702.833,277.33
1703.696,277.13
1704.557,343.27
1705.420,277.57
1706.283,271.23
1707.146,248.20
1708.007,301.40
1708.870,299.10
1709.732,254.37
1710.595,282.77
1711.455,294.47
1712.318,317.03
1713.180,278.27
1714.040,291.10
1714.902,310.77
1715.764,311.47
1716.626,317.37
1717.486,274.77
1718.348,250.70
1719.209,242.47
1720.071,298.27
1720.930,238.47
1721.792,249.73
1722.653,291.87
1723.512,278.30
1724.374,288.73
1725.234,263.40
1726.095,275.97
1726.954,300.10
1727.815,262.30
1728.676,289.63
1729.535,312.70
1730.395,311.87
1731.256,263.80
1732.114,264.60
1732.974,295.40
1733.834,280.97
1734.693,267.53
1735.553,270.10
1736.413,296.13
1737.272,269.93
1738.130,288.20
1738.990,243.43
1739.849,264.97
1740.707,271.27
1741.566,298.43
1742.426,270.23
1743.283,284.13
1744.142,261.37
1745.001,256.27
1745.858,288.40
1746.717,266.23
1747.576,280.77
1748.433,255.30
1749.292,265.20
1750.150,245.67
1751.007,250.07
1751.865,331.87
1752.723,267.67
1753.579,262.40
1754.438,304.00
1755.296,266.97
1756.152,267.53
1757.010,280.43
1757.865,291.63
1758.723,297.20
1759.581,256.57
1760.436,291.80
1761.294,289.97
1762.151,284.30
1763.006,268.83
1763.864,302.07
1764.721,231.37
1765.576,258.27
1766.433,303.33
1767.288,290.17
1768.144,273.77
1769.001,293.83
1769.856,231.67
1770.712,262.10
1771.568,297.30
1772.423,249.93
1773.279,265.43
1774.133,288.97
1774.989,298.47
1775.845,276.70
1776.699,271.40
1777.555,265.33
1778.409,302.87
1779.265,262.10
1780.120,284.73
1780.974,281.77
1781.829,252.10
1782.682,251.10
1783.538,251.47
1784.393,268.13
1785.246,263.90
1786.101,258.77
1786.954,270.00
1787.808,254.50
1788.661,247.13
1789.516,270.43
1790.370,267.07
1791.223,257.07
1792.077,239.27
1792.930,242.03
1793.784,248.60
1794.636,255.83
1795.490,239.40
1796.344,253.27
1797.196,255.47
1798.049,308.80
1798.901,276.67
1799.755,269.33
1800.606,268.23
1801.460,289.93
1802.311,286.23
1803.165,227.93
1804.018,286.70
1804.869,255.03
1805.722,241.93
1806.573,251.40
1807.426,290.40
1808.276,282.73
1809.129,252.30
1809.980,283.33
1810.832,262.77
1811.683,259.83
1812.535,274.33
1813.385,241.57
1814.237,256.27
1815.089,291.53
1815.940,276.93
1816.791,274.80
1817.641,264.07
1818.493,304.13
1819.343,295.47
1820.194,254.00
1821.044,252.53
1821.895,289.83
1822.745,301.00
1823.596,292.17
1824.445,276.97
1825.296,272.70
1826.145,233.73
1826.996,267.70
1827.845,291.37
1828.695,292.40
1829.544,278.57
1830.395,281.13
1831.243,254.60
1832.094,249.47
1832.942,252.43
1833.792,267.67
1834.640,285.30
1835.490,274.70
1836.338,257.93
1837.186,267.63
1838.036,289.23
1838.884,279.13
1839.733,273.77
1840.581,234.70
1841.430,272.67
1842.278,294.37
1843.127,284.27
1843.974,272.53
1844.823,270.53
1845.671,253.90
1846.519,264.17
1847.366,269.07
1848.213,249.20
1849.062,309.20
1849.909,279.13
1850.757,299.03
1851.604,276.73
1852.452,229.80
1853.298,255.37
1854.146,235.03
1854.993,275.33
1855.839,271.47
1856.687,267.33
1857.532,278.27
1858.380,287.17
1859.226,270.77
1860.073,281.87
1860.919,244.13
1861.765,283.53
1862.612,257.07
1863.457,271.77
1864.304,235.80
1865.150,283.80
1865.995,252.90
1866.842,254.50
1867.686,276.37
1868.533,258.50
1869.378,244.03
1870.223,251.03
1871.069,275.90
1871.914,246.27
1872.760,268.43
1873.604,247.57
1874.448,251.57
1875.294,262.60
1876.139,279.43
1876.984,263.17
1877.828,287.20
1878.672,265.83
1879.518,250.33
1880.361,287.17
1881.205,242.23
1882.050,318.47
1882.894,290.03
1883.739,254.03
1884.582,266.37
1885.425,267.23
1886.270,220.97
1887.113,266.07
1887.956,252.80
1888.801,276.40
1889.644,242.23
1890.486,259.10
1891.331,222.50
1892.173,279.33
1893.017,290.90
1893.860,237.13
1894.702,320.17
1895.546,261.80
1896.388,240.13
1897.230,252.00
1898.074,262.10
1898.916,294.07
1899.757,243.43
1900.601,265.63
1901.443,271.03
1902.284,252.00
1903.125,246.10
1903.969,258.33
1904.810,213.83
1905.651,245.47
1906.494,210.17
1907.335,268.60
1908.176,255.60
1909.018,213.77
1909.859,272.87
1910.700,293.37
1911.542,263.27
1912.383,255.03
1913.223,310.57
1914.064,258.30
1914.906,265.83
1915.746,231.60
1916.586,241.43
1917.428,231.43
1918.268,243.87
1919.107,255.07
1919.947,230.77
1920.789,270.70
1921.628,267.30
1922.468,253.27
1923.309,230.17
1924.148,206.07
1924.988,249.93
1925.827,236.93
1926.667,304.07
1927.507,254.97
1928.345,235.20
1929.184,244.20
1930.025,239.60
1930.864,269.33
1931.702,247.50
1932.541,263.87
1933.381,277.10
1934.219,221.07
1935.057,252.63
1935.896,269.27
1936.735,242.73
1937.573,251.07
1938.411,241.63
1939.249,257.73
1940.089,258.13
1940.927,280.40
1941.764,256.70
1942.602,218.63
1943.439,272.20
1944.278,245.00
1945.115,271.37
1945.953,246.13
1946.790,249.00
1947.628,257.63
1948.465,250.70
1949.302,246.13
1950.139,259.30
1950.976,291.10
1951.814,205.27
1952.651,251.80
1953.487,250.37
1954.323,254.43
1955.160,282.27
1955.998,238.60
1956.834,259.97
1957.670,250.93
1958.506,256.53
1959.342,257.80
1960.177,254.13
1961.015,264.53
1961.850,276.60
1962.686,259.10
1963.521,265.10
1964.357,210.20
1965.192,292.70
1966.029,284.27
1966.864,232.20
1967.699,246.30
1968.534,249.23
1969.369,263.30
1970.204,261.43
1971.040,262.40
1971.875,264.47
1972.709,261.77
1973.544,257.40
1974.378,253.63
1975.212,260.20
1976.047,239.27
1976.882,276.10
1977.716,190.50
1978.550,257.67
1979.384,227.10
1980.218,263.77
1981.052,269.80
1981.885,261.17
1982.719,234.43
1983.554,265.70
1984.388,264.27
1985.221,238.57
1986.054,267.67
1986.887,314.33
1987.720,247.63
1988.553,286.50
1989.386,240.50
1990.219,285.80
1991.053,249.27
1991.886,235.90
1992.719,265.60
1993.551,247.70
1994.383,247.97
1995.216,278.70
1996.048,252.63
1996.880,206.77
1997.712,240.33
1998.544,287.80
1999.376,220.37
2000.208,241.50
2001.040,216.37
2001.873,266.03
2002.705,244.87
2003.536,294.07
2004.367,267.87
2005.199,275.07
2006.030,251.57
2006.861,228.93
2007.692,251.60
2008.523,282.73
2009.354,246.03
2010.185,262.37
2011.016,264.13
2011.846,234.03
2012.677,270.87
2013.507,273.60
2014.338,270.93
2015.168,259.57
2015.999,271.77
2016.829,233.37
2017.659,270.20
2018.489,267.23
2019.319,230.50
2020.149,285.90
2020.980,228.73
2021.810,225.00
2022.639,281.13
2023.469,240.13
2024.298,260.47
2025.128,266.07
2025.957,266.20
2026.786,248.70
2027.615,230.80
2028.444,240.07
2029.273,242.37
2030.102,226.97
2030.931,269.23
2031.758,299.03
2032.586,230.20
2033.415,257.83
2034.243,237.43
2035.072,302.93
2035.900,262.60
2036.728,220.67
2037.556,254.37
2038.385,279.00
2039.213,280.97
2040.040,279.13
2040.868,255.97
2041.696,261.90
2042.524,256.33
2043.351,270.10
2044.179,232.57
2045.006,226.27
2045.006,226.27

Max Intensity Wave.,220.959
Max Intensity Data,4975.37
Min Intensity Wave.,1977.716
Min Intensity Data,190.50
FWHM Wave.,401.307
FWHM Value,0.10
Pressure Wave.,684.671
Pressure Value [GPa],-24.91530
G/D Ratio,0.52509
G/D Gband Wave.,1558.354
G/D Gband Intensity,384.95
G/D Dband Wave.,1303.431
G/D Dband Intensity,733.10

<< BACKGROUND SPECTRUM >>
Wave[dcm-1],No314
146.591,2283.00
147.626,2135.00
148.664,2031.00
149.699,2560.00
150.737,2270.00
151.772,2450.00
152.809,2379.00
153.846,2314.00
154.881,2409.00
155.918,1977.00
156.953,2337.00
157.989,2647.00
159.026,2496.00
160.060,2639.00
161.096,2867.00
162.130,2526.00
163.167,2586.00
164.200,2472.00
165.236,2687.00
166.272,2706.00
167.305,2316.00
168.341,2529.00
169.374,2784.00
170.409,2767.00
171.445,2757.00
172.477,2540.00
173.512,2435.00
174.545,2657.00
175.580,2887.00
176.614,3042.00
177.647,2828.00
178.681,3043.00
179.713,3359.00
180.747,2854.00
181.781,2733.00
182.813,3001.00
183.847,3122.00
184.878,2722.00
185.912,2993.00
186.945,3170.00
187.976,3123.00
189.010,2724.00
190.043,2853.00
191.073,2955.00
192.106,2753.00
193.137,3226.00
194.170,2573.00
195.202,2902.00
196.232,2758.00
197.265,3071.00
198.297,3109.00
199.327,2782.00
200.359,2981.00
201.388,3357.00
202.420,2951.00
203.452,3118.00
204.481,2745.00
205.512,3347.00
206.544,3099.00
207.573,3099.00
208.604,3429.00
209.635,3610.00
210.663,2990.00
211.694,2987.00
212.725,2867.00
213.753,2834.00
214.783,3416.00
215.813,3221.00
216.841,3010.00
217.871,3230.00
218.899,2936.00
219.929,3172.00
220.959,2895.00
221.986,3209.00
223.016,2800.00
224.045,3125.00
225.072,3100.00
226.101,3230.00
227.130,3271.00
228.157,2868.00
229.185,2371.00
230.214,3237.00
231.241,2872.00
232.269,2499.00
233.297,2705.00
234.323,3238.00
235.351,2842.00
236.379,3128.00
237.407,2778.00
238.433,2990.00
239.460,3145.00
240.488,3173.00
241.513,3216.00
242.540,3084.00
243.568,3220.00
244.592,3227.00
245.619,3215.00
246.646,2964.00
247.671,2997.00
248.697,2808.00
249.724,3042.00
250.748,3038.00
251.774,3009.00
252.801,3334.00
253.827,3197.00
254.850,3081.00
255.876,2696.00
256.902,3146.00
257.925,2993.00
258.951,2774.00
259.976,2791.00
260.999,3108.00
262.024,2809.00
263.049,3706.00
264.074,3137.00
265.097,3039.00
266.122,3104.00
267.146,3082.00
268.168,3240.00
269.193,2875.00
270.217,3274.00
271.241,2776.00
272.263,2936.00
273.287,3192.00
274.311,2807.00
275.332,3353.00
276.356,2885.00
277.379,3093.00
278.402,3164.00
279.424,2959.00
280.447,2931.00
281.470,2747.00
282.492,3106.00
283.513,2917.00
284.536,3190.00
285.558,3194.00
286.581,3166.00
287.601,2888.00
288.623,2827.00
289.645,3112.00
290.665,3136.00
291.687,3160.00
292.709,3121.00
293.730,3419.00
294.750,2916.00
295.771,2780.00
296.792,3084.00
297.813,2967.00
298.832,3083.00
299.853,2764.00
300.874,3013.00
301.895,3001.00
302.913,3006.00
303.934,3294.00
304.954,3065.00
305.975,3246.00
306.993,2774.00
308.013,3132.00
309.033,3048.00
310.052,2927.00
311.072,2957.00
312.090,3097.00
313.109,3272.00
314.129,3421.00
315.148,2994.00
316.165,3071.00
317.184,3274.00
318.203,2780.00
319.222,2727.00
320.238,3137.00
321.257,2855.00
322.275,2704.00
323.294,3005.00
324.312,3195.00
325.328,3263.00
326.346,3335.00
327.364,3281.00
328.382,3206.00
329.397,3154.00
330.415,3227.00
331.432,3235.00
332.450,3235.00
333.467,3476.00
334.482,2604.00
335.499,3339.00
336.516,2886.00
337.533,2618.00
338.547,2876.00
339.564,2884.00
340.580,3111.00
341.597,2968.00
342.613,3429.00
343.627,3008.00
344.643,3084.00
345.659,3139.00
346.675,3008.00
347.690,2911.00
348.704,3125.00
349.719,2932.00
350.735,2803.00
351.750,3221.00
352.765,3038.00
353.778,3010.00
354.793,3176.00
355.808,2890.00
356.822,3278.00
357.837,2688.00
358.851,3309.00
359.864,2989.00
360.878,2748.00
361.892,2992.00
362.906,3172.00
363.920,2627.00
364.932,3123.00
365.945,3124.00
366.959,2992.00
367.972,2973.00
368.986,2739.00
369.999,3315.00
371.010,2913.00
372.023,3324.00
373.036,2975.00
374.049,3439.00
375.061,3095.00
376.072,3011.00
377.084,2873.00
378.097,2726.00
379.109,3194.00
380.121,3034.00
381.133,2691.00
382.143,3203.00
383.155,2745.00
384.166,2933.00
385.178,3137.00
386.189,3238.00
387.201,2750.00
388.212,2954.00
389.221,2910.00
390.232,3074.00
391.243,2989.00
392.254,3053.00
393.264,2884.00
394.275,3277.00
395.283,3161.00
396.294,3634.00
397.304,3514.00
398.314,3125.00
399.324,3058.00
400.334,2706.00
401.344,3177.00
402.351,2700.00
403.361,3231.00
404.370,3020.00
405.380,2949.00
406.389,3335.00
407.398,3140.00
408.407,3147.00
409.414,3665.00
410.423,3318.00
411.431,2758.00
412.440,2704.00
413.448,3363.00
414.457,2903.00
415.465,2829.00
416.471,2925.00
417.479,3061.00
418.487,2822.00
419.495,3343.00
420.503,3111.00
421.510,2627.00
422.518,3210.00
423.525,3193.00
424.530,3390.00
425.537,2907.00
426.544,3255.00
427.551,2849.00
428.558,3615.00
429.565,3484.00
430.571,2935.00
431.578,2939.00
432.582,2871.00
433.588,2999.00
434.595,2665.00
435.601,3302.00
436.607,3270.00
437.612,2774.00
438.618,3378.00
439.624,2938.00
440.627,2960.00
441.633,3084.00
442.638,3620.00
443.643,3137.00
444.648,3036.00
445.653,3196.00
446.658,2889.00
447.663,3049.00
448.667,2874.00
449.672,2920.00
450.674,3029.00
451.678,2726.00
452.682,2914.00
453.687,2833.00
454.690,3653.00
455.694,3250.00
456.698,2589.00
457.702,2697.00
458.705,2818.00
459.709,2831.00
460.710,2904.00
461.713,3047.00
462.716,3110.00
463.719,3053.00
464.722,3202.00
465.725,2973.00
466.727,2894.00
467.730,3025.00
468.732,2807.00
469.735,3373.00
470.737,2962.00
471.737,2921.00
472.739,2943.00
473.741,2871.00
474.742,3130.00
475.744,3105.00
476.746,3030.00
477.747,2955.00
478.748,3203.00
479.750,2932.00
480.751,3018.00
481.752,3745.00
482.753,3122.00
483.751,3615.00
484.752,2657.00
485.753,3017.00
486.753,2875.00
487.753,3004.00
488.754,3443.00
489.754,2698.00
490.754,3322.00
491.754,3146.00
492.754,2720.00
493.753,3042.00
494.753,2896.00
495.752,3405.00
496.752,3060.00
497.749,3012.00
498.748,2901.00
499.747,3417.00
500.746,3146.00
501.745,2788.00
502.744,2765.00
503.742,3354.00
504.741,3007.00
505.739,2508.00
506.737,2912.00
507.735,3134.00
508.734,3396.00
509.732,3190.00
510.729,3392.00
511.727,2892.00
512.725,2909.00
513.720,2816.00
514.718,3277.00
515.715,2736.00
516.712,2629.00
517.709,3030.00
518.706,2933.00
519.703,3042.00
520.700,3196.00
521.696,3382.00
522.693,2981.00
523.689,2858.00
524.686,3188.00
525.682,2816.00
526.678,3469.00
527.674,2918.00
528.670,2613.00
529.666,3537.00
530.661,3477.00
531.657,3666.00
532.652,3184.00
533.648,3022.00
534.641,3255.00
535.636,3055.00
536.631,3113.00
537.626,3181.00
538.621,2744.00
539.616,2603.00
540.610,2522.00
541.605,3030.00
542.599,3074.00
543.593,2996.00
544.587,3923.00
545.581,2845.00
546.575,3081.00
547.569,3033.00
548.563,2708.00
549.557,2702.00
550.550,2798.00
551.543,2766.00
552.537,3179.00
553.530,2812.00
554.523,2808.00
555.516,3161.00
556.509,2985.00
557.502,2643.00
558.494,3220.00
559.487,2941.00
560.479,3203.00
561.472,3278.00
562.464,3143.00
563.456,3320.00
564.448,2966.00
565.440,3026.00
566.432,3441.00
567.423,2903.00
568.415,2897.00
569.404,3197.00
570.396,2833.00
571.387,3147.00
572.378,3031.00
573.369,3982.00
574.360,3682.00
575.351,2974.00
576.341,2875.00
577.332,2906.00
578.323,2677.00
579.313,2924.00
580.303,3272.00
581.293,3183.00
582.283,2968.00
583.273,3127.00
584.263,3029.00
585.253,3092.00
586.243,3202.00
587.232,2661.00
588.222,2979.00
589.211,3211.00
590.200,3084.00
591.189,2997.00
592.178,2943.00
593.167,3426.00
594.156,3263.00
595.145,2897.00
596.133,3470.00
597.122,3131.00
598.110,3220.00
599.098,3047.00
600.086,3026.00
601.074,3228.00
602.062,2838.00
603.050,2764.00
604.038,3119.00
605.025,2837.00
606.013,3180.00
607.000,3384.00
607.987,3077.00
608.975,3058.00
609.962,2759.00
610.949,3136.00
611.936,3256.00
612.922,3191.00
613.909,2684.00
614.895,3403.00
615.882,2861.00
616.868,3044.00
617.854,2766.00
618.841,3021.00
619.826,3070.00
620.812,3035.00
621.798,2789.00
622.784,3221.00
623.769,3111.00
624.755,2692.00
625.740,3062.00
626.725,2742.00
627.711,2867.00
628.698,3062.00
629.683,2796.00
630.667,3196.00
631.652,2745.00
632.637,2962.00
633.621,3181.00
634.606,2945.00
635.590,3137.00
636.574,2974.00
637.558,3113.00
638.542,3086.00
639.526,2858.00
640.510,2687.00
641.493,3033.00
642.477,2987.00
643.460,2701.00
644.444,3260.00
645.427,3247.00
646.410,2691.00
647.393,3014.00
648.376,3063.00
649.359,2932.00
650.341,3111.00
651.324,3110.00
652.307,3040.00
653.289,2958.00
654.271,2905.00
655.253,2907.00
656.235,3128.00
657.217,3244.00
658.199,2637.00
659.181,2742.00
660.163,3010.00
661.144,2928.00
662.126,2876.00
663.107,2795.00
664.088,6313.00
665.069,3272.00
666.050,2845.00
667.033,2721.00
668.014,3070.00
668.995,2630.00
669.975,2997.00
670.956,3006.00
671.936,3151.00
672.916,3025.00
673.896,3069.00
674.876,2911.00
675.856,2896.00
676.836,2754.00
677.816,2322.00
678.795,2838.00
679.775,2658.00
680.754,3069.00
681.734,3165.00
682.713,3160.00
683.692,2800.00
684.671,2620.00
685.650,2783.00
686.629,2887.00
687.607,2732.00
688.586,2797.00
689.564,2876.00
690.543,3254.00
691.523,2383.00
692.501,2865.00
693.479,2959.00
694.457,2797.00
695.435,2896.00
696.413,2683.00
697.390,2523.00
698.368,2686.00
699.345,3115.00
700.322,2952.00
701.300,3075.00
702.277,3058.00
703.254,3301.00
704.231,2598.00
705.207,2976.00
706.184,2775.00
707.161,2673.00
708.137,2851.00
709.113,2832.00
710.090,2809.00
711.068,2623.00
712.044,2595.00
713.020,2891.00
713.996,2628.00
714.971,2842.00
715.947,2891.00
716.922,2850.00
717.898,2762.00
718.873,2925.00
719.848,2725.00
720.823,2726.00
721.798,3025.00
722.773,2764.00
723.748,2578.00
724.723,3058.00
725.697,2824.00
726.672,2771.00
727.646,2528.00
728.622,3009.00
729.596,2604.00
730.570,2752.00
731.544,3067.00
732.518,3276.00
733.492,2807.00
734.466,2921.00
735.439,2996.00
736.413,3147.00
737.386,2469.00
738.359,2443.00
739.332,2534.00
740.305,2857.00
741.278,3318.00
742.251,2951.00
743.224,2747.00
744.196,2568.00
745.171,3158.00
746.143,3041.00
747.115,2779.00
748.087,2735.00
749.059,3104.00
750.031,2916.00
751.003,3707.00
751.975,3271.00
752.947,2710.00
753.918,3092.00
754.890,2580.00
755.861,2814.00
756.832,3087.00
757.803,2828.00
758.774,2824.00
759.747,2660.00
760.718,3228.00
761.689,2774.00
762.659,2600.00
763.630,3117.00
764.600,2596.00
765.570,3053.00
766.540,3169.00
767.510,2964.00
768.480,3082.00
769.450,2712.00
770.420,2842.00
771.390,2646.00
772.359,2764.00
773.329,2657.00
774.300,2525.00
775.269,2748.00
776.238,2981.00
777.207,3164.00
778.176,2507.00
779.145,2830.00
780.114,2673.00
781.083,2599.00
782.051,2749.00
783.019,2694.00
783.988,3104.00
784.956,2814.00
785.924,2987.00
786.894,2875.00
787.862,2692.00
788.830,3152.00
789.797,2657.00
790.765,2626.00
791.732,2791.00
792.700,2668.00
793.667,2585.00
794.634,2762.00
795.601,2713.00
796.568,2782.00
797.535,2840.00
798.502,3451.00
799.468,2917.00
800.437,2410.00
801.403,2660.00
802.370,3269.00
803.336,2995.00
804.302,2910.00
805.268,2433.00
806.234,2569.00
807.200,2763.00
808.166,2802.00
809.131,2548.00
810.097,2967.00
811.062,3622.00
812.027,3039.00
812.994,2628.00
813.960,2612.00
814.925,2958.00
815.889,2536.00
816.854,3003.00
817.819,2616.00
818.783,2721.00
819.748,3125.00
820.712,2773.00
821.677,2670.00
822.641,2685.00
823.605,2735.00
824.571,3151.00
825.534,2738.00
826.498,2681.00
827.462,2795.00
828.425,2647.00
829.389,3055.00
830.352,2849.00
831.315,2895.00
832.279,2506.00
833.242,2770.00
834.204,2647.00
835.167,2695.00
836.132,3070.00
837.095,2508.00
838.057,2688.00
839.020,2843.00
839.982,2859.00
840.944,2692.00
841.906,2636.00
842.868,2973.00
843.830,2574.00
844.792,3058.00
845.753,2684.00
846.715,2456.00
847.679,2610.00
848.640,2628.00
849.601,2769.00
850.562,3232.00
851.523,2704.00
852.484,2465.00
853.445,2956.00
854.406,2682.00
855.367,2725.00
856.327,3049.00
857.288,2515.00
858.248,2661.00
859.210,2729.00
860.170,2518.00
861.130,2990.00
862.090,2466.00
863.050,2650.00
864.010,2686.00
864.969,2885.00
865.929,2581.00
866.888,2512.00
867.848,2832.00
868.807,2680.00
869.766,2859.00
870.727,2759.00
871.686,2977.00
872.645,2984.00
873.604,3301.00
874.562,2762.00
875.521,2815.00
876.479,3383.00
877.437,2593.00
878.396,2602.00
879.354,3209.00
880.312,2627.00
881.270,2650.00
882.229,3111.00
883.187,2653.00
884.145,2671.00
885.102,2942.00
886.059,2860.00
887.017,2890.00
887.974,2975.00
888.931,3038.00
889.888,2480.00
890.845,2444.00
891.802,2369.00
892.758,2667.00
893.717,2440.00
894.673,2573.00
895.630,2645.00
896.586,2863.00
897.542,2679.00
898.498,2560.00
899.454,2847.00
900.410,2675.00
901.366,2626.00
902.321,2618.00
903.277,2701.00
904.232,2746.00
905.189,2427.00
906.145,2649.00
907.100,2196.00
908.055,2747.00
909.010,2932.00
909.965,2303.00
910.919,2806.00
911.874,2592.00
912.828,2782.00
913.783,2769.00
914.737,2323.00
915.693,2792.00
916.648,2925.00
917.602,2924.00
918.555,2750.00
919.509,2855.00
920.463,2760.00
921.417,2762.00
922.370,2624.00
923.324,2672.00
924.277,2670.00
925.230,2769.00
926.183,2449.00
927.138,2724.00
928.091,2940.00
929.044,2801.00
929.996,2674.00
930.949,2651.00
931.902,2885.00
932.854,2829.00
933.806,2591.00
934.758,2960.00
935.711,2966.00
936.663,2770.00
937.614,2798.00
938.568,2778.00
939.520,2445.00
940.471,2720.00
941.423,2789.00
942.374,2876.00
943.326,2768.00
944.277,2602.00
945.228,2861.00
946.179,2719.00
947.130,3029.00
948.080,2648.00
949.031,2609.00
949.984,2667.00
950.934,2707.00
951.884,2482.00
952.835,2709.00
953.785,2786.00
954.735,2562.00
955.685,2363.00
956.635,2660.00
957.585,2658.00
958.534,2636.00
959.484,2757.00
960.433,2615.00
961.383,2485.00
962.334,2944.00
963.283,2773.00
964.232,2866.00
965.181,2710.00
966.130,2778.00
967.079,2633.00
968.027,2751.00
968.976,2744.00
969.924,2649.00
970.873,2789.00
971.821,2743.00
972.769,2907.00
973.719,2837.00
974.667,2479.00
975.615,2734.00
976.562,2695.00
977.510,2418.00
978.458,2567.00
979.405,2823.00
980.352,2785.00
981.300,2974.00
982.247,2800.00
983.194,2535.00
984.141,2650.00
985.088,2730.00
986.036,2776.00
986.983,3004.00
987.930,3123.00
988.876,2389.00
989.822,2937.00
990.769,2581.00
991.715,2597.00
992.661,2402.00
993.607,2791.00
994.553,3291.00
995.498,2586.00
996.444,2287.00
997.389,2765.00
998.337,2554.00
999.282,2862.00
1000.227,2649.00
1001.173,2723.00
1002.118,2458.00
1003.062,2921.00
1004.007,2677.00
1004.952,2975.00
1005.897,2950.00
1006.841,2681.00
1007.786,2466.00
1008.730,2467.00
1009.674,3178.00
1010.618,2641.00
1011.564,2499.00
1012.508,2408.00
1013.452,2931.00
1014.396,2677.00
1015.339,2634.00
1016.283,2678.00
1017.226,2769.00
1018.170,2678.00
1019.113,2871.00
1020.056,2729.00
1020.999,2716.00
1021.942,2626.00
1022.885,2868.00
1023.828,3014.00
1024.770,2510.00
1025.715,2745.00
1026.657,2720.00
1027.600,2752.00
1028.542,2949.00
1029.484,2765.00
1030.426,2854.00
1031.368,2800.00
1032.310,2629.00
1033.251,2567.00
1034.193,2686.00
1035.135,2489.00
1036.076,2640.00
1037.017,2530.00
1037.959,2831.00
1038.900,2777.00
1039.843,2799.00
1040.784,2761.00
1041.725,2808.00
1042.665,2627.00
1043.606,2755.00
1044.547,2739.00
1045.487,2386.00
1046.427,2676.00
1047.368,2758.00
1048.308,2215.00
1049.248,2526.00
1050.188,2705.00
1051.128,2600.00
1052.067,2652.00
1053.007,2427.00
1053.947,2389.00
1054.886,2591.00
1055.827,2493.00
1056.766,2909.00
1057.706,2486.00
1058.645,2691.00
1059.584,2746.00
1060.522,2979.00
1061.461,2451.00
1062.400,2468.00
1063.338,2663.00
1064.277,2501.00
1065.215,2539.00
1066.154,2395.00
1067.092,2573.00
1068.030,2615.00
1068.968,2834.00
1069.906,2998.00
1070.843,2970.00
1071.781,2746.00
1072.720,2791.00
1073.658,2832.00
1074.595,2589.00
1075.533,2544.00
1076.470,2572.00
1077.407,2987.00
1078.344,2768.00
1079.281,2774.00
1080.217,2321.00
1081.154,2685.00
1082.091,2726.00
1083.027,2460.00
1083.964,2929.00
1084.900,2538.00
1085.836,2635.00
1086.772,2849.00
1087.708,2476.00
1088.644,2791.00
1089.580,2669.00
1090.515,2750.00
1091.451,2615.00
1092.388,2728.00
1093.324,2455.00
1094.259,3226.00
1095.194,2789.00
1096.129,2627.00
1097.064,2585.00
1097.999,2831.00
1098.934,2544.00
1099.869,2558.00
1100.803,2727.00
1101.738,2707.00
1102.672,2403.00
1103.607,2805.00
1104.541,2577.00
1105.475,2538.00
1106.409,2382.00
1107.343,2619.00
1108.277,2475.00
1109.210,2734.00
1110.144,2689.00
1111.078,2640.00
1112.011,2442.00
1112.944,2795.00
1113.878,2721.00
1114.811,2190.00
1115.744,2576.00
1116.678,2317.00
1117.611,2563.00
1118.544,2606.00
1119.477,2725.00
1120.409,2569.00
1121.342,3122.00
1122.274,2790.00
1123.206,4276.00
1124.138,2694.00
1125.070,2970.00
1126.002,2840.00
1126.934,2308.00
1127.866,2584.00
1128.798,2309.00
1129.729,2429.00
1130.661,2656.00
1131.592,2577.00
1132.523,2740.00
1133.454,2758.00
1134.385,2302.00
1135.317,2661.00
1136.247,2574.00
1137.178,2840.00
1138.109,2384.00
1139.039,3029.00
1139.970,2798.00
1140.900,2580.00
1141.831,2336.00
1142.761,2252.00
1143.691,2726.00
1144.621,2661.00
1145.551,2681.00
1146.480,2649.00
1147.410,2848.00
1148.340,2308.00
1149.269,2394.00
1150.199,2587.00
1151.128,3087.00
1152.057,2448.00
1152.979,2625.00
1153.898,2600.00
1154.819,2710.00
1155.739,2622.00
1156.658,2553.00
1157.579,2695.00
1158.498,2608.00
1159.419,2172.00
1160.338,2708.00
1161.256,2703.00
1162.177,2518.00
1163.095,2589.00
1164.016,2716.00
1164.934,2881.00
1165.852,2854.00
1166.772,2593.00
1167.690,2659.00
1168.610,2744.00
1169.528,2631.00
1170.446,2176.00
1171.365,2567.00
1172.283,2502.00
1173.202,2616.00
1174.120,2659.00
1175.037,2509.00
1175.956,2454.00
1176.873,2512.00
1177.792,2504.00
1178.709,3123.00
1179.626,2542.00
1180.544,2836.00
1181.461,2508.00
1182.379,2721.00
1183.296,2611.00
1184.212,2280.00
1185.130,2516.00
1186.046,2977.00
1186.962,2651.00
1187.880,2914.00
1188.796,2672.00
1189.714,2405.00
1190.629,2774.00
1191.545,2707.00
1192.462,2561.00
1193.378,2581.00
1194.295,2347.00
1195.210,2652.00
1196.125,2794.00
1197.042,2707.00
1197.957,2646.00
1198.872,2495.00
1199.788,2548.00
1200.703,2945.00
1201.619,2647.00
1202.534,2497.00
1203.448,2726.00
1204.364,2560.00
1205.278,2295.00
1206.192,2650.00
1207.108,3135.00
1208.022,2988.00
1208.938,2484.00
1209.851,2751.00
1210.765,2857.00
1211.680,2559.00
1212.594,2445.00
1213.507,2580.00
1214.422,3027.00
1215.335,2731.00
1216.248,2570.00
1217.163,2639.00
1218.076,3216.00
1218.990,2763.00
1219.903,2411.00
1220.816,2473.00
1221.730,2603.00
1222.642,2516.00
1223.554,2547.00
1224.469,2707.00
1225.380,2562.00
1226.292,2314.00
1227.206,2764.00
1228.118,2942.00
1229.032,2239.00
1229.943,2496.00
1230.855,2605.00
1231.768,2372.00
1232.679,2700.00
1233.590,2615.00
1234.503,2828.00
1235.414,2454.00
1236.325,2504.00
1237.238,2676.00
1238.149,2746.00
1239.059,2457.00
1239.972,2816.00
1240.882,2449.00
1241.793,2757.00
1242.705,2960.00
1243.615,2567.00
1244.525,2725.00
1245.437,2215.00
1246.347,2699.00
1247.259,2789.00
1248.168,3054.00
1249.078,2874.00
1249.989,2910.00
1250.899,2419.00
1251.808,2494.00
1252.719,2569.00
1253.628,2497.00
1254.537,3025.00
1255.448,2454.00
1256.357,2473.00
1257.266,2654.00
1258.176,2399.00
1259.085,2346.00
1259.993,2405.00
1260.904,2478.00
1261.812,2472.00
1262.720,3258.00
1263.630,2792.00
1264.538,2470.00
1265.446,2717.00
1266.356,2636.00
1267.263,2888.00
1268.171,2449.00
1269.080,2708.00
1269.988,2822.00
1270.895,2548.00
1271.804,2585.00
1272.711,2835.00
1273.619,2744.00
1274.527,2456.00
1275.434,2773.00
1276.341,2394.00
1277.248,2630.00
1278.156,2920.00
1279.063,2492.00
1279.969,2727.00
1280.877,3540.00
1281.783,2813.00
1282.690,2705.00
1283.598,2589.00
1284.503,2494.00
1285.409,2472.00
1286.317,2986.00
1287.223,3031.00
1288.128,2714.00
1289.036,2521.00
1289.941,2592.00
1290.846,2656.00
1291.751,2474.00
1292.658,2557.00
1293.563,3035.00
1294.468,2632.00
1295.375,2813.00
1296.280,2860.00
1297.184,3343.00
1298.091,2727.00
1298.995,2777.00
1299.900,3010.00
1300.806,2540.00
1301.710,2394.00
1302.614,2226.00
1303.518,2839.00
1304.424,2600.00
1305.327,2844.00
1306.231,2613.00
1307.137,2797.00
1308.040,2683.00
1308.943,2664.00
1309.847,2861.00
1310.752,2826.00
1311.655,2298.00
1312.558,2426.00
1313.463,2569.00
1314.366,2499.00
1315.269,2656.00
1316.171,2625.00
1317.076,2504.00
1317.978,2438.00
1318.881,2258.00
1319.785,2496.00
1320.687,2498.00
1321.589,2244.00
1322.491,2489.00
1323.395,2717.00
1324.297,3197.00
1325.198,2796.00
1326.102,2445.00
1327.004,2418.00
1327.905,3015.00
1328.806,2599.00
1329.709,2660.00
1330.611,2575.00
1331.512,2424.00
1332.413,3102.00
1333.316,2678.00
1334.216,2805.00
1335.117,2383.00
1336.020,2640.00
1336.920,2625.00
1337.821,2464.00
1338.721,2886.00
1339.623,2710.00
1340.523,2593.00
1341.423,2503.00
1342.323,2853.00
1343.225,2712.00
1344.125,2484.00
1345.025,2499.00
1345.924,2302.00
1346.826,2970.00
1347.725,3056.00
1348.624,2868.00
1349.524,2487.00
1350.425,2588.00
1351.324,2696.00
1352.223,2780.00
1353.121,2636.00
1354.022,2787.00
1354.921,3045.00
1355.819,2757.00
1356.718,2697.00
1357.618,2385.00
1358.516,2738.00
1359.415,3035.00
1360.313,2702.00
1361.213,2595.00
1362.111,2898.00
1363.008,3296.00
1363.906,2603.00
1364.806,2628.00
1365.703,2739.00
1366.601,2440.00
1367.498,2448.00
1368.397,2814.00
1369.295,2665.00
1370.192,2475.00
1371.089,2697.00
1371.987,2645.00
1372.884,2860.00
1373.781,2406.00
1374.678,2606.00
1375.574,2463.00
1376.473,2738.00
1377.369,2864.00
1378.265,2453.00
1379.161,2600.00
1380.059,2362.00
1380.955,2740.00
1381.851,2420.00
1382.747,2531.00
1383.643,2560.00
1384.540,2425.00
1385.436,2548.00
1386.331,2732.00
1387.227,2802.00
1388.124,2712.00
1389.019,2459.00
1389.914,2605.00
1390.809,2289.00
1391.704,3053.00
1392.601,2545.00
1393.495,2907.00
1394.390,2791.00
1395.285,2894.00
1396.179,2738.00
1397.075,2582.00
1397.969,2702.00
1398.864,2319.00
1399.758,2545.00
1400.652,2668.00
1401.547,2444.00
1402.441,2388.00
1403.335,2963.00
1404.229,2695.00
1405.122,2708.00
1406.017,2628.00
1406.911,2805.00
1407.804,3027.00
1408.697,2635.00
1409.590,2460.00
1410.485,2816.00
1411.378,2679.00
1412.271,2350.00
1413.163,2718.00
1414.056,2745.00
1414.949,3040.00
1415.843,2698.00
1416.735,2573.00
1417.627,2653.00
1418.520,2607.00
1419.412,2888.00
1420.306,2784.00
1421.197,2919.00
1422.089,2814.00
1422.981,3083.00
1423.873,2792.00
1424.764,2725.00
1425.657,2667.00
1426.549,2792.00
1427.440,2842.00
1428.331,2560.00
1429.222,2322.00
1430.113,2686.00
1431.006,2820.00
1431.897,2553.00
1432.787,2677.00
1433.678,2576.00
1434.568,2484.00
1435.459,2892.00
1436.351,2830.00
1437.241,2807.00
1438.131,2773.00
1439.021,2392.00
1439.911,2589.00
1440.801,2709.00
1441.693,2919.00
1442.583,2666.00
1443.472,2665.00
1444.362,2730.00
1445.251,2602.00
1446.140,2566.00
1447.030,2816.00
1447.921,2846.00
1448.810,2485.00
1449.699,3013.00
1450.588,2669.00
1451.476,2568.00
1452.365,2780.00
1453.254,2542.00
1454.144,2498.00
1455.032,2758.00
1455.921,2381.00
1456.809,2925.00
1457.697,2453.00
1458.585,2596.00
1459.473,2573.00
1460.361,2495.00
1461.251,2739.00
1462.138,2743.00
1463.026,2641.00
1463.913,2891.00
1464.801,2550.00
1465.688,2715.00
1466.575,2698.00
1467.463,3123.00
1468.351,2522.00
1469.238,2637.00
1470.125,2262.00
1471.012,2700.00
1471.899,2743.00
1472.785,2468.00
1473.672,2679.00
1474.558,2896.00
1475.446,2929.00
1476.333,2854.00
1477.219,2485.00
1478.105,2619.00
1478.991,2604.00
1479.877,2947.00
1480.762,2644.00
1481.648,2514.00
1482.534,2751.00
1483.419,2732.00
1484.307,2742.00
1485.192,2645.00
1486.077,2484.00
1486.962,2535.00
1487.847,2421.00
1488.732,2501.00
1489.617,2663.00
1490.502,2880.00
1491.387,2751.00
1492.271,2490.00
1493.156,2503.00
1494.042,2435.00
1494.927,2865.00
1495.811,2551.00
1496.695,2804.00
1497.579,2899.00
1498.463,2658.00
1499.347,2690.00
1500.231,2683.00
1501.114,2681.00
1501.998,2930.00
1502.881,2672.00
1503.765,2984.00
1504.648,3066.00
1505.533,2775.00
1506.417,2689.00
1507.300,2624.00
1508.183,2724.00
1509.066,2165.00
1509.948,2898.00
1510.831,2946.00
1511.714,2465.00
1512.596,2801.00
1513.479,2902.00
1514.361,2908.00
1515.243,2697.00
1516.125,2850.00
1517.008,2930.00
1517.890,2621.00
1518.771,2681.00
1519.655,2858.00
1520.537,2596.00
1521.419,2484.00
1522.300,2690.00
1523.182,2806.00
1524.063,2773.00
1524.944,2937.00
1525.825,2849.00
1526.707,2504.00
1527.588,2461.00
1528.468,2759.00
1529.349,2399.00
1530.230,2594.00
1531.111,2869.00
1531.991,2698.00
1532.872,2375.00
1533.752,2655.00
1534.632,2524.00
1535.513,2558.00
1536.393,2756.00
1537.273,2962.00
1538.153,3315.00
1539.032,2421.00
1539.912,2664.00
1540.792,2669.00
1541.672,2648.00
1542.551,2755.00
1543.430,3302.00
1544.310,2669.00
1545.189,2598.00
1546.068,3092.00
1546.947,2783.00
1547.826,2976.00
1548.705,2683.00
1549.584,2861.00
1550.462,2624.00
1551.341,2795.00
1552.219,2732.00
1553.098,2838.00
1553.976,2894.00
1554.854,3072.00
1555.733,2858.00
1556.611,2601.00
1557.489,2473.00
1558.367,2629.00
1559.244,2832.00
1560.122,2665.00
1561.000,2747.00
1561.877,2979.00
1562.755,2523.00
1563.632,2604.00
1564.509,2919.00
1565.386,3014.00
1566.264,2462.00
1567.141,2294.00
1568.017,2817.00
1568.894,2666.00
1569.771,2705.00
1570.648,2777.00
1571.524,2704.00
1572.401,2406.00
1573.277,2441.00
1574.153,2715.00
1575.029,2563.00
1575.906,3380.00
1576.781,2848.00
1577.657,2638.00
1578.533,2898.00
1579.409,2302.00
1580.285,2664.00
1581.160,3089.00
1582.036,2852.00
1582.911,2492.00
1583.786,3005.00
1584.662,2484.00
1585.537,2643.00
1586.412,2717.00
1587.287,2517.00
1588.160,2794.00
1589.035,2364.00
1589.909,2703.00
1590.784,2647.00
1591.658,2486.00
1592.533,2693.00
1593.407,2684.00
1594.281,2555.00
1595.155,3047.00
1596.029,2552.00
1596.903,2623.00
1597.777,2576.00
1598.651,2915.00
1599.525,2370.00
1600.398,2713.00
1601.272,2658.00
1602.144,3185.00
1603.017,2667.00
1603.890,2925.00
1604.763,2770.00
1605.636,2801.00
1606.509,2406.00
1607.382,2538.00
1608.255,2767.00
1609.128,2924.00
1610.000,2635.00
1610.873,2388.00
1611.746,2588.00
1612.616,2647.00
1613.488,2273.00
1614.361,2678.00
1615.233,2644.00
1616.105,2901.00
1616.977,2642.00
1617.849,2531.00
1618.720,3017.00
1619.592,3013.00
1620.464,2783.00
1621.333,3068.00
1622.205,2667.00
1623.076,2642.00
1623.947,2654.00
1624.818,2947.00
1625.689,2780.00
1626.560,2619.00
1627.431,2737.00
1628.302,3053.00
1629.171,2802.00
1630.042,3009.00
1630.912,3646.00
1631.782,3246.00
1632.653,2486.00
1633.523,2797.00
1634.393,2874.00
1635.263,2560.00
1636.131,2676.00
1637.001,2573.00
1637.871,2302.00
1638.741,2317.00
1639.611,2413.00
1640.480,2844.00
1641.350,2539.00
1642.219,2549.00
1643.087,2195.00
1643.956,3099.00
1644.825,2936.00
1645.694,2906.00
1646.563,2855.00
1647.432,2723.00
1648.299,2698.00
1649.167,2817.00
1650.036,2533.00
1650.904,2967.00
1651.773,2915.00
1652.641,2696.00
1653.509,2858.00
1654.376,2530.00
1655.244,2726.00
1656.112,2739.00
1656.980,2701.00
1657.847,2533.00
1658.715,2865.00
1659.581,2600.00
1660.448,2907.00
1661.316,2211.00
1662.183,2715.00
1663.051,2747.00
1663.918,2697.00
1664.783,2723.00
1665.650,2807.00
1666.517,2814.00
1667.384,2718.00
1668.251,2727.00
1669.115,2846.00
1669.982,2667.00
1670.849,2993.00
1671.715,2668.00
1672.581,2835.00
1673.446,2801.00
1674.312,2727.00
1675.178,3090.00
1676.044,2752.00
1676.910,2770.00
1677.774,2734.00
1678.639,2350.00
1679.505,2676.00
1680.370,2832.00
1681.236,3345.00
1682.099,2680.00
1682.965,2728.00
1683.830,2297.00
1684.695,2504.00
1685.560,2626.00
1686.423,2841.00
1687.288,2792.00
1688.153,2711.00
1689.017,2644.00
1689.880,2772.00
1690.745,2842.00
1691.609,2572.00
1692.473,2842.00
1693.338,2945.00
1694.200,2968.00
1695.064,2692.00
1695.928,2561.00
1696.792,2673.00
1697.654,3215.00
1698.517,2740.00
1699.381,2440.00
1700.245,2382.00
1701.106,3019.00
1701.969,2607.00
1702.833,2856.00
1703.696,2612.00
1704.557,2604.00
1705.420,2570.00
1706.283,2731.00
1707.146,2877.00
1708.007,2492.00
1708.870,2484.00
1709.732,2413.00
1710.595,2575.00
1711.455,2455.00
1712.318,2580.00
1713.180,2964.00
1714.040,2734.00
1714.902,2842.00
1715.764,2679.00
1716.626,2457.00
1717.486,2676.00
1718.348,2985.00
1719.209,3997.00
1720.071,2347.00
1720.930,2486.00
1721.792,2564.00
1722.653,2547.00
1723.512,2602.00
1724.374,2647.00
1725.234,2768.00
1726.095,2725.00
1726.954,2682.00
1727.815,2848.00
1728.676,2691.00
1729.535,2889.00
1730.395,2639.00
1731.256,2629.00
1732.114,2765.00
1732.974,2167.00
1733.834,3062.00
1734.693,2870.00
1735.553,2730.00
1736.413,3103.00
1737.272,2602.00
1738.130,2620.00
1738.990,2816.00
1739.849,2608.00
1740.707,3702.00
1741.566,2720.00
1742.426,2749.00
1743.283,3093.00
1744.142,2604.00
1745.001,2384.00
1745.858,2853.00
1746.717,2783.00
1747.576,2802.00
1748.433,2868.00
1749.292,3296.00
1750.150,3350.00
1751.007,2914.00
1751.865,2852.00
1752.723,2728.00
1753.579,2636.00
1754.438,2904.00
1755.296,2925.00
1756.152,2281.00
1757.010,2389.00
1757.865,2889.00
1758.723,2348.00
1759.581,3034.00
1760.436,2658.00
1761.294,3055.00
1762.151,2675.00
1763.006,2637.00
1763.864,2329.00
1764.721,2937.00
1765.576,2754.00
1766.433,2822.00
1767.288,2603.00
1768.144,2750.00
1769.001,2635.00
1769.856,2836.00
1770.712,2937.00
1771.568,2474.00
1772.423,2641.00
1773.279,2630.00
1774.133,2601.00
1774.989,3078.00
1775.845,3093.00
1776.699,2955.00
1777.555,2692.00
1778.409,3219.00
1779.265,2673.00
1780.120,2651.00
1780.974,2682.00
1781.829,2332.00
1782.682,2779.00
1783.538,2542.00
1784.393,2754.00
1785.246,2613.00
1786.101,2828.00
1786.954,2839.00
1787.808,2932.00
1788.661,2460.00
1789.516,2630.00
1790.370,2648.00
1791.223,2911.00
1792.077,2740.00
1792.930,2821.00
1793.784,2605.00
1794.636,2741.00
1795.490,2707.00
1796.344,2748.00
1797.196,2715.00
1798.049,2839.00
1798.901,2599.00
1799.755,2939.00
1800.606,2517.00
1801.460,3223.00
1802.311,2990.00
1803.165,3158.00
1804.018,3039.00
1804.869,2811.00
1805.722,3207.00
1806.573,2769.00
1807.426,2528.00
1808.276,2695.00
1809.129,2630.00
1809.980,2895.00
1810.832,3006.00
1811.683,2641.00
1812.535,3035.00
1813.385,2665.00
1814.237,3003.00
1815.089,2737.00
1815.940,2971.00
1816.791,2651.00
1817.641,2586.00
1818.493,2831.00
1819.343,2767.00
1820.194,2610.00
1821.044,2839.00
1821.895,2909.00
1822.745,2410.00
1823.596,2574.00
1824.445,3104.00
1825.296,2826.00
1826.145,2722.00
1826.996,2912.00
1827.845,2744.00
1828.695,2753.00
1829.544,2700.00
1830.395,2741.00
1831.243,2653.00
1832.094,2477.00
1832.942,3339.00
1833.792,2837.00
1834.640,2759.00
1835.490,2731.00
1836.338,2787.00
1837.186,2615.00
1838.036,2555.00
1838.884,2698.00
1839.733,3039.00
1840.581,2927.00
1841.430,2835.00
1842.278,3039.00
1843.127,2593.00
1843.974,2402.00
1844.823,3138.00
1845.671,2886.00
1846.519,2743.00
1847.366,2783.00
1848.213,2381.00
1849.062,2492.00
1849.909,2445.00
1850.757,3334.00
1851.604,2822.00
1852.452,2687.00
1853.298,2912.00
1854.146,2802.00
1854.993,2753.00
1855.839,3228.00
1856.687,2846.00
1857.532,2833.00
1858.380,2716.00
1859.226,2782.00
1860.073,2828.00
1860.919,2580.00
1861.765,2598.00
1862.612,2968.00
1863.457,2932.00
1864.304,2708.00
1865.150,2825.00
1865.995,2709.00
1866.842,2849.00
1867.686,2945.00
1868.533,2813.00
1869.378,2803.00
1870.223,2762.00
1871.069,2607.00
1871.914,2758.00
1872.760,2715.00
1873.604,2535.00
1874.448,2885.00
1875.294,2914.00
1876.139,2585.00
1876.984,2854.00
1877.828,2371.00
1878.672,2235.00
1879.518,2617.00
1880.361,2886.00
1881.205,2900.00
1882.050,2486.00
1882.894,3203.00
1883.739,2611.00
1884.582,2505.00
1885.425,2552.00
1886.270,3017.00
1887.113,2499.00
1887.956,2834.00
1888.801,2763.00
1889.644,2561.00
1890.486,2334.00
1891.331,2702.00
1892.173,2765.00
1893.017,2767.00
1893.860,3038.00
1894.702,2977.00
1895.546,2741.00
1896.388,3447.00
1897.230,3095.00
1898.074,2640.00
1898.916,2495.00
1899.757,2583.00
1900.601,3402.00
1901.443,3014.00
1902.284,3028.00
1903.125,3223.00
1903.969,2930.00
1904.810,3008.00
1905.651,2845.00
1906.494,3101.00
1907.335,3174.00
1908.176,2861.00
1909.018,2876.00
1909.859,2690.00
1910.700,2579.00
1911.542,3277.00
1912.383,2823.00
1913.223,2325.00
1914.064,2873.00
1914.906,2994.00
1915.746,3103.00
1916.586,3223.00
1917.428,2750.00
1918.268,2791.00
1919.107,2652.00
1919.947,2538.00
1920.789,2655.00
1921.628,2965.00
1922.468,2727.00
1923.309,2616.00
1924.148,3105.00
1924.988,2830.00
1925.827,2743.00
1926.667,2591.00
1927.507,2792.00
1928.345,2590.00
1929.184,2921.00
1930.025,2591.00
1930.864,2983.00
1931.702,3049.00
1932.541,2645.00
1933.381,2855.00
1934.219,2943.00
1935.057,3031.00
1935.896,2438.00
1936.735,2715.00
1937.573,2663.00
1938.411,2559.00
1939.249,2903.00
1940.089,2632.00
1940.927,2982.00
1941.764,3031.00
1942.602,2710.00
1943.439,2618.00
1944.278,2732.00
1945.115,2656.00
1945.953,2499.00
1946.790,2824.00
1947.628,3096.00
1948.465,2860.00
1949.302,2897.00
1950.139,2882.00
1950.976,2592.00
1951.814,2965.00
1952.651,2820.00
1953.487,2554.00
1954.323,3001.00
1955.160,2712.00
1955.998,3134.00
1956.834,2732.00
1957.670,2832.00
1958.506,2978.00
1959.342,2844.00
1960.177,2804.00
1961.015,2881.00
1961.850,2769.00
1962.686,2792.00
1963.521,2788.00
1964.357,3076.00
1965.192,2499.00
1966.029,2875.00
1966.864,2708.00
1967.699,2988.00
1968.534,2800.00
1969.369,3027.00
1970.204,2714.00
1971.040,2785.00
1971.875,2684.00
1972.709,2788.00
1973.544,2590.00
1974.378,2657.00
1975.212,2846.00
1976.047,2669.00
1976.882,2616.00
1977.716,3213.00
1978.550,2462.00
1979.384,2753.00
1980.218,2710.00
1981.052,2677.00
1981.885,2779.00
1982.719,2780.00
1983.554,2898.00
1984.388,3052.00
1985.221,2851.00
1986.054,2994.00
1986.887,2748.00
1987.720,2616.00
1988.553,3041.00
1989.386,2855.00
1990.219,2868.00
1991.053,3084.00
1991.886,2665.00
1992.719,2959.00
1993.551,2291.00
1994.383,2916.00
1995.216,2653.00
1996.048,2490.00
1996.880,2954.00
1997.712,2662.00
1998.544,2740.00
1999.376,2867.00
2000.208,3060.00
2001.040,3233.00
2001.873,2565.00
2002.705,2592.00
2003.536,2778.00
2004.367,2796.00
2005.199,2787.00
2006.030,2646.00
2006.861,2589.00
2007.692,2772.00
2008.523,2597.00
2009.354,2811.00
2010.185,2564.00
2011.016,2906.00
2011.846,2980.00
2012.677,2690.00
2013.507,3094.00
2014.338,2980.00
2015.168,2685.00
2015.999,3272.00
2016.829,2721.00
2017.659,2972.00
2018.489,3277.00
2019.319,2606.00
2020.149,2908.00
2020.980,2822.00
2021.810,2612.00
2022.639,2618.00
2023.469,2669.00
2024.298,2449.00
2025.128,2381.00
2025.957,2389.00
2026.786,2232.00
2027.615,2455.00
2028.444,2638.00
2029.273,2806.00
2030.102,2411.00
2030.931,2605.00
2031.758,2851.00
2032.586,2584.00
2033.415,2628.00
2034.243,2274.00
2035.072,2003.00
2035.900,2514.00
2036.728,2373.00
2037.556,2385.00
2038.385,2377.00
2039.213,2183.00
2040.040,2180.00
2040.868,2174.00
2041.696,2218.00
2042.524,2243.00
2043.351,2431.00
2044.179,2244.00
2045.006,2053.00
