RamanScope Measure Spectrum Data V3.72

<< MEASURE CONDITION >>
Exposure Type,Aver
Exposure Time [sec],15
Exposure Count,30
Measure Time,2023/07/04 16:48:45
Data Name,""
Data Comment,""
Rayleigh Wave[nm],532.0

<< SAMPLE SPECTRUM >>
Wave[dcm-1],No290
146.591,881.10
147.626,1017.73
148.664,1205.53
149.699,1442.87
150.737,1664.50
151.772,1951.43
152.809,2172.07
153.846,2446.70
154.881,2650.67
155.918,2811.63
156.953,3021.43
157.989,3152.03
159.026,3338.23
160.060,3435.20
161.096,3516.00
162.130,3588.07
163.167,3681.90
164.200,3728.80
165.236,3821.70
166.272,3886.13
167.305,3909.47
168.341,4034.73
169.374,4073.60
170.409,4205.07
171.445,4253.73
172.477,4335.03
173.512,4440.47
174.545,4505.20
175.580,4580.23
176.614,4616.97
177.647,4685.30
178.681,4649.23
179.713,4718.07
180.747,4688.10
181.781,4597.73
182.813,4541.30
183.847,4531.20
184.878,4525.23
185.912,4517.10
186.945,4523.60
187.976,4439.17
189.010,4503.00
190.043,4548.33
191.073,4588.13
192.106,4592.20
193.137,4607.67
194.170,4702.80
195.202,4713.33
196.232,4754.47
197.265,4773.60
198.297,4889.43
199.327,4906.80
200.359,4993.80
201.388,5053.80
202.420,5109.30
203.452,5219.63
204.481,5334.70
205.512,5448.17
206.544,5530.47
207.573,5700.90
208.604,5759.53
209.635,5971.53
210.663,6185.00
211.694,6336.10
212.725,6499.80
213.753,6680.03
214.783,6866.17
215.813,7004.33
216.841,7125.50
217.871,7165.90
218.899,7186.47
219.929,7223.97
220.959,7175.83
221.986,7161.53
223.016,6928.63
224.045,6796.40
225.072,6656.13
226.101,6551.50
227.130,6404.53
228.157,6245.70
229.185,6183.07
230.214,6079.43
231.241,6040.80
232.269,5991.93
233.297,5885.93
234.323,5818.80
235.351,5839.07
236.379,5785.87
237.407,5792.90
238.433,5752.93
239.460,5786.50
240.488,5829.27
241.513,5894.07
242.540,5936.13
243.568,5918.10
244.592,6014.60
245.619,6039.90
246.646,6056.53
247.671,6094.00
248.697,6123.00
249.724,6063.20
250.748,6021.93
251.774,6034.97
252.801,5978.67
253.827,5928.23
254.850,5953.37
255.876,5955.57
256.902,6021.70
257.925,5988.97
258.951,6018.23
259.976,5972.70
260.999,6036.43
262.024,6109.17
263.049,6093.60
264.074,6136.30
265.097,6228.87
266.122,6274.00
267.146,6334.70
268.168,6397.73
269.193,6441.50
270.217,6481.10
271.241,6552.03
272.263,6636.30
273.287,6697.83
274.311,6702.43
275.332,6692.57
276.356,6791.50
277.379,6763.33
278.402,6787.23
279.424,6686.53
280.447,6647.17
281.470,6555.00
282.492,6544.23
283.513,6494.40
284.536,6357.90
285.558,6253.13
286.581,6181.30
287.601,6146.53
288.623,6015.13
289.645,5956.07
290.665,5875.40
291.687,5765.00
292.709,5699.23
293.730,5679.73
294.750,5546.63
295.771,5475.73
296.792,5380.70
297.813,5373.87
298.832,5294.57
299.853,5234.47
300.874,5189.03
301.895,5122.33
302.913,5080.60
303.934,5015.80
304.954,4993.00
305.975,5905.77
306.993,4885.40
308.013,4832.77
309.033,4853.57
310.052,4782.90
311.072,4725.17
312.090,4722.07
313.109,4720.23
314.129,4676.83
315.148,4642.13
316.165,4641.17
317.184,4586.30
318.203,4593.63
319.222,4571.17
320.238,4561.67
321.257,4513.90
322.275,4499.33
323.294,4510.00
324.312,4472.00
325.328,4462.60
326.346,4456.50
327.364,4444.73
328.382,4434.13
329.397,4437.90
330.415,4419.13
331.432,4360.10
332.450,4397.83
333.467,4313.57
334.482,4329.27
335.499,4332.13
336.516,4308.13
337.533,4306.20
338.547,4344.23
339.564,4334.17
340.580,4316.00
341.597,4287.20
342.613,4234.93
343.627,4271.17
344.643,4327.43
345.659,4276.47
346.675,4236.00
347.690,4237.77
348.704,4232.00
349.719,4217.13
350.735,4220.30
351.750,4192.70
352.765,4196.27
353.778,4216.83
354.793,4211.47
355.808,4221.53
356.822,4182.20
357.837,4204.43
358.851,4211.30
359.864,4233.93
360.878,4239.57
361.892,4221.03
362.906,4204.27
363.920,4244.87
364.932,4248.47
365.945,4278.20
366.959,4230.67
367.972,4222.47
368.986,4268.50
369.999,4304.77
371.010,4273.20
372.023,4282.57
373.036,4243.07
374.049,4297.47
375.061,4312.43
376.072,4318.97
377.084,4364.30
378.097,4314.23
379.109,4295.67
380.121,4357.10
381.133,4362.57
382.143,4339.07
383.155,4279.47
384.166,4343.53
385.178,4332.07
386.189,4380.57
387.201,4338.50
388.212,4299.87
389.221,4336.10
390.232,4301.50
391.243,4260.67
392.254,4273.90
393.264,4283.63
394.275,4276.17
395.283,4219.07
396.294,4227.30
397.304,4214.73
398.314,4204.60
399.324,4143.23
400.334,4146.83
401.344,4158.57
402.351,4132.60
403.361,4073.67
404.370,4074.10
405.380,4076.97
406.389,4090.77
407.398,4042.10
408.407,4000.77
409.414,3965.83
410.423,4002.70
411.431,3958.00
412.440,3958.00
413.448,3972.30
414.457,3942.90
415.465,3941.90
416.471,3928.77
417.479,3923.53
418.487,3886.73
419.495,3830.87
420.503,3861.67
421.510,3874.83
422.518,3862.00
423.525,3859.53
424.530,3856.13
425.537,3828.10
426.544,3840.30
427.551,3795.07
428.558,3783.17
429.565,3824.67
430.571,3820.10
431.578,3839.60
432.582,3821.17
433.588,3809.20
434.595,3793.83
435.601,3797.73
436.607,3757.33
437.612,3775.97
438.618,3777.10
439.624,3792.17
440.627,3749.80
441.633,3753.47
442.638,3770.90
443.643,3780.20
444.648,3776.53
445.653,3759.50
446.658,3772.17
447.663,3789.47
448.667,3735.57
449.672,3822.10
450.674,3776.10
451.678,3782.27
452.682,3812.37
453.687,3815.00
454.690,3812.07
455.694,3793.53
456.698,3762.80
457.702,3806.50
458.705,3779.87
459.709,3791.70
460.710,3826.90
461.713,3813.60
462.716,3821.67
463.719,3820.13
464.722,3810.37
465.725,3772.93
466.727,3830.53
467.730,3846.20
468.732,3853.53
469.735,3888.93
470.737,3831.43
471.737,3825.43
472.739,3833.60
473.741,3862.27
474.742,3861.53
475.744,3855.37
476.746,3845.00
477.747,3816.37
478.748,3846.03
479.750,3908.07
480.751,3879.50
481.752,3845.90
482.753,3902.90
483.751,3826.57
484.752,3890.27
485.753,3882.07
486.753,3890.57
487.753,3909.73
488.754,3921.60
489.754,3866.33
490.754,3868.47
491.754,3912.27
492.754,3876.73
493.753,3912.07
494.753,3897.73
495.752,3876.83
496.752,3870.57
497.749,3861.80
498.748,3922.50
499.747,3901.17
500.746,3909.17
501.745,3893.70
502.744,3848.67
503.742,3840.53
504.741,3881.23
505.739,3839.23
506.737,3818.50
507.735,3809.53
508.734,3808.13
509.732,3811.37
510.729,3757.27
511.727,3746.90
512.725,3729.43
513.720,3756.93
514.718,3743.50
515.715,3699.10
516.712,3739.80
517.709,3690.97
518.706,3714.50
519.703,3683.27
520.700,3679.33
521.696,3672.73
522.693,3671.40
523.689,3657.57
524.686,3658.03
525.682,3693.70
526.678,3714.13
527.674,3720.77
528.670,3672.50
529.666,3727.37
530.661,3738.20
531.657,3153.93
532.652,3713.77
533.648,3754.53
534.641,3776.37
535.636,3744.57
536.631,3783.83
537.626,3737.20
538.621,3713.37
539.616,3732.60
540.610,3775.23
541.605,3746.83
542.599,3713.77
543.593,3714.60
544.587,3737.23
545.581,3774.30
546.575,3759.40
547.569,3739.10
548.563,3759.80
549.557,3728.90
550.550,3719.00
551.543,3770.33
552.537,3735.80
553.530,3740.97
554.523,3753.23
555.516,3773.60
556.509,3741.63
557.502,3763.93
558.494,3705.33
559.487,3775.93
560.479,3707.30
561.472,3767.57
562.464,3804.07
563.456,3774.07
564.448,3770.90
565.440,3850.03
566.432,3835.37
567.423,3801.07
568.415,3799.43
569.404,3813.60
570.396,3841.63
571.387,3859.70
572.378,3891.90
573.369,3880.77
574.360,3904.80
575.351,3885.57
576.341,3916.77
577.332,3954.73
578.323,3960.80
579.313,3913.40
580.303,3933.93
581.293,3979.30
582.283,4005.67
583.273,3990.40
584.263,4014.10
585.253,4030.63
586.243,4036.90
587.232,4021.90
588.222,4077.43
589.211,4047.20
590.200,4038.00
591.189,4068.07
592.178,4127.27
593.167,4093.63
594.156,4033.20
595.145,4111.63
596.133,4127.00
597.122,4150.83
598.110,4173.20
599.098,4201.93
600.086,4114.20
601.074,4173.57
602.062,4168.93
603.050,4171.60
604.038,4192.83
605.025,4156.13
606.013,4155.97
607.000,4156.37
607.987,4162.33
608.975,4168.60
609.962,4138.00
610.949,4067.83
611.936,4101.43
612.922,4071.17
613.909,4110.30
614.895,3992.63
615.882,4013.10
616.868,3997.43
617.854,3974.73
618.841,3956.23
619.826,3959.07
620.812,3883.27
621.798,3859.40
622.784,3796.67
623.769,3806.87
624.755,3788.87
625.740,3787.83
626.725,3736.07
627.711,3728.33
628.698,3728.53
629.683,3659.47
630.667,3643.43
631.652,3630.70
632.637,3603.33
633.621,3589.57
634.606,3533.37
635.590,3463.97
636.574,3497.73
637.558,3464.60
638.542,3460.40
639.526,3425.10
640.510,3487.50
641.493,3335.70
642.477,3336.97
643.460,3340.20
644.444,3360.63
645.427,3351.97
646.410,3333.53
647.393,3277.43
648.376,3252.17
649.359,3229.33
650.341,3274.53
651.324,3245.03
652.307,3209.20
653.289,3197.67
654.271,3219.97
655.253,3197.97
656.235,3177.90
657.217,3192.23
658.199,3181.20
659.181,3226.40
660.163,3158.67
661.144,3210.80
662.126,3129.87
663.107,3131.07
664.088,3138.97
665.069,3146.10
666.050,3161.17
667.033,3092.67
668.014,3094.03
668.995,3059.27
669.975,3076.63
670.956,3114.90
671.936,3044.90
672.916,3001.40
673.896,3043.23
674.876,3029.97
675.856,3026.50
676.836,2998.57
677.816,2946.37
678.795,2942.93
679.775,2895.13
680.754,2896.80
681.734,2854.70
682.713,2817.53
683.692,2795.13
684.671,2810.10
685.650,2798.27
686.629,2804.33
687.607,2747.30
688.586,2708.10
689.564,2710.77
690.543,2683.00
691.523,2692.43
692.501,2676.60
693.479,2654.53
694.457,2609.07
695.435,2642.97
696.413,2651.90
697.390,2611.87
698.368,2619.00
699.345,2577.53
700.322,2612.63
701.300,2562.50
702.277,2564.97
703.254,2548.50
704.231,2591.63
705.207,2511.70
706.184,2498.20
707.161,2536.63
708.137,2541.37
709.113,2514.70
710.090,2478.63
711.068,2524.03
712.044,2490.07
713.020,2502.67
713.996,2467.33
714.971,2470.73
715.947,2413.90
716.922,2475.00
717.898,2419.27
718.873,2440.10
719.848,2407.70
720.823,2417.17
721.798,2374.43
722.773,2381.10
723.748,2343.37
724.723,2395.67
725.697,2372.67
726.672,2352.53
727.646,2383.30
728.622,2353.37
729.596,2391.43
730.570,2340.70
731.544,2372.40
732.518,2344.53
733.492,2359.20
734.466,2364.70
735.439,2344.57
736.413,2353.53
737.386,2310.10
738.359,2334.70
739.332,2313.53
740.305,2321.67
741.278,2352.77
742.251,2283.00
743.224,2303.90
744.196,2279.13
745.171,2297.50
746.143,2316.00
747.115,2275.10
748.087,2276.67
749.059,2292.13
750.031,2241.70
751.003,2218.20
751.975,2238.17
752.947,2226.33
753.918,2220.03
754.890,2217.87
755.861,2195.67
756.832,2239.63
757.803,2204.00
758.774,2195.43
759.747,2206.13
760.718,2167.07
761.689,2160.60
762.659,2177.77
763.630,2198.27
764.600,2127.53
765.570,2174.27
766.540,2111.60
767.510,2138.30
768.480,2123.87
769.450,2195.30
770.420,2121.17
771.390,2129.63
772.359,2134.30
773.329,2092.83
774.300,2090.87
775.269,2103.83
776.238,2077.00
777.207,2103.00
778.176,2101.07
779.145,2094.80
780.114,2063.13
781.083,2062.23
782.051,2067.67
783.019,2039.57
783.988,2056.03
784.956,2067.67
785.924,2057.23
786.894,2004.80
787.862,2033.67
788.830,2014.97
789.797,2041.47
790.765,2046.53
791.732,2046.40
792.700,2006.07
793.667,1994.17
794.634,1981.43
795.601,2006.23
796.568,2018.53
797.535,1959.40
798.502,1976.17
799.468,1955.97
800.437,1996.13
801.403,1977.63
802.370,1993.90
803.336,1929.07
804.302,1928.17
805.268,1948.20
806.234,1946.07
807.200,1904.93
808.166,1929.30
809.131,1940.20
810.097,1944.77
811.062,1948.03
812.027,1901.47
812.994,1907.53
813.960,1897.70
814.925,1895.07
815.889,1879.60
816.854,1904.10
817.819,1905.63
818.783,1904.97
819.748,1871.07
820.712,1864.10
821.677,1893.23
822.641,1901.30
823.605,1882.47
824.571,1845.77
825.534,1900.73
826.498,1865.90
827.462,1837.97
828.425,1865.57
829.389,1875.03
830.352,1848.63
831.315,1847.70
832.279,1852.27
833.242,1852.43
834.204,1826.07
835.167,1846.70
836.132,1851.63
837.095,1842.87
838.057,1853.47
839.020,1826.63
839.982,1820.07
840.944,1840.43
841.906,1835.80
842.868,1828.70
843.830,1882.17
844.792,1778.17
845.753,1787.80
846.715,1805.27
847.679,1794.90
848.640,1802.23
849.601,1835.27
850.562,1812.47
851.523,1767.73
852.484,1804.70
853.445,1773.43
854.406,1785.57
855.367,1817.33
856.327,1754.37
857.288,1775.27
858.248,1796.20
859.210,1778.40
860.170,1780.17
861.130,1773.73
862.090,1772.53
863.050,1731.60
864.010,1754.93
864.969,1741.70
865.929,1748.60
866.888,1741.50
867.848,1792.93
868.807,1777.37
869.766,1740.30
870.727,1732.93
871.686,1709.53
872.645,1734.73
873.604,1745.47
874.562,1758.20
875.521,1751.20
876.479,1712.83
877.437,1764.70
878.396,1733.23
879.354,1762.50
880.312,1714.53
881.270,1713.37
882.229,1719.63
883.187,1724.60
884.145,1702.60
885.102,1718.37
886.059,1730.47
887.017,1727.53
887.974,1706.37
888.931,1701.70
889.888,1756.67
890.845,1715.13
891.802,1730.23
892.758,1736.03
893.717,1754.23
894.673,1672.97
895.630,1700.57
896.586,1699.03
897.542,1715.97
898.498,1708.90
899.454,1736.70
900.410,1707.40
901.366,1723.00
902.321,1732.13
903.277,1699.43
904.232,1699.27
905.189,1715.10
906.145,1744.53
907.100,1728.60
908.055,1727.30
909.010,1719.83
909.965,1713.53
910.919,1710.97
911.874,1776.07
912.828,1728.10
913.783,1751.90
914.737,1725.33
915.693,1737.80
916.648,1696.47
917.602,1751.23
918.555,1758.83
919.509,1731.83
920.463,1739.67
921.417,1743.47
922.370,1725.73
923.324,1736.77
924.277,1752.47
925.230,1755.73
926.183,1735.03
927.138,1684.03
928.091,1732.00
929.044,1771.27
929.996,1762.90
930.949,1733.93
931.902,1753.43
932.854,1773.00
933.806,1780.53
934.758,1775.00
935.711,1742.93
936.663,1764.43
937.614,1785.10
938.568,1743.33
939.520,1783.57
940.471,1751.30
941.423,1795.97
942.374,1798.20
943.326,1784.27
944.277,1776.63
945.228,1740.20
946.179,1758.40
947.130,1760.00
948.080,1764.53
949.031,1744.47
949.984,1759.17
950.934,1737.63
951.884,1758.07
952.835,1806.90
953.785,1771.80
954.735,1754.60
955.685,1767.13
956.635,1756.53
957.585,1775.67
958.534,1757.00
959.484,1760.60
960.433,1726.90
961.383,1727.50
962.334,1725.60
963.283,1734.80
964.232,1749.07
965.181,1762.10
966.130,1747.87
967.079,1728.07
968.027,1747.07
968.976,1773.07
969.924,1755.00
970.873,1767.93
971.821,1729.67
972.769,1752.67
973.719,1755.03
974.667,1742.97
975.615,1771.00
976.562,1731.87
977.510,1728.30
978.458,1751.67
979.405,1750.07
980.352,1737.03
981.300,1749.27
982.247,1744.87
983.194,1722.97
984.141,1720.10
985.088,1713.03
986.036,1707.63
986.983,1747.37
987.930,1743.30
988.876,1718.73
989.822,1737.90
990.769,1719.23
991.715,1721.40
992.661,1708.77
993.607,1688.90
994.553,1740.93
995.498,1771.63
996.444,1743.97
997.389,1694.77
998.337,1710.67
999.282,1700.90
1000.227,1734.10
1001.173,1731.23
1002.118,1702.83
1003.062,1707.37
1004.007,1703.73
1004.952,1698.50
1005.897,1705.63
1006.841,1704.83
1007.786,1694.33
1008.730,1734.53
1009.674,1711.87
1010.618,1738.10
1011.564,1718.43
1012.508,1683.13
1013.452,1715.60
1014.396,1715.67
1015.339,1726.27
1016.283,1750.50
1017.226,1721.50
1018.170,1670.93
1019.113,1707.67
1020.056,1733.07
1020.999,1701.30
1021.942,1729.80
1022.885,1733.10
1023.828,1723.13
1024.770,1728.43
1025.715,1745.53
1026.657,1725.57
1027.600,1707.97
1028.542,1709.63
1029.484,1713.07
1030.426,1735.53
1031.368,1742.17
1032.310,1727.40
1033.251,1700.20
1034.193,1714.93
1035.135,1711.03
1036.076,1724.80
1037.017,1705.13
1037.959,1732.37
1038.900,1741.87
1039.843,1742.83
1040.784,1743.13
1041.725,1742.13
1042.665,1746.77
1043.606,1767.07
1044.547,1734.97
1045.487,1721.63
1046.427,1748.70
1047.368,1745.77
1048.308,1777.27
1049.248,1760.83
1050.188,1764.07
1051.128,1771.23
1052.067,1800.60
1053.007,1747.87
1053.947,1783.70
1054.886,1745.23
1055.827,1766.13
1056.766,1756.03
1057.706,1741.50
1058.645,1755.37
1059.584,1762.43
1060.522,1799.30
1061.461,1765.53
1062.400,1781.17
1063.338,1829.47
1064.277,1832.40
1065.215,1784.50
1066.154,1815.10
1067.092,1776.20
1068.030,1823.67
1068.968,1807.73
1069.906,1814.70
1070.843,1836.50
1071.781,1796.80
1072.720,1813.87
1073.658,1814.77
1074.595,1869.37
1075.533,1845.60
1076.470,1841.70
1077.407,1843.13
1078.344,1885.23
1079.281,1808.57
1080.217,1879.77
1081.154,1824.33
1082.091,1817.93
1083.027,1844.20
1083.964,1844.03
1084.900,1827.20
1085.836,1877.70
1086.772,1867.50
1087.708,1843.00
1088.644,1851.80
1089.580,1852.33
1090.515,1859.87
1091.451,1892.80
1092.388,1889.47
1093.324,1827.43
1094.259,1880.70
1095.194,1893.87
1096.129,1839.97
1097.064,1872.27
1097.999,1825.43
1098.934,1841.30
1099.869,1818.57
1100.803,1814.83
1101.738,1849.67
1102.672,1834.87
1103.607,1830.33
1104.541,1783.60
1105.475,1833.40
1106.409,1813.60
1107.343,1768.37
1108.277,1789.07
1109.210,1774.90
1110.144,1792.27
1111.078,1740.80
1112.011,1779.17
1112.944,1784.93
1113.878,1768.80
1114.811,1758.43
1115.744,1736.33
1116.678,1753.17
1117.611,1750.73
1118.544,1720.93
1119.477,1728.20
1120.409,1727.80
1121.342,1701.77
1122.274,1718.30
1123.206,1732.97
1124.138,1690.07
1125.070,1704.23
1126.002,1697.97
1126.934,1677.93
1127.866,1688.37
1128.798,1667.03
1129.729,1664.13
1130.661,1625.20
1131.592,1669.03
1132.523,1637.30
1133.454,1648.20
1134.385,1641.37
1135.317,1659.40
1136.247,1629.20
1137.178,1670.90
1138.109,1632.43
1139.039,1615.67
1139.970,1634.27
1140.900,1621.83
1141.831,1598.27
1142.761,1651.87
1143.691,1579.17
1144.621,1586.90
1145.551,1560.10
1146.480,1597.13
1147.410,1549.97
1148.340,1653.73
1149.269,1598.37
1150.199,1577.90
1151.128,1603.23
1152.057,1550.87
1152.979,1562.97
1153.898,1561.10
1154.819,1573.43
1155.739,1559.07
1156.658,1510.90
1157.579,1544.40
1158.498,1536.27
1159.419,1557.57
1160.338,1569.37
1161.256,1518.03
1162.177,1545.83
1163.095,1515.77
1164.016,1548.33
1164.934,1526.90
1165.852,1539.90
1166.772,1531.70
1167.690,1496.53
1168.610,1505.80
1169.528,1529.63
1170.446,1533.17
1171.365,1515.47
1172.283,1484.07
1173.202,1521.33
1174.120,1524.10
1175.037,1492.40
1175.956,1501.57
1176.873,1519.33
1177.792,1521.50
1178.709,1466.23
1179.626,1518.77
1180.544,1542.97
1181.461,1502.63
1182.379,1482.73
1183.296,1506.07
1184.212,1488.73
1185.130,1513.57
1186.046,1468.83
1186.962,1516.47
1187.880,1464.13
1188.796,1525.80
1189.714,1499.30
1190.629,1485.67
1191.545,1511.73
1192.462,1493.00
1193.378,1459.77
1194.295,1462.33
1195.210,1507.07
1196.125,1489.43
1197.042,1485.30
1197.957,1491.73
1198.872,1470.67
1199.788,1450.57
1200.703,1493.30
1201.619,1497.83
1202.534,1485.13
1203.448,1452.53
1204.364,1463.07
1205.278,1481.67
1206.192,1496.53
1207.108,1464.27
1208.022,1508.63
1208.938,1452.63
1209.851,1444.53
1210.765,1460.97
1211.680,1472.17
1212.594,1433.97
1213.507,1496.37
1214.422,1454.23
1215.335,1478.43
1216.248,1498.40
1217.163,1473.10
1218.076,1463.77
1218.990,1498.63
1219.903,1505.60
1220.816,1492.70
1221.730,1468.37
1222.642,1454.90
1223.554,1483.60
1224.469,1491.87
1225.380,1467.17
1226.292,1478.33
1227.206,1467.93
1228.118,1458.50
1229.032,1485.00
1229.943,1486.27
1230.855,1479.53
1231.768,1481.23
1232.679,1499.80
1233.590,1464.30
1234.503,1506.47
1235.414,1473.50
1236.325,1466.53
1237.238,1504.57
1238.149,1479.47
1239.059,1492.93
1239.972,1483.20
1240.882,1525.57
1241.793,1467.70
1242.705,1505.13
1243.615,1500.13
1244.525,1504.07
1245.437,1519.37
1246.347,1516.20
1247.259,1549.93
1248.168,1503.00
1249.078,1479.73
1249.989,1501.20
1250.899,1491.90
1251.808,1523.73
1252.719,1484.93
1253.628,1534.83
1254.537,1472.30
1255.448,1507.67
1256.357,1499.47
1257.266,1495.57
1258.176,1528.10
1259.085,1484.87
1259.993,1516.87
1260.904,1529.37
1261.812,1500.20
1262.720,1522.00
1263.630,1526.13
1264.538,1485.30
1265.446,1503.00
1266.356,1508.27
1267.263,1458.77
1268.171,1483.03
1269.080,1513.80
1269.988,1489.57
1270.895,1459.57
1271.804,1511.67
1272.711,1494.77
1273.619,1523.93
1274.527,1481.40
1275.434,1484.63
1276.341,1503.37
1277.248,1481.50
1278.156,1489.50
1279.063,1476.77
1279.969,1490.33
1280.877,1481.40
1281.783,1473.57
1282.690,1493.53
1283.598,1470.57
1284.503,1460.30
1285.409,1492.93
1286.317,1454.03
1287.223,1500.93
1288.128,1419.07
1289.036,1458.10
1289.941,1467.50
1290.846,1480.90
1291.751,1447.63
1292.658,1476.60
1293.563,1471.93
1294.468,1468.30
1295.375,1486.83
1296.280,1459.20
1297.184,1458.83
1298.091,1402.00
1298.995,1449.43
1299.900,1466.73
1300.806,1424.37
1301.710,1406.67
1302.614,1404.47
1303.518,1435.43
1304.424,1451.37
1305.327,1416.07
1306.231,1416.27
1307.137,1434.67
1308.040,1422.40
1308.943,1404.97
1309.847,1396.60
1310.752,1399.07
1311.655,1371.00
1312.558,1382.77
1313.463,1401.10
1314.366,1396.30
1315.269,1370.97
1316.171,1382.97
1317.076,1401.47
1317.978,1365.13
1318.881,1365.63
1319.785,1361.30
1320.687,1344.80
1321.589,1336.73
1322.491,1341.57
1323.395,1353.17
1324.297,1362.80
1325.198,1350.23
1326.102,1352.80
1327.004,1363.03
1327.905,1376.30
1328.806,1356.47
1329.709,1325.17
1330.611,1319.30
1331.512,1342.50
1332.413,1388.63
1333.316,1352.63
1334.216,1324.50
1335.117,1327.67
1336.020,1303.20
1336.920,1309.20
1337.821,1315.37
1338.721,1268.77
1339.623,1287.60
1340.523,1320.97
1341.423,1316.13
1342.323,1293.30
1343.225,1267.10
1344.125,1317.53
1345.025,1281.00
1345.924,1281.67
1346.826,1316.53
1347.725,1273.77
1348.624,1288.73
1349.524,1260.43
1350.425,1284.93
1351.324,1247.00
1352.223,1279.20
1353.121,1289.90
1354.022,1274.97
1354.921,1295.43
1355.819,1238.80
1356.718,1263.73
1357.618,1220.37
1358.516,1261.40
1359.415,1227.67
1360.313,1231.60
1361.213,1249.03
1362.111,1262.27
1363.008,1208.10
1363.906,1228.03
1364.806,1196.83
1365.703,1262.40
1366.601,1217.30
1367.498,1211.90
1368.397,1225.00
1369.295,1206.97
1370.192,1219.07
1371.089,1231.40
1371.987,1223.47
1372.884,1174.93
1373.781,1231.33
1374.678,1194.47
1375.574,1192.83
1376.473,1198.70
1377.369,1213.17
1378.265,1183.37
1379.161,1199.17
1380.059,1198.13
1380.955,1209.97
1381.851,1196.50
1382.747,1210.40
1383.643,1216.87
1384.540,1158.70
1385.436,1168.30
1386.331,1199.03
1387.227,1154.87
1388.124,1190.10
1389.019,1182.47
1389.914,1172.90
1390.809,1162.23
1391.704,1175.97
1392.601,1161.97
1393.495,1180.10
1394.390,1159.23
1395.285,1220.70
1396.179,1177.03
1397.075,1156.43
1397.969,1134.40
1398.864,1179.53
1399.758,1121.13
1400.652,1134.97
1401.547,1164.70
1402.441,1146.47
1403.335,1154.40
1404.229,1161.07
1405.122,1133.73
1406.017,1152.80
1406.911,1164.50
1407.804,1097.30
1408.697,1116.57
1409.590,1135.37
1410.485,1148.60
1411.378,1135.23
1412.271,1127.47
1413.163,1157.97
1414.056,1157.87
1414.949,1149.57
1415.843,1098.87
1416.735,1133.03
1417.627,1103.80
1418.520,1114.37
1419.412,1134.80
1420.306,1112.40
1421.197,1122.30
1422.089,1123.80
1422.981,1105.97
1423.873,1098.93
1424.764,1120.00
1425.657,1103.10
1426.549,1091.87
1427.440,1117.73
1428.331,1130.43
1429.222,1102.70
1430.113,1107.57
1431.006,1145.53
1431.897,1109.73
1432.787,1128.10
1433.678,1141.17
1434.568,1107.67
1435.459,1095.07
1436.351,1088.90
1437.241,1066.23
1438.131,1098.47
1439.021,1081.47
1439.911,1079.63
1440.801,1078.17
1441.693,1103.80
1442.583,1083.43
1443.472,1097.20
1444.362,1097.87
1445.251,1066.87
1446.140,1097.47
1447.030,1099.20
1447.921,1085.03
1448.810,1120.80
1449.699,1086.40
1450.588,1064.40
1451.476,1069.10
1452.365,1082.30
1453.254,1063.27
1454.144,1071.97
1455.032,1044.33
1455.921,1088.97
1456.809,1088.30
1457.697,1061.73
1458.585,1052.40
1459.473,1072.40
1460.361,1027.80
1461.251,1045.73
1462.138,1048.43
1463.026,1085.57
1463.913,1040.80
1464.801,1067.33
1465.688,1057.83
1466.575,1085.73
1467.463,1032.73
1468.351,1028.77
1469.238,1033.80
1470.125,1031.77
1471.012,1043.57
1471.899,1037.87
1472.785,1057.23
1473.672,1039.53
1474.558,1024.03
1475.446,1014.63
1476.333,1013.57
1477.219,1059.23
1478.105,1019.20
1478.991,1049.33
1479.877,999.90
1480.762,1051.33
1481.648,1047.60
1482.534,1036.37
1483.419,1081.53
1484.307,999.63
1485.192,1045.07
1486.077,1042.07
1486.962,1029.50
1487.847,1041.50
1488.732,1006.73
1489.617,1032.30
1490.502,1032.93
1491.387,1067.53
1492.271,1013.53
1493.156,1004.70
1494.042,974.93
1494.927,1004.77
1495.811,996.03
1496.695,1048.77
1497.579,1024.53
1498.463,1006.80
1499.347,995.27
1500.231,987.87
1501.114,941.20
1501.998,994.37
1502.881,981.47
1503.765,954.00
1504.648,951.20
1505.533,1003.53
1506.417,990.37
1507.300,1019.40
1508.183,965.33
1509.066,963.80
1509.948,984.70
1510.831,951.40
1511.714,921.57
1512.596,984.83
1513.479,1003.87
1514.361,942.03
1515.243,975.20
1516.125,979.53
1517.008,964.40
1517.890,974.10
1518.771,984.23
1519.655,956.60
1520.537,971.70
1521.419,959.17
1522.300,988.47
1523.182,956.70
1524.063,934.67
1524.944,957.40
1525.825,1004.30
1526.707,955.67
1527.588,948.27
1528.468,939.73
1529.349,926.13
1530.230,951.60
1531.111,976.53
1531.991,959.83
1532.872,947.67
1533.752,952.23
1534.632,916.47
1535.513,978.27
1536.393,953.13
1537.273,943.07
1538.153,1005.07
1539.032,941.07
1539.912,901.17
1540.792,944.50
1541.672,961.27
1542.551,946.73
1543.430,956.47
1544.310,943.80
1545.189,955.70
1546.068,888.40
1546.947,912.07
1547.826,933.13
1548.705,954.27
1549.584,942.40
1550.462,932.67
1551.341,948.27
1552.219,925.80
1553.098,959.60
1553.976,933.30
1554.854,927.13
1555.733,939.57
1556.611,933.37
1557.489,945.87
1558.367,906.77
1559.244,948.10
1560.122,889.20
1561.000,929.83
1561.877,908.20
1562.755,915.97
1563.632,911.90
1564.509,934.27
1565.386,910.57
1566.264,930.10
1567.141,879.63
1568.017,908.10
1568.894,907.23
1569.771,905.70
1570.648,898.10
1571.524,962.10
1572.401,943.50
1573.277,917.83
1574.153,925.30
1575.029,927.90
1575.906,918.33
1576.781,897.63
1577.657,904.00
1578.533,882.83
1579.409,936.83
1580.285,934.77
1581.160,868.53
1582.036,916.83
1582.911,898.33
1583.786,895.80
1584.662,895.73
1585.537,881.03
1586.412,890.00
1587.287,908.10
1588.160,896.93
1589.035,880.23
1589.909,873.53
1590.784,923.17
1591.658,879.87
1592.533,883.17
1593.407,887.73
1594.281,905.97
1595.155,906.07
1596.029,902.23
1596.903,915.93
1597.777,891.47
1598.651,865.27
1599.525,889.33
1600.398,873.37
1601.272,891.30
1602.144,894.50
1603.017,913.37
1603.890,898.73
1604.763,940.23
1605.636,895.37
1606.509,867.33
1607.382,889.20
1608.255,834.70
1609.128,913.70
1610.000,867.67
1610.873,867.80
1611.746,853.70
1612.616,885.90
1613.488,837.33
1614.361,889.80
1615.233,889.23
1616.105,904.57
1616.977,871.67
1617.849,870.20
1618.720,879.17
1619.592,883.20
1620.464,889.87
1621.333,881.83
1622.205,895.57
1623.076,858.97
1623.947,895.00
1624.818,891.07
1625.689,836.37
1626.560,865.43
1627.431,844.57
1628.302,885.77
1629.171,853.37
1630.042,893.53
1630.912,883.53
1631.782,885.30
1632.653,848.27
1633.523,889.77
1634.393,860.13
1635.263,834.80
1636.131,843.70
1637.001,910.37
1637.871,890.17
1638.741,851.70
1639.611,853.97
1640.480,868.80
1641.350,858.50
1642.219,874.17
1643.087,842.37
1643.956,862.33
1644.825,828.00
1645.694,843.63
1646.563,833.53
1647.432,843.23
1648.299,852.93
1649.167,866.63
1650.036,857.93
1650.904,886.90
1651.773,839.90
1652.641,856.33
1653.509,803.80
1654.376,857.90
1655.244,866.77
1656.112,842.93
1656.980,862.23
1657.847,823.80
1658.715,843.83
1659.581,839.53
1660.448,853.50
1661.316,804.00
1662.183,862.33
1663.051,795.87
1663.918,810.57
1664.783,864.03
1665.650,838.73
1666.517,834.17
1667.384,833.33
1668.251,853.67
1669.115,808.40
1669.982,819.93
1670.849,793.43
1671.715,851.73
1672.581,811.43
1673.446,858.13
1674.312,830.00
1675.178,831.63
1676.044,810.17
1676.910,830.97
1677.774,831.57
1678.639,845.73
1679.505,864.83
1680.370,838.67
1681.236,845.93
1682.099,820.73
1682.965,818.20
1683.830,809.67
1684.695,814.87
1685.560,814.63
1686.423,793.83
1687.288,841.27
1688.153,812.80
1689.017,815.77
1689.880,827.27
1690.745,828.27
1691.609,813.63
1692.473,831.63
1693.338,827.87
1694.200,821.13
1695.064,814.63
1695.928,810.40
1696.792,828.70
1697.654,842.53
1698.517,826.37
1699.381,770.47
1700.245,808.53
1701.106,829.87
1701.969,856.73
1702.833,803.33
1703.696,838.20
1704.557,813.40
1705.420,790.07
1706.283,826.80
1707.146,813.57
1708.007,821.90
1708.870,818.40
1709.732,795.03
1710.595,788.13
1711.455,790.13
1712.318,837.63
1713.180,817.83
1714.040,837.37
1714.902,820.10
1715.764,805.03
1716.626,775.07
1717.486,830.83
1718.348,817.80
1719.209,404.40
1720.071,793.80
1720.930,769.87
1721.792,799.00
1722.653,797.73
1723.512,844.60
1724.374,809.33
1725.234,819.67
1726.095,823.40
1726.954,787.40
1727.815,794.60
1728.676,801.77
1729.535,784.70
1730.395,832.73
1731.256,787.93
1732.114,831.83
1732.974,793.60
1733.834,786.57
1734.693,782.73
1735.553,793.97
1736.413,765.93
1737.272,804.77
1738.130,798.63
1738.990,802.37
1739.849,803.70
1740.707,807.03
1741.566,808.50
1742.426,825.37
1743.283,807.30
1744.142,793.03
1745.001,786.37
1745.858,782.77
1746.717,806.90
1747.576,827.30
1748.433,807.83
1749.292,800.30
1750.150,806.53
1751.007,820.07
1751.865,806.97
1752.723,814.93
1753.579,799.90
1754.438,790.97
1755.296,816.50
1756.152,772.43
1757.010,817.27
1757.865,792.70
1758.723,801.00
1759.581,784.43
1760.436,788.53
1761.294,780.23
1762.151,810.13
1763.006,782.63
1763.864,792.80
1764.721,815.30
1765.576,788.27
1766.433,767.03
1767.288,795.00
1768.144,775.17
1769.001,797.73
1769.856,789.30
1770.712,797.20
1771.568,777.20
1772.423,794.37
1773.279,777.30
1774.133,791.27
1774.989,783.93
1775.845,816.13
1776.699,815.77
1777.555,795.70
1778.409,789.60
1779.265,747.67
1780.120,801.23
1780.974,803.23
1781.829,770.80
1782.682,789.27
1783.538,787.23
1784.393,836.70
1785.246,811.27
1786.101,752.47
1786.954,783.57
1787.808,768.17
1788.661,741.60
1789.516,805.53
1790.370,796.23
1791.223,821.30
1792.077,790.80
1792.930,780.77
1793.784,797.20
1794.636,791.37
1795.490,775.30
1796.344,781.60
1797.196,745.70
1798.049,791.80
1798.901,771.70
1799.755,817.63
1800.606,778.47
1801.460,778.27
1802.311,754.27
1803.165,787.47
1804.018,764.47
1804.869,779.17
1805.722,798.23
1806.573,754.40
1807.426,757.63
1808.276,751.53
1809.129,775.10
1809.980,809.43
1810.832,770.13
1811.683,797.53
1812.535,717.27
1813.385,777.53
1814.237,786.50
1815.089,775.53
1815.940,741.17
1816.791,778.60
1817.641,753.00
1818.493,775.93
1819.343,811.67
1820.194,788.03
1821.044,782.30
1821.895,805.60
1822.745,770.17
1823.596,765.77
1824.445,769.73
1825.296,764.30
1826.145,774.67
1826.996,772.43
1827.845,770.10
1828.695,779.43
1829.544,793.10
1830.395,748.60
1831.243,771.93
1832.094,740.23
1832.942,763.40
1833.792,735.13
1834.640,791.77
1835.490,782.03
1836.338,769.53
1837.186,736.47
1838.036,768.23
1838.884,765.00
1839.733,785.13
1840.581,758.83
1841.430,764.57
1842.278,753.70
1843.127,736.83
1843.974,749.40
1844.823,761.87
1845.671,789.70
1846.519,770.90
1847.366,765.13
1848.213,713.20
1849.062,766.73
1849.909,730.83
1850.757,771.70
1851.604,716.07
1852.452,770.50
1853.298,762.67
1854.146,772.33
1854.993,777.10
1855.839,766.70
1856.687,758.77
1857.532,753.83
1858.380,767.30
1859.226,723.13
1860.073,763.77
1860.919,747.03
1861.765,774.30
1862.612,739.67
1863.457,735.53
1864.304,770.27
1865.150,770.33
1865.995,746.67
1866.842,727.77
1867.686,780.77
1868.533,768.20
1869.378,757.83
1870.223,785.70
1871.069,764.70
1871.914,738.27
1872.760,781.10
1873.604,746.47
1874.448,742.80
1875.294,741.70
1876.139,767.50
1876.984,752.23
1877.828,736.13
1878.672,763.47
1879.518,721.53
1880.361,785.87
1881.205,704.03
1882.050,752.43
1882.894,727.03
1883.739,720.77
1884.582,741.37
1885.425,724.63
1886.270,751.17
1887.113,754.43
1887.956,758.93
1888.801,760.53
1889.644,755.57
1890.486,746.70
1891.331,764.50
1892.173,752.40
1893.017,764.57
1893.860,755.13
1894.702,756.40
1895.546,758.90
1896.388,753.37
1897.230,755.37
1898.074,736.00
1898.916,742.10
1899.757,744.97
1900.601,726.33
1901.443,749.57
1902.284,736.40
1903.125,750.50
1903.969,779.87
1904.810,776.43
1905.651,770.33
1906.494,721.97
1907.335,749.20
1908.176,745.90
1909.018,699.77
1909.859,703.33
1910.700,729.13
1911.542,739.27
1912.383,781.77
1913.223,756.20
1914.064,759.97
1914.906,752.90
1915.746,722.67
1916.586,723.47
1917.428,755.93
1918.268,772.30
1919.107,759.93
1919.947,738.10
1920.789,777.60
1921.628,772.20
1922.468,725.13
1923.309,769.53
1924.148,718.30
1924.988,717.60
1925.827,729.03
1926.667,750.57
1927.507,741.30
1928.345,726.37
1929.184,729.07
1930.025,735.00
1930.864,746.90
1931.702,786.13
1932.541,727.80
1933.381,774.27
1934.219,772.00
1935.057,763.50
1935.896,709.57
1936.735,739.27
1937.573,733.57
1938.411,742.50
1939.249,765.90
1940.089,745.37
1940.927,727.07
1941.764,705.90
1942.602,708.83
1943.439,772.73
1944.278,748.77
1945.115,731.93
1945.953,722.33
1946.790,717.67
1947.628,747.57
1948.465,766.30
1949.302,753.57
1950.139,773.43
1950.976,739.90
1951.814,708.13
1952.651,758.50
1953.487,710.23
1954.323,717.40
1955.160,722.37
1955.998,766.60
1956.834,728.23
1957.670,754.97
1958.506,731.03
1959.342,767.00
1960.177,723.60
1961.015,706.07
1961.850,724.40
1962.686,739.90
1963.521,752.97
1964.357,753.80
1965.192,711.20
1966.029,757.23
1966.864,700.60
1967.699,721.07
1968.534,728.93
1969.369,742.57
1970.204,719.83
1971.040,742.70
1971.875,706.00
1972.709,705.43
1973.544,719.13
1974.378,746.97
1975.212,728.10
1976.047,749.83
1976.882,722.90
1977.716,745.47
1978.550,729.13
1979.384,748.13
1980.218,733.20
1981.052,767.47
1981.885,747.20
1982.719,704.67
1983.554,713.97
1984.388,746.03
1985.221,717.13
1986.054,702.37
1986.887,720.07
1987.720,730.80
1988.553,724.10
1989.386,743.80
1990.219,685.57
1991.053,726.80
1991.886,731.83
1992.719,747.57
1993.551,765.03
1994.383,713.43
1995.216,740.20
1996.048,746.20
1996.880,724.47
1997.712,751.37
1998.544,712.13
1999.376,710.80
2000.208,721.63
2000.208,721.63

Max Intensity Wave.,219.929
Max Intensity Data,7223.97
Min Intensity Wave.,1719.209
Min Intensity Data,404.40
FWHM Wave.,600.237
FWHM Value,39.78
Pressure Wave.,684.671
Pressure Value [GPa],-24.91530
G/D Ratio,0.66462
G/D Gband Wave.,1571.765
G/D Gband Intensity,965.22
G/D Dband Wave.,1304.252
G/D Dband Intensity,1452.29

<< BACKGROUND SPECTRUM >>
Wave[dcm-1],No290
146.591,2201.00
147.626,2093.00
148.664,2062.00
149.699,2512.00
150.737,2252.00
151.772,2375.00
152.809,2382.00
153.846,2248.00
154.881,2368.00
155.918,1989.00
156.953,2275.00
157.989,2604.00
159.026,2416.00
160.060,2633.00
161.096,2862.00
162.130,2494.00
163.167,2541.00
164.200,2453.00
165.236,2623.00
166.272,2660.00
167.305,2284.00
168.341,2498.00
169.374,2754.00
170.409,2731.00
171.445,2697.00
172.477,2512.00
173.512,2353.00
174.545,2644.00
175.580,2839.00
176.614,3006.00
177.647,2744.00
178.681,3030.00
179.713,3273.00
180.747,2755.00
181.781,2704.00
182.813,2989.00
183.847,3072.00
184.878,2695.00
185.912,2955.00
186.945,3109.00
187.976,3070.00
189.010,2697.00
190.043,2799.00
191.073,2870.00
192.106,2706.00
193.137,3160.00
194.170,2487.00
195.202,2891.00
196.232,2684.00
197.265,2993.00
198.297,3008.00
199.327,2762.00
200.359,2922.00
201.388,3304.00
202.420,2903.00
203.452,3061.00
204.481,2665.00
205.512,3269.00
206.544,3069.00
207.573,3006.00
208.604,3387.00
209.635,3494.00
210.663,2910.00
211.694,2951.00
212.725,2816.00
213.753,2763.00
214.783,3349.00
215.813,3232.00
216.841,2974.00
217.871,3156.00
218.899,2911.00
219.929,3130.00
220.959,2904.00
221.986,3084.00
223.016,2792.00
224.045,3131.00
225.072,3117.00
226.101,3181.00
227.130,3236.00
228.157,2841.00
229.185,2339.00
230.214,3178.00
231.241,2795.00
232.269,2437.00
233.297,2691.00
234.323,3219.00
235.351,2760.00
236.379,3078.00
237.407,2743.00
238.433,2911.00
239.460,3074.00
240.488,3073.00
241.513,3160.00
242.540,3071.00
243.568,3194.00
244.592,3176.00
245.619,3178.00
246.646,2933.00
247.671,2947.00
248.697,2753.00
249.724,2997.00
250.748,2981.00
251.774,2951.00
252.801,3254.00
253.827,3107.00
254.850,3019.00
255.876,2635.00
256.902,3067.00
257.925,2949.00
258.951,2703.00
259.976,2803.00
260.999,3098.00
262.024,2762.00
263.049,3647.00
264.074,3110.00
265.097,2983.00
266.122,3041.00
267.146,3005.00
268.168,3175.00
269.193,2816.00
270.217,3198.00
271.241,2702.00
272.263,2846.00
273.287,3146.00
274.311,2764.00
275.332,3300.00
276.356,2824.00
277.379,3084.00
278.402,3081.00
279.424,2948.00
280.447,2876.00
281.470,2725.00
282.492,3048.00
283.513,2846.00
284.536,3133.00
285.558,3124.00
286.581,3103.00
287.601,2800.00
288.623,2812.00
289.645,3030.00
290.665,3064.00
291.687,3118.00
292.709,3112.00
293.730,3340.00
294.750,2877.00
295.771,2741.00
296.792,3073.00
297.813,2924.00
298.832,3044.00
299.853,2750.00
300.874,2955.00
301.895,2923.00
302.913,2953.00
303.934,3249.00
304.954,3008.00
305.975,3166.00
306.993,2715.00
308.013,3115.00
309.033,2983.00
310.052,2889.00
311.072,2888.00
312.090,3015.00
313.109,3234.00
314.129,3387.00
315.148,2990.00
316.165,2993.00
317.184,3230.00
318.203,2733.00
319.222,2738.00
320.238,3080.00
321.257,2787.00
322.275,2688.00
323.294,2931.00
324.312,3140.00
325.328,3233.00
326.346,3243.00
327.364,3180.00
328.382,3135.00
329.397,3101.00
330.415,3183.00
331.432,3210.00
332.450,3201.00
333.467,3479.00
334.482,2602.00
335.499,3323.00
336.516,2868.00
337.533,2570.00
338.547,2802.00
339.564,2828.00
340.580,3055.00
341.597,2940.00
342.613,3429.00
343.627,2965.00
344.643,2953.00
345.659,3078.00
346.675,2977.00
347.690,2870.00
348.704,3066.00
349.719,2902.00
350.735,2756.00
351.750,3190.00
352.765,3005.00
353.778,2968.00
354.793,3140.00
355.808,2817.00
356.822,3209.00
357.837,2622.00
358.851,3237.00
359.864,2936.00
360.878,2710.00
361.892,2930.00
362.906,3149.00
363.920,2547.00
364.932,3065.00
365.945,3029.00
366.959,2984.00
367.972,2927.00
368.986,2687.00
369.999,3306.00
371.010,2810.00
372.023,3313.00
373.036,2947.00
374.049,3363.00
375.061,3060.00
376.072,2980.00
377.084,2806.00
378.097,2702.00
379.109,3203.00
380.121,2965.00
381.133,2656.00
382.143,3125.00
383.155,2744.00
384.166,2850.00
385.178,3070.00
386.189,3149.00
387.201,2703.00
388.212,2908.00
389.221,2881.00
390.232,3005.00
391.243,2946.00
392.254,3010.00
393.264,2793.00
394.275,3166.00
395.283,3167.00
396.294,3596.00
397.304,3452.00
398.314,3055.00
399.324,3032.00
400.334,2647.00
401.344,3116.00
402.351,2637.00
403.361,3210.00
404.370,2936.00
405.380,2895.00
406.389,3301.00
407.398,3110.00
408.407,3100.00
409.414,3156.00
410.423,3295.00
411.431,2770.00
412.440,2676.00
413.448,3284.00
414.457,2828.00
415.465,2770.00
416.471,2853.00
417.479,2989.00
418.487,2800.00
419.495,3320.00
420.503,3093.00
421.510,2615.00
422.518,3143.00
423.525,3141.00
424.530,3348.00
425.537,2871.00
426.544,3186.00
427.551,2882.00
428.558,3582.00
429.565,3369.00
430.571,2850.00
431.578,2852.00
432.582,2860.00
433.588,2909.00
434.595,2599.00
435.601,3244.00
436.607,3248.00
437.612,2744.00
438.618,3327.00
439.624,2891.00
440.627,2921.00
441.633,3109.00
442.638,3581.00
443.643,3082.00
444.648,2994.00
445.653,3163.00
446.658,2874.00
447.663,2990.00
448.667,2901.00
449.672,2853.00
450.674,2942.00
451.678,2700.00
452.682,2844.00
453.687,2811.00
454.690,3558.00
455.694,3253.00
456.698,2580.00
457.702,2653.00
458.705,2799.00
459.709,2808.00
460.710,2830.00
461.713,3020.00
462.716,3059.00
463.719,2990.00
464.722,3168.00
465.725,2989.00
466.727,2816.00
467.730,3014.00
468.732,2748.00
469.735,3209.00
470.737,2870.00
471.737,2885.00
472.739,2896.00
473.741,2796.00
474.742,3047.00
475.744,3073.00
476.746,3031.00
477.747,2988.00
478.748,3177.00
479.750,2886.00
480.751,2990.00
481.752,3710.00
482.753,3048.00
483.751,3586.00
484.752,2613.00
485.753,2945.00
486.753,2849.00
487.753,2965.00
488.754,3380.00
489.754,2718.00
490.754,3307.00
491.754,3067.00
492.754,2687.00
493.753,2992.00
494.753,2913.00
495.752,3334.00
496.752,3030.00
497.749,2982.00
498.748,2817.00
499.747,3358.00
500.746,3052.00
501.745,2729.00
502.744,2749.00
503.742,3314.00
504.741,2900.00
505.739,2480.00
506.737,2907.00
507.735,3103.00
508.734,3349.00
509.732,3125.00
510.729,3337.00
511.727,2879.00
512.725,2903.00
513.720,2766.00
514.718,3234.00
515.715,2695.00
516.712,2594.00
517.709,2982.00
518.706,2852.00
519.703,3032.00
520.700,3195.00
521.696,3333.00
522.693,2893.00
523.689,2841.00
524.686,3164.00
525.682,2790.00
526.678,3431.00
527.674,2870.00
528.670,2615.00
529.666,3464.00
530.661,3453.00
531.657,3687.00
532.652,3132.00
533.648,2959.00
534.641,3161.00
535.636,3022.00
536.631,3067.00
537.626,3141.00
538.621,2751.00
539.616,2586.00
540.610,2481.00
541.605,2978.00
542.599,3071.00
543.593,2986.00
544.587,3881.00
545.581,2819.00
546.575,3044.00
547.569,3035.00
548.563,2653.00
549.557,2663.00
550.550,2786.00
551.543,2701.00
552.537,3158.00
553.530,2762.00
554.523,2762.00
555.516,3080.00
556.509,2978.00
557.502,2641.00
558.494,3212.00
559.487,2876.00
560.479,3232.00
561.472,3236.00
562.464,3118.00
563.456,3272.00
564.448,2949.00
565.440,2932.00
566.432,3341.00
567.423,2893.00
568.415,2901.00
569.404,3103.00
570.396,2813.00
571.387,3118.00
572.378,2999.00
573.369,3931.00
574.360,3626.00
575.351,2946.00
576.341,2849.00
577.332,2839.00
578.323,2663.00
579.313,2892.00
580.303,3232.00
581.293,3106.00
582.283,2966.00
583.273,3127.00
584.263,2969.00
585.253,3057.00
586.243,3128.00
587.232,2668.00
588.222,2918.00
589.211,3174.00
590.200,3051.00
591.189,2932.00
592.178,2916.00
593.167,3425.00
594.156,3312.00
595.145,2886.00
596.133,3436.00
597.122,3092.00
598.110,3158.00
599.098,3017.00
600.086,3017.00
601.074,3144.00
602.062,2813.00
603.050,2733.00
604.038,3075.00
605.025,2794.00
606.013,3192.00
607.000,3382.00
607.987,3026.00
608.975,3042.00
609.962,2768.00
610.949,3137.00
611.936,3217.00
612.922,3173.00
613.909,2660.00
614.895,3385.00
615.882,2826.00
616.868,2963.00
617.854,2727.00
618.841,3013.00
619.826,3042.00
620.812,2956.00
621.798,2786.00
622.784,3195.00
623.769,3094.00
624.755,2708.00
625.740,3012.00
626.725,2688.00
627.711,2814.00
628.698,3024.00
629.683,2813.00
630.667,3149.00
631.652,2709.00
632.637,2908.00
633.621,3136.00
634.606,2922.00
635.590,3138.00
636.574,2894.00
637.558,3044.00
638.542,3009.00
639.526,2848.00
640.510,2573.00
641.493,3085.00
642.477,3004.00
643.460,2711.00
644.444,3204.00
645.427,3215.00
646.410,2642.00
647.393,2968.00
648.376,3062.00
649.359,2925.00
650.341,3067.00
651.324,3065.00
652.307,3036.00
653.289,2952.00
654.271,2851.00
655.253,2918.00
656.235,3122.00
657.217,3220.00
658.199,2613.00
659.181,2691.00
660.163,3013.00
661.144,2812.00
662.126,2896.00
663.107,2767.00
664.088,6179.00
665.069,3214.00
666.050,2789.00
667.033,2732.00
668.014,3030.00
668.995,2598.00
669.975,2988.00
670.956,2959.00
671.936,3145.00
672.916,2977.00
673.896,3061.00
674.876,2897.00
675.856,2835.00
676.836,2710.00
677.816,2306.00
678.795,2771.00
679.775,2687.00
680.754,3019.00
681.734,3164.00
682.713,3169.00
683.692,2787.00
684.671,2630.00
685.650,2738.00
686.629,2828.00
687.607,2754.00
688.586,2774.00
689.564,2833.00
690.543,3252.00
691.523,2389.00
692.501,2840.00
693.479,2937.00
694.457,2814.00
695.435,2852.00
696.413,2643.00
697.390,2528.00
698.368,2666.00
699.345,3101.00
700.322,2888.00
701.300,3075.00
702.277,3056.00
703.254,3260.00
704.231,2527.00
705.207,2988.00
706.184,2803.00
707.161,2657.00
708.137,2800.00
709.113,2786.00
710.090,2808.00
711.068,2555.00
712.044,2603.00
713.020,2857.00
713.996,2613.00
714.971,2780.00
715.947,2867.00
716.922,2778.00
717.898,2766.00
718.873,2874.00
719.848,2733.00
720.823,2686.00
721.798,2997.00
722.773,2792.00
723.748,2600.00
724.723,3014.00
725.697,2828.00
726.672,2763.00
727.646,2513.00
728.622,3000.00
729.596,2576.00
730.570,2749.00
731.544,3042.00
732.518,3263.00
733.492,2812.00
734.466,2857.00
735.439,2995.00
736.413,3080.00
737.386,2459.00
738.359,2405.00
739.332,2555.00
740.305,2835.00
741.278,3252.00
742.251,2934.00
743.224,2722.00
744.196,2570.00
745.171,3119.00
746.143,2972.00
747.115,2757.00
748.087,2704.00
749.059,3057.00
750.031,2926.00
751.003,3684.00
751.975,3239.00
752.947,2701.00
753.918,3087.00
754.890,2593.00
755.861,2792.00
756.832,2975.00
757.803,2826.00
758.774,2830.00
759.747,2603.00
760.718,3213.00
761.689,2750.00
762.659,2569.00
763.630,3101.00
764.600,2590.00
765.570,3034.00
766.540,3144.00
767.510,2931.00
768.480,3043.00
769.450,2660.00
770.420,2816.00
771.390,2645.00
772.359,2731.00
773.329,2670.00
774.300,2520.00
775.269,2744.00
776.238,2998.00
777.207,3130.00
778.176,2480.00
779.145,2772.00
780.114,2685.00
781.083,2584.00
782.051,2745.00
783.019,2696.00
783.988,3060.00
784.956,2835.00
785.924,2969.00
786.894,2882.00
787.862,2689.00
788.830,3136.00
789.797,2607.00
790.765,2574.00
791.732,2732.00
792.700,2647.00
793.667,2581.00
794.634,2751.00
795.601,2725.00
796.568,2761.00
797.535,2854.00
798.502,3426.00
799.468,2906.00
800.437,2359.00
801.403,2639.00
802.370,3221.00
803.336,3000.00
804.302,2869.00
805.268,2430.00
806.234,2550.00
807.200,2774.00
808.166,2773.00
809.131,2546.00
810.097,2940.00
811.062,3616.00
812.027,3028.00
812.994,2619.00
813.960,2620.00
814.925,2937.00
815.889,2524.00
816.854,3004.00
817.819,2635.00
818.783,2700.00
819.748,3102.00
820.712,2745.00
821.677,2649.00
822.641,2687.00
823.605,2712.00
824.571,3153.00
825.534,2699.00
826.498,2694.00
827.462,2842.00
828.425,2617.00
829.389,3043.00
830.352,2823.00
831.315,2900.00
832.279,2517.00
833.242,2758.00
834.204,2679.00
835.167,2654.00
836.132,3029.00
837.095,2531.00
838.057,2689.00
839.020,2819.00
839.982,2864.00
840.944,2670.00
841.906,2627.00
842.868,2943.00
843.830,2491.00
844.792,3077.00
845.753,2701.00
846.715,2435.00
847.679,2602.00
848.640,2611.00
849.601,2723.00
850.562,3219.00
851.523,2726.00
852.484,2473.00
853.445,3003.00
854.406,2718.00
855.367,2682.00
856.327,3057.00
857.288,2515.00
858.248,2674.00
859.210,2684.00
860.170,2521.00
861.130,2994.00
862.090,2414.00
863.050,2653.00
864.010,2685.00
864.969,2915.00
865.929,2597.00
866.888,2537.00
867.848,2783.00
868.807,2627.00
869.766,2855.00
870.727,2731.00
871.686,3006.00
872.645,3003.00
873.604,3279.00
874.562,2746.00
875.521,2790.00
876.479,3373.00
877.437,2546.00
878.396,2587.00
879.354,3148.00
880.312,2608.00
881.270,2683.00
882.229,3105.00
883.187,2627.00
884.145,2685.00
885.102,2952.00
886.059,2826.00
887.017,2891.00
887.974,2950.00
888.931,3086.00
889.888,2485.00
890.845,2448.00
891.802,2346.00
892.758,2617.00
893.717,2400.00
894.673,2622.00
895.630,2644.00
896.586,2932.00
897.542,2682.00
898.498,2541.00
899.454,2841.00
900.410,2696.00
901.366,2676.00
902.321,2605.00
903.277,2707.00
904.232,2763.00
905.189,2489.00
906.145,2641.00
907.100,2235.00
908.055,2707.00
909.010,2926.00
909.965,2354.00
910.919,2819.00
911.874,2531.00
912.828,2775.00
913.783,2741.00
914.737,2352.00
915.693,2750.00
916.648,2951.00
917.602,2927.00
918.555,2755.00
919.509,2836.00
920.463,2744.00
921.417,2754.00
922.370,2590.00
923.324,2690.00
924.277,2653.00
925.230,2741.00
926.183,2428.00
927.138,2745.00
928.091,2957.00
929.044,2794.00
929.996,2631.00
930.949,2665.00
931.902,2830.00
932.854,2826.00
933.806,2568.00
934.758,2950.00
935.711,2994.00
936.663,2772.00
937.614,2780.00
938.568,2757.00
939.520,2385.00
940.471,2728.00
941.423,2741.00
942.374,2857.00
943.326,2735.00
944.277,2586.00
945.228,2860.00
946.179,2706.00
947.130,3031.00
948.080,2678.00
949.031,2584.00
949.984,2676.00
950.934,2708.00
951.884,2478.00
952.835,2649.00
953.785,2748.00
954.735,2616.00
955.685,2344.00
956.635,2617.00
957.585,2607.00
958.534,2617.00
959.484,2728.00
960.433,2632.00
961.383,2486.00
962.334,2966.00
963.283,2782.00
964.232,2837.00
965.181,2704.00
966.130,2776.00
967.079,2625.00
968.027,2709.00
968.976,2707.00
969.924,2604.00
970.873,2773.00
971.821,2746.00
972.769,2911.00
973.719,2838.00
974.667,2489.00
975.615,2694.00
976.562,2724.00
977.510,2414.00
978.458,2593.00
979.405,2815.00
980.352,2776.00
981.300,2949.00
982.247,2789.00
983.194,2551.00
984.141,2646.00
985.088,2748.00
986.036,2806.00
986.983,2991.00
987.930,3110.00
988.876,2385.00
989.822,2952.00
990.769,2576.00
991.715,2615.00
992.661,2464.00
993.607,2823.00
994.553,3261.00
995.498,2557.00
996.444,2283.00
997.389,2820.00
998.337,2535.00
999.282,2890.00
1000.227,2647.00
1001.173,2714.00
1002.118,2468.00
1003.062,2915.00
1004.007,2701.00
1004.952,2998.00
1005.897,2945.00
1006.841,2705.00
1007.786,2487.00
1008.730,2418.00
1009.674,3168.00
1010.618,2631.00
1011.564,2519.00
1012.508,2434.00
1013.452,2936.00
1014.396,2720.00
1015.339,2606.00
1016.283,2659.00
1017.226,2744.00
1018.170,2756.00
1019.113,2889.00
1020.056,2712.00
1020.999,2731.00
1021.942,2597.00
1022.885,2845.00
1023.828,2987.00
1024.770,2496.00
1025.715,2722.00
1026.657,2667.00
1027.600,2774.00
1028.542,2931.00
1029.484,2741.00
1030.426,2844.00
1031.368,2751.00
1032.310,2572.00
1033.251,2567.00
1034.193,2711.00
1035.135,2504.00
1036.076,2626.00
1037.017,2564.00
1037.959,2839.00
1038.900,2775.00
1039.843,2808.00
1040.784,2740.00
1041.725,2800.00
1042.665,2614.00
1043.606,2747.00
1044.547,2776.00
1045.487,2396.00
1046.427,2673.00
1047.368,2776.00
1048.308,2223.00
1049.248,2512.00
1050.188,2692.00
1051.128,2602.00
1052.067,2616.00
1053.007,2422.00
1053.947,2393.00
1054.886,2604.00
1055.827,2497.00
1056.766,2913.00
1057.706,2492.00
1058.645,2694.00
1059.584,2764.00
1060.522,2963.00
1061.461,2482.00
1062.400,2484.00
1063.338,2632.00
1064.277,2489.00
1065.215,2539.00
1066.154,2393.00
1067.092,2621.00
1068.030,2620.00
1068.968,2870.00
1069.906,3007.00
1070.843,2951.00
1071.781,2774.00
1072.720,2820.00
1073.658,2840.00
1074.595,2571.00
1075.533,2571.00
1076.470,2585.00
1077.407,2973.00
1078.344,2728.00
1079.281,2839.00
1080.217,2299.00
1081.154,2699.00
1082.091,2762.00
1083.027,2464.00
1083.964,2915.00
1084.900,2587.00
1085.836,2591.00
1086.772,2872.00
1087.708,2477.00
1088.644,2831.00
1089.580,2702.00
1090.515,2759.00
1091.451,2580.00
1092.388,2683.00
1093.324,2475.00
1094.259,3208.00
1095.194,2734.00
1096.129,2628.00
1097.064,2547.00
1097.999,2838.00
1098.934,2540.00
1099.869,2577.00
1100.803,2744.00
1101.738,2699.00
1102.672,2389.00
1103.607,2796.00
1104.541,2571.00
1105.475,2520.00
1106.409,2423.00
1107.343,2639.00
1108.277,2448.00
1109.210,2731.00
1110.144,2668.00
1111.078,2710.00
1112.011,2455.00
1112.944,2765.00
1113.878,2722.00
1114.811,2180.00
1115.744,2601.00
1116.678,2306.00
1117.611,2563.00
1118.544,2616.00
1119.477,2737.00
1120.409,2539.00
1121.342,3125.00
1122.274,2734.00
1123.206,4209.00
1124.138,2682.00
1125.070,2962.00
1126.002,2831.00
1126.934,2301.00
1127.866,2562.00
1128.798,2340.00
1129.729,2389.00
1130.661,2694.00
1131.592,2551.00
1132.523,2753.00
1133.454,2757.00
1134.385,2306.00
1135.317,2633.00
1136.247,2579.00
1137.178,2811.00
1138.109,2378.00
1139.039,3017.00
1139.970,2818.00
1140.900,2550.00
1141.831,2354.00
1142.761,2184.00
1143.691,2786.00
1144.621,2664.00
1145.551,2733.00
1146.480,2688.00
1147.410,2881.00
1148.340,2280.00
1149.269,2360.00
1150.199,2583.00
1151.128,3021.00
1152.057,2455.00
1152.979,2581.00
1153.898,2620.00
1154.819,2719.00
1155.739,2639.00
1156.658,2598.00
1157.579,2674.00
1158.498,2641.00
1159.419,2186.00
1160.338,2662.00
1161.256,2716.00
1162.177,2492.00
1163.095,2635.00
1164.016,2685.00
1164.934,2909.00
1165.852,2812.00
1166.772,2616.00
1167.690,2674.00
1168.610,2722.00
1169.528,2643.00
1170.446,2188.00
1171.365,2569.00
1172.283,2540.00
1173.202,2628.00
1174.120,2663.00
1175.037,2520.00
1175.956,2478.00
1176.873,2500.00
1177.792,2512.00
1178.709,3142.00
1179.626,2517.00
1180.544,2813.00
1181.461,2520.00
1182.379,2740.00
1183.296,2616.00
1184.212,2287.00
1185.130,2471.00
1186.046,2988.00
1186.962,2609.00
1187.880,2937.00
1188.796,2643.00
1189.714,2434.00
1190.629,2780.00
1191.545,2678.00
1192.462,2562.00
1193.378,2635.00
1194.295,2364.00
1195.210,2629.00
1196.125,2776.00
1197.042,2708.00
1197.957,2626.00
1198.872,2529.00
1199.788,2575.00
1200.703,2945.00
1201.619,2648.00
1202.534,2497.00
1203.448,2735.00
1204.364,2575.00
1205.278,2294.00
1206.192,2668.00
1207.108,3151.00
1208.022,2958.00
1208.938,2511.00
1209.851,2809.00
1210.765,2876.00
1211.680,2535.00
1212.594,2460.00
1213.507,2555.00
1214.422,3050.00
1215.335,2757.00
1216.248,2555.00
1217.163,2661.00
1218.076,3235.00
1218.990,2740.00
1219.903,2378.00
1220.816,2446.00
1221.730,2614.00
1222.642,2542.00
1223.554,2552.00
1224.469,2689.00
1225.380,2596.00
1226.292,2304.00
1227.206,2781.00
1228.118,2977.00
1229.032,2267.00
1229.943,2505.00
1230.855,2584.00
1231.768,2387.00
1232.679,2711.00
1233.590,2639.00
1234.503,2831.00
1235.414,2512.00
1236.325,2531.00
1237.238,2690.00
1238.149,2754.00
1239.059,2463.00
1239.972,2824.00
1240.882,2426.00
1241.793,2788.00
1242.705,2989.00
1243.615,2583.00
1244.525,2721.00
1245.437,2196.00
1246.347,2668.00
1247.259,2739.00
1248.168,3055.00
1249.078,2907.00
1249.989,2901.00
1250.899,2445.00
1251.808,2483.00
1252.719,2587.00
1253.628,2470.00
1254.537,3031.00
1255.448,2463.00
1256.357,2470.00
1257.266,2647.00
1258.176,2352.00
1259.085,2378.00
1259.993,2434.00
1260.904,2449.00
1261.812,2462.00
1262.720,3209.00
1263.630,2776.00
1264.538,2477.00
1265.446,2735.00
1266.356,2620.00
1267.263,2935.00
1268.171,2440.00
1269.080,2675.00
1269.988,2811.00
1270.895,2584.00
1271.804,2571.00
1272.711,2805.00
1273.619,2758.00
1274.527,2463.00
1275.434,2753.00
1276.341,2419.00
1277.248,2671.00
1278.156,2909.00
1279.063,2498.00
1279.969,2719.00
1280.877,3510.00
1281.783,2843.00
1282.690,2682.00
1283.598,2600.00
1284.503,2510.00
1285.409,2448.00
1286.317,3015.00
1287.223,2996.00
1288.128,2744.00
1289.036,2536.00
1289.941,2576.00
1290.846,2627.00
1291.751,2484.00
1292.658,2512.00
1293.563,3040.00
1294.468,2636.00
1295.375,2746.00
1296.280,2857.00
1297.184,3332.00
1298.091,2768.00
1298.995,2773.00
1299.900,2984.00
1300.806,2542.00
1301.710,2424.00
1302.614,2236.00
1303.518,2863.00
1304.424,2552.00
1305.327,2829.00
1306.231,2612.00
1307.137,2785.00
1308.040,2718.00
1308.943,2664.00
1309.847,2854.00
1310.752,2821.00
1311.655,2319.00
1312.558,2429.00
1313.463,2565.00
1314.366,2508.00
1315.269,2698.00
1316.171,2622.00
1317.076,2499.00
1317.978,2431.00
1318.881,2256.00
1319.785,2500.00
1320.687,2508.00
1321.589,2258.00
1322.491,2487.00
1323.395,2713.00
1324.297,3177.00
1325.198,2756.00
1326.102,2437.00
1327.004,2438.00
1327.905,2994.00
1328.806,2594.00
1329.709,2700.00
1330.611,2579.00
1331.512,2437.00
1332.413,3017.00
1333.316,2661.00
1334.216,2801.00
1335.117,2363.00
1336.020,2679.00
1336.920,2642.00
1337.821,2506.00
1338.721,2926.00
1339.623,2706.00
1340.523,2570.00
1341.423,2481.00
1342.323,2905.00
1343.225,2741.00
1344.125,2436.00
1345.025,2513.00
1345.924,2307.00
1346.826,2934.00
1347.725,3042.00
1348.624,2853.00
1349.524,2507.00
1350.425,2575.00
1351.324,2752.00
1352.223,2788.00
1353.121,2595.00
1354.022,2810.00
1354.921,2982.00
1355.819,2761.00
1356.718,2664.00
1357.618,2418.00
1358.516,2717.00
1359.415,3025.00
1360.313,2727.00
1361.213,2572.00
1362.111,2880.00
1363.008,3278.00
1363.906,2610.00
1364.806,2670.00
1365.703,2684.00
1366.601,2469.00
1367.498,2456.00
1368.397,2816.00
1369.295,2700.00
1370.192,2465.00
1371.089,2706.00
1371.987,2600.00
1372.884,2909.00
1373.781,2409.00
1374.678,2643.00
1375.574,2473.00
1376.473,2752.00
1377.369,2838.00
1378.265,2495.00
1379.161,2579.00
1380.059,2339.00
1380.955,2737.00
1381.851,2401.00
1382.747,2503.00
1383.643,2534.00
1384.540,2454.00
1385.436,2534.00
1386.331,2667.00
1387.227,2807.00
1388.124,2721.00
1389.019,2433.00
1389.914,2588.00
1390.809,2286.00
1391.704,3038.00
1392.601,2550.00
1393.495,2899.00
1394.390,2789.00
1395.285,2820.00
1396.179,2677.00
1397.075,2589.00
1397.969,2714.00
1398.864,2302.00
1399.758,2616.00
1400.652,2666.00
1401.547,2442.00
1402.441,2408.00
1403.335,2948.00
1404.229,2656.00
1405.122,2716.00
1406.017,2613.00
1406.911,2753.00
1407.804,3069.00
1408.697,2633.00
1409.590,2461.00
1410.485,2803.00
1411.378,2695.00
1412.271,2354.00
1413.163,2670.00
1414.056,2750.00
1414.949,2983.00
1415.843,2698.00
1416.735,2596.00
1417.627,2664.00
1418.520,2620.00
1419.412,2842.00
1420.306,2805.00
1421.197,2901.00
1422.089,2833.00
1422.981,3088.00
1423.873,2832.00
1424.764,2738.00
1425.657,2663.00
1426.549,2783.00
1427.440,2825.00
1428.331,2529.00
1429.222,2341.00
1430.113,2675.00
1431.006,2775.00
1431.897,2543.00
1432.787,2635.00
1433.678,2535.00
1434.568,2454.00
1435.459,2866.00
1436.351,2814.00
1437.241,2810.00
1438.131,2787.00
1439.021,2409.00
1439.911,2625.00
1440.801,2700.00
1441.693,2844.00
1442.583,2659.00
1443.472,2626.00
1444.362,2742.00
1445.251,2612.00
1446.140,2553.00
1447.030,2799.00
1447.921,2824.00
1448.810,2437.00
1449.699,2989.00
1450.588,2682.00
1451.476,2563.00
1452.365,2733.00
1453.254,2558.00
1454.144,2523.00
1455.032,2809.00
1455.921,2354.00
1456.809,2906.00
1457.697,2452.00
1458.585,2595.00
1459.473,2579.00
1460.361,2508.00
1461.251,2725.00
1462.138,2733.00
1463.026,2587.00
1463.913,2890.00
1464.801,2537.00
1465.688,2726.00
1466.575,2623.00
1467.463,3110.00
1468.351,2524.00
1469.238,2619.00
1470.125,2269.00
1471.012,2694.00
1471.899,2725.00
1472.785,2448.00
1473.672,2646.00
1474.558,2883.00
1475.446,2805.00
1476.333,2822.00
1477.219,2437.00
1478.105,2628.00
1478.991,2587.00
1479.877,2962.00
1480.762,2616.00
1481.648,2503.00
1482.534,2773.00
1483.419,2642.00
1484.307,2781.00
1485.192,2593.00
1486.077,2467.00
1486.962,2507.00
1487.847,2380.00
1488.732,2495.00
1489.617,2642.00
1490.502,2891.00
1491.387,2711.00
1492.271,2488.00
1493.156,2486.00
1494.042,2489.00
1494.927,2835.00
1495.811,2551.00
1496.695,2749.00
1497.579,2901.00
1498.463,2642.00
1499.347,2703.00
1500.231,2682.00
1501.114,2750.00
1501.998,2902.00
1502.881,2693.00
1503.765,2970.00
1504.648,3076.00
1505.533,2744.00
1506.417,2656.00
1507.300,2578.00
1508.183,2736.00
1509.066,2164.00
1509.948,2881.00
1510.831,3008.00
1511.714,2493.00
1512.596,2773.00
1513.479,2844.00
1514.361,2890.00
1515.243,2676.00
1516.125,2790.00
1517.008,2902.00
1517.890,2600.00
1518.771,2664.00
1519.655,2880.00
1520.537,2601.00
1521.419,2504.00
1522.300,2669.00
1523.182,2788.00
1524.063,2813.00
1524.944,2935.00
1525.825,2793.00
1526.707,2478.00
1527.588,2444.00
1528.468,2742.00
1529.349,2351.00
1530.230,2579.00
1531.111,2805.00
1531.991,2689.00
1532.872,2364.00
1533.752,2615.00
1534.632,2543.00
1535.513,2503.00
1536.393,2794.00
1537.273,2944.00
1538.153,3226.00
1539.032,2399.00
1539.912,2671.00
1540.792,2665.00
1541.672,2632.00
1542.551,2749.00
1543.430,3214.00
1544.310,2666.00
1545.189,2526.00
1546.068,3112.00
1546.947,2786.00
1547.826,2964.00
1548.705,2629.00
1549.584,2861.00
1550.462,2621.00
1551.341,2793.00
1552.219,2721.00
1553.098,2779.00
1553.976,2863.00
1554.854,3050.00
1555.733,2835.00
1556.611,2575.00
1557.489,2438.00
1558.367,2674.00
1559.244,2792.00
1560.122,2671.00
1561.000,2722.00
1561.877,2956.00
1562.755,2545.00
1563.632,2625.00
1564.509,2902.00
1565.386,3028.00
1566.264,2396.00
1567.141,2331.00
1568.017,2811.00
1568.894,2661.00
1569.771,2708.00
1570.648,2785.00
1571.524,2631.00
1572.401,2386.00
1573.277,2431.00
1574.153,2689.00
1575.029,2506.00
1575.906,3351.00
1576.781,2828.00
1577.657,2602.00
1578.533,2911.00
1579.409,2277.00
1580.285,2595.00
1581.160,3092.00
1582.036,2801.00
1582.911,2486.00
1583.786,3003.00
1584.662,2459.00
1585.537,2636.00
1586.412,2698.00
1587.287,2480.00
1588.160,2827.00
1589.035,2330.00
1589.909,2704.00
1590.784,2601.00
1591.658,2469.00
1592.533,2722.00
1593.407,2677.00
1594.281,2552.00
1595.155,3042.00
1596.029,2563.00
1596.903,2577.00
1597.777,2574.00
1598.651,2924.00
1599.525,2368.00
1600.398,2702.00
1601.272,2626.00
1602.144,3164.00
1603.017,2581.00
1603.890,2892.00
1604.763,2709.00
1605.636,2801.00
1606.509,2388.00
1607.382,2486.00
1608.255,2780.00
1609.128,2843.00
1610.000,2642.00
1610.873,2369.00
1611.746,2592.00
1612.616,2592.00
1613.488,2287.00
1614.361,2645.00
1615.233,2598.00
1616.105,2848.00
1616.977,2580.00
1617.849,2502.00
1618.720,2950.00
1619.592,2953.00
1620.464,2749.00
1621.333,3085.00
1622.205,2636.00
1623.076,2644.00
1623.947,2622.00
1624.818,2866.00
1625.689,2811.00
1626.560,2572.00
1627.431,2740.00
1628.302,3016.00
1629.171,2797.00
1630.042,2947.00
1630.912,3612.00
1631.782,3208.00
1632.653,2493.00
1633.523,2791.00
1634.393,2883.00
1635.263,2565.00
1636.131,2657.00
1637.001,2538.00
1637.871,2266.00
1638.741,2314.00
1639.611,2411.00
1640.480,2771.00
1641.350,2520.00
1642.219,2481.00
1643.087,2189.00
1643.956,3067.00
1644.825,2930.00
1645.694,2868.00
1646.563,2846.00
1647.432,2714.00
1648.299,2683.00
1649.167,2777.00
1650.036,2469.00
1650.904,2789.00
1651.773,2897.00
1652.641,2686.00
1653.509,2902.00
1654.376,2523.00
1655.244,2686.00
1656.112,2710.00
1656.980,2665.00
1657.847,2544.00
1658.715,2839.00
1659.581,2568.00
1660.448,2881.00
1661.316,2219.00
1662.183,2680.00
1663.051,2766.00
1663.918,2721.00
1664.783,2658.00
1665.650,2746.00
1666.517,2824.00
1667.384,2689.00
1668.251,2675.00
1669.115,2893.00
1669.982,2641.00
1670.849,2981.00
1671.715,2615.00
1672.581,2827.00
1673.446,2743.00
1674.312,2690.00
1675.178,3050.00
1676.044,2767.00
1676.910,2751.00
1677.774,2715.00
1678.639,2317.00
1679.505,2636.00
1680.370,2783.00
1681.236,3286.00
1682.099,2618.00
1682.965,2699.00
1683.830,2297.00
1684.695,2503.00
1685.560,2597.00
1686.423,2828.00
1687.288,2782.00
1688.153,2718.00
1689.017,2610.00
1689.880,2742.00
1690.745,2808.00
1691.609,2528.00
1692.473,2820.00
1693.338,2884.00
1694.200,2928.00
1695.064,2676.00
1695.928,2585.00
1696.792,2665.00
1697.654,3140.00
1698.517,2697.00
1699.381,2473.00
1700.245,2346.00
1701.106,2938.00
1701.969,2529.00
1702.833,2823.00
1703.696,2563.00
1704.557,2633.00
1705.420,2569.00
1706.283,2675.00
1707.146,2815.00
1708.007,2474.00
1708.870,2466.00
1709.732,2382.00
1710.595,2595.00
1711.455,2463.00
1712.318,2565.00
1713.180,2924.00
1714.040,2688.00
1714.902,2830.00
1715.764,2695.00
1716.626,2495.00
1717.486,2608.00
1718.348,2925.00
1719.209,4872.00
1720.071,2350.00
1720.930,2459.00
1721.792,2521.00
1722.653,2535.00
1723.512,2525.00
1724.374,2613.00
1725.234,2703.00
1726.095,2675.00
1726.954,2683.00
1727.815,2803.00
1728.676,2671.00
1729.535,2902.00
1730.395,2626.00
1731.256,2602.00
1732.114,2706.00
1732.974,2162.00
1733.834,3048.00
1734.693,2853.00
1735.553,2697.00
1736.413,3109.00
1737.272,2549.00
1738.130,2609.00
1738.990,2754.00
1739.849,2571.00
1740.707,3638.00
1741.566,2695.00
1742.426,2687.00
1743.283,3052.00
1744.142,2563.00
1745.001,2357.00
1745.858,2858.00
1746.717,2723.00
1747.576,2753.00
1748.433,2814.00
1749.292,3235.00
1750.150,3265.00
1751.007,2851.00
1751.865,2870.00
1752.723,2668.00
1753.579,2598.00
1754.438,2891.00
1755.296,2859.00
1756.152,2276.00
1757.010,2341.00
1757.865,2877.00
1758.723,2330.00
1759.581,2987.00
1760.436,2656.00
1761.294,3042.00
1762.151,2646.00
1763.006,2608.00
1763.864,2322.00
1764.721,2845.00
1765.576,2704.00
1766.433,2848.00
1767.288,2584.00
1768.144,2744.00
1769.001,2630.00
1769.856,2761.00
1770.712,2888.00
1771.568,2480.00
1772.423,2573.00
1773.279,2605.00
1774.133,2583.00
1774.989,3064.00
1775.845,3033.00
1776.699,2895.00
1777.555,2651.00
1778.409,3207.00
1779.265,2673.00
1780.120,2626.00
1780.974,2643.00
1781.829,2298.00
1782.682,2731.00
1783.538,2494.00
1784.393,2673.00
1785.246,2542.00
1786.101,2808.00
1786.954,2798.00
1787.808,2897.00
1788.661,2443.00
1789.516,2585.00
1790.370,2612.00
1791.223,2821.00
1792.077,2670.00
1792.930,2763.00
1793.784,2539.00
1794.636,2684.00
1795.490,2647.00
1796.344,2700.00
1797.196,2710.00
1798.049,2831.00
1798.901,2576.00
1799.755,2874.00
1800.606,2477.00
1801.460,3189.00
1802.311,2994.00
1803.165,3068.00
1804.018,3045.00
1804.869,2763.00
1805.722,3114.00
1806.573,2748.00
1807.426,2516.00
1808.276,2699.00
1809.129,2590.00
1809.980,2844.00
1810.832,2977.00
1811.683,2573.00
1812.535,3058.00
1813.385,2608.00
1814.237,2945.00
1815.089,2718.00
1815.940,2975.00
1816.791,2629.00
1817.641,2569.00
1818.493,2822.00
1819.343,2725.00
1820.194,2546.00
1821.044,2783.00
1821.895,2859.00
1822.745,2416.00
1823.596,2570.00
1824.445,3080.00
1825.296,2794.00
1826.145,2650.00
1826.996,2873.00
1827.845,2737.00
1828.695,2741.00
1829.544,2645.00
1830.395,2736.00
1831.243,2598.00
1832.094,2455.00
1832.942,3290.00
1833.792,2839.00
1834.640,2728.00
1835.490,2684.00
1836.338,2746.00
1837.186,2608.00
1838.036,2550.00
1838.884,2680.00
1839.733,2977.00
1840.581,2868.00
1841.430,2801.00
1842.278,3033.00
1843.127,2604.00
1843.974,2390.00
1844.823,3116.00
1845.671,2811.00
1846.519,2687.00
1847.366,2757.00
1848.213,2385.00
1849.062,2513.00
1849.909,2455.00
1850.757,3303.00
1851.604,2834.00
1852.452,2602.00
1853.298,2867.00
1854.146,2723.00
1854.993,2714.00
1855.839,3180.00
1856.687,2804.00
1857.532,2811.00
1858.380,2687.00
1859.226,2781.00
1860.073,2808.00
1860.919,2529.00
1861.765,2570.00
1862.612,2938.00
1863.457,2923.00
1864.304,2629.00
1865.150,2795.00
1865.995,2684.00
1866.842,2833.00
1867.686,2899.00
1868.533,2754.00
1869.378,2743.00
1870.223,2689.00
1871.069,2574.00
1871.914,2719.00
1872.760,2656.00
1873.604,2495.00
1874.448,2859.00
1875.294,2884.00
1876.139,2554.00
1876.984,2816.00
1877.828,2375.00
1878.672,2206.00
1879.518,2604.00
1880.361,2845.00
1881.205,2893.00
1882.050,2510.00
1882.894,3208.00
1883.739,2588.00
1884.582,2474.00
1885.425,2542.00
1886.270,2944.00
1887.113,2461.00
1887.956,2784.00
1888.801,2736.00
1889.644,2500.00
1890.486,2304.00
1891.331,2610.00
1892.173,2741.00
1893.017,2744.00
1893.860,2969.00
1894.702,2985.00
1895.546,2700.00
1896.388,3366.00
1897.230,3040.00
1898.074,2619.00
1898.916,2498.00
1899.757,2537.00
1900.601,3372.00
1901.443,2972.00
1902.284,2995.00
1903.125,3157.00
1903.969,2851.00
1904.810,2896.00
1905.651,2756.00
1906.494,3030.00
1907.335,3123.00
1908.176,2822.00
1909.018,2833.00
1909.859,2704.00
1910.700,2581.00
1911.542,3238.00
1912.383,2741.00
1913.223,2327.00
1914.064,2813.00
1914.906,2951.00
1915.746,3045.00
1916.586,3182.00
1917.428,2682.00
1918.268,2714.00
1919.107,2586.00
1919.947,2479.00
1920.789,2600.00
1921.628,2897.00
1922.468,2712.00
1923.309,2524.00
1924.148,3023.00
1924.988,2804.00
1925.827,2703.00
1926.667,2592.00
1927.507,2749.00
1928.345,2547.00
1929.184,2873.00
1930.025,2535.00
1930.864,2956.00
1931.702,2967.00
1932.541,2622.00
1933.381,2798.00
1934.219,2831.00
1935.057,2960.00
1935.896,2450.00
1936.735,2661.00
1937.573,2629.00
1938.411,2507.00
1939.249,2844.00
1940.089,2592.00
1940.927,2963.00
1941.764,3015.00
1942.602,2658.00
1943.439,2564.00
1944.278,2672.00
1945.115,2634.00
1945.953,2475.00
1946.790,2792.00
1947.628,3045.00
1948.465,2781.00
1949.302,2832.00
1950.139,2807.00
1950.976,2581.00
1951.814,2891.00
1952.651,2751.00
1953.487,2540.00
1954.323,2978.00
1955.160,2707.00
1955.998,3031.00
1956.834,2707.00
1957.670,2761.00
1958.506,2937.00
1959.342,2783.00
1960.177,2770.00
1961.015,2874.00
1961.850,2771.00
1962.686,2750.00
1963.521,2743.00
1964.357,2972.00
1965.192,2517.00
1966.029,2826.00
1966.864,2672.00
1967.699,2946.00
1968.534,2748.00
1969.369,2978.00
1970.204,2701.00
1971.040,2732.00
1971.875,2680.00
1972.709,2773.00
1973.544,2572.00
1974.378,2595.00
1975.212,2816.00
1976.047,2584.00
1976.882,2583.00
1977.716,3088.00
1978.550,2434.00
1979.384,2657.00
1980.218,2676.00
1981.052,2619.00
1981.885,2720.00
1982.719,2736.00
1983.554,2882.00
1984.388,2984.00
1985.221,2799.00
1986.054,2988.00
1986.887,2761.00
1987.720,2564.00
1988.553,3005.00
1989.386,2778.00
1990.219,2889.00
1991.053,3027.00
1991.886,2597.00
1992.719,2894.00
1993.551,2213.00
1994.383,2874.00
1995.216,2630.00
1996.048,2434.00
1996.880,2881.00
1997.712,2586.00
1998.544,2745.00
1999.376,2800.00
2000.208,3008.00
