RamanScope Measure Spectrum Data V3.72

<< MEASURE CONDITION >>
Exposure Type,Aver
Exposure Time [sec],15
Exposure Count,30
Measure Time,2023/07/04 17:32:38
Data Name,""
Data Comment,""
Rayleigh Wave[nm],532.0

<< SAMPLE SPECTRUM >>
Wave[dcm-1],No301
146.591,666.27
147.626,769.13
148.664,938.63
149.699,1121.37
150.737,1282.77
151.772,1503.50
152.809,1661.90
153.846,1834.17
154.881,1994.73
155.918,2146.80
156.953,2310.43
157.989,2419.53
159.026,2547.23
160.060,2631.93
161.096,2715.70
162.130,2831.67
163.167,2837.17
164.200,2902.80
165.236,2917.07
166.272,2988.43
167.305,3027.23
168.341,3060.13
169.374,3133.67
170.409,3145.57
171.445,3223.73
172.477,3279.00
173.512,3355.50
174.545,3390.63
175.580,3413.17
176.614,3407.87
177.647,3472.07
178.681,3476.87
179.713,3513.63
180.747,3489.67
181.781,3466.67
182.813,3453.13
183.847,3480.93
184.878,3444.10
185.912,3401.40
186.945,3479.37
187.976,3436.43
189.010,3467.23
190.043,3471.30
191.073,3518.43
192.106,3561.33
193.137,3541.87
194.170,3608.30
195.202,3634.80
196.232,3734.63
197.265,3720.97
198.297,3748.80
199.327,3790.07
200.359,3872.47
201.388,3915.23
202.420,3961.60
203.452,4019.40
204.481,4123.17
205.512,4238.90
206.544,4344.47
207.573,4451.77
208.604,4504.70
209.635,4700.67
210.663,4886.20
211.694,4991.77
212.725,5227.70
213.753,5428.03
214.783,5631.53
215.813,5863.53
216.841,6073.80
217.871,6228.67
218.899,6301.00
219.929,6443.63
220.959,6518.07
221.986,6474.43
223.016,6382.87
224.045,6264.40
225.072,6083.77
226.101,5883.40
227.130,5729.30
228.157,5494.97
229.185,5287.93
230.214,5129.60
231.241,5027.40
232.269,4898.60
233.297,4765.23
234.323,4661.10
235.351,4573.60
236.379,4509.17
237.407,4522.80
238.433,4402.83
239.460,4421.60
240.488,4393.67
241.513,4457.37
242.540,4419.87
243.568,4379.00
244.592,4406.03
245.619,4472.83
246.646,4509.00
247.671,4520.13
248.697,4527.63
249.724,4526.67
250.748,4508.90
251.774,4462.43
252.801,4485.90
253.827,4418.93
254.850,4391.83
255.876,4402.10
256.902,4401.27
257.925,4447.57
258.951,4450.40
259.976,4484.77
260.999,4485.83
262.024,4507.57
263.049,4545.03
264.074,4568.53
265.097,4618.57
266.122,4658.83
267.146,4710.10
268.168,4786.90
269.193,4830.77
270.217,4936.87
271.241,4929.20
272.263,5033.77
273.287,5083.67
274.311,5151.23
275.332,5222.50
276.356,5248.23
277.379,5321.07
278.402,5354.73
279.424,5378.83
280.447,5346.63
281.470,5375.37
282.492,5361.97
283.513,5271.20
284.536,5235.57
285.558,5187.47
286.581,5118.10
287.601,5047.40
288.623,4969.63
289.645,4886.17
290.665,4789.63
291.687,4719.73
292.709,4649.93
293.730,4601.67
294.750,4508.17
295.771,4408.07
296.792,4375.67
297.813,4329.53
298.832,4249.93
299.853,4138.77
300.874,4090.37
301.895,4045.77
302.913,4008.30
303.934,3969.23
304.954,3906.67
305.975,4245.40
306.993,3797.67
308.013,3749.63
309.033,3759.73
310.052,3701.77
311.072,3645.83
312.090,3614.37
313.109,3592.90
314.129,3587.67
315.148,3565.60
316.165,3514.93
317.184,3477.80
318.203,3477.53
319.222,3450.53
320.238,3438.97
321.257,3387.87
322.275,3378.13
323.294,3396.63
324.312,3375.53
325.328,3354.97
326.346,3278.47
327.364,3352.57
328.382,3342.40
329.397,3310.90
330.415,3249.10
331.432,3272.00
332.450,3264.83
333.467,3277.47
334.482,3271.87
335.499,3239.67
336.516,3246.03
337.533,3255.97
338.547,3245.57
339.564,3203.03
340.580,3236.63
341.597,3212.23
342.613,3199.37
343.627,3216.77
344.643,3199.90
345.659,3191.47
346.675,3142.30
347.690,3175.97
348.704,3158.77
349.719,3190.70
350.735,3160.87
351.750,3146.10
352.765,3143.13
353.778,3119.87
354.793,3144.60
355.808,3178.63
356.822,3116.67
357.837,3142.30
358.851,3182.70
359.864,3170.07
360.878,3192.77
361.892,3167.27
362.906,3160.37
363.920,3173.53
364.932,3172.70
365.945,3210.47
366.959,3194.43
367.972,3185.87
368.986,3196.10
369.999,3200.13
371.010,3201.33
372.023,3267.20
373.036,3233.17
374.049,3274.83
375.061,3281.57
376.072,3269.23
377.084,3289.60
378.097,3365.30
379.109,3311.63
380.121,3368.53
381.133,3347.40
382.143,3349.70
383.155,3362.10
384.166,3389.50
385.178,3421.10
386.189,3373.93
387.201,3382.90
388.212,3399.47
389.221,3384.33
390.232,3413.40
391.243,3405.67
392.254,3401.83
393.264,3369.93
394.275,3348.30
395.283,3365.57
396.294,3336.73
397.304,3340.63
398.314,3345.73
399.324,3315.30
400.334,3334.87
401.344,3289.63
402.351,3294.10
403.361,3266.43
404.370,3261.20
405.380,3220.10
406.389,3244.17
407.398,3211.50
408.407,3163.53
409.414,2692.20
410.423,3124.67
411.431,3154.73
412.440,3150.70
413.448,3152.13
414.457,3113.07
415.465,3091.10
416.471,3072.60
417.479,3069.97
418.487,3086.77
419.495,3038.30
420.503,2968.93
421.510,3073.83
422.518,3012.33
423.525,3057.13
424.530,2981.33
425.537,2977.07
426.544,2993.43
427.551,2989.57
428.558,3012.10
429.565,3011.83
430.571,2990.33
431.578,2977.07
432.582,3033.33
433.588,2923.27
434.595,2940.40
435.601,2944.60
436.607,2931.80
437.612,2930.17
438.618,2920.73
439.624,2923.07
440.627,2916.00
441.633,2972.93
442.638,2945.57
443.643,2971.23
444.648,2931.43
445.653,2908.57
446.658,2959.73
447.663,2971.83
448.667,3012.63
449.672,2976.73
450.674,2999.57
451.678,2989.87
452.682,2976.97
453.687,3012.73
454.690,2978.10
455.694,2983.90
456.698,2982.67
457.702,3001.23
458.705,2995.97
459.709,2964.33
460.710,2987.03
461.713,2976.50
462.716,3021.77
463.719,3044.23
464.722,3018.57
465.725,3028.03
466.727,3039.43
467.730,3072.93
468.732,3031.80
469.735,3065.00
470.737,3024.37
471.737,3037.67
472.739,3028.30
473.741,3100.00
474.742,3054.67
475.744,3055.53
476.746,3014.33
477.747,3043.97
478.748,3094.00
479.750,3050.63
480.751,3064.07
481.752,3071.67
482.753,3081.67
483.751,3044.70
484.752,3067.87
485.753,3074.23
486.753,3041.00
487.753,3124.57
488.754,3068.13
489.754,3073.63
490.754,3048.60
491.754,3081.37
492.754,3055.83
493.753,3043.60
494.753,3097.70
495.752,3056.27
496.752,3005.67
497.749,3053.67
498.748,3077.47
499.747,3003.47
500.746,3064.00
501.745,3001.67
502.744,2998.70
503.742,3014.20
504.741,2995.50
505.739,2991.23
506.737,2989.67
507.735,2951.57
508.734,2952.87
509.732,2967.87
510.729,2971.93
511.727,2938.87
512.725,2928.57
513.720,2910.27
514.718,2915.30
515.715,2943.90
516.712,2941.90
517.709,2912.53
518.706,2918.30
519.703,2882.27
520.700,2901.40
521.696,2899.30
522.693,2894.40
523.689,2917.87
524.686,2908.63
525.682,2927.33
526.678,2895.27
527.674,2881.67
528.670,2911.87
529.666,2837.57
530.661,2951.83
531.657,2908.60
532.652,2943.80
533.648,2927.43
534.641,2955.00
535.636,2975.33
536.631,2986.57
537.626,2998.23
538.621,2986.13
539.616,2970.27
540.610,3009.07
541.605,2979.10
542.599,2985.33
543.593,3023.63
544.587,3012.37
545.581,3036.27
546.575,3045.93
547.569,3030.97
548.563,2987.20
549.557,2982.50
550.550,3005.17
551.543,3004.87
552.537,3014.63
553.530,3024.30
554.523,3010.37
555.516,3002.27
556.509,3003.57
557.502,3013.23
558.494,3004.43
559.487,3008.37
560.479,2968.90
561.472,2979.33
562.464,3012.00
563.456,3004.10
564.448,2982.00
565.440,3018.07
566.432,3026.60
567.423,3013.73
568.415,3031.83
569.404,3009.37
570.396,3004.53
571.387,3044.70
572.378,3122.07
573.369,3077.67
574.360,3013.40
575.351,3073.17
576.341,3074.00
577.332,3063.83
578.323,3085.60
579.313,3073.70
580.303,3059.17
581.293,3044.63
582.283,3113.40
583.273,3058.60
584.263,3087.00
585.253,3068.03
586.243,3093.53
587.232,3054.13
588.222,3097.67
589.211,3093.87
590.200,3059.93
591.189,3137.07
592.178,3095.73
593.167,3124.03
594.156,3139.30
595.145,3073.93
596.133,3088.13
597.122,3093.63
598.110,3116.13
599.098,3104.33
600.086,3064.20
601.074,3083.00
602.062,3083.23
603.050,3052.00
604.038,3092.63
605.025,3066.67
606.013,3097.23
607.000,3109.37
607.987,3096.40
608.975,3049.23
609.962,3066.13
610.949,3050.40
611.936,2989.97
612.922,3058.47
613.909,3042.20
614.895,3022.17
615.882,3022.07
616.868,2986.67
617.854,2978.60
618.841,2992.83
619.826,2997.73
620.812,2942.40
621.798,2904.80
622.784,2886.60
623.769,2877.73
624.755,2868.93
625.740,2838.53
626.725,2828.97
627.711,2824.40
628.698,2829.63
629.683,2770.30
630.667,2746.97
631.652,2722.80
632.637,2669.23
633.621,2694.73
634.606,2689.93
635.590,2654.63
636.574,2614.57
637.558,2612.80
638.542,2589.03
639.526,2603.40
640.510,2557.40
641.493,2602.77
642.477,2545.27
643.460,2522.03
644.444,2518.63
645.427,2515.40
646.410,2472.63
647.393,2485.83
648.376,2479.00
649.359,2464.43
650.341,2471.57
651.324,2435.23
652.307,2404.03
653.289,2419.87
654.271,2387.07
655.253,2371.20
656.235,2366.93
657.217,2393.70
658.199,2399.27
659.181,2343.07
660.163,2359.20
661.144,2406.30
662.126,2309.33
663.107,2361.90
664.088,2283.10
665.069,2294.40
666.050,2277.20
667.033,2334.70
668.014,2275.63
668.995,2263.10
669.975,2247.83
670.956,2271.13
671.936,2229.07
672.916,2239.23
673.896,2188.63
674.876,2201.97
675.856,2181.00
676.836,2160.20
677.816,2154.23
678.795,2105.93
679.775,2147.60
680.754,2132.03
681.734,2121.63
682.713,2116.47
683.692,2085.70
684.671,2091.37
685.650,2075.37
686.629,2046.03
687.607,2035.73
688.586,1971.20
689.564,2037.63
690.543,1992.00
691.523,1974.63
692.501,1967.53
693.479,1967.50
694.457,1928.87
695.435,1888.53
696.413,1941.97
697.390,1892.03
698.368,1908.23
699.345,1893.40
700.322,1852.10
701.300,1829.63
702.277,1928.43
703.254,1829.77
704.231,1826.63
705.207,1849.67
706.184,1841.47
707.161,1837.17
708.137,1849.10
709.113,1780.63
710.090,1799.33
711.068,1771.00
712.044,1768.90
713.020,1812.87
713.996,1785.83
714.971,1735.90
715.947,1760.30
716.922,1776.90
717.898,1799.00
718.873,1732.57
719.848,1735.50
720.823,1712.17
721.798,1765.87
722.773,1722.07
723.748,1696.63
724.723,1689.97
725.697,1686.90
726.672,1671.33
727.646,1713.07
728.622,1691.93
729.596,1700.13
730.570,1722.40
731.544,1679.63
732.518,1715.57
733.492,1677.43
734.466,1659.77
735.439,1645.30
736.413,1623.47
737.386,1622.77
738.359,1650.67
739.332,1669.50
740.305,1623.53
741.278,1651.30
742.251,1636.50
743.224,1584.83
744.196,1642.93
745.171,1611.47
746.143,1603.23
747.115,1615.53
748.087,1615.57
749.059,1609.93
750.031,1627.57
751.003,1626.57
751.975,1567.80
752.947,1593.63
753.918,1578.97
754.890,1629.73
755.861,1600.53
756.832,1573.67
757.803,1506.10
758.774,1588.43
759.747,1569.90
760.718,1566.77
761.689,1584.27
762.659,1547.17
763.630,1551.87
764.600,1574.33
765.570,1524.53
766.540,1529.50
767.510,1512.77
768.480,1548.73
769.450,1573.97
770.420,1547.27
771.390,1537.20
772.359,1492.27
773.329,1557.87
774.300,1519.63
775.269,1467.03
776.238,1513.80
777.207,1495.13
778.176,1486.93
779.145,1485.13
780.114,1480.47
781.083,1468.40
782.051,1464.50
783.019,1449.37
783.988,1476.90
784.956,1468.07
785.924,1463.03
786.894,1494.20
787.862,1411.87
788.830,1417.50
789.797,1462.67
790.765,1436.17
791.732,1451.73
792.700,1429.27
793.667,1423.67
794.634,1430.73
795.601,1437.40
796.568,1418.67
797.535,1376.60
798.502,1416.37
799.468,1441.97
800.437,1434.67
801.403,1416.10
802.370,1448.17
803.336,1381.73
804.302,1388.03
805.268,1341.77
806.234,1420.03
807.200,1375.67
808.166,1390.73
809.131,1370.70
810.097,1355.97
811.062,1358.07
812.027,1363.97
812.994,1378.27
813.960,1362.87
814.925,1335.80
815.889,1338.47
816.854,1358.67
817.819,1353.53
818.783,1350.13
819.748,1349.67
820.712,1322.00
821.677,1353.73
822.641,1334.83
823.605,1340.17
824.571,1342.73
825.534,1301.60
826.498,1341.93
827.462,1321.60
828.425,1320.03
829.389,1356.17
830.352,1319.70
831.315,1313.70
832.279,1311.90
833.242,1293.53
834.204,1329.27
835.167,1343.50
836.132,1348.90
837.095,1309.27
838.057,1276.77
839.020,1328.23
839.982,1319.40
840.944,1297.17
841.906,1279.97
842.868,1304.73
843.830,1333.50
844.792,1274.90
845.753,1296.87
846.715,1311.47
847.679,1324.33
848.640,1311.93
849.601,1312.80
850.562,1321.20
851.523,1302.00
852.484,1314.70
853.445,1276.50
854.406,1307.90
855.367,1283.07
856.327,1337.40
857.288,1334.43
858.248,1310.87
859.210,1309.50
860.170,1298.87
861.130,1301.27
862.090,1311.47
863.050,1304.57
864.010,1290.73
864.969,1311.23
865.929,1286.93
866.888,1343.73
867.848,1350.53
868.807,1297.50
869.766,1275.73
870.727,1301.20
871.686,1332.50
872.645,1303.13
873.604,1328.00
874.562,1286.90
875.521,1316.07
876.479,1325.43
877.437,1308.93
878.396,1293.50
879.354,1332.23
880.312,1309.60
881.270,1353.00
882.229,1322.83
883.187,1323.03
884.145,1276.13
885.102,1305.10
886.059,1361.37
887.017,1324.97
887.974,1300.17
888.931,1314.33
889.888,1357.57
890.845,1346.70
891.802,1325.07
892.758,1316.20
893.717,1335.30
894.673,1336.87
895.630,1315.63
896.586,1342.70
897.542,1340.93
898.498,1346.93
899.454,1350.90
900.410,1361.63
901.366,1344.00
902.321,1346.00
903.277,1383.93
904.232,1350.20
905.189,1367.40
906.145,1348.37
907.100,1342.83
908.055,1346.07
909.010,1382.33
909.965,1374.73
910.919,1398.43
911.874,1382.37
912.828,1359.73
913.783,1331.80
914.737,1341.73
915.693,1418.33
916.648,1374.07
917.602,1360.97
918.555,1397.27
919.509,1428.50
920.463,1388.93
921.417,1384.13
922.370,1369.37
923.324,1377.90
924.277,1374.17
925.230,1364.77
926.183,1394.77
927.138,1403.97
928.091,1387.10
929.044,1383.30
929.996,1419.07
930.949,1376.40
931.902,1388.90
932.854,1390.33
933.806,1379.67
934.758,1430.87
935.711,1394.03
936.663,1373.80
937.614,1407.80
938.568,1451.50
939.520,1394.33
940.471,1377.20
941.423,1375.53
942.374,1390.87
943.326,1438.23
944.277,1385.07
945.228,1421.93
946.179,1396.93
947.130,1401.70
948.080,1367.77
949.031,1409.23
949.984,1442.13
950.934,1395.27
951.884,1374.53
952.835,1381.37
953.785,1417.87
954.735,1373.80
955.685,1377.20
956.635,1379.47
957.585,1397.33
958.534,1391.27
959.484,1419.23
960.433,1372.33
961.383,1325.87
962.334,1362.80
963.283,1354.33
964.232,1375.67
965.181,1325.93
966.130,1368.53
967.079,1345.77
968.027,1372.07
968.976,1335.53
969.924,1376.23
970.873,1343.23
971.821,1361.57
972.769,1383.40
973.719,1351.77
974.667,1375.50
975.615,1368.13
976.562,1395.27
977.510,1315.57
978.458,1342.60
979.405,1360.07
980.352,1341.43
981.300,1331.07
982.247,1332.60
983.194,1329.93
984.141,1359.87
985.088,1382.40
986.036,1366.20
986.983,1375.40
987.930,1368.33
988.876,1341.47
989.822,1364.87
990.769,1375.63
991.715,1358.20
992.661,1365.40
993.607,1331.00
994.553,1346.37
995.498,1357.57
996.444,1341.87
997.389,1357.40
998.337,1356.67
999.282,1357.47
1000.227,1367.53
1001.173,1369.03
1002.118,1332.20
1003.062,1336.07
1004.007,1372.40
1004.952,1347.67
1005.897,1345.27
1006.841,1354.80
1007.786,1366.20
1008.730,1378.33
1009.674,1331.80
1010.618,1390.40
1011.564,1428.40
1012.508,1318.40
1013.452,1370.53
1014.396,1361.17
1015.339,1371.60
1016.283,1349.73
1017.226,1363.63
1018.170,1369.63
1019.113,1363.50
1020.056,1391.97
1020.999,1385.70
1021.942,1392.50
1022.885,1377.23
1023.828,1415.77
1024.770,1376.47
1025.715,1389.10
1026.657,1393.37
1027.600,1364.73
1028.542,1422.57
1029.484,1404.63
1030.426,1383.47
1031.368,1408.17
1032.310,1401.83
1033.251,1403.27
1034.193,1405.77
1035.135,1420.63
1036.076,1461.20
1037.017,1452.90
1037.959,1416.07
1038.900,1398.40
1039.843,1425.70
1040.784,1442.70
1041.725,1399.70
1042.665,1452.53
1043.606,1437.27
1044.547,1436.60
1045.487,1418.63
1046.427,1417.03
1047.368,1457.83
1048.308,1470.83
1049.248,1471.00
1050.188,1455.67
1051.128,1427.50
1052.067,1499.10
1053.007,1481.03
1053.947,1523.03
1054.886,1483.40
1055.827,1481.73
1056.766,1485.37
1057.706,1502.57
1058.645,1470.23
1059.584,1493.70
1060.522,1532.60
1061.461,1499.63
1062.400,1511.77
1063.338,1532.90
1064.277,1530.13
1065.215,1536.73
1066.154,1537.63
1067.092,1544.07
1068.030,1521.73
1068.968,1516.73
1069.906,1550.30
1070.843,1584.03
1071.781,1567.97
1072.720,1577.83
1073.658,1598.03
1074.595,1565.87
1075.533,1566.67
1076.470,1533.20
1077.407,1578.97
1078.344,1563.73
1079.281,1601.47
1080.217,1601.13
1081.154,1617.57
1082.091,1575.90
1083.027,1610.83
1083.964,1621.90
1084.900,1605.67
1085.836,1627.87
1086.772,1582.07
1087.708,1591.27
1088.644,1616.53
1089.580,1638.57
1090.515,1634.00
1091.451,1635.87
1092.388,1631.03
1093.324,1611.70
1094.259,1613.30
1095.194,1608.00
1096.129,1597.53
1097.064,1594.40
1097.999,1632.47
1098.934,1569.53
1099.869,1581.00
1100.803,1583.70
1101.738,1556.20
1102.672,1586.27
1103.607,1565.97
1104.541,1588.30
1105.475,1580.23
1106.409,1533.00
1107.343,1562.40
1108.277,1539.57
1109.210,1475.27
1110.144,1528.87
1111.078,1505.97
1112.011,1480.67
1112.944,1471.23
1113.878,1527.57
1114.811,1488.27
1115.744,1500.13
1116.678,1466.73
1117.611,1478.57
1118.544,1477.87
1119.477,1448.27
1120.409,1408.30
1121.342,1404.93
1122.274,1426.00
1123.206,1408.83
1124.138,1406.23
1125.070,1368.80
1126.002,1348.90
1126.934,1413.20
1127.866,1411.97
1128.798,1358.87
1129.729,1389.00
1130.661,1336.97
1131.592,1359.30
1132.523,1373.20
1133.454,1330.70
1134.385,1317.40
1135.317,1327.80
1136.247,1331.60
1137.178,1315.90
1138.109,1309.73
1139.039,1310.00
1139.970,1294.63
1140.900,1289.10
1141.831,1303.67
1142.761,1287.97
1143.691,1370.67
1144.621,1300.27
1145.551,1273.97
1146.480,1251.03
1147.410,1257.43
1148.340,1258.70
1149.269,1227.27
1150.199,1264.10
1151.128,1233.13
1152.057,1208.93
1152.979,1231.77
1153.898,1235.57
1154.819,1194.03
1155.739,1227.30
1156.658,1253.53
1157.579,1230.70
1158.498,1204.10
1159.419,1201.73
1160.338,1208.73
1161.256,1238.77
1162.177,1158.53
1163.095,1162.30
1164.016,1177.47
1164.934,1158.73
1165.852,1146.27
1166.772,1146.67
1167.690,1197.87
1168.610,1181.17
1169.528,1174.83
1170.446,1167.57
1171.365,1144.00
1172.283,1121.90
1173.202,1182.07
1174.120,1164.80
1175.037,1162.57
1175.956,1169.43
1176.873,1136.90
1177.792,1140.53
1178.709,1142.07
1179.626,1112.17
1180.544,1108.77
1181.461,1139.30
1182.379,1104.97
1183.296,1118.63
1184.212,1150.27
1185.130,1122.23
1186.046,1121.53
1186.962,1138.27
1187.880,1101.23
1188.796,1096.73
1189.714,1141.87
1190.629,1066.63
1191.545,1089.37
1192.462,1078.90
1193.378,1120.73
1194.295,1120.77
1195.210,1129.33
1196.125,1142.93
1197.042,1097.90
1197.957,1133.97
1198.872,1117.50
1199.788,1092.00
1200.703,1122.37
1201.619,1052.50
1202.534,1089.70
1203.448,1095.07
1204.364,1112.93
1205.278,1088.93
1206.192,1083.97
1207.108,1115.40
1208.022,1128.77
1208.938,1098.70
1209.851,1104.67
1210.765,1110.47
1211.680,1120.17
1212.594,1114.40
1213.507,1131.57
1214.422,1137.27
1215.335,1112.50
1216.248,1129.30
1217.163,1108.57
1218.076,1096.97
1218.990,1116.17
1219.903,1128.80
1220.816,1105.93
1221.730,1097.73
1222.642,1120.00
1223.554,1126.10
1224.469,1109.97
1225.380,1129.10
1226.292,1098.17
1227.206,1123.83
1228.118,1115.50
1229.032,1122.27
1229.943,1112.97
1230.855,1125.07
1231.768,1129.43
1232.679,1132.30
1233.590,1146.67
1234.503,1112.60
1235.414,1165.30
1236.325,1134.97
1237.238,1177.07
1238.149,1164.93
1239.059,1145.13
1239.972,1123.30
1240.882,1174.30
1241.793,1129.77
1242.705,1131.83
1243.615,1139.90
1244.525,1171.77
1245.437,1137.70
1246.347,1150.27
1247.259,1113.80
1248.168,1136.27
1249.078,1149.77
1249.989,1201.30
1250.899,1132.97
1251.808,1129.03
1252.719,1162.07
1253.628,1141.83
1254.537,1200.07
1255.448,1190.97
1256.357,1202.10
1257.266,1161.07
1258.176,1165.40
1259.085,1150.87
1259.993,1189.47
1260.904,1185.60
1261.812,1126.73
1262.720,1173.50
1263.630,1212.57
1264.538,1146.10
1265.446,1157.73
1266.356,1178.00
1267.263,1168.40
1268.171,1156.50
1269.080,1146.40
1269.988,1134.27
1270.895,1162.17
1271.804,1180.17
1272.711,1147.17
1273.619,1173.40
1274.527,1171.73
1275.434,1160.63
1276.341,1180.03
1277.248,1175.00
1278.156,1153.73
1279.063,1149.00
1279.969,1145.73
1280.877,1161.07
1281.783,1150.73
1282.690,1148.33
1283.598,1192.20
1284.503,1127.27
1285.409,1134.90
1286.317,1112.37
1287.223,1155.77
1288.128,1148.17
1289.036,1137.77
1289.941,1148.83
1290.846,1117.47
1291.751,1144.97
1292.658,1138.23
1293.563,1137.90
1294.468,1144.80
1295.375,1145.13
1296.280,1126.50
1297.184,1182.93
1298.091,1132.63
1298.995,1107.13
1299.900,1107.40
1300.806,1094.03
1301.710,1113.60
1302.614,1128.80
1303.518,1099.90
1304.424,1095.40
1305.327,1077.67
1306.231,1108.83
1307.137,1113.67
1308.040,1095.17
1308.943,1084.80
1309.847,1091.17
1310.752,1089.60
1311.655,1060.50
1312.558,1068.27
1313.463,1077.07
1314.366,1066.47
1315.269,1062.23
1316.171,1056.83
1317.076,1045.13
1317.978,1068.90
1318.881,1021.53
1319.785,1040.40
1320.687,1042.73
1321.589,1015.73
1322.491,1029.67
1323.395,1023.70
1324.297,1038.93
1325.198,986.60
1326.102,1041.67
1327.004,1030.47
1327.905,1019.93
1328.806,1029.63
1329.709,1014.20
1330.611,1008.97
1331.512,1032.50
1332.413,992.57
1333.316,996.90
1334.216,1006.87
1335.117,976.83
1336.020,1037.10
1336.920,970.40
1337.821,1017.27
1338.721,929.00
1339.623,948.00
1340.523,943.43
1341.423,999.93
1342.323,942.33
1343.225,953.50
1344.125,944.20
1345.025,951.60
1345.924,951.40
1346.826,960.20
1347.725,954.73
1348.624,950.27
1349.524,964.60
1350.425,910.00
1351.324,927.50
1352.223,950.27
1353.121,872.83
1354.022,904.20
1354.921,952.03
1355.819,915.40
1356.718,914.73
1357.618,878.27
1358.516,933.97
1359.415,939.00
1360.313,883.87
1361.213,879.70
1362.111,865.47
1363.008,925.43
1363.906,900.90
1364.806,881.80
1365.703,855.87
1366.601,904.77
1367.498,893.00
1368.397,875.27
1369.295,881.63
1370.192,886.47
1371.089,889.80
1371.987,841.23
1372.884,890.87
1373.781,859.10
1374.678,859.43
1375.574,860.17
1376.473,851.23
1377.369,837.00
1378.265,843.37
1379.161,867.37
1380.059,857.40
1380.955,841.47
1381.851,816.10
1382.747,817.53
1383.643,851.30
1384.540,827.83
1385.436,796.57
1386.331,794.93
1387.227,845.83
1388.124,847.70
1389.019,800.83
1389.914,835.57
1390.809,792.10
1391.704,812.47
1392.601,849.57
1393.495,797.30
1394.390,810.37
1395.285,847.03
1396.179,793.87
1397.075,776.93
1397.969,795.20
1398.864,808.50
1399.758,791.73
1400.652,822.70
1401.547,786.67
1402.441,815.27
1403.335,801.90
1404.229,786.90
1405.122,752.13
1406.017,789.00
1406.911,769.73
1407.804,812.63
1408.697,782.73
1409.590,772.30
1410.485,761.07
1411.378,773.03
1412.271,753.67
1413.163,781.37
1414.056,763.90
1414.949,777.03
1415.843,780.13
1416.735,767.47
1417.627,793.40
1418.520,788.20
1419.412,779.13
1420.306,744.73
1421.197,756.10
1422.089,767.07
1422.981,761.37
1423.873,731.50
1424.764,761.60
1425.657,784.93
1426.549,777.27
1427.440,775.87
1428.331,754.00
1429.222,770.40
1430.113,736.97
1431.006,755.93
1431.897,753.50
1432.787,774.50
1433.678,709.37
1434.568,756.57
1435.459,686.80
1436.351,764.47
1437.241,739.80
1438.131,742.67
1439.021,732.53
1439.911,722.20
1440.801,753.53
1441.693,748.93
1442.583,722.00
1443.472,728.03
1444.362,740.53
1445.251,737.23
1446.140,714.00
1447.030,730.87
1447.921,735.83
1448.810,707.93
1449.699,727.60
1450.588,749.90
1451.476,723.93
1452.365,697.50
1453.254,720.10
1454.144,655.70
1455.032,696.80
1455.921,693.47
1456.809,709.47
1457.697,715.33
1458.585,717.00
1459.473,725.60
1460.361,706.40
1461.251,744.60
1462.138,724.07
1463.026,697.93
1463.913,704.13
1464.801,713.73
1465.688,665.17
1466.575,707.60
1467.463,706.97
1468.351,666.63
1469.238,694.87
1470.125,682.20
1471.012,666.23
1471.899,685.93
1472.785,659.03
1473.672,672.10
1474.558,708.50
1475.446,686.53
1476.333,663.33
1477.219,667.83
1478.105,692.73
1478.991,694.53
1479.877,678.10
1480.762,707.87
1481.648,658.93
1482.534,660.97
1483.419,712.53
1484.307,655.20
1485.192,695.43
1486.077,678.33
1486.962,683.20
1487.847,692.80
1488.732,662.13
1489.617,640.70
1490.502,671.50
1491.387,644.20
1492.271,670.57
1493.156,675.07
1494.042,671.87
1494.927,697.27
1495.811,637.77
1496.695,668.10
1497.579,684.20
1498.463,641.90
1499.347,665.07
1500.231,654.80
1501.114,649.37
1501.998,641.90
1502.881,647.40
1503.765,677.37
1504.648,623.13
1505.533,669.40
1506.417,661.03
1507.300,660.23
1508.183,664.13
1509.066,629.10
1509.948,662.17
1510.831,625.27
1511.714,636.47
1512.596,653.33
1513.479,656.47
1514.361,630.90
1515.243,643.47
1516.125,652.67
1517.008,659.30
1517.890,668.77
1518.771,627.83
1519.655,643.23
1520.537,611.47
1521.419,631.63
1522.300,636.03
1523.182,632.83
1524.063,642.00
1524.944,642.63
1525.825,628.53
1526.707,657.47
1527.588,627.90
1528.468,616.97
1529.349,618.17
1530.230,592.03
1531.111,649.20
1531.991,638.87
1532.872,651.70
1533.752,577.60
1534.632,607.80
1535.513,629.37
1536.393,622.97
1537.273,599.60
1538.153,619.97
1539.032,597.93
1539.912,627.17
1540.792,606.93
1541.672,645.97
1542.551,634.10
1543.430,638.30
1544.310,598.13
1545.189,600.40
1546.068,617.03
1546.947,632.30
1547.826,613.13
1548.705,631.70
1549.584,631.20
1550.462,619.70
1551.341,594.73
1552.219,620.97
1553.098,601.17
1553.976,586.47
1554.854,631.60
1555.733,592.77
1556.611,630.47
1557.489,624.77
1558.367,599.73
1559.244,596.47
1560.122,620.33
1561.000,587.53
1561.877,589.90
1562.755,622.53
1563.632,587.83
1564.509,619.27
1565.386,615.70
1566.264,575.77
1567.141,602.53
1568.017,596.60
1568.894,603.33
1569.771,612.07
1570.648,618.97
1571.524,582.93
1572.401,597.30
1573.277,573.70
1574.153,581.90
1575.029,595.47
1575.906,583.83
1576.781,583.10
1577.657,593.03
1578.533,569.90
1579.409,612.07
1580.285,571.37
1581.160,604.63
1582.036,605.47
1582.911,568.57
1583.786,567.67
1584.662,600.60
1585.537,592.13
1586.412,586.27
1587.287,582.97
1588.160,558.77
1589.035,586.53
1589.909,557.23
1590.784,568.23
1591.658,596.13
1592.533,604.73
1593.407,545.97
1594.281,575.83
1595.155,581.43
1596.029,554.13
1596.903,591.03
1597.777,583.87
1598.651,563.37
1599.525,572.67
1600.398,592.30
1601.272,553.10
1602.144,557.57
1603.017,579.53
1603.890,547.30
1604.763,588.87
1605.636,602.47
1606.509,607.83
1607.382,526.53
1608.255,580.73
1609.128,549.87
1610.000,553.77
1610.873,537.40
1611.746,601.90
1612.616,602.27
1613.488,567.27
1614.361,569.30
1615.233,555.90
1616.105,562.90
1616.977,581.00
1617.849,558.37
1618.720,587.73
1619.592,589.80
1620.464,540.67
1621.333,574.20
1622.205,543.23
1623.076,571.17
1623.947,536.50
1624.818,565.37
1625.689,589.40
1626.560,569.57
1627.431,562.83
1628.302,568.50
1629.171,542.83
1630.042,594.70
1630.912,359.57
1631.782,547.53
1632.653,559.63
1633.523,593.20
1634.393,572.93
1635.263,529.70
1636.131,579.97
1637.001,557.83
1637.871,557.80
1638.741,563.30
1639.611,573.20
1640.480,547.47
1641.350,537.63
1642.219,534.07
1643.087,571.13
1643.956,576.53
1644.825,532.03
1645.694,552.37
1646.563,518.90
1647.432,538.17
1648.299,566.00
1649.167,535.07
1650.036,531.07
1650.904,572.10
1651.773,530.17
1652.641,543.43
1653.509,535.63
1654.376,538.13
1655.244,533.57
1656.112,545.50
1656.980,542.50
1657.847,529.40
1658.715,542.73
1659.581,512.30
1660.448,574.77
1661.316,492.07
1662.183,542.37
1663.051,541.73
1663.918,555.53
1664.783,525.03
1665.650,540.67
1666.517,538.43
1667.384,553.60
1668.251,500.77
1669.115,521.33
1669.982,525.87
1670.849,560.43
1671.715,525.60
1672.581,499.83
1673.446,548.47
1674.312,531.57
1675.178,532.73
1676.044,582.40
1676.910,531.73
1677.774,552.50
1678.639,524.23
1679.505,538.60
1680.370,529.43
1681.236,541.53
1682.099,525.70
1682.965,532.83
1683.830,490.90
1684.695,546.43
1685.560,545.23
1686.423,543.67
1687.288,486.90
1688.153,532.73
1689.017,505.87
1689.880,516.73
1690.745,489.67
1691.609,490.93
1692.473,510.50
1693.338,525.87
1694.200,526.10
1695.064,515.23
1695.928,530.37
1696.792,502.30
1697.654,532.37
1698.517,519.10
1699.381,518.67
1700.245,487.47
1701.106,527.37
1701.969,518.57
1702.833,528.00
1703.696,551.13
1704.557,539.20
1705.420,480.43
1706.283,519.30
1707.146,520.10
1708.007,499.30
1708.870,546.20
1709.732,528.03
1710.595,536.97
1711.455,516.00
1712.318,517.03
1713.180,508.77
1714.040,498.83
1714.902,507.90
1715.764,525.93
1716.626,515.27
1717.486,497.47
1718.348,521.77
1719.209,761.43
1720.071,515.70
1720.930,481.70
1721.792,527.03
1722.653,524.07
1723.512,537.80
1724.374,516.63
1725.234,482.00
1726.095,528.60
1726.954,502.53
1727.815,523.03
1728.676,534.17
1729.535,524.57
1730.395,528.03
1731.256,557.40
1732.114,514.60
1732.974,498.77
1733.834,555.63
1734.693,503.37
1735.553,525.53
1736.413,525.13
1737.272,503.30
1738.130,509.33
1738.990,488.27
1739.849,513.13
1740.707,505.03
1741.566,536.50
1742.426,512.23
1743.283,495.00
1744.142,527.50
1745.001,484.77
1745.858,498.57
1746.717,550.30
1747.576,516.83
1748.433,503.50
1749.292,478.00
1750.150,481.33
1751.007,497.07
1751.865,494.57
1752.723,488.53
1753.579,487.73
1754.438,509.87
1755.296,508.57
1756.152,526.83
1757.010,498.33
1757.865,474.83
1758.723,496.47
1759.581,505.13
1760.436,472.63
1761.294,500.67
1762.151,506.17
1763.006,499.27
1763.864,484.23
1764.721,493.30
1765.576,505.57
1766.433,504.40
1767.288,509.60
1768.144,523.20
1769.001,519.30
1769.856,497.43
1770.712,487.07
1771.568,504.70
1772.423,483.70
1773.279,518.37
1774.133,536.77
1774.989,482.63
1775.845,503.23
1776.699,534.80
1777.555,513.27
1778.409,519.37
1779.265,459.10
1780.120,471.87
1780.974,497.70
1781.829,491.13
1782.682,522.13
1783.538,480.00
1784.393,477.13
1785.246,489.57
1786.101,482.57
1786.954,494.10
1787.808,481.77
1788.661,472.90
1789.516,464.50
1790.370,489.33
1791.223,495.93
1792.077,497.10
1792.930,496.90
1793.784,494.17
1794.636,512.20
1795.490,525.67
1796.344,501.53
1797.196,470.37
1798.049,506.80
1798.901,439.20
1799.755,462.27
1800.606,506.43
1801.460,501.87
1802.311,456.57
1803.165,510.63
1804.018,506.40
1804.869,457.83
1805.722,527.77
1806.573,478.57
1807.426,447.00
1808.276,482.87
1809.129,505.33
1809.980,480.17
1810.832,530.17
1811.683,488.40
1812.535,496.10
1813.385,489.27
1814.237,513.03
1815.089,505.40
1815.940,483.47
1816.791,469.77
1817.641,511.87
1818.493,492.70
1819.343,470.10
1820.194,513.87
1821.044,471.83
1821.895,511.27
1822.745,484.00
1823.596,486.33
1824.445,534.23
1825.296,467.00
1826.145,462.43
1826.996,472.27
1827.845,480.10
1828.695,465.63
1829.544,507.27
1830.395,508.97
1831.243,491.33
1832.094,471.30
1832.942,504.17
1833.792,480.10
1834.640,497.30
1835.490,482.67
1836.338,479.03
1837.186,455.77
1838.036,502.03
1838.884,503.23
1839.733,451.07
1840.581,486.73
1841.430,479.17
1842.278,484.63
1843.127,444.93
1843.974,469.23
1844.823,454.10
1845.671,459.83
1846.519,416.43
1847.366,419.60
1848.213,477.43
1849.062,469.13
1849.909,468.83
1850.757,492.37
1851.604,446.63
1852.452,468.10
1853.298,472.07
1854.146,494.20
1854.993,477.00
1855.839,462.03
1856.687,460.07
1857.532,462.30
1858.380,476.13
1859.226,492.03
1860.073,476.27
1860.919,480.80
1861.765,452.30
1862.612,445.10
1863.457,478.43
1864.304,468.43
1865.150,463.80
1865.995,440.47
1866.842,406.87
1867.686,478.03
1868.533,466.87
1869.378,459.17
1870.223,456.90
1871.069,450.37
1871.914,480.13
1872.760,457.20
1873.604,485.80
1874.448,473.40
1875.294,492.07
1876.139,441.47
1876.984,458.97
1877.828,443.67
1878.672,482.03
1879.518,469.43
1880.361,454.17
1881.205,448.37
1882.050,437.10
1882.894,468.07
1883.739,476.27
1884.582,453.87
1885.425,463.90
1886.270,487.60
1887.113,471.00
1887.956,466.83
1888.801,449.43
1889.644,478.40
1890.486,445.07
1891.331,446.80
1892.173,510.17
1893.017,454.40
1893.860,414.47
1894.702,433.03
1895.546,485.27
1896.388,471.53
1897.230,458.90
1898.074,442.63
1898.916,490.40
1899.757,439.20
1900.601,463.13
1901.443,486.77
1902.284,500.37
1903.125,448.83
1903.969,464.90
1904.810,445.43
1905.651,470.97
1906.494,507.53
1907.335,413.90
1908.176,444.17
1909.018,434.17
1909.859,433.27
1910.700,458.57
1911.542,459.03
1912.383,473.80
1913.223,460.60
1914.064,453.57
1914.906,438.00
1915.746,450.57
1916.586,455.57
1917.428,458.53
1918.268,469.33
1919.107,478.20
1919.947,460.53
1920.789,449.93
1921.628,495.80
1922.468,447.10
1923.309,438.23
1924.148,476.43
1924.988,493.93
1925.827,417.80
1926.667,469.87
1927.507,456.67
1928.345,443.23
1929.184,464.03
1930.025,454.57
1930.864,467.10
1931.702,458.27
1932.541,469.20
1933.381,455.83
1934.219,477.60
1935.057,452.90
1935.896,434.17
1936.735,447.97
1937.573,468.33
1938.411,436.50
1939.249,459.70
1940.089,427.73
1940.927,505.37
1941.764,449.97
1942.602,444.20
1943.439,458.00
1944.278,459.00
1945.115,466.97
1945.953,451.73
1946.790,452.53
1947.628,440.77
1948.465,412.00
1949.302,440.77
1950.139,416.20
1950.976,452.90
1951.814,403.73
1952.651,463.80
1953.487,417.77
1954.323,478.70
1955.160,449.40
1955.998,468.07
1956.834,458.07
1957.670,415.37
1958.506,471.73
1959.342,438.77
1960.177,449.67
1961.015,432.40
1961.850,433.80
1962.686,425.37
1963.521,444.60
1964.357,461.40
1965.192,456.23
1966.029,421.37
1966.864,451.60
1967.699,433.90
1968.534,462.87
1969.369,426.80
1970.204,437.13
1971.040,472.13
1971.875,450.83
1972.709,437.53
1973.544,457.13
1974.378,460.80
1975.212,435.30
1976.047,456.33
1976.882,474.00
1977.716,432.10
1978.550,453.90
1979.384,503.67
1980.218,432.80
1981.052,396.63
1981.885,443.60
1982.719,450.40
1983.554,426.00
1984.388,476.07
1985.221,483.80
1986.054,459.37
1986.887,390.10
1987.720,463.27
1988.553,477.80
1989.386,470.57
1990.219,406.53
1991.053,462.80
1991.886,407.17
1992.719,447.03
1993.551,447.07
1994.383,431.90
1995.216,496.30
1996.048,436.30
1996.880,433.83
1997.712,441.37
1998.544,446.67
1999.376,417.93
2000.208,429.63
2000.208,429.63

Max Intensity Wave.,220.959
Max Intensity Data,6518.07
Min Intensity Wave.,1630.912
Min Intensity Data,359.57
FWHM Wave.,400.061
FWHM Value,1.38
Pressure Wave.,684.671
Pressure Value [GPa],-24.91530
G/D Ratio,0.57359
G/D Gband Wave.,1541.906
G/D Gband Intensity,647.78
G/D Dband Wave.,1302.473
G/D Dband Intensity,1129.33

<< BACKGROUND SPECTRUM >>
Wave[dcm-1],No301
146.591,2214.00
147.626,2101.00
148.664,2042.00
149.699,2498.00
150.737,2237.00
151.772,2361.00
152.809,2371.00
153.846,2296.00
154.881,2388.00
155.918,1982.00
156.953,2275.00
157.989,2586.00
159.026,2433.00
160.060,2633.00
161.096,2828.00
162.130,2426.00
163.167,2532.00
164.200,2410.00
165.236,2658.00
166.272,2668.00
167.305,2256.00
168.341,2537.00
169.374,2740.00
170.409,2788.00
171.445,2712.00
172.477,2513.00
173.512,2350.00
174.545,2649.00
175.580,2856.00
176.614,3052.00
177.647,2783.00
178.681,3032.00
179.713,3315.00
180.747,2796.00
181.781,2721.00
182.813,2967.00
183.847,3045.00
184.878,2699.00
185.912,3005.00
186.945,3090.00
187.976,3046.00
189.010,2698.00
190.043,2839.00
191.073,2895.00
192.106,2697.00
193.137,3164.00
194.170,2517.00
195.202,2902.00
196.232,2639.00
197.265,2970.00
198.297,3068.00
199.327,2782.00
200.359,2924.00
201.388,3319.00
202.420,2909.00
203.452,3100.00
204.481,2684.00
205.512,3273.00
206.544,3051.00
207.573,3010.00
208.604,3385.00
209.635,3489.00
210.663,2918.00
211.694,2987.00
212.725,2804.00
213.753,2759.00
214.783,3334.00
215.813,3208.00
216.841,2955.00
217.871,3140.00
218.899,2927.00
219.929,3121.00
220.959,2889.00
221.986,3155.00
223.016,2768.00
224.045,3122.00
225.072,3094.00
226.101,3195.00
227.130,3202.00
228.157,2812.00
229.185,2344.00
230.214,3205.00
231.241,2810.00
232.269,2444.00
233.297,2688.00
234.323,3212.00
235.351,2790.00
236.379,3089.00
237.407,2720.00
238.433,2925.00
239.460,3049.00
240.488,3081.00
241.513,3130.00
242.540,3065.00
243.568,3194.00
244.592,3218.00
245.619,3175.00
246.646,2920.00
247.671,2954.00
248.697,2812.00
249.724,3021.00
250.748,2987.00
251.774,3008.00
252.801,3244.00
253.827,3116.00
254.850,3071.00
255.876,2666.00
256.902,3121.00
257.925,2952.00
258.951,2705.00
259.976,2738.00
260.999,3073.00
262.024,2799.00
263.049,3633.00
264.074,3119.00
265.097,3005.00
266.122,3047.00
267.146,3042.00
268.168,3207.00
269.193,2838.00
270.217,3143.00
271.241,2715.00
272.263,2873.00
273.287,3174.00
274.311,2764.00
275.332,3255.00
276.356,2862.00
277.379,3079.00
278.402,3124.00
279.424,2937.00
280.447,2887.00
281.470,2685.00
282.492,3047.00
283.513,2924.00
284.536,3135.00
285.558,3102.00
286.581,3086.00
287.601,2811.00
288.623,2788.00
289.645,3042.00
290.665,3097.00
291.687,3096.00
292.709,3095.00
293.730,3353.00
294.750,2869.00
295.771,2751.00
296.792,3009.00
297.813,2879.00
298.832,3014.00
299.853,2762.00
300.874,2963.00
301.895,2935.00
302.913,2950.00
303.934,3236.00
304.954,3013.00
305.975,3194.00
306.993,2730.00
308.013,3113.00
309.033,2989.00
310.052,2894.00
311.072,2884.00
312.090,3028.00
313.109,3258.00
314.129,3379.00
315.148,2981.00
316.165,3040.00
317.184,3232.00
318.203,2733.00
319.222,2750.00
320.238,3106.00
321.257,2817.00
322.275,2696.00
323.294,2946.00
324.312,3124.00
325.328,3233.00
326.346,3310.00
327.364,3180.00
328.382,3124.00
329.397,3113.00
330.415,3254.00
331.432,3193.00
332.450,3224.00
333.467,3436.00
334.482,2563.00
335.499,3329.00
336.516,2847.00
337.533,2536.00
338.547,2812.00
339.564,2863.00
340.580,3070.00
341.597,2923.00
342.613,3380.00
343.627,2956.00
344.643,3002.00
345.659,3097.00
346.675,2998.00
347.690,2861.00
348.704,3072.00
349.719,2857.00
350.735,2755.00
351.750,3181.00
352.765,3006.00
353.778,3000.00
354.793,3159.00
355.808,2803.00
356.822,3210.00
357.837,2628.00
358.851,3224.00
359.864,2946.00
360.878,2718.00
361.892,2936.00
362.906,3157.00
363.920,2585.00
364.932,3104.00
365.945,3048.00
366.959,2993.00
367.972,2915.00
368.986,2731.00
369.999,3368.00
371.010,2857.00
372.023,3298.00
373.036,2938.00
374.049,3354.00
375.061,3072.00
376.072,3022.00
377.084,2872.00
378.097,2645.00
379.109,3197.00
380.121,2972.00
381.133,2685.00
382.143,3152.00
383.155,2715.00
384.166,2870.00
385.178,3065.00
386.189,3222.00
387.201,2741.00
388.212,2907.00
389.221,2936.00
390.232,3002.00
391.243,2932.00
392.254,3006.00
393.264,2838.00
394.275,3236.00
395.283,3161.00
396.294,3636.00
397.304,3477.00
398.314,3072.00
399.324,3017.00
400.334,2642.00
401.344,3145.00
402.351,2646.00
403.361,3192.00
404.370,2923.00
405.380,2909.00
406.389,3302.00
407.398,3108.00
408.407,3093.00
409.414,3723.00
410.423,3330.00
411.431,2740.00
412.440,2649.00
413.448,3274.00
414.457,2823.00
415.465,2784.00
416.471,2865.00
417.479,2998.00
418.487,2769.00
419.495,3286.00
420.503,3144.00
421.510,2578.00
422.518,3156.00
423.525,3127.00
424.530,3388.00
425.537,2893.00
426.544,3209.00
427.551,2857.00
428.558,3526.00
429.565,3365.00
430.571,2851.00
431.578,2887.00
432.582,2802.00
433.588,2981.00
434.595,2631.00
435.601,3283.00
436.607,3250.00
437.612,2781.00
438.618,3354.00
439.624,2942.00
440.627,2946.00
441.633,3096.00
442.638,3587.00
443.643,3076.00
444.648,3013.00
445.653,3208.00
446.658,2861.00
447.663,3006.00
448.667,2828.00
449.672,2886.00
450.674,2932.00
451.678,2694.00
452.682,2868.00
453.687,2813.00
454.690,3580.00
455.694,3252.00
456.698,2565.00
457.702,2649.00
458.705,2786.00
459.709,2841.00
460.710,2881.00
461.713,3059.00
462.716,3063.00
463.719,2980.00
464.722,3182.00
465.725,2954.00
466.727,2807.00
467.730,3002.00
468.732,2773.00
469.735,3245.00
470.737,2897.00
471.737,2875.00
472.739,2912.00
473.741,2766.00
474.742,3058.00
475.744,3083.00
476.746,3059.00
477.747,2973.00
478.748,3153.00
479.750,2940.00
480.751,2986.00
481.752,3679.00
482.753,3054.00
483.751,3563.00
484.752,2621.00
485.753,2932.00
486.753,2859.00
487.753,2925.00
488.754,3403.00
489.754,2682.00
490.754,3308.00
491.754,3083.00
492.754,2675.00
493.753,3018.00
494.753,2873.00
495.752,3317.00
496.752,3050.00
497.749,2954.00
498.748,2820.00
499.747,3427.00
500.746,3050.00
501.745,2780.00
502.744,2741.00
503.742,3304.00
504.741,2955.00
505.739,2476.00
506.737,2892.00
507.735,3118.00
508.734,3388.00
509.732,3138.00
510.729,3325.00
511.727,2876.00
512.725,2904.00
513.720,2801.00
514.718,3257.00
515.715,2671.00
516.712,2609.00
517.709,2981.00
518.706,2866.00
519.703,3051.00
520.700,3191.00
521.696,3331.00
522.693,2910.00
523.689,2816.00
524.686,3155.00
525.682,2783.00
526.678,3475.00
527.674,2933.00
528.670,2592.00
529.666,3575.00
530.661,3450.00
531.657,3691.00
532.652,3138.00
533.648,3001.00
534.641,3194.00
535.636,3012.00
536.631,3086.00
537.626,3113.00
538.621,2722.00
539.616,2592.00
540.610,2489.00
541.605,3012.00
542.599,3046.00
543.593,2940.00
544.587,3876.00
545.581,2814.00
546.575,3020.00
547.569,2997.00
548.563,2701.00
549.557,2668.00
550.550,2769.00
551.543,2737.00
552.537,3142.00
553.530,2746.00
554.523,2777.00
555.516,3115.00
556.509,2970.00
557.502,2632.00
558.494,3173.00
559.487,2895.00
560.479,3203.00
561.472,3264.00
562.464,3145.00
563.456,3282.00
564.448,2943.00
565.440,2979.00
566.432,3365.00
567.423,2870.00
568.415,2884.00
569.404,3106.00
570.396,2823.00
571.387,3091.00
572.378,2940.00
573.369,3905.00
574.360,3668.00
575.351,2910.00
576.341,2827.00
577.332,2857.00
578.323,2659.00
579.313,2861.00
580.303,3209.00
581.293,3146.00
582.283,2962.00
583.273,3135.00
584.263,2986.00
585.253,3086.00
586.243,3124.00
587.232,2688.00
588.222,2939.00
589.211,3160.00
590.200,3068.00
591.189,2889.00
592.178,2945.00
593.167,3383.00
594.156,3216.00
595.145,2905.00
596.133,3435.00
597.122,3099.00
598.110,3167.00
599.098,3036.00
600.086,3014.00
601.074,3155.00
602.062,2826.00
603.050,2774.00
604.038,3093.00
605.025,2784.00
606.013,3163.00
607.000,3344.00
607.987,3000.00
608.975,3086.00
609.962,2761.00
610.949,3099.00
611.936,3277.00
612.922,3145.00
613.909,2708.00
614.895,3350.00
615.882,2823.00
616.868,3006.00
617.854,2742.00
618.841,3000.00
619.826,3064.00
620.812,2970.00
621.798,2808.00
622.784,3180.00
623.769,3097.00
624.755,2709.00
625.740,3048.00
626.725,2704.00
627.711,2824.00
628.698,3042.00
629.683,2815.00
630.667,3168.00
631.652,2757.00
632.637,2968.00
633.621,3157.00
634.606,2915.00
635.590,3104.00
636.574,2947.00
637.558,3061.00
638.542,3051.00
639.526,2818.00
640.510,2661.00
641.493,2994.00
642.477,2983.00
643.460,2678.00
644.444,3225.00
645.427,3230.00
646.410,2685.00
647.393,2942.00
648.376,3040.00
649.359,2887.00
650.341,3049.00
651.324,3071.00
652.307,3036.00
653.289,2916.00
654.271,2871.00
655.253,2915.00
656.235,3118.00
657.217,3196.00
658.199,2585.00
659.181,2734.00
660.163,2963.00
661.144,2797.00
662.126,2876.00
663.107,2711.00
664.088,6192.00
665.069,3218.00
666.050,2810.00
667.033,2660.00
668.014,3031.00
668.995,2572.00
669.975,2977.00
670.956,2953.00
671.936,3125.00
672.916,2922.00
673.896,3093.00
674.876,2903.00
675.856,2874.00
676.836,2762.00
677.816,2316.00
678.795,2838.00
679.775,2650.00
680.754,3025.00
681.734,3141.00
682.713,3124.00
683.692,2776.00
684.671,2605.00
685.650,2718.00
686.629,2859.00
687.607,2745.00
688.586,2789.00
689.564,2798.00
690.543,3236.00
691.523,2382.00
692.501,2834.00
693.479,2911.00
694.457,2784.00
695.435,2884.00
696.413,2653.00
697.390,2533.00
698.368,2670.00
699.345,3077.00
700.322,2936.00
701.300,3107.00
702.277,2986.00
703.254,3277.00
704.231,2590.00
705.207,2940.00
706.184,2763.00
707.161,2657.00
708.137,2799.00
709.113,2813.00
710.090,2796.00
711.068,2603.00
712.044,2623.00
713.020,2858.00
713.996,2610.00
714.971,2824.00
715.947,2835.00
716.922,2787.00
717.898,2704.00
718.873,2896.00
719.848,2716.00
720.823,2710.00
721.798,2930.00
722.773,2757.00
723.748,2564.00
724.723,3013.00
725.697,2825.00
726.672,2769.00
727.646,2487.00
728.622,2972.00
729.596,2586.00
730.570,2679.00
731.544,3054.00
732.518,3206.00
733.492,2801.00
734.466,2885.00
735.439,3014.00
736.413,3133.00
737.386,2468.00
738.359,2415.00
739.332,2518.00
740.305,2852.00
741.278,3279.00
742.251,2905.00
743.224,2775.00
744.196,2544.00
745.171,3136.00
746.143,3018.00
747.115,2770.00
748.087,2715.00
749.059,3084.00
750.031,2884.00
751.003,3629.00
751.975,3268.00
752.947,2687.00
753.918,3096.00
754.890,2544.00
755.861,2746.00
756.832,3017.00
757.803,2890.00
758.774,2804.00
759.747,2608.00
760.718,3192.00
761.689,2699.00
762.659,2588.00
763.630,3125.00
764.600,2524.00
765.570,3064.00
766.540,3131.00
767.510,2952.00
768.480,3015.00
769.450,2660.00
770.420,2797.00
771.390,2634.00
772.359,2776.00
773.329,2614.00
774.300,2505.00
775.269,2782.00
776.238,2969.00
777.207,3145.00
778.176,2505.00
779.145,2798.00
780.114,2684.00
781.083,2583.00
782.051,2759.00
783.019,2699.00
783.988,3060.00
784.956,2856.00
785.924,2975.00
786.894,2835.00
787.862,2746.00
788.830,3156.00
789.797,2612.00
790.765,2618.00
791.732,2755.00
792.700,2660.00
793.667,2593.00
794.634,2737.00
795.601,2737.00
796.568,2782.00
797.535,2864.00
798.502,3431.00
799.468,2871.00
800.437,2362.00
801.403,2629.00
802.370,3213.00
803.336,2995.00
804.302,2862.00
805.268,2485.00
806.234,2527.00
807.200,2742.00
808.166,2762.00
809.131,2568.00
810.097,2974.00
811.062,3654.00
812.027,3025.00
812.994,2593.00
813.960,2605.00
814.925,2956.00
815.889,2525.00
816.854,2998.00
817.819,2638.00
818.783,2711.00
819.748,3076.00
820.712,2739.00
821.677,2648.00
822.641,2696.00
823.605,2703.00
824.571,3105.00
825.534,2746.00
826.498,2673.00
827.462,2813.00
828.425,2623.00
829.389,3015.00
830.352,2821.00
831.315,2894.00
832.279,2510.00
833.242,2782.00
834.204,2639.00
835.167,2619.00
836.132,3008.00
837.095,2517.00
838.057,2733.00
839.020,2807.00
839.982,2851.00
840.944,2700.00
841.906,2662.00
842.868,2959.00
843.830,2527.00
844.792,3082.00
845.753,2684.00
846.715,2436.00
847.679,2582.00
848.640,2618.00
849.601,2745.00
850.562,3224.00
851.523,2704.00
852.484,2473.00
853.445,3012.00
854.406,2718.00
855.367,2748.00
856.327,3005.00
857.288,2475.00
858.248,2684.00
859.210,2701.00
860.170,2540.00
861.130,3002.00
862.090,2423.00
863.050,2632.00
864.010,2706.00
864.969,2904.00
865.929,2621.00
866.888,2482.00
867.848,2788.00
868.807,2668.00
869.766,2889.00
870.727,2743.00
871.686,2969.00
872.645,3016.00
873.604,3281.00
874.562,2790.00
875.521,2811.00
876.479,3343.00
877.437,2585.00
878.396,2614.00
879.354,3172.00
880.312,2619.00
881.270,2650.00
882.229,3095.00
883.187,2621.00
884.145,2717.00
885.102,2958.00
886.059,2801.00
887.017,2906.00
887.974,2967.00
888.931,3086.00
889.888,2508.00
890.845,2434.00
891.802,2373.00
892.758,2663.00
893.717,2428.00
894.673,2581.00
895.630,2645.00
896.586,2907.00
897.542,2679.00
898.498,2524.00
899.454,2867.00
900.410,2663.00
901.366,2678.00
902.321,2626.00
903.277,2652.00
904.232,2730.00
905.189,2463.00
906.145,2664.00
907.100,2248.00
908.055,2721.00
909.010,2893.00
909.965,2326.00
910.919,2764.00
911.874,2561.00
912.828,2771.00
913.783,2803.00
914.737,2380.00
915.693,2709.00
916.648,2915.00
917.602,2955.00
918.555,2755.00
919.509,2789.00
920.463,2731.00
921.417,2747.00
922.370,2586.00
923.324,2683.00
924.277,2667.00
925.230,2775.00
926.183,2398.00
927.138,2672.00
928.091,2946.00
929.044,2818.00
929.996,2623.00
930.949,2669.00
931.902,2832.00
932.854,2841.00
933.806,2608.00
934.758,2927.00
935.711,2991.00
936.663,2812.00
937.614,2779.00
938.568,2692.00
939.520,2402.00
940.471,2735.00
941.423,2804.00
942.374,2894.00
943.326,2717.00
944.277,2616.00
945.228,2818.00
946.179,2704.00
947.130,3028.00
948.080,2702.00
949.031,2552.00
949.984,2637.00
950.934,2689.00
951.884,2493.00
952.835,2712.00
953.785,2737.00
954.735,2631.00
955.685,2363.00
956.635,2627.00
957.585,2616.00
958.534,2623.00
959.484,2711.00
960.433,2615.00
961.383,2511.00
962.334,2960.00
963.283,2786.00
964.232,2843.00
965.181,2755.00
966.130,2783.00
967.079,2637.00
968.027,2708.00
968.976,2766.00
969.924,2602.00
970.873,2815.00
971.821,2751.00
972.769,2901.00
973.719,2857.00
974.667,2477.00
975.615,2711.00
976.562,2686.00
977.510,2447.00
978.458,2627.00
979.405,2830.00
980.352,2787.00
981.300,2992.00
982.247,2834.00
983.194,2563.00
984.141,2628.00
985.088,2718.00
986.036,2772.00
986.983,2989.00
987.930,3110.00
988.876,2384.00
989.822,2945.00
990.769,2544.00
991.715,2615.00
992.661,2428.00
993.607,2805.00
994.553,3275.00
995.498,2600.00
996.444,2315.00
997.389,2789.00
998.337,2530.00
999.282,2863.00
1000.227,2644.00
1001.173,2706.00
1002.118,2487.00
1003.062,2921.00
1004.007,2662.00
1004.952,2988.00
1005.897,2948.00
1006.841,2690.00
1007.786,2467.00
1008.730,2417.00
1009.674,3189.00
1010.618,2633.00
1011.564,2456.00
1012.508,2446.00
1013.452,2931.00
1014.396,2739.00
1015.339,2618.00
1016.283,2716.00
1017.226,2749.00
1018.170,2722.00
1019.113,2903.00
1020.056,2717.00
1020.999,2716.00
1021.942,2598.00
1022.885,2865.00
1023.828,2971.00
1024.770,2511.00
1025.715,2741.00
1026.657,2669.00
1027.600,2782.00
1028.542,2902.00
1029.484,2730.00
1030.426,2871.00
1031.368,2762.00
1032.310,2576.00
1033.251,2541.00
1034.193,2700.00
1035.135,2495.00
1036.076,2588.00
1037.017,2508.00
1037.959,2839.00
1038.900,2805.00
1039.843,2811.00
1040.784,2737.00
1041.725,2824.00
1042.665,2607.00
1043.606,2779.00
1044.547,2763.00
1045.487,2394.00
1046.427,2709.00
1047.368,2759.00
1048.308,2234.00
1049.248,2507.00
1050.188,2717.00
1051.128,2651.00
1052.067,2634.00
1053.007,2404.00
1053.947,2363.00
1054.886,2591.00
1055.827,2495.00
1056.766,2897.00
1057.706,2448.00
1058.645,2707.00
1059.584,2766.00
1060.522,2951.00
1061.461,2471.00
1062.400,2480.00
1063.338,2643.00
1064.277,2501.00
1065.215,2515.00
1066.154,2407.00
1067.092,2585.00
1068.030,2643.00
1068.968,2890.00
1069.906,3019.00
1070.843,2923.00
1071.781,2731.00
1072.720,2803.00
1073.658,2801.00
1074.595,2623.00
1075.533,2582.00
1076.470,2634.00
1077.407,2971.00
1078.344,2794.00
1079.281,2802.00
1080.217,2317.00
1081.154,2657.00
1082.091,2754.00
1083.027,2444.00
1083.964,2901.00
1084.900,2558.00
1085.836,2595.00
1086.772,2913.00
1087.708,2480.00
1088.644,2815.00
1089.580,2657.00
1090.515,2730.00
1091.451,2591.00
1092.388,2704.00
1093.324,2462.00
1094.259,3235.00
1095.194,2760.00
1096.129,2630.00
1097.064,2581.00
1097.999,2780.00
1098.934,2559.00
1099.869,2564.00
1100.803,2712.00
1101.738,2726.00
1102.672,2393.00
1103.607,2810.00
1104.541,2516.00
1105.475,2524.00
1106.409,2449.00
1107.343,2598.00
1108.277,2425.00
1109.210,2765.00
1110.144,2664.00
1111.078,2674.00
1112.011,2485.00
1112.944,2798.00
1113.878,2703.00
1114.811,2181.00
1115.744,2561.00
1116.678,2314.00
1117.611,2553.00
1118.544,2578.00
1119.477,2735.00
1120.409,2583.00
1121.342,3141.00
1122.274,2747.00
1123.206,4232.00
1124.138,2682.00
1125.070,3006.00
1126.002,2874.00
1126.934,2271.00
1127.866,2529.00
1128.798,2345.00
1129.729,2353.00
1130.661,2668.00
1131.592,2559.00
1132.523,2711.00
1133.454,2767.00
1134.385,2314.00
1135.317,2641.00
1136.247,2554.00
1137.178,2854.00
1138.109,2379.00
1139.039,3012.00
1139.970,2823.00
1140.900,2561.00
1141.831,2321.00
1142.761,2219.00
1143.691,2749.00
1144.621,2619.00
1145.551,2691.00
1146.480,2698.00
1147.410,2838.00
1148.340,2298.00
1149.269,2383.00
1150.199,2554.00
1151.128,3044.00
1152.057,2457.00
1152.979,2572.00
1153.898,2615.00
1154.819,2761.00
1155.739,2624.00
1156.658,2515.00
1157.579,2644.00
1158.498,2626.00
1159.419,2190.00
1160.338,2677.00
1161.256,2654.00
1162.177,2521.00
1163.095,2637.00
1164.016,2704.00
1164.934,2919.00
1165.852,2849.00
1166.772,2642.00
1167.690,2619.00
1168.610,2689.00
1169.528,2635.00
1170.446,2194.00
1171.365,2576.00
1172.283,2547.00
1173.202,2599.00
1174.120,2651.00
1175.037,2481.00
1175.956,2440.00
1176.873,2523.00
1177.792,2527.00
1178.709,3087.00
1179.626,2559.00
1180.544,2880.00
1181.461,2506.00
1182.379,2746.00
1183.296,2634.00
1184.212,2251.00
1185.130,2484.00
1186.046,2964.00
1186.962,2624.00
1187.880,2924.00
1188.796,2698.00
1189.714,2421.00
1190.629,2820.00
1191.545,2716.00
1192.462,2601.00
1193.378,2597.00
1194.295,2335.00
1195.210,2633.00
1196.125,2749.00
1197.042,2723.00
1197.957,2607.00
1198.872,2502.00
1199.788,2551.00
1200.703,2943.00
1201.619,2698.00
1202.534,2515.00
1203.448,2724.00
1204.364,2555.00
1205.278,2318.00
1206.192,2693.00
1207.108,3127.00
1208.022,2973.00
1208.938,2482.00
1209.851,2772.00
1210.765,2866.00
1211.680,2515.00
1212.594,2406.00
1213.507,2557.00
1214.422,2992.00
1215.335,2756.00
1216.248,2535.00
1217.163,2648.00
1218.076,3238.00
1218.990,2745.00
1219.903,2380.00
1220.816,2466.00
1221.730,2616.00
1222.642,2496.00
1223.554,2542.00
1224.469,2701.00
1225.380,2560.00
1226.292,2317.00
1227.206,2757.00
1228.118,2957.00
1229.032,2255.00
1229.943,2521.00
1230.855,2575.00
1231.768,2370.00
1232.679,2714.00
1233.590,2586.00
1234.503,2862.00
1235.414,2455.00
1236.325,2508.00
1237.238,2653.00
1238.149,2708.00
1239.059,2448.00
1239.972,2834.00
1240.882,2409.00
1241.793,2770.00
1242.705,3005.00
1243.615,2592.00
1244.525,2689.00
1245.437,2222.00
1246.347,2689.00
1247.259,2819.00
1248.168,3081.00
1249.078,2883.00
1249.989,2857.00
1250.899,2451.00
1251.808,2527.00
1252.719,2559.00
1253.628,2503.00
1254.537,2958.00
1255.448,2434.00
1256.357,2430.00
1257.266,2635.00
1258.176,2366.00
1259.085,2369.00
1259.993,2425.00
1260.904,2453.00
1261.812,2498.00
1262.720,3216.00
1263.630,2751.00
1264.538,2487.00
1265.446,2746.00
1266.356,2612.00
1267.263,2897.00
1268.171,2443.00
1269.080,2718.00
1269.988,2829.00
1270.895,2557.00
1271.804,2578.00
1272.711,2819.00
1273.619,2777.00
1274.527,2438.00
1275.434,2751.00
1276.341,2417.00
1277.248,2647.00
1278.156,2922.00
1279.063,2512.00
1279.969,2739.00
1280.877,3511.00
1281.783,2846.00
1282.690,2705.00
1283.598,2557.00
1284.503,2515.00
1285.409,2490.00
1286.317,3021.00
1287.223,3007.00
1288.128,2695.00
1289.036,2522.00
1289.941,2569.00
1290.846,2663.00
1291.751,2451.00
1292.658,2543.00
1293.563,3065.00
1294.468,2634.00
1295.375,2771.00
1296.280,2863.00
1297.184,3291.00
1298.091,2715.00
1298.995,2797.00
1299.900,3003.00
1300.806,2550.00
1301.710,2390.00
1302.614,2191.00
1303.518,2882.00
1304.424,2587.00
1305.327,2837.00
1306.231,2596.00
1307.137,2755.00
1308.040,2684.00
1308.943,2662.00
1309.847,2843.00
1310.752,2800.00
1311.655,2311.00
1312.558,2421.00
1313.463,2564.00
1314.366,2515.00
1315.269,2685.00
1316.171,2618.00
1317.076,2538.00
1317.978,2405.00
1318.881,2274.00
1319.785,2498.00
1320.687,2501.00
1321.589,2264.00
1322.491,2466.00
1323.395,2716.00
1324.297,3181.00
1325.198,2802.00
1326.102,2421.00
1327.004,2437.00
1327.905,3016.00
1328.806,2582.00
1329.709,2685.00
1330.611,2559.00
1331.512,2419.00
1332.413,3093.00
1333.316,2684.00
1334.216,2783.00
1335.117,2379.00
1336.020,2615.00
1336.920,2647.00
1337.821,2473.00
1338.721,2930.00
1339.623,2718.00
1340.523,2607.00
1341.423,2467.00
1342.323,2915.00
1343.225,2717.00
1344.125,2468.00
1345.025,2506.00
1345.924,2298.00
1346.826,2958.00
1347.725,3023.00
1348.624,2852.00
1349.524,2464.00
1350.425,2596.00
1351.324,2725.00
1352.223,2778.00
1353.121,2660.00
1354.022,2833.00
1354.921,2984.00
1355.819,2755.00
1356.718,2677.00
1357.618,2420.00
1358.516,2711.00
1359.415,2977.00
1360.313,2734.00
1361.213,2606.00
1362.111,2936.00
1363.008,3222.00
1363.906,2602.00
1364.806,2644.00
1365.703,2744.00
1366.601,2433.00
1367.498,2429.00
1368.397,2813.00
1369.295,2688.00
1370.192,2441.00
1371.089,2694.00
1371.987,2643.00
1372.884,2850.00
1373.781,2432.00
1374.678,2634.00
1375.574,2457.00
1376.473,2746.00
1377.369,2861.00
1378.265,2485.00
1379.161,2564.00
1380.059,2334.00
1380.955,2761.00
1381.851,2426.00
1382.747,2547.00
1383.643,2544.00
1384.540,2437.00
1385.436,2558.00
1386.331,2721.00
1387.227,2766.00
1388.124,2717.00
1389.019,2467.00
1389.914,2584.00
1390.809,2303.00
1391.704,3048.00
1392.601,2502.00
1393.495,2922.00
1394.390,2792.00
1395.285,2839.00
1396.179,2717.00
1397.075,2613.00
1397.969,2701.00
1398.864,2320.00
1399.758,2583.00
1400.652,2619.00
1401.547,2471.00
1402.441,2390.00
1403.335,2945.00
1404.229,2666.00
1405.122,2746.00
1406.017,2610.00
1406.911,2788.00
1407.804,3003.00
1408.697,2616.00
1409.590,2465.00
1410.485,2817.00
1411.378,2696.00
1412.271,2370.00
1413.163,2685.00
1414.056,2791.00
1414.949,3003.00
1415.843,2668.00
1416.735,2592.00
1417.627,2627.00
1418.520,2586.00
1419.412,2838.00
1420.306,2825.00
1421.197,2913.00
1422.089,2834.00
1422.981,3081.00
1423.873,2825.00
1424.764,2739.00
1425.657,2639.00
1426.549,2752.00
1427.440,2810.00
1428.331,2542.00
1429.222,2315.00
1430.113,2686.00
1431.006,2809.00
1431.897,2537.00
1432.787,2620.00
1433.678,2598.00
1434.568,2444.00
1435.459,2910.00
1436.351,2786.00
1437.241,2780.00
1438.131,2793.00
1439.021,2405.00
1439.911,2628.00
1440.801,2668.00
1441.693,2840.00
1442.583,2658.00
1443.472,2638.00
1444.362,2741.00
1445.251,2576.00
1446.140,2568.00
1447.030,2813.00
1447.921,2828.00
1448.810,2487.00
1449.699,2988.00
1450.588,2649.00
1451.476,2555.00
1452.365,2769.00
1453.254,2535.00
1454.144,2585.00
1455.032,2798.00
1455.921,2394.00
1456.809,2934.00
1457.697,2435.00
1458.585,2571.00
1459.473,2557.00
1460.361,2477.00
1461.251,2669.00
1462.138,2702.00
1463.026,2614.00
1463.913,2874.00
1464.801,2539.00
1465.688,2767.00
1466.575,2652.00
1467.463,3084.00
1468.351,2536.00
1469.238,2618.00
1470.125,2271.00
1471.012,2716.00
1471.899,2733.00
1472.785,2489.00
1473.672,2652.00
1474.558,2843.00
1475.446,2789.00
1476.333,2826.00
1477.219,2470.00
1478.105,2612.00
1478.991,2595.00
1479.877,2942.00
1480.762,2616.00
1481.648,2537.00
1482.534,2800.00
1483.419,2658.00
1484.307,2776.00
1485.192,2601.00
1486.077,2491.00
1486.962,2500.00
1487.847,2373.00
1488.732,2496.00
1489.617,2687.00
1490.502,2914.00
1491.387,2793.00
1492.271,2483.00
1493.156,2477.00
1494.042,2447.00
1494.927,2797.00
1495.811,2570.00
1496.695,2771.00
1497.579,2895.00
1498.463,2655.00
1499.347,2678.00
1500.231,2680.00
1501.114,2711.00
1501.998,2915.00
1502.881,2687.00
1503.765,2917.00
1504.648,3068.00
1505.533,2746.00
1506.417,2646.00
1507.300,2598.00
1508.183,2710.00
1509.066,2165.00
1509.948,2876.00
1510.831,3013.00
1511.714,2449.00
1512.596,2773.00
1513.479,2863.00
1514.361,2873.00
1515.243,2671.00
1516.125,2799.00
1517.008,2887.00
1517.890,2574.00
1518.771,2687.00
1519.655,2863.00
1520.537,2630.00
1521.419,2498.00
1522.300,2692.00
1523.182,2790.00
1524.063,2770.00
1524.944,2924.00
1525.825,2840.00
1526.707,2449.00
1527.588,2445.00
1528.468,2733.00
1529.349,2336.00
1530.230,2612.00
1531.111,2815.00
1531.991,2683.00
1532.872,2338.00
1533.752,2665.00
1534.632,2537.00
1535.513,2522.00
1536.393,2799.00
1537.273,2969.00
1538.153,3290.00
1539.032,2423.00
1539.912,2612.00
1540.792,2682.00
1541.672,2623.00
1542.551,2741.00
1543.430,3215.00
1544.310,2696.00
1545.189,2560.00
1546.068,3066.00
1546.947,2751.00
1547.826,2963.00
1548.705,2632.00
1549.584,2849.00
1550.462,2609.00
1551.341,2823.00
1552.219,2698.00
1553.098,2805.00
1553.976,2895.00
1554.854,3035.00
1555.733,2867.00
1556.611,2565.00
1557.489,2438.00
1558.367,2659.00
1559.244,2823.00
1560.122,2623.00
1561.000,2731.00
1561.877,2968.00
1562.755,2510.00
1563.632,2635.00
1564.509,2894.00
1565.386,2998.00
1566.264,2428.00
1567.141,2301.00
1568.017,2807.00
1568.894,2644.00
1569.771,2681.00
1570.648,2752.00
1571.524,2690.00
1572.401,2415.00
1573.277,2468.00
1574.153,2703.00
1575.029,2521.00
1575.906,3372.00
1576.781,2823.00
1577.657,2597.00
1578.533,2906.00
1579.409,2286.00
1580.285,2641.00
1581.160,3062.00
1582.036,2802.00
1582.911,2497.00
1583.786,3013.00
1584.662,2455.00
1585.537,2613.00
1586.412,2684.00
1587.287,2498.00
1588.160,2854.00
1589.035,2318.00
1589.909,2710.00
1590.784,2633.00
1591.658,2448.00
1592.533,2677.00
1593.407,2704.00
1594.281,2560.00
1595.155,3054.00
1596.029,2604.00
1596.903,2590.00
1597.777,2573.00
1598.651,2920.00
1599.525,2376.00
1600.398,2668.00
1601.272,2653.00
1602.144,3202.00
1603.017,2609.00
1603.890,2928.00
1604.763,2740.00
1605.636,2783.00
1606.509,2336.00
1607.382,2534.00
1608.255,2720.00
1609.128,2897.00
1610.000,2639.00
1610.873,2397.00
1611.746,2536.00
1612.616,2573.00
1613.488,2250.00
1614.361,2654.00
1615.233,2614.00
1616.105,2877.00
1616.977,2559.00
1617.849,2505.00
1618.720,2948.00
1619.592,2941.00
1620.464,2770.00
1621.333,3099.00
1622.205,2678.00
1623.076,2628.00
1623.947,2662.00
1624.818,2896.00
1625.689,2747.00
1626.560,2569.00
1627.431,2708.00
1628.302,3036.00
1629.171,2796.00
1630.042,2943.00
1630.912,3590.00
1631.782,3260.00
1632.653,2489.00
1633.523,2785.00
1634.393,2874.00
1635.263,2568.00
1636.131,2616.00
1637.001,2583.00
1637.871,2294.00
1638.741,2292.00
1639.611,2393.00
1640.480,2789.00
1641.350,2542.00
1642.219,2512.00
1643.087,2153.00
1643.956,3059.00
1644.825,2931.00
1645.694,2864.00
1646.563,2852.00
1647.432,2715.00
1648.299,2662.00
1649.167,2807.00
1650.036,2484.00
1650.904,2837.00
1651.773,2903.00
1652.641,2689.00
1653.509,2870.00
1654.376,2537.00
1655.244,2711.00
1656.112,2715.00
1656.980,2670.00
1657.847,2544.00
1658.715,2831.00
1659.581,2599.00
1660.448,2855.00
1661.316,2237.00
1662.183,2697.00
1663.051,2710.00
1663.918,2678.00
1664.783,2691.00
1665.650,2750.00
1666.517,2830.00
1667.384,2664.00
1668.251,2733.00
1669.115,2890.00
1669.982,2629.00
1670.849,2921.00
1671.715,2645.00
1672.581,2835.00
1673.446,2761.00
1674.312,2683.00
1675.178,3058.00
1676.044,2703.00
1676.910,2755.00
1677.774,2690.00
1678.639,2346.00
1679.505,2660.00
1680.370,2790.00
1681.236,3290.00
1682.099,2624.00
1682.965,2688.00
1683.830,2320.00
1684.695,2477.00
1685.560,2577.00
1686.423,2800.00
1687.288,2844.00
1688.153,2700.00
1689.017,2615.00
1689.880,2754.00
1690.745,2861.00
1691.609,2549.00
1692.473,2836.00
1693.338,2883.00
1694.200,2937.00
1695.064,2678.00
1695.928,2571.00
1696.792,2696.00
1697.654,3154.00
1698.517,2703.00
1699.381,2429.00
1700.245,2375.00
1701.106,2956.00
1701.969,2568.00
1702.833,2794.00
1703.696,2551.00
1704.557,2611.00
1705.420,2581.00
1706.283,2693.00
1707.146,2809.00
1708.007,2502.00
1708.870,2446.00
1709.732,2358.00
1710.595,2546.00
1711.455,2447.00
1712.318,2584.00
1713.180,2936.00
1714.040,2728.00
1714.902,2852.00
1715.764,2674.00
1716.626,2465.00
1717.486,2644.00
1718.348,2921.00
1719.209,4204.00
1720.071,2340.00
1720.930,2455.00
1721.792,2504.00
1722.653,2519.00
1723.512,2540.00
1724.374,2621.00
1725.234,2747.00
1726.095,2680.00
1726.954,2683.00
1727.815,2785.00
1728.676,2642.00
1729.535,2874.00
1730.395,2624.00
1731.256,2535.00
1732.114,2719.00
1732.974,2168.00
1733.834,2984.00
1734.693,2852.00
1735.553,2679.00
1736.413,3071.00
1737.272,2561.00
1738.130,2605.00
1738.990,2776.00
1739.849,2559.00
1740.707,3662.00
1741.566,2683.00
1742.426,2715.00
1743.283,3081.00
1744.142,2543.00
1745.001,2372.00
1745.858,2855.00
1746.717,2687.00
1747.576,2763.00
1748.433,2827.00
1749.292,3273.00
1750.150,3298.00
1751.007,2878.00
1751.865,2898.00
1752.723,2702.00
1753.579,2610.00
1754.438,2889.00
1755.296,2877.00
1756.152,2225.00
1757.010,2373.00
1757.865,2901.00
1758.723,2343.00
1759.581,2983.00
1760.436,2666.00
1761.294,3031.00
1762.151,2654.00
1763.006,2598.00
1763.864,2335.00
1764.721,2876.00
1765.576,2694.00
1766.433,2816.00
1767.288,2580.00
1768.144,2694.00
1769.001,2616.00
1769.856,2760.00
1770.712,2904.00
1771.568,2465.00
1772.423,2585.00
1773.279,2569.00
1774.133,2540.00
1774.989,3080.00
1775.845,3051.00
1776.699,2890.00
1777.555,2646.00
1778.409,3177.00
1779.265,2668.00
1780.120,2662.00
1780.974,2665.00
1781.829,2289.00
1782.682,2698.00
1783.538,2508.00
1784.393,2728.00
1785.246,2582.00
1786.101,2791.00
1786.954,2805.00
1787.808,2901.00
1788.661,2420.00
1789.516,2632.00
1790.370,2630.00
1791.223,2863.00
1792.077,2671.00
1792.930,2748.00
1793.784,2549.00
1794.636,2677.00
1795.490,2611.00
1796.344,2694.00
1797.196,2685.00
1798.049,2826.00
1798.901,2619.00
1799.755,2927.00
1800.606,2449.00
1801.460,3178.00
1802.311,3001.00
1803.165,3051.00
1804.018,3015.00
1804.869,2786.00
1805.722,3100.00
1806.573,2730.00
1807.426,2546.00
1808.276,2678.00
1809.129,2568.00
1809.980,2881.00
1810.832,2925.00
1811.683,2593.00
1812.535,3001.00
1813.385,2617.00
1814.237,2934.00
1815.089,2699.00
1815.940,2955.00
1816.791,2642.00
1817.641,2518.00
1818.493,2817.00
1819.343,2771.00
1820.194,2530.00
1821.044,2797.00
1821.895,2865.00
1822.745,2415.00
1823.596,2575.00
1824.445,3025.00
1825.296,2807.00
1826.145,2674.00
1826.996,2882.00
1827.845,2730.00
1828.695,2767.00
1829.544,2651.00
1830.395,2701.00
1831.243,2593.00
1832.094,2441.00
1832.942,3267.00
1833.792,2799.00
1834.640,2727.00
1835.490,2690.00
1836.338,2747.00
1837.186,2599.00
1838.036,2523.00
1838.884,2658.00
1839.733,3037.00
1840.581,2855.00
1841.430,2807.00
1842.278,3019.00
1843.127,2613.00
1843.974,2383.00
1844.823,3127.00
1845.671,2843.00
1846.519,2759.00
1847.366,2810.00
1848.213,2334.00
1849.062,2518.00
1849.909,2434.00
1850.757,3302.00
1851.604,2820.00
1852.452,2616.00
1853.298,2872.00
1854.146,2712.00
1854.993,2732.00
1855.839,3188.00
1856.687,2825.00
1857.532,2824.00
1858.380,2700.00
1859.226,2729.00
1860.073,2805.00
1860.919,2514.00
1861.765,2593.00
1862.612,2945.00
1863.457,2890.00
1864.304,2647.00
1865.150,2809.00
1865.995,2694.00
1866.842,2863.00
1867.686,2913.00
1868.533,2771.00
1869.378,2758.00
1870.223,2724.00
1871.069,2602.00
1871.914,2695.00
1872.760,2695.00
1873.604,2469.00
1874.448,2828.00
1875.294,2856.00
1876.139,2594.00
1876.984,2819.00
1877.828,2386.00
1878.672,2205.00
1879.518,2572.00
1880.361,2888.00
1881.205,2863.00
1882.050,2537.00
1882.894,3178.00
1883.739,2549.00
1884.582,2488.00
1885.425,2518.00
1886.270,2919.00
1887.113,2453.00
1887.956,2786.00
1888.801,2761.00
1889.644,2493.00
1890.486,2319.00
1891.331,2638.00
1892.173,2696.00
1893.017,2767.00
1893.860,3018.00
1894.702,3006.00
1895.546,2692.00
1896.388,3373.00
1897.230,3051.00
1898.074,2616.00
1898.916,2468.00
1899.757,2549.00
1900.601,3355.00
1901.443,2955.00
1902.284,2953.00
1903.125,3169.00
1903.969,2882.00
1904.810,2935.00
1905.651,2774.00
1906.494,2971.00
1907.335,3183.00
1908.176,2844.00
1909.018,2814.00
1909.859,2681.00
1910.700,2570.00
1911.542,3218.00
1912.383,2764.00
1913.223,2345.00
1914.064,2838.00
1914.906,2977.00
1915.746,3032.00
1916.586,3157.00
1917.428,2695.00
1918.268,2724.00
1919.107,2590.00
1919.947,2476.00
1920.789,2642.00
1921.628,2898.00
1922.468,2696.00
1923.309,2568.00
1924.148,2988.00
1924.988,2749.00
1925.827,2720.00
1926.667,2585.00
1927.507,2753.00
1928.345,2552.00
1929.184,2862.00
1930.025,2536.00
1930.864,2950.00
1931.702,3003.00
1932.541,2601.00
1933.381,2837.00
1934.219,2837.00
1935.057,2988.00
1935.896,2447.00
1936.735,2670.00
1937.573,2606.00
1938.411,2523.00
1939.249,2865.00
1940.089,2619.00
1940.927,2908.00
1941.764,2988.00
1942.602,2642.00
1943.439,2599.00
1944.278,2671.00
1945.115,2621.00
1945.953,2457.00
1946.790,2776.00
1947.628,3071.00
1948.465,2851.00
1949.302,2863.00
1950.139,2874.00
1950.976,2588.00
1951.814,2918.00
1952.651,2762.00
1953.487,2546.00
1954.323,2936.00
1955.160,2700.00
1955.998,3045.00
1956.834,2692.00
1957.670,2805.00
1958.506,2908.00
1959.342,2816.00
1960.177,2751.00
1961.015,2860.00
1961.850,2763.00
1962.686,2780.00
1963.521,2761.00
1964.357,2983.00
1965.192,2492.00
1966.029,2867.00
1966.864,2637.00
1967.699,2951.00
1968.534,2735.00
1969.369,3005.00
1970.204,2683.00
1971.040,2722.00
1971.875,2654.00
1972.709,2750.00
1973.544,2555.00
1974.378,2595.00
1975.212,2821.00
1976.047,2604.00
1976.882,2553.00
1977.716,3114.00
1978.550,2422.00
1979.384,2614.00
1980.218,2697.00
1981.052,2702.00
1981.885,2745.00
1982.719,2709.00
1983.554,2885.00
1984.388,2979.00
1985.221,2753.00
1986.054,2950.00
1986.887,2815.00
1987.720,2555.00
1988.553,2986.00
1989.386,2779.00
1990.219,2885.00
1991.053,3010.00
1991.886,2642.00
1992.719,2912.00
1993.551,2247.00
1994.383,2878.00
1995.216,2588.00
1996.048,2461.00
1996.880,2889.00
1997.712,2610.00
1998.544,2724.00
1999.376,2820.00
2000.208,3011.00
