RamanScope Measure Spectrum Data V3.72

<< MEASURE CONDITION >>
Exposure Type,Aver
Exposure Time [sec],15
Exposure Count,30
Measure Time,2023/07/04 17:18:14
Data Name,""
Data Comment,""
Rayleigh Wave[nm],532.0

<< SAMPLE SPECTRUM >>
Wave[dcm-1],No297
146.591,372.00
147.626,449.37
148.664,501.90
149.699,551.43
150.737,641.10
151.772,777.13
152.809,809.90
153.846,939.07
154.881,1048.63
155.918,1094.90
156.953,1154.13
157.989,1255.83
159.026,1316.37
160.060,1328.03
161.096,1394.50
162.130,1439.93
163.167,1482.43
164.200,1533.27
165.236,1494.20
166.272,1551.27
167.305,1554.80
168.341,1609.80
169.374,1660.10
170.409,1656.03
171.445,1668.70
172.477,1689.70
173.512,1734.67
174.545,1777.60
175.580,1785.87
176.614,1764.43
177.647,1832.60
178.681,1845.23
179.713,1893.83
180.747,1902.77
181.781,1891.53
182.813,1859.83
183.847,1867.80
184.878,1863.03
185.912,1901.20
186.945,1878.97
187.976,1895.97
189.010,1875.70
190.043,1973.77
191.073,1956.90
192.106,1970.83
193.137,1993.43
194.170,2036.63
195.202,2036.80
196.232,2114.47
197.265,2166.73
198.297,2158.50
199.327,2170.13
200.359,2245.67
201.388,2313.17
202.420,2335.90
203.452,2369.40
204.481,2515.33
205.512,2595.80
206.544,2698.17
207.573,2814.40
208.604,2917.10
209.635,3067.10
210.663,3211.90
211.694,3388.10
212.725,3585.53
213.753,3812.40
214.783,4031.33
215.813,4277.30
216.841,4483.50
217.871,4724.70
218.899,4928.73
219.929,5143.07
220.959,5235.97
221.986,5274.53
223.016,5225.07
224.045,5064.00
225.072,4987.33
226.101,4754.00
227.130,4533.03
228.157,4252.43
229.185,4063.20
230.214,3836.10
231.241,3658.50
232.269,3500.23
233.297,3374.50
234.323,3264.67
235.351,3179.60
236.379,3088.00
237.407,3034.50
238.433,2973.00
239.460,2860.93
240.488,2939.83
241.513,2875.63
242.540,2857.50
243.568,2765.67
244.592,2808.70
245.619,2797.77
246.646,2798.30
247.671,2831.43
248.697,2833.83
249.724,2833.70
250.748,2838.63
251.774,2843.17
252.801,2892.73
253.827,2896.20
254.850,2941.03
255.876,2935.70
256.902,3009.30
257.925,3000.00
258.951,3072.40
259.976,3114.50
260.999,3136.87
262.024,3214.80
263.049,3313.47
264.074,3301.33
265.097,3407.67
266.122,3467.17
267.146,3570.50
268.168,3622.97
269.193,3701.83
270.217,3779.40
271.241,3874.40
272.263,3983.47
273.287,4091.97
274.311,4103.90
275.332,4204.83
276.356,4240.40
277.379,4298.00
278.402,4327.50
279.424,4341.60
280.447,4357.63
281.470,4314.87
282.492,4302.43
283.513,4232.97
284.536,4209.13
285.558,4138.00
286.581,4066.03
287.601,4006.87
288.623,3895.67
289.645,3798.37
290.665,3720.27
291.687,3667.03
292.709,3569.60
293.730,3440.10
294.750,3348.67
295.771,3281.53
296.792,3209.50
297.813,3119.67
298.832,3011.77
299.853,2939.33
300.874,2882.83
301.895,2776.17
302.913,2747.87
303.934,2700.40
304.954,2622.97
305.975,1703.30
306.993,2433.27
308.013,2409.33
309.033,2338.60
310.052,2346.73
311.072,2301.27
312.090,2250.77
313.109,2219.27
314.129,2226.00
315.148,2162.80
316.165,2130.47
317.184,2092.10
318.203,2072.93
319.222,2047.10
320.238,1997.03
321.257,2025.27
322.275,2007.93
323.294,2001.70
324.312,1983.50
325.328,1969.73
326.346,1960.07
327.364,1911.67
328.382,1937.33
329.397,1923.80
330.415,1903.77
331.432,1924.50
332.450,1906.07
333.467,1851.90
334.482,1880.57
335.499,1863.27
336.516,1869.03
337.533,1806.53
338.547,1866.07
339.564,1854.10
340.580,1871.00
341.597,1826.93
342.613,1796.07
343.627,1857.00
344.643,1827.50
345.659,1849.57
346.675,1841.07
347.690,1865.97
348.704,1863.20
349.719,1828.70
350.735,1918.83
351.750,1841.13
352.765,1802.43
353.778,1834.90
354.793,1864.87
355.808,1869.73
356.822,1851.87
357.837,1896.80
358.851,1906.77
359.864,1922.23
360.878,1897.27
361.892,1889.80
362.906,1894.43
363.920,1905.53
364.932,1965.57
365.945,1931.37
366.959,1915.27
367.972,1933.70
368.986,1955.37
369.999,1950.83
371.010,1969.67
372.023,1976.17
373.036,2036.27
374.049,2056.73
375.061,2067.33
376.072,2125.03
377.084,2074.73
378.097,2084.77
379.109,2093.47
380.121,2098.27
381.133,2139.63
382.143,2114.33
383.155,2136.07
384.166,2161.87
385.178,2126.77
386.189,2167.67
387.201,2164.80
388.212,2159.60
389.221,2156.73
390.232,2117.30
391.243,2114.03
392.254,2084.20
393.264,2079.33
394.275,2102.27
395.283,2121.97
396.294,2084.00
397.304,2095.57
398.314,2041.77
399.324,2037.53
400.334,2029.30
401.344,2002.47
402.351,2015.80
403.361,1937.33
404.370,1911.87
405.380,1959.80
406.389,1910.97
407.398,1906.67
408.407,1847.80
409.414,1875.97
410.423,1855.10
411.431,1877.33
412.440,1796.43
413.448,1817.43
414.457,1734.40
415.465,1758.60
416.471,1747.20
417.479,1740.73
418.487,1729.87
419.495,1699.80
420.503,1702.90
421.510,1713.40
422.518,1667.97
423.525,1674.47
424.530,1661.27
425.537,1657.67
426.544,1651.00
427.551,1650.20
428.558,1663.67
429.565,1613.93
430.571,1617.33
431.578,1608.10
432.582,1625.20
433.588,1636.67
434.595,1590.53
435.601,1616.17
436.607,1593.80
437.612,1595.83
438.618,1577.53
439.624,1563.27
440.627,1551.03
441.633,1578.53
442.638,1595.20
443.643,1569.23
444.648,1577.80
445.653,1549.70
446.658,1547.50
447.663,1596.43
448.667,1567.10
449.672,1609.50
450.674,1564.43
451.678,1553.63
452.682,1553.50
453.687,1586.50
454.690,1554.10
455.694,1553.90
456.698,1588.07
457.702,1577.17
458.705,1611.10
459.709,1567.73
460.710,1567.87
461.713,1590.50
462.716,1628.23
463.719,1614.93
464.722,1615.77
465.725,1577.33
466.727,1636.27
467.730,1641.63
468.732,1646.57
469.735,1630.80
470.737,1597.33
471.737,1602.93
472.739,1676.97
473.741,1637.10
474.742,1664.10
475.744,1623.87
476.746,1613.53
477.747,1637.33
478.748,1685.83
479.750,1631.30
480.751,1646.23
481.752,1661.03
482.753,1643.40
483.751,1599.60
484.752,1643.57
485.753,1659.20
486.753,1624.43
487.753,1654.47
488.754,1640.40
489.754,1640.20
490.754,1624.00
491.754,1638.80
492.754,1616.23
493.753,1650.10
494.753,1666.73
495.752,1606.57
496.752,1606.10
497.749,1637.97
498.748,1650.67
499.747,1634.87
500.746,1647.50
501.745,1580.47
502.744,1604.00
503.742,1603.80
504.741,1616.83
505.739,1593.90
506.737,1595.17
507.735,1570.77
508.734,1559.23
509.732,1598.00
510.729,1609.77
511.727,1550.87
512.725,1570.87
513.720,1574.23
514.718,1526.60
515.715,1586.67
516.712,1560.43
517.709,1554.70
518.706,1557.63
519.703,1591.03
520.700,1544.53
521.696,1479.87
522.693,1523.47
523.689,1524.73
524.686,1550.47
525.682,1574.03
526.678,1535.60
527.674,1549.67
528.670,1561.37
529.666,1534.10
530.661,1539.23
531.657,1668.60
532.652,1533.73
533.648,1511.87
534.641,1560.00
535.636,1559.17
536.631,1621.00
537.626,1571.33
538.621,1567.00
539.616,1586.87
540.610,1551.07
541.605,1607.70
542.599,1595.83
543.593,1578.23
544.587,1579.00
545.581,1611.30
546.575,1609.63
547.569,1625.87
548.563,1589.77
549.557,1560.57
550.550,1606.50
551.543,1627.10
552.537,1629.17
553.530,1600.20
554.523,1598.73
555.516,1580.40
556.509,1629.73
557.502,1648.67
558.494,1618.40
559.487,1635.33
560.479,1599.03
561.472,1659.53
562.464,1643.13
563.456,1608.97
564.448,1616.27
565.440,1656.27
566.432,1718.40
567.423,1658.57
568.415,1665.57
569.404,1668.07
570.396,1713.93
571.387,1700.33
572.378,1739.87
573.369,1727.70
574.360,1683.17
575.351,1730.57
576.341,1706.07
577.332,1732.73
578.323,1788.17
579.313,1709.93
580.303,1770.47
581.293,1762.90
582.283,1734.60
583.273,1762.60
584.263,1760.10
585.253,1712.03
586.243,1724.47
587.232,1736.03
588.222,1787.27
589.211,1780.80
590.200,1748.83
591.189,1755.93
592.178,1776.10
593.167,1733.47
594.156,1738.73
595.145,1727.63
596.133,1680.00
597.122,1735.80
598.110,1680.20
599.098,1712.37
600.086,1668.43
601.074,1677.47
602.062,1700.57
603.050,1648.40
604.038,1628.93
605.025,1648.23
606.013,1601.17
607.000,1611.53
607.987,1602.43
608.975,1613.53
609.962,1603.43
610.949,1632.50
611.936,1597.10
612.922,1611.70
613.909,1607.77
614.895,1564.13
615.882,1597.63
616.868,1572.60
617.854,1597.07
618.841,1522.77
619.826,1495.10
620.812,1524.60
621.798,1537.03
622.784,1472.50
623.769,1511.63
624.755,1516.80
625.740,1491.30
626.725,1482.13
627.711,1464.20
628.698,1486.97
629.683,1434.03
630.667,1464.97
631.652,1458.77
632.637,1446.00
633.621,1443.10
634.606,1461.93
635.590,1440.57
636.574,1444.53
637.558,1403.97
638.542,1408.93
639.526,1401.33
640.510,1402.80
641.493,1390.80
642.477,1374.53
643.460,1439.30
644.444,1373.37
645.427,1383.53
646.410,1382.27
647.393,1396.00
648.376,1365.97
649.359,1330.40
650.341,1350.57
651.324,1323.63
652.307,1332.20
653.289,1304.60
654.271,1300.47
655.253,1306.10
656.235,1300.03
657.217,1291.93
658.199,1325.67
659.181,1303.57
660.163,1317.03
661.144,1318.33
662.126,1264.33
663.107,1296.43
664.088,1326.47
665.069,1327.53
666.050,1302.63
667.033,1307.00
668.014,1229.63
668.995,1241.87
669.975,1262.40
670.956,1284.37
671.936,1235.33
672.916,1233.77
673.896,1223.37
674.876,1227.57
675.856,1253.27
676.836,1235.70
677.816,1223.17
678.795,1200.47
679.775,1198.80
680.754,1213.27
681.734,1215.40
682.713,1197.80
683.692,1186.10
684.671,1235.37
685.650,1197.67
686.629,1156.10
687.607,1196.40
688.586,1184.60
689.564,1141.30
690.543,1185.83
691.523,1173.87
692.501,1174.67
693.479,1147.70
694.457,1122.80
695.435,1153.97
696.413,1157.30
697.390,1177.17
698.368,1126.00
699.345,1162.07
700.322,1120.50
701.300,1097.30
702.277,1120.17
703.254,1110.57
704.231,1110.37
705.207,1101.37
706.184,1129.10
707.161,1080.97
708.137,1136.60
709.113,1119.73
710.090,1113.63
711.068,1097.97
712.044,1075.40
713.020,1123.17
713.996,1049.40
714.971,1122.83
715.947,1065.23
716.922,1094.00
717.898,1096.20
718.873,1093.83
719.848,1105.70
720.823,1107.30
721.798,1085.33
722.773,1093.50
723.748,1067.50
724.723,1088.77
725.697,1081.80
726.672,1098.13
727.646,1069.07
728.622,1048.83
729.596,1069.90
730.570,1082.90
731.544,1043.53
732.518,1082.10
733.492,1073.97
734.466,1067.17
735.439,1031.07
736.413,1013.97
737.386,1060.07
738.359,1046.00
739.332,1036.47
740.305,1051.17
741.278,1040.40
742.251,1006.47
743.224,1057.20
744.196,1045.50
745.171,1041.50
746.143,1022.47
747.115,1045.00
748.087,1015.73
749.059,1048.17
750.031,1053.47
751.003,1026.07
751.975,1031.43
752.947,1002.23
753.918,1023.17
754.890,1049.53
755.861,1019.97
756.832,1016.07
757.803,1066.77
758.774,1013.00
759.747,1032.87
760.718,1057.00
761.689,976.73
762.659,1026.60
763.630,1036.33
764.600,992.30
765.570,975.93
766.540,974.40
767.510,1034.23
768.480,1026.83
769.450,1023.50
770.420,1011.10
771.390,996.97
772.359,1001.17
773.329,975.93
774.300,986.43
775.269,988.50
776.238,1010.97
777.207,1022.93
778.176,930.53
779.145,971.23
780.114,961.70
781.083,1008.93
782.051,987.20
783.019,962.30
783.988,984.60
784.956,958.13
785.924,964.37
786.894,955.60
787.862,958.73
788.830,941.40
789.797,990.00
790.765,957.80
791.732,940.63
792.700,994.37
793.667,930.37
794.634,953.53
795.601,955.20
796.568,940.27
797.535,959.00
798.502,954.03
799.468,932.50
800.437,916.77
801.403,945.90
802.370,983.57
803.336,924.67
804.302,963.47
805.268,936.90
806.234,959.00
807.200,946.57
808.166,944.43
809.131,953.20
810.097,952.00
811.062,891.97
812.027,931.93
812.994,911.13
813.960,977.37
814.925,952.27
815.889,912.97
816.854,899.60
817.819,927.50
818.783,947.50
819.748,896.67
820.712,924.17
821.677,940.63
822.641,948.23
823.605,908.80
824.571,883.07
825.534,934.80
826.498,919.50
827.462,903.07
828.425,911.67
829.389,887.60
830.352,925.60
831.315,875.90
832.279,901.83
833.242,889.93
834.204,885.43
835.167,923.93
836.132,864.47
837.095,899.90
838.057,915.77
839.020,899.07
839.982,884.20
840.944,915.03
841.906,906.37
842.868,924.23
843.830,870.90
844.792,849.33
845.753,891.07
846.715,873.53
847.679,908.00
848.640,920.60
849.601,884.00
850.562,889.50
851.523,866.53
852.484,894.93
853.445,868.03
854.406,914.00
855.367,847.23
856.327,864.20
857.288,868.47
858.248,891.93
859.210,855.00
860.170,836.13
861.130,861.50
862.090,853.50
863.050,876.73
864.010,888.70
864.969,869.00
865.929,867.57
866.888,870.93
867.848,872.37
868.807,879.03
869.766,901.60
870.727,854.17
871.686,826.17
872.645,818.93
873.604,886.97
874.562,864.00
875.521,881.73
876.479,846.23
877.437,875.17
878.396,862.33
879.354,864.00
880.312,866.17
881.270,841.40
882.229,883.80
883.187,835.77
884.145,837.00
885.102,858.23
886.059,856.53
887.017,879.20
887.974,870.60
888.931,850.60
889.888,874.30
890.845,847.67
891.802,863.17
892.758,873.07
893.717,868.47
894.673,865.47
895.630,847.03
896.586,818.93
897.542,861.77
898.498,896.37
899.454,863.20
900.410,826.27
901.366,830.80
902.321,870.00
903.277,876.73
904.232,808.90
905.189,816.80
906.145,804.07
907.100,859.73
908.055,829.40
909.010,838.23
909.965,816.53
910.919,836.47
911.874,846.23
912.828,856.20
913.783,849.10
914.737,835.97
915.693,826.77
916.648,857.90
917.602,837.30
918.555,866.77
919.509,800.73
920.463,860.97
921.417,853.13
922.370,821.43
923.324,792.97
924.277,846.20
925.230,808.57
926.183,834.30
927.138,846.40
928.091,842.33
929.044,845.43
929.996,833.00
930.949,814.47
931.902,869.57
932.854,795.37
933.806,826.07
934.758,816.10
935.711,826.20
936.663,819.53
937.614,856.27
938.568,770.23
939.520,849.57
940.471,836.50
941.423,823.07
942.374,821.33
943.326,823.17
944.277,846.77
945.228,813.07
946.179,848.00
947.130,823.07
948.080,822.47
949.031,801.70
949.984,821.17
950.934,764.73
951.884,802.10
952.835,850.93
953.785,866.20
954.735,835.63
955.685,814.43
956.635,791.50
957.585,832.50
958.534,819.60
959.484,795.57
960.433,865.83
961.383,785.73
962.334,828.87
963.283,818.60
964.232,833.83
965.181,852.53
966.130,823.93
967.079,820.80
968.027,835.90
968.976,814.80
969.924,839.67
970.873,838.97
971.821,783.93
972.769,821.43
973.719,856.87
974.667,845.73
975.615,808.40
976.562,840.47
977.510,824.00
978.458,846.43
979.405,805.70
980.352,826.43
981.300,827.20
982.247,808.57
983.194,840.00
984.141,844.43
985.088,811.83
986.036,834.87
986.983,787.83
987.930,833.60
988.876,852.93
989.822,823.97
990.769,810.60
991.715,852.97
992.661,829.63
993.607,811.27
994.553,874.87
995.498,820.90
996.444,825.43
997.389,835.13
998.337,850.97
999.282,825.43
1000.227,873.87
1001.173,858.97
1002.118,797.80
1003.062,810.63
1004.007,840.07
1004.952,809.60
1005.897,804.00
1006.841,801.53
1007.786,806.70
1008.730,862.97
1009.674,838.27
1010.618,853.60
1011.564,865.03
1012.508,807.60
1013.452,800.37
1014.396,851.23
1015.339,860.10
1016.283,822.27
1017.226,848.97
1018.170,816.43
1019.113,838.97
1020.056,845.00
1020.999,800.90
1021.942,839.93
1022.885,825.17
1023.828,834.90
1024.770,860.10
1025.715,883.57
1026.657,844.60
1027.600,796.70
1028.542,847.23
1029.484,841.60
1030.426,835.43
1031.368,802.53
1032.310,843.17
1033.251,854.23
1034.193,841.27
1035.135,855.00
1036.076,832.57
1037.017,847.37
1037.959,860.37
1038.900,857.07
1039.843,852.90
1040.784,804.93
1041.725,897.97
1042.665,820.87
1043.606,834.93
1044.547,861.33
1045.487,820.40
1046.427,825.17
1047.368,854.23
1048.308,830.30
1049.248,839.87
1050.188,875.57
1051.128,828.00
1052.067,842.23
1053.007,847.50
1053.947,874.43
1054.886,852.50
1055.827,855.13
1056.766,869.53
1057.706,826.97
1058.645,850.80
1059.584,860.37
1060.522,837.60
1061.461,842.90
1062.400,862.03
1063.338,856.57
1064.277,869.30
1065.215,876.93
1066.154,842.83
1067.092,871.63
1068.030,859.80
1068.968,876.10
1069.906,894.93
1070.843,862.10
1071.781,865.20
1072.720,836.33
1073.658,891.47
1074.595,883.20
1075.533,889.23
1076.470,877.23
1077.407,876.03
1078.344,869.73
1079.281,880.03
1080.217,863.43
1081.154,877.17
1082.091,876.10
1083.027,885.53
1083.964,896.37
1084.900,915.33
1085.836,854.97
1086.772,913.13
1087.708,841.77
1088.644,871.37
1089.580,851.23
1090.515,872.67
1091.451,854.03
1092.388,892.20
1093.324,904.47
1094.259,894.53
1095.194,909.80
1096.129,867.73
1097.064,874.40
1097.999,878.00
1098.934,859.43
1099.869,908.23
1100.803,858.63
1101.738,889.50
1102.672,876.20
1103.607,881.73
1104.541,871.53
1105.475,917.70
1106.409,893.60
1107.343,877.70
1108.277,859.23
1109.210,860.37
1110.144,857.43
1111.078,901.40
1112.011,858.40
1112.944,851.80
1113.878,844.40
1114.811,876.10
1115.744,870.60
1116.678,891.13
1117.611,872.70
1118.544,884.60
1119.477,839.07
1120.409,900.57
1121.342,867.13
1122.274,852.83
1123.206,1373.60
1124.138,873.43
1125.070,885.60
1126.002,882.87
1126.934,892.50
1127.866,891.87
1128.798,849.90
1129.729,838.23
1130.661,864.63
1131.592,858.47
1132.523,875.33
1133.454,854.60
1134.385,868.00
1135.317,877.93
1136.247,877.07
1137.178,838.53
1138.109,859.37
1139.039,866.27
1139.970,904.47
1140.900,865.60
1141.831,874.40
1142.761,849.07
1143.691,846.97
1144.621,875.13
1145.551,867.57
1146.480,841.77
1147.410,840.63
1148.340,860.30
1149.269,852.23
1150.199,863.40
1151.128,858.30
1152.057,841.80
1152.979,888.77
1153.898,857.13
1154.819,870.33
1155.739,887.23
1156.658,851.13
1157.579,864.93
1158.498,865.43
1159.419,843.53
1160.338,851.40
1161.256,871.27
1162.177,833.80
1163.095,837.07
1164.016,895.13
1164.934,871.27
1165.852,852.73
1166.772,857.37
1167.690,874.47
1168.610,875.30
1169.528,878.33
1170.446,848.30
1171.365,883.73
1172.283,832.90
1173.202,898.50
1174.120,846.30
1175.037,840.30
1175.956,865.53
1176.873,859.37
1177.792,891.83
1178.709,893.97
1179.626,851.30
1180.544,880.83
1181.461,897.67
1182.379,857.23
1183.296,876.30
1184.212,853.33
1185.130,884.43
1186.046,898.97
1186.962,873.73
1187.880,859.70
1188.796,882.17
1189.714,872.37
1190.629,881.03
1191.545,868.27
1192.462,887.63
1193.378,882.40
1194.295,887.93
1195.210,854.27
1196.125,911.23
1197.042,868.97
1197.957,903.03
1198.872,873.70
1199.788,898.67
1200.703,913.13
1201.619,913.53
1202.534,884.37
1203.448,902.17
1204.364,912.53
1205.278,890.93
1206.192,875.00
1207.108,881.47
1208.022,917.23
1208.938,881.97
1209.851,881.53
1210.765,918.53
1211.680,883.47
1212.594,926.70
1213.507,948.23
1214.422,899.33
1215.335,928.40
1216.248,931.30
1217.163,908.93
1218.076,892.67
1218.990,904.27
1219.903,929.30
1220.816,913.90
1221.730,954.30
1222.642,932.30
1223.554,947.50
1224.469,919.70
1225.380,945.53
1226.292,955.53
1227.206,980.17
1228.118,943.53
1229.032,948.87
1229.943,951.97
1230.855,943.23
1231.768,986.23
1232.679,949.23
1233.590,974.17
1234.503,945.30
1235.414,961.53
1236.325,992.07
1237.238,936.03
1238.149,945.27
1239.059,950.03
1239.972,958.03
1240.882,941.53
1241.793,970.17
1242.705,943.07
1243.615,984.43
1244.525,972.00
1245.437,986.23
1246.347,980.60
1247.259,963.50
1248.168,969.83
1249.078,989.07
1249.989,1033.93
1250.899,974.70
1251.808,974.67
1252.719,1005.37
1253.628,991.60
1254.537,1008.77
1255.448,958.87
1256.357,988.50
1257.266,1027.53
1258.176,975.87
1259.085,1001.50
1259.993,996.50
1260.904,991.53
1261.812,993.27
1262.720,983.00
1263.630,999.20
1264.538,961.23
1265.446,1015.93
1266.356,1038.03
1267.263,952.50
1268.171,955.97
1269.080,1021.23
1269.988,958.67
1270.895,991.87
1271.804,987.03
1272.711,990.33
1273.619,1004.57
1274.527,989.77
1275.434,955.83
1276.341,983.03
1277.248,977.67
1278.156,1005.63
1279.063,1008.93
1279.969,1001.00
1280.877,992.63
1281.783,963.77
1282.690,983.63
1283.598,1001.63
1284.503,1016.23
1285.409,957.30
1286.317,983.10
1287.223,960.13
1288.128,946.77
1289.036,957.87
1289.941,993.83
1290.846,1004.20
1291.751,990.63
1292.658,955.57
1293.563,961.40
1294.468,968.93
1295.375,972.50
1296.280,984.63
1297.184,1011.30
1298.091,904.47
1298.995,953.53
1299.900,933.03
1300.806,958.63
1301.710,947.60
1302.614,943.97
1303.518,940.27
1304.424,967.97
1305.327,921.87
1306.231,960.90
1307.137,927.93
1308.040,922.50
1308.943,911.27
1309.847,912.67
1310.752,898.20
1311.655,902.53
1312.558,926.10
1313.463,908.60
1314.366,869.70
1315.269,891.00
1316.171,901.33
1317.076,893.57
1317.978,889.90
1318.881,887.37
1319.785,875.87
1320.687,870.23
1321.589,840.90
1322.491,870.23
1323.395,852.87
1324.297,802.63
1325.198,862.27
1326.102,859.00
1327.004,867.13
1327.905,852.27
1328.806,874.70
1329.709,852.80
1330.611,841.77
1331.512,834.43
1332.413,771.40
1333.316,848.57
1334.216,874.70
1335.117,863.83
1336.020,859.50
1336.920,816.27
1337.821,828.63
1338.721,837.43
1339.623,816.83
1340.523,801.93
1341.423,770.53
1342.323,787.37
1343.225,791.97
1344.125,849.97
1345.025,787.93
1345.924,773.83
1346.826,757.13
1347.725,794.07
1348.624,810.23
1349.524,779.53
1350.425,772.53
1351.324,802.67
1352.223,754.33
1353.121,790.90
1354.022,763.43
1354.921,804.20
1355.819,766.00
1356.718,770.47
1357.618,756.50
1358.516,751.97
1359.415,738.13
1360.313,781.93
1361.213,751.20
1362.111,717.17
1363.008,708.60
1363.906,738.80
1364.806,736.00
1365.703,725.57
1366.601,734.17
1367.498,709.67
1368.397,711.47
1369.295,694.10
1370.192,749.20
1371.089,698.30
1371.987,696.57
1372.884,721.33
1373.781,738.50
1374.678,720.23
1375.574,711.17
1376.473,686.40
1377.369,691.03
1378.265,729.10
1379.161,693.93
1380.059,703.00
1380.955,712.93
1381.851,683.93
1382.747,686.67
1383.643,695.33
1384.540,680.30
1385.436,681.73
1386.331,673.07
1387.227,675.37
1388.124,717.70
1389.019,753.63
1389.914,676.37
1390.809,658.97
1391.704,678.80
1392.601,675.90
1393.495,670.13
1394.390,702.17
1395.285,646.63
1396.179,636.83
1397.075,686.80
1397.969,634.40
1398.864,677.37
1399.758,647.83
1400.652,642.63
1401.547,660.70
1402.441,637.50
1403.335,670.23
1404.229,638.63
1405.122,670.57
1406.017,647.10
1406.911,654.47
1407.804,660.03
1408.697,636.77
1409.590,640.63
1410.485,657.33
1411.378,663.20
1412.271,655.20
1413.163,656.50
1414.056,636.80
1414.949,626.50
1415.843,637.23
1416.735,638.30
1417.627,626.67
1418.520,600.53
1419.412,631.50
1420.306,630.27
1421.197,612.03
1422.089,619.67
1422.981,644.30
1423.873,649.00
1424.764,649.57
1425.657,615.87
1426.549,663.30
1427.440,656.07
1428.331,634.70
1429.222,629.03
1430.113,622.23
1431.006,599.53
1431.897,592.00
1432.787,615.57
1433.678,583.67
1434.568,607.33
1435.459,620.47
1436.351,597.07
1437.241,600.77
1438.131,627.23
1439.021,605.43
1439.911,579.10
1440.801,615.43
1441.693,601.87
1442.583,627.63
1443.472,609.33
1444.362,587.20
1445.251,587.53
1446.140,607.80
1447.030,627.30
1447.921,609.33
1448.810,607.63
1449.699,645.50
1450.588,582.37
1451.476,610.13
1452.365,576.33
1453.254,588.43
1454.144,596.73
1455.032,605.63
1455.921,580.77
1456.809,604.73
1457.697,591.50
1458.585,581.37
1459.473,572.63
1460.361,589.93
1461.251,636.87
1462.138,601.00
1463.026,599.30
1463.913,592.47
1464.801,579.63
1465.688,576.90
1466.575,540.87
1467.463,592.30
1468.351,547.70
1469.238,612.77
1470.125,566.37
1471.012,558.20
1471.899,606.47
1472.785,581.07
1473.672,611.67
1474.558,584.33
1475.446,560.43
1476.333,581.87
1477.219,577.83
1478.105,573.60
1478.991,565.07
1479.877,567.67
1480.762,551.97
1481.648,599.10
1482.534,553.73
1483.419,590.43
1484.307,595.23
1485.192,576.70
1486.077,570.17
1486.962,571.07
1487.847,575.67
1488.732,578.97
1489.617,552.10
1490.502,589.10
1491.387,568.47
1492.271,564.27
1493.156,556.70
1494.042,562.27
1494.927,557.67
1495.811,582.90
1496.695,575.80
1497.579,556.57
1498.463,563.97
1499.347,545.23
1500.231,560.63
1501.114,529.77
1501.998,558.90
1502.881,521.00
1503.765,592.40
1504.648,575.97
1505.533,559.43
1506.417,535.63
1507.300,530.13
1508.183,521.40
1509.066,567.43
1509.948,563.40
1510.831,523.50
1511.714,549.93
1512.596,518.90
1513.479,535.17
1514.361,550.93
1515.243,567.13
1516.125,550.83
1517.008,529.20
1517.890,514.10
1518.771,539.37
1519.655,553.50
1520.537,562.47
1521.419,554.27
1522.300,551.53
1523.182,529.23
1524.063,546.37
1524.944,588.07
1525.825,540.23
1526.707,556.33
1527.588,579.03
1528.468,508.53
1529.349,502.20
1530.230,554.10
1531.111,553.37
1531.991,528.33
1532.872,561.07
1533.752,551.57
1534.632,520.83
1535.513,515.43
1536.393,568.30
1537.273,547.30
1538.153,519.60
1539.032,527.03
1539.912,521.13
1540.792,532.50
1541.672,511.13
1542.551,513.60
1543.430,520.10
1544.310,567.27
1545.189,523.37
1546.068,522.67
1546.947,542.53
1547.826,528.60
1548.705,533.53
1549.584,519.10
1550.462,534.53
1551.341,519.07
1552.219,517.00
1553.098,547.37
1553.976,547.47
1554.854,520.60
1555.733,543.27
1556.611,516.77
1557.489,533.23
1558.367,524.30
1559.244,539.53
1560.122,501.17
1561.000,550.13
1561.877,560.27
1562.755,536.80
1563.632,537.47
1564.509,535.40
1565.386,521.03
1566.264,504.93
1567.141,541.23
1568.017,518.70
1568.894,526.67
1569.771,545.63
1570.648,532.50
1571.524,502.70
1572.401,511.63
1573.277,499.97
1574.153,550.17
1575.029,537.07
1575.906,571.30
1576.781,510.70
1577.657,527.80
1578.533,513.27
1579.409,497.13
1580.285,506.17
1581.160,512.20
1582.036,512.83
1582.911,499.97
1583.786,526.53
1584.662,508.23
1585.537,520.63
1586.412,502.20
1587.287,541.87
1588.160,524.43
1589.035,562.23
1589.909,527.10
1590.784,516.43
1591.658,498.67
1592.533,458.20
1593.407,504.27
1594.281,533.03
1595.155,528.50
1596.029,527.90
1596.903,533.17
1597.777,513.80
1598.651,513.00
1599.525,503.17
1600.398,528.33
1601.272,477.87
1602.144,507.40
1603.017,534.60
1603.890,501.37
1604.763,511.37
1605.636,521.80
1606.509,522.40
1607.382,495.87
1608.255,514.87
1609.128,488.80
1610.000,492.63
1610.873,530.70
1611.746,505.37
1612.616,541.27
1613.488,519.63
1614.361,543.83
1615.233,497.20
1616.105,530.27
1616.977,525.93
1617.849,486.57
1618.720,486.03
1619.592,532.13
1620.464,538.97
1621.333,492.00
1622.205,520.00
1623.076,488.70
1623.947,533.80
1624.818,541.93
1625.689,484.47
1626.560,512.10
1627.431,460.27
1628.302,507.20
1629.171,487.70
1630.042,555.60
1630.912,457.40
1631.782,476.27
1632.653,501.70
1633.523,506.10
1634.393,486.33
1635.263,500.13
1636.131,497.13
1637.001,515.67
1637.871,484.87
1638.741,486.60
1639.611,511.43
1640.480,463.50
1641.350,496.67
1642.219,484.53
1643.087,478.50
1643.956,499.73
1644.825,500.83
1645.694,494.90
1646.563,495.07
1647.432,497.10
1648.299,508.73
1649.167,502.00
1650.036,501.03
1650.904,542.37
1651.773,523.00
1652.641,515.97
1653.509,480.10
1654.376,514.03
1655.244,506.40
1656.112,525.17
1656.980,502.70
1657.847,500.13
1658.715,531.43
1659.581,515.97
1660.448,486.00
1661.316,520.40
1662.183,486.20
1663.051,523.73
1663.918,487.93
1664.783,517.83
1665.650,513.47
1666.517,525.90
1667.384,537.40
1668.251,497.00
1669.115,493.20
1669.982,487.67
1670.849,505.53
1671.715,483.30
1672.581,489.43
1673.446,447.13
1674.312,490.93
1675.178,478.20
1676.044,469.83
1676.910,517.20
1677.774,506.97
1678.639,493.13
1679.505,456.60
1680.370,487.00
1681.236,495.77
1682.099,493.20
1682.965,501.00
1683.830,493.23
1684.695,443.40
1685.560,492.73
1686.423,483.93
1687.288,542.60
1688.153,500.83
1689.017,519.33
1689.880,495.73
1690.745,467.90
1691.609,484.40
1692.473,510.73
1693.338,478.60
1694.200,470.17
1695.064,516.73
1695.928,485.93
1696.792,492.97
1697.654,511.23
1698.517,488.73
1699.381,490.27
1700.245,498.97
1701.106,469.00
1701.969,505.60
1702.833,500.67
1703.696,521.60
1704.557,496.47
1705.420,478.57
1706.283,515.60
1707.146,501.73
1708.007,473.17
1708.870,461.60
1709.732,459.23
1710.595,486.43
1711.455,478.40
1712.318,463.73
1713.180,455.57
1714.040,497.47
1714.902,484.00
1715.764,484.60
1716.626,473.93
1717.486,493.47
1718.348,479.03
1719.209,487.77
1720.071,468.40
1720.930,504.23
1721.792,475.87
1722.653,448.00
1723.512,487.23
1724.374,477.80
1725.234,463.07
1726.095,495.70
1726.954,452.77
1727.815,462.53
1728.676,485.90
1729.535,489.80
1730.395,478.47
1731.256,486.00
1732.114,434.57
1732.974,489.80
1733.834,510.87
1734.693,418.60
1735.553,463.60
1736.413,524.20
1737.272,476.87
1738.130,471.13
1738.990,484.93
1739.849,500.70
1740.707,444.23
1741.566,504.80
1742.426,464.27
1743.283,462.77
1744.142,461.60
1745.001,453.70
1745.858,469.30
1746.717,492.53
1747.576,459.73
1748.433,425.13
1749.292,471.60
1750.150,497.30
1751.007,474.33
1751.865,473.47
1752.723,536.37
1753.579,472.43
1754.438,439.60
1755.296,502.83
1756.152,493.63
1757.010,468.67
1757.865,506.63
1758.723,498.77
1759.581,488.87
1760.436,451.10
1761.294,464.07
1762.151,513.30
1763.006,446.37
1763.864,483.67
1764.721,480.07
1765.576,451.10
1766.433,480.50
1767.288,496.10
1768.144,493.30
1769.001,439.37
1769.856,475.37
1770.712,462.77
1771.568,479.47
1772.423,461.70
1773.279,474.37
1774.133,493.23
1774.989,508.47
1775.845,492.30
1776.699,471.60
1777.555,487.43
1778.409,497.50
1779.265,505.77
1780.120,467.40
1780.974,458.43
1781.829,512.60
1782.682,492.00
1783.538,484.00
1784.393,473.90
1785.246,476.00
1786.101,496.73
1786.954,470.13
1787.808,487.17
1788.661,515.70
1789.516,482.37
1790.370,492.93
1791.223,492.13
1792.077,467.00
1792.930,493.20
1793.784,482.63
1794.636,480.10
1795.490,469.23
1796.344,482.90
1797.196,500.40
1798.049,485.37
1798.901,464.00
1799.755,445.57
1800.606,449.60
1801.460,499.73
1802.311,475.13
1803.165,470.93
1804.018,496.20
1804.869,479.93
1805.722,497.37
1806.573,456.33
1807.426,467.53
1808.276,478.90
1809.129,470.63
1809.980,517.30
1810.832,503.87
1811.683,486.23
1812.535,516.50
1813.385,461.93
1814.237,484.90
1815.089,516.67
1815.940,483.90
1816.791,473.73
1817.641,468.83
1818.493,492.17
1819.343,472.30
1820.194,504.37
1821.044,475.53
1821.895,484.63
1822.745,477.10
1823.596,498.20
1824.445,483.17
1825.296,431.30
1826.145,477.47
1826.996,470.20
1827.845,513.63
1828.695,438.13
1829.544,453.37
1830.395,485.87
1831.243,449.50
1832.094,455.90
1832.942,471.57
1833.792,461.47
1834.640,503.17
1835.490,437.80
1836.338,472.33
1837.186,443.47
1838.036,486.93
1838.884,461.90
1839.733,469.10
1840.581,442.37
1841.430,427.87
1842.278,469.63
1843.127,462.53
1843.974,465.50
1844.823,465.70
1845.671,470.77
1846.519,488.13
1847.366,440.43
1848.213,474.83
1849.062,474.97
1849.909,472.10
1850.757,488.53
1851.604,477.57
1852.452,451.00
1853.298,456.83
1854.146,457.13
1854.993,495.40
1855.839,439.20
1856.687,434.07
1857.532,498.87
1858.380,496.73
1859.226,478.67
1860.073,460.30
1860.919,456.30
1861.765,481.77
1862.612,473.97
1863.457,459.87
1864.304,457.97
1865.150,473.07
1865.995,520.10
1866.842,496.53
1867.686,496.60
1868.533,462.27
1869.378,473.03
1870.223,460.57
1871.069,490.70
1871.914,433.57
1872.760,448.80
1873.604,488.50
1874.448,503.93
1875.294,489.87
1876.139,453.70
1876.984,459.80
1877.828,474.67
1878.672,501.03
1879.518,466.53
1880.361,475.13
1881.205,459.73
1882.050,488.97
1882.894,453.43
1883.739,472.83
1884.582,454.83
1885.425,466.27
1886.270,497.30
1887.113,487.20
1887.956,458.87
1888.801,459.37
1889.644,450.87
1890.486,482.17
1891.331,471.73
1892.173,462.50
1893.017,457.93
1893.860,464.73
1894.702,487.13
1895.546,478.87
1896.388,445.60
1897.230,470.97
1898.074,479.80
1898.916,477.53
1899.757,458.40
1900.601,494.27
1901.443,480.53
1902.284,479.93
1903.125,459.03
1903.969,461.03
1904.810,462.10
1905.651,471.33
1906.494,488.50
1907.335,507.07
1908.176,468.73
1909.018,475.23
1909.859,412.83
1910.700,481.07
1911.542,469.13
1912.383,442.50
1913.223,466.30
1914.064,478.53
1914.906,492.57
1915.746,442.70
1916.586,470.07
1917.428,491.30
1918.268,482.67
1919.107,463.13
1919.947,498.97
1920.789,471.80
1921.628,526.87
1922.468,474.17
1923.309,457.40
1924.148,490.17
1924.988,478.33
1925.827,477.17
1926.667,502.97
1927.507,486.50
1928.345,414.97
1929.184,450.30
1930.025,481.60
1930.864,451.53
1931.702,489.77
1932.541,461.80
1933.381,469.77
1934.219,475.07
1935.057,447.67
1935.896,455.07
1936.735,470.23
1937.573,473.13
1938.411,469.43
1939.249,492.17
1940.089,451.93
1940.927,472.13
1941.764,480.77
1942.602,485.67
1943.439,491.50
1944.278,490.83
1945.115,514.57
1945.953,517.30
1946.790,471.33
1947.628,466.93
1948.465,466.33
1949.302,478.83
1950.139,463.10
1950.976,478.93
1951.814,465.03
1952.651,456.33
1953.487,443.00
1954.323,463.40
1955.160,466.53
1955.998,447.60
1956.834,485.80
1957.670,469.70
1958.506,484.87
1959.342,494.50
1960.177,487.13
1961.015,472.87
1961.850,471.77
1962.686,423.43
1963.521,490.07
1964.357,486.00
1965.192,495.20
1966.029,477.70
1966.864,462.57
1967.699,489.53
1968.534,444.37
1969.369,451.23
1970.204,507.10
1971.040,493.93
1971.875,481.43
1972.709,450.13
1973.544,482.73
1974.378,472.37
1975.212,435.33
1976.047,494.47
1976.882,462.03
1977.716,448.07
1978.550,467.97
1979.384,474.97
1980.218,464.57
1981.052,457.37
1981.885,466.10
1982.719,495.27
1983.554,468.07
1984.388,472.90
1985.221,473.80
1986.054,440.53
1986.887,468.93
1987.720,464.50
1988.553,446.93
1989.386,465.70
1990.219,431.60
1991.053,445.03
1991.886,453.50
1992.719,480.70
1993.551,436.30
1994.383,466.70
1995.216,460.40
1996.048,474.17
1996.880,422.37
1997.712,483.23
1998.544,488.43
1999.376,487.47
2000.208,454.27
2001.040,443.27
2001.873,450.23
2002.705,464.50
2003.536,463.00
2004.367,470.43
2005.199,515.20
2006.030,469.53
2006.861,483.90
2007.692,448.53
2008.523,485.70
2009.354,478.57
2010.185,485.63
2011.016,512.17
2011.846,456.87
2012.677,444.53
2013.507,510.93
2014.338,488.10
2015.168,451.23
2015.999,468.07
2016.829,494.13
2017.659,461.13
2018.489,481.37
2019.319,470.37
2020.149,497.20
2020.980,494.70
2021.810,452.03
2022.639,460.57
2023.469,490.07
2024.298,448.83
2025.128,482.20
2025.957,474.73
2026.786,466.17
2027.615,476.17
2028.444,485.87
2029.273,492.47
2030.102,511.13
2030.931,458.03
2031.758,505.63
2032.586,483.93
2033.415,457.23
2034.243,478.03
2035.072,496.37
2035.900,478.27
2036.728,501.17
2037.556,519.03
2038.385,499.33
2039.213,485.20
2040.040,488.87
2040.868,495.27
2041.696,542.57
2042.524,525.83
2043.351,464.30
2044.179,516.50
2045.006,466.67
2045.006,466.67

Max Intensity Wave.,221.986
Max Intensity Data,5274.53
Min Intensity Wave.,146.591
Min Intensity Data,372.00
FWHM Wave.,386.700
FWHM Value,27.80
Pressure Wave.,1123.216
Pressure Value [GPa],3847.98205
G/D Ratio,0.59080
G/D Gband Wave.,1575.784
G/D Gband Intensity,572.22
G/D Dband Wave.,1304.310
G/D Dband Intensity,968.55

<< BACKGROUND SPECTRUM >>
Wave[dcm-1],No297
146.591,2201.00
147.626,2039.00
148.664,2010.00
149.699,2511.00
150.737,2242.00
151.772,2363.00
152.809,2398.00
153.846,2280.00
154.881,2351.00
155.918,1976.00
156.953,2298.00
157.989,2564.00
159.026,2420.00
160.060,2654.00
161.096,2844.00
162.130,2468.00
163.167,2525.00
164.200,2396.00
165.236,2649.00
166.272,2652.00
167.305,2269.00
168.341,2511.00
169.374,2708.00
170.409,2751.00
171.445,2709.00
172.477,2510.00
173.512,2363.00
174.545,2632.00
175.580,2842.00
176.614,3062.00
177.647,2768.00
178.681,3019.00
179.713,3289.00
180.747,2760.00
181.781,2692.00
182.813,2976.00
183.847,3067.00
184.878,2715.00
185.912,2933.00
186.945,3120.00
187.976,3024.00
189.010,2723.00
190.043,2759.00
191.073,2874.00
192.106,2716.00
193.137,3141.00
194.170,2522.00
195.202,2911.00
196.232,2661.00
197.265,2928.00
198.297,3058.00
199.327,2793.00
200.359,2935.00
201.388,3283.00
202.420,2912.00
203.452,3132.00
204.481,2663.00
205.512,3278.00
206.544,3055.00
207.573,2996.00
208.604,3341.00
209.635,3479.00
210.663,2932.00
211.694,2955.00
212.725,2804.00
213.753,2747.00
214.783,3335.00
215.813,3208.00
216.841,2998.00
217.871,3124.00
218.899,2862.00
219.929,3043.00
220.959,2864.00
221.986,3112.00
223.016,2736.00
224.045,3153.00
225.072,3066.00
226.101,3160.00
227.130,3205.00
228.157,2825.00
229.185,2315.00
230.214,3161.00
231.241,2816.00
232.269,2463.00
233.297,2674.00
234.323,3194.00
235.351,2771.00
236.379,3077.00
237.407,2730.00
238.433,2884.00
239.460,3113.00
240.488,3018.00
241.513,3155.00
242.540,3068.00
243.568,3213.00
244.592,3178.00
245.619,3188.00
246.646,2918.00
247.671,2909.00
248.697,2763.00
249.724,2984.00
250.748,2984.00
251.774,2984.00
252.801,3258.00
253.827,3082.00
254.850,3012.00
255.876,2652.00
256.902,3077.00
257.925,2976.00
258.951,2693.00
259.976,2728.00
260.999,3076.00
262.024,2783.00
263.049,3581.00
264.074,3115.00
265.097,2965.00
266.122,3056.00
267.146,3003.00
268.168,3190.00
269.193,2830.00
270.217,3202.00
271.241,2697.00
272.263,2855.00
273.287,3116.00
274.311,2777.00
275.332,3244.00
276.356,2831.00
277.379,3082.00
278.402,3121.00
279.424,2926.00
280.447,2833.00
281.470,2714.00
282.492,3056.00
283.513,2910.00
284.536,3120.00
285.558,3107.00
286.581,3077.00
287.601,2796.00
288.623,2789.00
289.645,3053.00
290.665,3090.00
291.687,3054.00
292.709,3073.00
293.730,3375.00
294.750,2879.00
295.771,2724.00
296.792,3001.00
297.813,2887.00
298.832,3035.00
299.853,2719.00
300.874,2928.00
301.895,2931.00
302.913,2938.00
303.934,3194.00
304.954,2994.00
305.975,4208.00
306.993,2771.00
308.013,3109.00
309.033,3045.00
310.052,2880.00
311.072,2865.00
312.090,3023.00
313.109,3247.00
314.129,3343.00
315.148,2989.00
316.165,3022.00
317.184,3226.00
318.203,2755.00
319.222,2754.00
320.238,3130.00
321.257,2776.00
322.275,2672.00
323.294,2934.00
324.312,3116.00
325.328,3216.00
326.346,3241.00
327.364,3208.00
328.382,3133.00
329.397,3088.00
330.415,3197.00
331.432,3154.00
332.450,3196.00
333.467,3451.00
334.482,2556.00
335.499,3315.00
336.516,2849.00
337.533,2604.00
338.547,2807.00
339.564,2829.00
340.580,3050.00
341.597,2950.00
342.613,3416.00
343.627,2938.00
344.643,3007.00
345.659,3081.00
346.675,2953.00
347.690,2836.00
348.704,3036.00
349.719,2890.00
350.735,2675.00
351.750,3166.00
352.765,3037.00
353.778,2981.00
354.793,3133.00
355.808,2815.00
356.822,3168.00
357.837,2602.00
358.851,3215.00
359.864,2903.00
360.878,2714.00
361.892,2941.00
362.906,3160.00
363.920,2594.00
364.932,3051.00
365.945,3081.00
366.959,3011.00
367.972,2924.00
368.986,2732.00
369.999,3367.00
371.010,2846.00
372.023,3338.00
373.036,2900.00
374.049,3329.00
375.061,3031.00
376.072,2928.00
377.084,2844.00
378.097,2681.00
379.109,3170.00
380.121,2990.00
381.133,2641.00
382.143,3121.00
383.155,2691.00
384.166,2841.00
385.178,3097.00
386.189,3170.00
387.201,2679.00
388.212,2878.00
389.221,2895.00
390.232,3015.00
391.243,2932.00
392.254,3051.00
393.264,2852.00
394.275,3207.00
395.283,3135.00
396.294,3609.00
397.304,3438.00
398.314,3084.00
399.324,3011.00
400.334,2642.00
401.344,3135.00
402.351,2612.00
403.361,3212.00
404.370,2974.00
405.380,2861.00
406.389,3322.00
407.398,3096.00
408.407,3101.00
409.414,3104.00
410.423,3278.00
411.431,2700.00
412.440,2668.00
413.448,3279.00
414.457,2880.00
415.465,2792.00
416.471,2868.00
417.479,2988.00
418.487,2795.00
419.495,3284.00
420.503,3088.00
421.510,2593.00
422.518,3141.00
423.525,3159.00
424.530,3361.00
425.537,2860.00
426.544,3203.00
427.551,2830.00
428.558,3511.00
429.565,3394.00
430.571,2864.00
431.578,2886.00
432.582,2837.00
433.588,2898.00
434.595,2609.00
435.601,3240.00
436.607,3221.00
437.612,2738.00
438.618,3324.00
439.624,2938.00
440.627,2945.00
441.633,3091.00
442.638,3557.00
443.643,3089.00
444.648,2980.00
445.653,3178.00
446.658,2903.00
447.663,2978.00
448.667,2878.00
449.672,2845.00
450.674,2953.00
451.678,2718.00
452.682,2884.00
453.687,2813.00
454.690,3583.00
455.694,3263.00
456.698,2552.00
457.702,2653.00
458.705,2758.00
459.709,2818.00
460.710,2874.00
461.713,3024.00
462.716,3027.00
463.719,2973.00
464.722,3157.00
465.725,2973.00
466.727,2781.00
467.730,3003.00
468.732,2735.00
469.735,3254.00
470.737,2898.00
471.737,2899.00
472.739,2839.00
473.741,2795.00
474.742,3037.00
475.744,3073.00
476.746,3038.00
477.747,2954.00
478.748,3107.00
479.750,2934.00
480.751,2978.00
481.752,3672.00
482.753,3068.00
483.751,3571.00
484.752,2621.00
485.753,2921.00
486.753,2856.00
487.753,2953.00
488.754,3387.00
489.754,2690.00
490.754,3299.00
491.754,3093.00
492.754,2686.00
493.753,2979.00
494.753,2860.00
495.752,3315.00
496.752,3023.00
497.749,2940.00
498.748,2811.00
499.747,3349.00
500.746,3042.00
501.745,2770.00
502.744,2724.00
503.742,3286.00
504.741,2911.00
505.739,2465.00
506.737,2881.00
507.735,3116.00
508.734,3381.00
509.732,3123.00
510.729,3282.00
511.727,2890.00
512.725,2885.00
513.720,2758.00
514.718,3271.00
515.715,2645.00
516.712,2608.00
517.709,2966.00
518.706,2873.00
519.703,2991.00
520.700,3198.00
521.696,3393.00
522.693,2916.00
523.689,2842.00
524.686,3139.00
525.682,2765.00
526.678,3459.00
527.674,2896.00
528.670,2564.00
529.666,3487.00
530.661,3466.00
531.657,3314.00
532.652,3156.00
533.648,3024.00
534.641,3186.00
535.636,3033.00
536.631,3041.00
537.626,3132.00
538.621,2724.00
539.616,2569.00
540.610,2510.00
541.605,2959.00
542.599,3016.00
543.593,2960.00
544.587,3883.00
545.581,2801.00
546.575,3014.00
547.569,2976.00
548.563,2672.00
549.557,2666.00
550.550,2754.00
551.543,2700.00
552.537,3117.00
553.530,2749.00
554.523,2772.00
555.516,3132.00
556.509,2944.00
557.502,2607.00
558.494,3167.00
559.487,2889.00
560.479,3193.00
561.472,3209.00
562.464,3126.00
563.456,3314.00
564.448,2947.00
565.440,2979.00
566.432,3322.00
567.423,2872.00
568.415,2888.00
569.404,3106.00
570.396,2790.00
571.387,3117.00
572.378,2977.00
573.369,3917.00
574.360,3684.00
575.351,2924.00
576.341,2862.00
577.332,2862.00
578.323,2626.00
579.313,2893.00
580.303,3193.00
581.293,3105.00
582.283,2989.00
583.273,3113.00
584.263,2975.00
585.253,3111.00
586.243,3163.00
587.232,2666.00
588.222,2914.00
589.211,3131.00
590.200,3046.00
591.189,2907.00
592.178,2912.00
593.167,3393.00
594.156,3242.00
595.145,2869.00
596.133,3459.00
597.122,3084.00
598.110,3199.00
599.098,3020.00
600.086,2999.00
601.074,3150.00
602.062,2785.00
603.050,2758.00
604.038,3116.00
605.025,2771.00
606.013,3224.00
607.000,3366.00
607.987,3037.00
608.975,3060.00
609.962,2758.00
610.949,3073.00
611.936,3225.00
612.922,3131.00
613.909,2669.00
614.895,3348.00
615.882,2791.00
616.868,2966.00
617.854,2674.00
618.841,3030.00
619.826,3120.00
620.812,2966.00
621.798,2773.00
622.784,3200.00
623.769,3077.00
624.755,2685.00
625.740,3037.00
626.725,2707.00
627.711,2848.00
628.698,3054.00
629.683,2827.00
630.667,3151.00
631.652,2731.00
632.637,2937.00
633.621,3156.00
634.606,2890.00
635.590,3095.00
636.574,2898.00
637.558,3062.00
638.542,3033.00
639.526,2841.00
640.510,2642.00
641.493,3040.00
642.477,2984.00
643.460,2631.00
644.444,3227.00
645.427,3217.00
646.410,2641.00
647.393,2912.00
648.376,3031.00
649.359,2915.00
650.341,3070.00
651.324,3083.00
652.307,3012.00
653.289,2951.00
654.271,2887.00
655.253,2912.00
656.235,3123.00
657.217,3241.00
658.199,2595.00
659.181,2738.00
660.163,2981.00
661.144,2830.00
662.126,2899.00
663.107,2759.00
664.088,6148.00
665.069,3170.00
666.050,2776.00
667.033,2671.00
668.014,3074.00
668.995,2588.00
669.975,2969.00
670.956,2952.00
671.936,3131.00
672.916,2945.00
673.896,3084.00
674.876,2902.00
675.856,2833.00
676.836,2735.00
677.816,2306.00
678.795,2813.00
679.775,2676.00
680.754,3018.00
681.734,3131.00
682.713,3132.00
683.692,2771.00
684.671,2589.00
685.650,2729.00
686.629,2875.00
687.607,2721.00
688.586,2738.00
689.564,2862.00
690.543,3218.00
691.523,2366.00
692.501,2803.00
693.479,2929.00
694.457,2792.00
695.435,2836.00
696.413,2645.00
697.390,2478.00
698.368,2687.00
699.345,3044.00
700.322,2924.00
701.300,3083.00
702.277,3045.00
703.254,3250.00
704.231,2572.00
705.207,2964.00
706.184,2762.00
707.161,2683.00
708.137,2796.00
709.113,2780.00
710.090,2773.00
711.068,2580.00
712.044,2630.00
713.020,2864.00
713.996,2649.00
714.971,2763.00
715.947,2853.00
716.922,2797.00
717.898,2741.00
718.873,2870.00
719.848,2678.00
720.823,2647.00
721.798,2951.00
722.773,2742.00
723.748,2540.00
724.723,2996.00
725.697,2810.00
726.672,2714.00
727.646,2497.00
728.622,2989.00
729.596,2589.00
730.570,2696.00
731.544,3069.00
732.518,3226.00
733.492,2791.00
734.466,2863.00
735.439,3013.00
736.413,3134.00
737.386,2440.00
738.359,2415.00
739.332,2546.00
740.305,2818.00
741.278,3289.00
742.251,2928.00
743.224,2707.00
744.196,2540.00
745.171,3112.00
746.143,3031.00
747.115,2753.00
748.087,2719.00
749.059,3060.00
750.031,2864.00
751.003,3654.00
751.975,3226.00
752.947,2706.00
753.918,3080.00
754.890,2545.00
755.861,2760.00
756.832,3013.00
757.803,2781.00
758.774,2832.00
759.747,2587.00
760.718,3148.00
761.689,2771.00
762.659,2567.00
763.630,3105.00
764.600,2558.00
765.570,3073.00
766.540,3158.00
767.510,2902.00
768.480,3010.00
769.450,2689.00
770.420,2802.00
771.390,2644.00
772.359,2745.00
773.329,2669.00
774.300,2511.00
775.269,2736.00
776.238,2952.00
777.207,3110.00
778.176,2547.00
779.145,2794.00
780.114,2693.00
781.083,2545.00
782.051,2728.00
783.019,2694.00
783.988,3045.00
784.956,2863.00
785.924,2974.00
786.894,2873.00
787.862,2697.00
788.830,3147.00
789.797,2591.00
790.765,2608.00
791.732,2774.00
792.700,2610.00
793.667,2614.00
794.634,2739.00
795.601,2745.00
796.568,2792.00
797.535,2825.00
798.502,3421.00
799.468,2915.00
800.437,2418.00
801.403,2652.00
802.370,3219.00
803.336,2995.00
804.302,2834.00
805.268,2445.00
806.234,2536.00
807.200,2719.00
808.166,2759.00
809.131,2552.00
810.097,2938.00
811.062,3681.00
812.027,3018.00
812.994,2622.00
813.960,2565.00
814.925,2901.00
815.889,2515.00
816.854,3024.00
817.819,2636.00
818.783,2699.00
819.748,3106.00
820.712,2723.00
821.677,2649.00
822.641,2668.00
823.605,2715.00
824.571,3144.00
825.534,2699.00
826.498,2675.00
827.462,2808.00
828.425,2610.00
829.389,3065.00
830.352,2803.00
831.315,2914.00
832.279,2509.00
833.242,2764.00
834.204,2667.00
835.167,2623.00
836.132,3077.00
837.095,2514.00
838.057,2673.00
839.020,2807.00
839.982,2854.00
840.944,2658.00
841.906,2616.00
842.868,2918.00
843.830,2559.00
844.792,3072.00
845.753,2672.00
846.715,2444.00
847.679,2572.00
848.640,2583.00
849.601,2752.00
850.562,3224.00
851.523,2712.00
852.484,2453.00
853.445,2994.00
854.406,2668.00
855.367,2740.00
856.327,3052.00
857.288,2511.00
858.248,2664.00
859.210,2720.00
860.170,2565.00
861.130,3009.00
862.090,2426.00
863.050,2613.00
864.010,2664.00
864.969,2907.00
865.929,2594.00
866.888,2521.00
867.848,2823.00
868.807,2637.00
869.766,2826.00
870.727,2736.00
871.686,3018.00
872.645,3038.00
873.604,3259.00
874.562,2761.00
875.521,2769.00
876.479,3361.00
877.437,2568.00
878.396,2594.00
879.354,3170.00
880.312,2591.00
881.270,2690.00
882.229,3069.00
883.187,2636.00
884.145,2688.00
885.102,2931.00
886.059,2821.00
887.017,2870.00
887.974,2924.00
888.931,3069.00
889.888,2495.00
890.845,2450.00
891.802,2333.00
892.758,2613.00
893.717,2403.00
894.673,2550.00
895.630,2620.00
896.586,2930.00
897.542,2666.00
898.498,2478.00
899.454,2832.00
900.410,2684.00
901.366,2681.00
902.321,2601.00
903.277,2657.00
904.232,2777.00
905.189,2504.00
906.145,2699.00
907.100,2210.00
908.055,2719.00
909.010,2923.00
909.965,2356.00
910.919,2802.00
911.874,2564.00
912.828,2738.00
913.783,2758.00
914.737,2349.00
915.693,2768.00
916.648,2892.00
917.602,2953.00
918.555,2745.00
919.509,2871.00
920.463,2716.00
921.417,2732.00
922.370,2590.00
923.324,2719.00
924.277,2655.00
925.230,2772.00
926.183,2409.00
927.138,2669.00
928.091,2934.00
929.044,2794.00
929.996,2649.00
930.949,2659.00
931.902,2782.00
932.854,2869.00
933.806,2592.00
934.758,2975.00
935.711,2986.00
936.663,2785.00
937.614,2774.00
938.568,2796.00
939.520,2382.00
940.471,2701.00
941.423,2774.00
942.374,2888.00
943.326,2757.00
944.277,2577.00
945.228,2855.00
946.179,2684.00
947.130,3025.00
948.080,2667.00
949.031,2583.00
949.984,2687.00
950.934,2753.00
951.884,2498.00
952.835,2674.00
953.785,2711.00
954.735,2606.00
955.685,2363.00
956.635,2657.00
957.585,2629.00
958.534,2631.00
959.484,2772.00
960.433,2575.00
961.383,2502.00
962.334,2951.00
963.283,2774.00
964.232,2836.00
965.181,2698.00
966.130,2781.00
967.079,2622.00
968.027,2704.00
968.976,2753.00
969.924,2605.00
970.873,2790.00
971.821,2777.00
972.769,2925.00
973.719,2822.00
974.667,2459.00
975.615,2740.00
976.562,2699.00
977.510,2403.00
978.458,2585.00
979.405,2843.00
980.352,2769.00
981.300,2963.00
982.247,2811.00
983.194,2522.00
984.141,2607.00
985.088,2734.00
986.036,2762.00
986.983,3038.00
987.930,3113.00
988.876,2339.00
989.822,2952.00
990.769,2568.00
991.715,2584.00
992.661,2430.00
993.607,2794.00
994.553,3221.00
995.498,2604.00
996.444,2292.00
997.389,2780.00
998.337,2500.00
999.282,2867.00
1000.227,2612.00
1001.173,2688.00
1002.118,2481.00
1003.062,2916.00
1004.007,2674.00
1004.952,2997.00
1005.897,2960.00
1006.841,2735.00
1007.786,2485.00
1008.730,2409.00
1009.674,3162.00
1010.618,2636.00
1011.564,2495.00
1012.508,2410.00
1013.452,2975.00
1014.396,2724.00
1015.339,2593.00
1016.283,2694.00
1017.226,2733.00
1018.170,2731.00
1019.113,2885.00
1020.056,2722.00
1020.999,2748.00
1021.942,2606.00
1022.885,2878.00
1023.828,2999.00
1024.770,2485.00
1025.715,2708.00
1026.657,2660.00
1027.600,2796.00
1028.542,2914.00
1029.484,2739.00
1030.426,2860.00
1031.368,2804.00
1032.310,2569.00
1033.251,2517.00
1034.193,2695.00
1035.135,2485.00
1036.076,2644.00
1037.017,2535.00
1037.959,2814.00
1038.900,2766.00
1039.843,2794.00
1040.784,2788.00
1041.725,2754.00
1042.665,2648.00
1043.606,2781.00
1044.547,2745.00
1045.487,2397.00
1046.427,2688.00
1047.368,2757.00
1048.308,2259.00
1049.248,2527.00
1050.188,2682.00
1051.128,2628.00
1052.067,2670.00
1053.007,2414.00
1053.947,2375.00
1054.886,2585.00
1055.827,2496.00
1056.766,2869.00
1057.706,2489.00
1058.645,2678.00
1059.584,2758.00
1060.522,2993.00
1061.461,2467.00
1062.400,2475.00
1063.338,2648.00
1064.277,2504.00
1065.215,2502.00
1066.154,2427.00
1067.092,2590.00
1068.030,2632.00
1068.968,2849.00
1069.906,2977.00
1070.843,2966.00
1071.781,2749.00
1072.720,2845.00
1073.658,2807.00
1074.595,2586.00
1075.533,2552.00
1076.470,2586.00
1077.407,2974.00
1078.344,2762.00
1079.281,2797.00
1080.217,2324.00
1081.154,2676.00
1082.091,2736.00
1083.027,2437.00
1083.964,2898.00
1084.900,2524.00
1085.836,2637.00
1086.772,2853.00
1087.708,2495.00
1088.644,2832.00
1089.580,2709.00
1090.515,2766.00
1091.451,2635.00
1092.388,2711.00
1093.324,2432.00
1094.259,3230.00
1095.194,2745.00
1096.129,2634.00
1097.064,2590.00
1097.999,2824.00
1098.934,2565.00
1099.869,2539.00
1100.803,2733.00
1101.738,2712.00
1102.672,2397.00
1103.607,2802.00
1104.541,2551.00
1105.475,2514.00
1106.409,2416.00
1107.343,2618.00
1108.277,2461.00
1109.210,2734.00
1110.144,2700.00
1111.078,2649.00
1112.011,2473.00
1112.944,2802.00
1113.878,2760.00
1114.811,2189.00
1115.744,2582.00
1116.678,2295.00
1117.611,2564.00
1118.544,2592.00
1119.477,2770.00
1120.409,2533.00
1121.342,3123.00
1122.274,2764.00
1123.206,3085.00
1124.138,2677.00
1125.070,2963.00
1126.002,2823.00
1126.934,2268.00
1127.866,2543.00
1128.798,2342.00
1129.729,2407.00
1130.661,2650.00
1131.592,2572.00
1132.523,2726.00
1133.454,2769.00
1134.385,2294.00
1135.317,2640.00
1136.247,2560.00
1137.178,2881.00
1138.109,2374.00
1139.039,3001.00
1139.970,2789.00
1140.900,2569.00
1141.831,2330.00
1142.761,2244.00
1143.691,2783.00
1144.621,2626.00
1145.551,2691.00
1146.480,2701.00
1147.410,2860.00
1148.340,2307.00
1149.269,2377.00
1150.199,2579.00
1151.128,3043.00
1152.057,2448.00
1152.979,2539.00
1153.898,2626.00
1154.819,2727.00
1155.739,2602.00
1156.658,2564.00
1157.579,2666.00
1158.498,2629.00
1159.419,2207.00
1160.338,2696.00
1161.256,2688.00
1162.177,2517.00
1163.095,2634.00
1164.016,2678.00
1164.934,2888.00
1165.852,2837.00
1166.772,2618.00
1167.690,2633.00
1168.610,2689.00
1169.528,2628.00
1170.446,2206.00
1171.365,2545.00
1172.283,2542.00
1173.202,2602.00
1174.120,2689.00
1175.037,2521.00
1175.956,2462.00
1176.873,2520.00
1177.792,2505.00
1178.709,3083.00
1179.626,2547.00
1180.544,2844.00
1181.461,2481.00
1182.379,2735.00
1183.296,2619.00
1184.212,2298.00
1185.130,2477.00
1186.046,2942.00
1186.962,2639.00
1187.880,2926.00
1188.796,2672.00
1189.714,2434.00
1190.629,2776.00
1191.545,2710.00
1192.462,2557.00
1193.378,2609.00
1194.295,2344.00
1195.210,2676.00
1196.125,2752.00
1197.042,2734.00
1197.957,2618.00
1198.872,2529.00
1199.788,2537.00
1200.703,2932.00
1201.619,2637.00
1202.534,2501.00
1203.448,2695.00
1204.364,2551.00
1205.278,2305.00
1206.192,2699.00
1207.108,3154.00
1208.022,2979.00
1208.938,2494.00
1209.851,2802.00
1210.765,2846.00
1211.680,2553.00
1212.594,2407.00
1213.507,2541.00
1214.422,3024.00
1215.335,2745.00
1216.248,2551.00
1217.163,2663.00
1218.076,3254.00
1218.990,2764.00
1219.903,2398.00
1220.816,2463.00
1221.730,2578.00
1222.642,2488.00
1223.554,2524.00
1224.469,2712.00
1225.380,2562.00
1226.292,2272.00
1227.206,2728.00
1228.118,2948.00
1229.032,2240.00
1229.943,2509.00
1230.855,2588.00
1231.768,2341.00
1232.679,2716.00
1233.590,2585.00
1234.503,2859.00
1235.414,2488.00
1236.325,2479.00
1237.238,2720.00
1238.149,2738.00
1239.059,2467.00
1239.972,2820.00
1240.882,2459.00
1241.793,2752.00
1242.705,3021.00
1243.615,2575.00
1244.525,2725.00
1245.437,2202.00
1246.347,2688.00
1247.259,2786.00
1248.168,3067.00
1249.078,2875.00
1249.989,2845.00
1250.899,2444.00
1251.808,2508.00
1252.719,2559.00
1253.628,2483.00
1254.537,2986.00
1255.448,2496.00
1256.357,2461.00
1257.266,2598.00
1258.176,2387.00
1259.085,2353.00
1259.993,2433.00
1260.904,2474.00
1261.812,2449.00
1262.720,3242.00
1263.630,2798.00
1264.538,2502.00
1265.446,2708.00
1266.356,2586.00
1267.263,2936.00
1268.171,2461.00
1269.080,2673.00
1269.988,2841.00
1270.895,2549.00
1271.804,2605.00
1272.711,2807.00
1273.619,2770.00
1274.527,2450.00
1275.434,2779.00
1276.341,2446.00
1277.248,2675.00
1278.156,2900.00
1279.063,2480.00
1279.969,2718.00
1280.877,3508.00
1281.783,2858.00
1282.690,2696.00
1283.598,2577.00
1284.503,2460.00
1285.409,2493.00
1286.317,2984.00
1287.223,3045.00
1288.128,2718.00
1289.036,2545.00
1289.941,2558.00
1290.846,2612.00
1291.751,2447.00
1292.658,2544.00
1293.563,3070.00
1294.468,2649.00
1295.375,2780.00
1296.280,2847.00
1297.184,3292.00
1298.091,2780.00
1298.995,2778.00
1299.900,3020.00
1300.806,2519.00
1301.710,2381.00
1302.614,2205.00
1303.518,2864.00
1304.424,2548.00
1305.327,2822.00
1306.231,2586.00
1307.137,2775.00
1308.040,2684.00
1308.943,2661.00
1309.847,2849.00
1310.752,2829.00
1311.655,2295.00
1312.558,2396.00
1313.463,2562.00
1314.366,2547.00
1315.269,2691.00
1316.171,2603.00
1317.076,2525.00
1317.978,2416.00
1318.881,2235.00
1319.785,2482.00
1320.687,2495.00
1321.589,2274.00
1322.491,2461.00
1323.395,2723.00
1324.297,3244.00
1325.198,2755.00
1326.102,2428.00
1327.004,2443.00
1327.905,3010.00
1328.806,2573.00
1329.709,2679.00
1330.611,2573.00
1331.512,2443.00
1332.413,3153.00
1333.316,2671.00
1334.216,2755.00
1335.117,2326.00
1336.020,2622.00
1336.920,2643.00
1337.821,2494.00
1338.721,2874.00
1339.623,2681.00
1340.523,2597.00
1341.423,2534.00
1342.323,2908.00
1343.225,2717.00
1344.125,2407.00
1345.025,2510.00
1345.924,2313.00
1346.826,2992.00
1347.725,3022.00
1348.624,2834.00
1349.524,2492.00
1350.425,2579.00
1351.324,2688.00
1352.223,2812.00
1353.121,2589.00
1354.022,2820.00
1354.921,2982.00
1355.819,2749.00
1356.718,2664.00
1357.618,2383.00
1358.516,2740.00
1359.415,3020.00
1360.313,2694.00
1361.213,2573.00
1362.111,2930.00
1363.008,3276.00
1363.906,2604.00
1364.806,2633.00
1365.703,2722.00
1366.601,2452.00
1367.498,2464.00
1368.397,2824.00
1369.295,2715.00
1370.192,2433.00
1371.089,2733.00
1371.987,2632.00
1372.884,2865.00
1373.781,2402.00
1374.678,2615.00
1375.574,2451.00
1376.473,2761.00
1377.369,2866.00
1378.265,2437.00
1379.161,2582.00
1380.059,2342.00
1380.955,2738.00
1381.851,2417.00
1382.747,2527.00
1383.643,2560.00
1384.540,2440.00
1385.436,2532.00
1386.331,2703.00
1387.227,2794.00
1388.124,2713.00
1389.019,2376.00
1389.914,2601.00
1390.809,2298.00
1391.704,3040.00
1392.601,2539.00
1393.495,2912.00
1394.390,2759.00
1395.285,2897.00
1396.179,2733.00
1397.075,2563.00
1397.969,2729.00
1398.864,2307.00
1399.758,2590.00
1400.652,2667.00
1401.547,2462.00
1402.441,2427.00
1403.335,2946.00
1404.229,2680.00
1405.122,2691.00
1406.017,2617.00
1406.911,2775.00
1407.804,3020.00
1408.697,2625.00
1409.590,2470.00
1410.485,2802.00
1411.378,2666.00
1412.271,2324.00
1413.163,2667.00
1414.056,2781.00
1414.949,3024.00
1415.843,2680.00
1416.735,2593.00
1417.627,2646.00
1418.520,2638.00
1419.412,2853.00
1420.306,2800.00
1421.197,2926.00
1422.089,2852.00
1422.981,3076.00
1423.873,2787.00
1424.764,2720.00
1425.657,2665.00
1426.549,2740.00
1427.440,2800.00
1428.331,2535.00
1429.222,2324.00
1430.113,2679.00
1431.006,2833.00
1431.897,2569.00
1432.787,2662.00
1433.678,2592.00
1434.568,2474.00
1435.459,2858.00
1436.351,2822.00
1437.241,2793.00
1438.131,2773.00
1439.021,2404.00
1439.911,2640.00
1440.801,2688.00
1441.693,2870.00
1442.583,2627.00
1443.472,2633.00
1444.362,2765.00
1445.251,2608.00
1446.140,2557.00
1447.030,2802.00
1447.921,2834.00
1448.810,2462.00
1449.699,2957.00
1450.588,2686.00
1451.476,2541.00
1452.365,2769.00
1453.254,2552.00
1454.144,2523.00
1455.032,2772.00
1455.921,2387.00
1456.809,2914.00
1457.697,2445.00
1458.585,2594.00
1459.473,2596.00
1460.361,2483.00
1461.251,2665.00
1462.138,2695.00
1463.026,2588.00
1463.913,2868.00
1464.801,2555.00
1465.688,2726.00
1466.575,2706.00
1467.463,3084.00
1468.351,2536.00
1469.238,2579.00
1470.125,2265.00
1471.012,2709.00
1471.899,2693.00
1472.785,2464.00
1473.672,2607.00
1474.558,2855.00
1475.446,2799.00
1476.333,2795.00
1477.219,2452.00
1478.105,2615.00
1478.991,2606.00
1479.877,2938.00
1480.762,2658.00
1481.648,2481.00
1482.534,2798.00
1483.419,2672.00
1484.307,2733.00
1485.192,2601.00
1486.077,2491.00
1486.962,2501.00
1487.847,2392.00
1488.732,2474.00
1489.617,2658.00
1490.502,2883.00
1491.387,2770.00
1492.271,2484.00
1493.156,2489.00
1494.042,2448.00
1494.927,2847.00
1495.811,2521.00
1496.695,2764.00
1497.579,2923.00
1498.463,2633.00
1499.347,2703.00
1500.231,2675.00
1501.114,2728.00
1501.998,2894.00
1502.881,2706.00
1503.765,2898.00
1504.648,3011.00
1505.533,2745.00
1506.417,2672.00
1507.300,2625.00
1508.183,2745.00
1509.066,2126.00
1509.948,2874.00
1510.831,3016.00
1511.714,2435.00
1512.596,2798.00
1513.479,2893.00
1514.361,2848.00
1515.243,2648.00
1516.125,2806.00
1517.008,2920.00
1517.890,2630.00
1518.771,2685.00
1519.655,2860.00
1520.537,2584.00
1521.419,2481.00
1522.300,2676.00
1523.182,2787.00
1524.063,2772.00
1524.944,2885.00
1525.825,2830.00
1526.707,2456.00
1527.588,2403.00
1528.468,2749.00
1529.349,2362.00
1530.230,2549.00
1531.111,2808.00
1531.991,2699.00
1532.872,2342.00
1533.752,2604.00
1534.632,2522.00
1535.513,2544.00
1536.393,2767.00
1537.273,2929.00
1538.153,3305.00
1539.032,2412.00
1539.912,2640.00
1540.792,2663.00
1541.672,2663.00
1542.551,2775.00
1543.430,3245.00
1544.310,2636.00
1545.189,2547.00
1546.068,3070.00
1546.947,2762.00
1547.826,2966.00
1548.705,2641.00
1549.584,2874.00
1550.462,2608.00
1551.341,2816.00
1552.219,2716.00
1553.098,2779.00
1553.976,2844.00
1554.854,3049.00
1555.733,2832.00
1556.611,2585.00
1557.489,2446.00
1558.367,2656.00
1559.244,2807.00
1560.122,2660.00
1561.000,2691.00
1561.877,2908.00
1562.755,2512.00
1563.632,2615.00
1564.509,2900.00
1565.386,3018.00
1566.264,2428.00
1567.141,2272.00
1568.017,2795.00
1568.894,2637.00
1569.771,2673.00
1570.648,2749.00
1571.524,2688.00
1572.401,2422.00
1573.277,2466.00
1574.153,2671.00
1575.029,2502.00
1575.906,3305.00
1576.781,2825.00
1577.657,2585.00
1578.533,2891.00
1579.409,2320.00
1580.285,2638.00
1581.160,3071.00
1582.036,2819.00
1582.911,2490.00
1583.786,2976.00
1584.662,2472.00
1585.537,2618.00
1586.412,2703.00
1587.287,2469.00
1588.160,2817.00
1589.035,2268.00
1589.909,2661.00
1590.784,2619.00
1591.658,2470.00
1592.533,2755.00
1593.407,2676.00
1594.281,2527.00
1595.155,3034.00
1596.029,2556.00
1596.903,2586.00
1597.777,2580.00
1598.651,2902.00
1599.525,2380.00
1600.398,2672.00
1601.272,2653.00
1602.144,3185.00
1603.017,2584.00
1603.890,2909.00
1604.763,2752.00
1605.636,2791.00
1606.509,2354.00
1607.382,2505.00
1608.255,2715.00
1609.128,2888.00
1610.000,2635.00
1610.873,2344.00
1611.746,2558.00
1612.616,2567.00
1613.488,2233.00
1614.361,2614.00
1615.233,2612.00
1616.105,2845.00
1616.977,2551.00
1617.849,2507.00
1618.720,2980.00
1619.592,2936.00
1620.464,2718.00
1621.333,3119.00
1622.205,2643.00
1623.076,2652.00
1623.947,2609.00
1624.818,2856.00
1625.689,2794.00
1626.560,2558.00
1627.431,2744.00
1628.302,3027.00
1629.171,2796.00
1630.042,2920.00
1630.912,3668.00
1631.782,3252.00
1632.653,2471.00
1633.523,2817.00
1634.393,2900.00
1635.263,2537.00
1636.131,2632.00
1637.001,2567.00
1637.871,2307.00
1638.741,2320.00
1639.611,2399.00
1640.480,2808.00
1641.350,2531.00
1642.219,2514.00
1643.087,2192.00
1643.956,3079.00
1644.825,2893.00
1645.694,2858.00
1646.563,2824.00
1647.432,2708.00
1648.299,2663.00
1649.167,2787.00
1650.036,2468.00
1650.904,2812.00
1651.773,2852.00
1652.641,2667.00
1653.509,2871.00
1654.376,2520.00
1655.244,2693.00
1656.112,2676.00
1656.980,2662.00
1657.847,2518.00
1658.715,2792.00
1659.581,2546.00
1660.448,2889.00
1661.316,2160.00
1662.183,2697.00
1663.051,2681.00
1663.918,2693.00
1664.783,2658.00
1665.650,2721.00
1666.517,2799.00
1667.384,2635.00
1668.251,2690.00
1669.115,2868.00
1669.982,2627.00
1670.849,2930.00
1671.715,2643.00
1672.581,2804.00
1673.446,2809.00
1674.312,2679.00
1675.178,3068.00
1676.044,2770.00
1676.910,2721.00
1677.774,2683.00
1678.639,2323.00
1679.505,2692.00
1680.370,2788.00
1681.236,3290.00
1682.099,2606.00
1682.965,2675.00
1683.830,2272.00
1684.695,2532.00
1685.560,2585.00
1686.423,2813.00
1687.288,2750.00
1688.153,2697.00
1689.017,2569.00
1689.880,2739.00
1690.745,2842.00
1691.609,2517.00
1692.473,2790.00
1693.338,2894.00
1694.200,2946.00
1695.064,2636.00
1695.928,2578.00
1696.792,2669.00
1697.654,3141.00
1698.517,2700.00
1699.381,2417.00
1700.245,2321.00
1701.106,2979.00
1701.969,2542.00
1702.833,2788.00
1703.696,2546.00
1704.557,2618.00
1705.420,2543.00
1706.283,2657.00
1707.146,2784.00
1708.007,2481.00
1708.870,2492.00
1709.732,2386.00
1710.595,2555.00
1711.455,2440.00
1712.318,2595.00
1713.180,2953.00
1714.040,2693.00
1714.902,2846.00
1715.764,2680.00
1716.626,2466.00
1717.486,2603.00
1718.348,2922.00
1719.209,4128.00
1720.071,2348.00
1720.930,2396.00
1721.792,2526.00
1722.653,2560.00
1723.512,2561.00
1724.374,2617.00
1725.234,2737.00
1726.095,2676.00
1726.954,2689.00
1727.815,2803.00
1728.676,2651.00
1729.535,2875.00
1730.395,2644.00
1731.256,2582.00
1732.114,2763.00
1732.974,2143.00
1733.834,2994.00
1734.693,2885.00
1735.553,2697.00
1736.413,3035.00
1737.272,2562.00
1738.130,2608.00
1738.990,2751.00
1739.849,2559.00
1740.707,3683.00
1741.566,2680.00
1742.426,2724.00
1743.283,3074.00
1744.142,2575.00
1745.001,2370.00
1745.858,2844.00
1746.717,2713.00
1747.576,2785.00
1748.433,2870.00
1749.292,3245.00
1750.150,3265.00
1751.007,2882.00
1751.865,2882.00
1752.723,2628.00
1753.579,2598.00
1754.438,2934.00
1755.296,2853.00
1756.152,2236.00
1757.010,2368.00
1757.865,2837.00
1758.723,2321.00
1759.581,2963.00
1760.436,2661.00
1761.294,3045.00
1762.151,2619.00
1763.006,2626.00
1763.864,2318.00
1764.721,2858.00
1765.576,2718.00
1766.433,2815.00
1767.288,2565.00
1768.144,2700.00
1769.001,2669.00
1769.856,2756.00
1770.712,2906.00
1771.568,2467.00
1772.423,2585.00
1773.279,2587.00
1774.133,2564.00
1774.989,3032.00
1775.845,3034.00
1776.699,2914.00
1777.555,2639.00
1778.409,3181.00
1779.265,2592.00
1780.120,2637.00
1780.974,2669.00
1781.829,2254.00
1782.682,2711.00
1783.538,2493.00
1784.393,2719.00
1785.246,2570.00
1786.101,2748.00
1786.954,2810.00
1787.808,2870.00
1788.661,2370.00
1789.516,2593.00
1790.370,2600.00
1791.223,2837.00
1792.077,2684.00
1792.930,2732.00
1793.784,2547.00
1794.636,2684.00
1795.490,2651.00
1796.344,2676.00
1797.196,2637.00
1798.049,2834.00
1798.901,2580.00
1799.755,2927.00
1800.606,2485.00
1801.460,3162.00
1802.311,2965.00
1803.165,3068.00
1804.018,3002.00
1804.869,2751.00
1805.722,3116.00
1806.573,2731.00
1807.426,2504.00
1808.276,2673.00
1809.129,2594.00
1809.980,2829.00
1810.832,2935.00
1811.683,2577.00
1812.535,2963.00
1813.385,2628.00
1814.237,2946.00
1815.089,2671.00
1815.940,2939.00
1816.791,2618.00
1817.641,2544.00
1818.493,2805.00
1819.343,2755.00
1820.194,2531.00
1821.044,2781.00
1821.895,2873.00
1822.745,2406.00
1823.596,2543.00
1824.445,3070.00
1825.296,2819.00
1826.145,2647.00
1826.996,2873.00
1827.845,2683.00
1828.695,2776.00
1829.544,2683.00
1830.395,2710.00
1831.243,2618.00
1832.094,2439.00
1832.942,3280.00
1833.792,2806.00
1834.640,2708.00
1835.490,2721.00
1836.338,2746.00
1837.186,2604.00
1838.036,2536.00
1838.884,2689.00
1839.733,3014.00
1840.581,2892.00
1841.430,2841.00
1842.278,3020.00
1843.127,2582.00
1843.974,2376.00
1844.823,3116.00
1845.671,2827.00
1846.519,2676.00
1847.366,2780.00
1848.213,2333.00
1849.062,2508.00
1849.909,2419.00
1850.757,3301.00
1851.604,2789.00
1852.452,2626.00
1853.298,2877.00
1854.146,2754.00
1854.993,2703.00
1855.839,3202.00
1856.687,2844.00
1857.532,2774.00
1858.380,2669.00
1859.226,2743.00
1860.073,2816.00
1860.919,2544.00
1861.765,2568.00
1862.612,2918.00
1863.457,2911.00
1864.304,2657.00
1865.150,2801.00
1865.995,2616.00
1866.842,2769.00
1867.686,2890.00
1868.533,2763.00
1869.378,2743.00
1870.223,2721.00
1871.069,2563.00
1871.914,2741.00
1872.760,2695.00
1873.604,2462.00
1874.448,2803.00
1875.294,2850.00
1876.139,2586.00
1876.984,2814.00
1877.828,2353.00
1878.672,2179.00
1879.518,2576.00
1880.361,2865.00
1881.205,2852.00
1882.050,2491.00
1882.894,3194.00
1883.739,2561.00
1884.582,2487.00
1885.425,2520.00
1886.270,2911.00
1887.113,2440.00
1887.956,2794.00
1888.801,2750.00
1889.644,2528.00
1890.486,2282.00
1891.331,2624.00
1892.173,2744.00
1893.017,2768.00
1893.860,2972.00
1894.702,2969.00
1895.546,2692.00
1896.388,3393.00
1897.230,3040.00
1898.074,2593.00
1898.916,2483.00
1899.757,2540.00
1900.601,3322.00
1901.443,2961.00
1902.284,2971.00
1903.125,3170.00
1903.969,2884.00
1904.810,2929.00
1905.651,2778.00
1906.494,2987.00
1907.335,3097.00
1908.176,2809.00
1909.018,2774.00
1909.859,2716.00
1910.700,2554.00
1911.542,3231.00
1912.383,2795.00
1913.223,2353.00
1914.064,2828.00
1914.906,2932.00
1915.746,3055.00
1916.586,3151.00
1917.428,2662.00
1918.268,2724.00
1919.107,2609.00
1919.947,2450.00
1920.789,2623.00
1921.628,2868.00
1922.468,2684.00
1923.309,2563.00
1924.148,2985.00
1924.988,2767.00
1925.827,2673.00
1926.667,2560.00
1927.507,2735.00
1928.345,2583.00
1929.184,2878.00
1930.025,2518.00
1930.864,2976.00
1931.702,2999.00
1932.541,2622.00
1933.381,2828.00
1934.219,2841.00
1935.057,3001.00
1935.896,2435.00
1936.735,2661.00
1937.573,2613.00
1938.411,2498.00
1939.249,2850.00
1940.089,2603.00
1940.927,2947.00
1941.764,2966.00
1942.602,2608.00
1943.439,2576.00
1944.278,2654.00
1945.115,2586.00
1945.953,2404.00
1946.790,2768.00
1947.628,3053.00
1948.465,2808.00
1949.302,2840.00
1950.139,2848.00
1950.976,2577.00
1951.814,2863.00
1952.651,2780.00
1953.487,2536.00
1954.323,2964.00
1955.160,2694.00
1955.998,3078.00
1956.834,2676.00
1957.670,2772.00
1958.506,2920.00
1959.342,2777.00
1960.177,2729.00
1961.015,2840.00
1961.850,2745.00
1962.686,2800.00
1963.521,2735.00
1964.357,2970.00
1965.192,2465.00
1966.029,2834.00
1966.864,2645.00
1967.699,2914.00
1968.534,2764.00
1969.369,2998.00
1970.204,2649.00
1971.040,2719.00
1971.875,2644.00
1972.709,2773.00
1973.544,2548.00
1974.378,2607.00
1975.212,2842.00
1976.047,2585.00
1976.882,2586.00
1977.716,3109.00
1978.550,2430.00
1979.384,2661.00
1980.218,2675.00
1981.052,2648.00
1981.885,2742.00
1982.719,2681.00
1983.554,2867.00
1984.388,3010.00
1985.221,2788.00
1986.054,2989.00
1986.887,2763.00
1987.720,2570.00
1988.553,3040.00
1989.386,2804.00
1990.219,2883.00
1991.053,3046.00
1991.886,2616.00
1992.719,2900.00
1993.551,2280.00
1994.383,2867.00
1995.216,2656.00
1996.048,2449.00
1996.880,2925.00
1997.712,2601.00
1998.544,2711.00
1999.376,2768.00
2000.208,3015.00
2001.040,3163.00
2001.873,2571.00
2002.705,2542.00
2003.536,2777.00
2004.367,2763.00
2005.199,2707.00
2006.030,2598.00
2006.861,2513.00
2007.692,2747.00
2008.523,2563.00
2009.354,2746.00
2010.185,2516.00
2011.016,2819.00
2011.846,2939.00
2012.677,2691.00
2013.507,3020.00
2014.338,2920.00
2015.168,2667.00
2015.999,3243.00
2016.829,2650.00
2017.659,2953.00
2018.489,3221.00
2019.319,2542.00
2020.149,2866.00
2020.980,2725.00
2021.810,2566.00
2022.639,2626.00
2023.469,2592.00
2024.298,2444.00
2025.128,2362.00
2025.957,2360.00
2026.786,2201.00
2027.615,2384.00
2028.444,2564.00
2029.273,2729.00
2030.102,2301.00
2030.931,2595.00
2031.758,2821.00
2032.586,2525.00
2033.415,2611.00
2034.243,2218.00
2035.072,2006.00
2035.900,2479.00
2036.728,2286.00
2037.556,2311.00
2038.385,2345.00
2039.213,2172.00
2040.040,2166.00
2040.868,2124.00
2041.696,2130.00
2042.524,2175.00
2043.351,2413.00
2044.179,2161.00
2045.006,2008.00
