RamanScope Measure Spectrum Data V3.72

<< MEASURE CONDITION >>
Exposure Type,Aver
Exposure Time [sec],15
Exposure Count,30
Measure Time,2023/07/03 19:50:14
Data Name,""
Data Comment,""
Rayleigh Wave[nm],532.0

<< SAMPLE SPECTRUM >>
Wave[dcm-1],No197
146.591,509.00
147.626,606.73
148.664,679.00
149.699,777.70
150.737,865.97
151.772,943.27
152.809,1065.97
153.846,1108.33
154.881,1171.70
155.918,1260.07
156.953,1311.20
157.989,1327.57
159.026,1380.50
160.060,1404.47
161.096,1447.97
162.130,1474.67
163.167,1482.07
164.200,1495.23
165.236,1534.73
166.272,1564.50
167.305,1602.23
168.341,1611.83
169.374,1644.90
170.409,1704.13
171.445,1693.80
172.477,1715.50
173.512,1748.27
174.545,1760.67
175.580,1801.27
176.614,1808.97
177.647,1800.93
178.681,1803.17
179.713,1818.90
180.747,1832.50
181.781,1832.83
182.813,1896.30
183.847,1860.40
184.878,1888.53
185.912,1883.70
186.945,1937.17
187.976,1885.00
189.010,1959.17
190.043,1986.27
191.073,2029.33
192.106,2055.07
193.137,2098.97
194.170,2119.57
195.202,2134.30
196.232,2229.43
197.265,2291.57
198.297,2336.73
199.327,2413.23
200.359,2455.57
201.388,2559.33
202.420,2644.67
203.452,2750.83
204.481,2848.70
205.512,3028.97
206.544,3118.07
207.573,3253.73
208.604,3486.67
209.635,3706.13
210.663,3973.07
211.694,4177.17
212.725,4468.83
213.753,4791.80
214.783,5043.27
215.813,5308.17
216.841,5524.27
217.871,5719.87
218.899,5808.47
219.929,5821.23
220.959,5712.43
221.986,5555.37
223.016,5371.33
224.045,5086.63
225.072,4789.00
226.101,4483.97
227.130,4228.37
228.157,3974.00
229.185,3746.47
230.214,3595.00
231.241,3457.70
232.269,3326.40
233.297,3203.73
234.323,3130.30
235.351,3062.07
236.379,3003.60
237.407,2949.60
238.433,2856.50
239.460,2852.20
240.488,2816.13
241.513,2809.13
242.540,2799.60
243.568,2750.80
244.592,2819.93
245.619,2814.30
246.646,2776.63
247.671,2787.10
248.697,2844.10
249.724,2864.33
250.748,2864.57
251.774,2814.47
252.801,2904.17
253.827,2947.03
254.850,2950.73
255.876,2997.70
256.902,3034.47
257.925,3049.20
258.951,3110.43
259.976,3172.50
260.999,3255.67
262.024,3291.97
263.049,3405.43
264.074,3506.77
265.097,3545.63
266.122,3617.03
267.146,3678.83
268.168,3793.10
269.193,3900.57
270.217,3996.17
271.241,4022.60
272.263,4139.60
273.287,4171.33
274.311,4298.77
275.332,4284.40
276.356,4388.17
277.379,4378.10
278.402,4333.10
279.424,4352.00
280.447,4355.17
281.470,4280.00
282.492,4238.00
283.513,4153.43
284.536,4066.83
285.558,4022.10
286.581,3899.30
287.601,3785.80
288.623,3687.67
289.645,3643.60
290.665,3541.83
291.687,3426.70
292.709,3314.97
293.730,3263.60
294.750,3179.13
295.771,3071.87
296.792,3027.73
297.813,2907.87
298.832,2847.67
299.853,2805.57
300.874,2716.53
301.895,2632.63
302.913,2538.20
303.934,2499.10
304.954,2456.63
305.975,1410.57
306.993,2369.23
308.013,2279.23
309.033,2252.33
310.052,2236.00
311.072,2199.40
312.090,2139.83
313.109,2093.73
314.129,2127.33
315.148,2048.70
316.165,2075.57
317.184,2009.70
318.203,1999.13
319.222,1972.37
320.238,1965.70
321.257,1899.20
322.275,1911.43
323.294,1892.43
324.312,1901.60
325.328,1847.40
326.346,1862.50
327.364,1873.17
328.382,1855.20
329.397,1855.33
330.415,1825.67
331.432,1807.37
332.450,1804.57
333.467,1795.63
334.482,1784.90
335.499,1808.10
336.516,1788.10
337.533,1733.67
338.547,1770.97
339.564,1789.17
340.580,1795.17
341.597,1750.27
342.613,1746.47
343.627,1744.77
344.643,1706.57
345.659,1776.37
346.675,1791.03
347.690,1784.00
348.704,1757.40
349.719,1756.03
350.735,1770.60
351.750,1804.83
352.765,1738.00
353.778,1771.07
354.793,1765.03
355.808,1751.33
356.822,1814.77
357.837,1821.40
358.851,1824.37
359.864,1787.07
360.878,1840.63
361.892,1839.00
362.906,1866.00
363.920,1833.67
364.932,1793.37
365.945,1842.57
366.959,1885.40
367.972,1878.57
368.986,1839.93
369.999,1865.17
371.010,1886.40
372.023,1941.70
373.036,1946.57
374.049,1918.67
375.061,1979.73
376.072,1943.57
377.084,1982.70
378.097,2000.20
379.109,1985.83
380.121,1975.07
381.133,2033.13
382.143,2026.60
383.155,2000.93
384.166,2057.77
385.178,1993.53
386.189,2007.17
387.201,2034.37
388.212,2080.93
389.221,2036.97
390.232,2004.80
391.243,1978.03
392.254,2002.97
393.264,2021.63
394.275,2001.10
395.283,1997.47
396.294,1989.90
397.304,1912.20
398.314,1909.03
399.324,1933.10
400.334,1878.13
401.344,1872.93
402.351,1915.47
403.361,1897.00
404.370,1804.10
405.380,1842.93
406.389,1813.27
407.398,1747.63
408.407,1764.87
409.414,1879.03
410.423,1720.83
411.431,1722.90
412.440,1712.20
413.448,1715.77
414.457,1718.67
415.465,1725.00
416.471,1651.13
417.479,1632.30
418.487,1642.17
419.495,1632.57
420.503,1613.97
421.510,1615.80
422.518,1573.10
423.525,1609.07
424.530,1577.57
425.537,1610.17
426.544,1528.47
427.551,1566.23
428.558,1541.10
429.565,1553.30
430.571,1581.97
431.578,1580.97
432.582,1564.73
433.588,1540.30
434.595,1527.53
435.601,1508.97
436.607,1544.80
437.612,1527.93
438.618,1483.47
439.624,1555.27
440.627,1550.00
441.633,1538.93
442.638,1518.10
443.643,1503.83
444.648,1551.90
445.653,1514.67
446.658,1554.37
447.663,1516.00
448.667,1520.47
449.672,1515.00
450.674,1500.63
451.678,1513.27
452.682,1547.77
453.687,1526.73
454.690,1510.90
455.694,1548.93
456.698,1562.23
457.702,1547.10
458.705,1566.97
459.709,1563.90
460.710,1596.00
461.713,1571.77
462.716,1603.03
463.719,1593.00
464.722,1584.50
465.725,1577.30
466.727,1584.33
467.730,1565.87
468.732,1601.07
469.735,1595.97
470.737,1594.47
471.737,1579.77
472.739,1571.03
473.741,1579.60
474.742,1609.83
475.744,1655.00
476.746,1629.53
477.747,1628.60
478.748,1597.93
479.750,1634.17
480.751,1673.67
481.752,1620.50
482.753,1622.00
483.751,1598.30
484.752,1647.07
485.753,1612.67
486.753,1623.07
487.753,1640.90
488.754,1635.67
489.754,1618.57
490.754,1597.27
491.754,1580.93
492.754,1605.30
493.753,1583.20
494.753,1554.50
495.752,1578.77
496.752,1624.83
497.749,1572.07
498.748,1567.50
499.747,1545.40
500.746,1612.80
501.745,1580.97
502.744,1576.47
503.742,1573.00
504.741,1520.87
505.739,1539.53
506.737,1569.10
507.735,1486.07
508.734,1528.03
509.732,1544.30
510.729,1585.47
511.727,1526.63
512.725,1510.87
513.720,1543.53
514.718,1543.27
515.715,1494.13
516.712,1559.13
517.709,1586.23
518.706,1547.33
519.703,1493.03
520.700,1540.00
521.696,1531.43
522.693,1531.97
523.689,1507.10
524.686,1513.57
525.682,1543.37
526.678,1538.13
527.674,1545.50
528.670,1521.43
529.666,1554.67
530.661,1497.90
531.657,1366.73
532.652,1534.80
533.648,1563.13
534.641,1514.83
535.636,1559.27
536.631,1566.63
537.626,1558.43
538.621,1545.87
539.616,1544.63
540.610,1541.17
541.605,1560.27
542.599,1520.00
543.593,1541.37
544.587,1539.17
545.581,1589.20
546.575,1586.73
547.569,1601.87
548.563,1573.83
549.557,1561.23
550.550,1529.90
551.543,1564.97
552.537,1552.40
553.530,1602.27
554.523,1595.30
555.516,1610.23
556.509,1597.67
557.502,1606.97
558.494,1613.43
559.487,1628.17
560.479,1618.70
561.472,1609.27
562.464,1636.80
563.456,1604.77
564.448,1634.03
565.440,1642.70
566.432,1700.63
567.423,1655.97
568.415,1672.47
569.404,1661.60
570.396,1659.97
571.387,1665.33
572.378,1686.33
573.369,1669.73
574.360,1735.97
575.351,1712.97
576.341,1712.03
577.332,1644.63
578.323,1726.23
579.313,1725.27
580.303,1715.47
581.293,1703.30
582.283,1729.63
583.273,1720.10
584.263,1702.20
585.253,1740.00
586.243,1745.43
587.232,1709.33
588.222,1695.10
589.211,1717.33
590.200,1716.70
591.189,1714.13
592.178,1721.97
593.167,1699.23
594.156,1684.40
595.145,1701.00
596.133,1685.70
597.122,1681.13
598.110,1623.40
599.098,1636.67
600.086,1664.10
601.074,1637.03
602.062,1621.43
603.050,1643.73
604.038,1571.23
605.025,1648.77
606.013,1590.63
607.000,1645.60
607.987,1547.40
608.975,1603.17
609.962,1610.00
610.949,1532.83
611.936,1546.83
612.922,1535.50
613.909,1539.17
614.895,1518.80
615.882,1529.90
616.868,1553.67
617.854,1520.77
618.841,1513.90
619.826,1502.13
620.812,1473.33
621.798,1493.57
622.784,1474.60
623.769,1462.20
624.755,1474.07
625.740,1442.10
626.725,1470.90
627.711,1442.27
628.698,1412.00
629.683,1420.60
630.667,1429.97
631.652,1456.33
632.637,1414.13
633.621,1383.33
634.606,1410.27
635.590,1414.10
636.574,1399.30
637.558,1374.83
638.542,1381.47
639.526,1376.37
640.510,1361.00
641.493,1361.27
642.477,1360.67
643.460,1361.03
644.444,1329.33
645.427,1347.53
646.410,1321.20
647.393,1360.47
648.376,1329.80
649.359,1287.60
650.341,1303.97
651.324,1301.43
652.307,1324.93
653.289,1307.70
654.271,1302.83
655.253,1274.10
656.235,1304.10
657.217,1274.17
658.199,1306.90
659.181,1264.50
660.163,1309.73
661.144,1265.40
662.126,1285.87
663.107,1292.93
664.088,1302.63
665.069,1239.73
666.050,1236.33
667.033,1199.57
668.014,1218.90
668.995,1215.40
669.975,1208.37
670.956,1189.30
671.936,1181.40
672.916,1220.57
673.896,1204.03
674.876,1186.83
675.856,1181.87
676.836,1193.10
677.816,1180.20
678.795,1193.97
679.775,1181.53
680.754,1116.70
681.734,1163.53
682.713,1167.63
683.692,1145.67
684.671,1174.33
685.650,1151.10
686.629,1124.27
687.607,1140.67
688.586,1093.60
689.564,1134.07
690.543,1164.47
691.523,1092.37
692.501,1128.50
693.479,1115.33
694.457,1138.53
695.435,1087.07
696.413,1070.13
697.390,1103.43
698.368,1094.77
699.345,1067.30
700.322,1142.83
701.300,1091.80
702.277,1052.70
703.254,1108.33
704.231,1070.00
705.207,1057.13
706.184,1074.53
707.161,1050.97
708.137,1049.27
709.113,1057.07
710.090,1074.53
711.068,1070.07
712.044,1044.13
713.020,1023.20
713.996,1069.20
714.971,1059.13
715.947,1031.23
716.922,1019.50
717.898,1025.00
718.873,1034.97
719.848,1048.37
720.823,1015.47
721.798,1043.47
722.773,1051.53
723.748,1025.43
724.723,1008.17
725.697,979.00
726.672,1028.67
727.646,1021.30
728.622,1057.80
729.596,990.00
730.570,1045.70
731.544,1015.50
732.518,1009.13
733.492,983.43
734.466,1018.10
735.439,1008.60
736.413,1001.77
737.386,1010.43
738.359,1016.20
739.332,1005.10
740.305,982.27
741.278,985.70
742.251,990.43
743.224,1011.90
744.196,1015.93
745.171,1002.63
746.143,1006.23
747.115,997.40
748.087,1021.47
749.059,999.40
750.031,993.87
751.003,935.93
751.975,977.43
752.947,965.47
753.918,1001.67
754.890,964.80
755.861,984.57
756.832,936.20
757.803,948.57
758.774,950.53
759.747,970.07
760.718,952.33
761.689,977.90
762.659,981.67
763.630,950.70
764.600,923.90
765.570,935.57
766.540,921.20
767.510,937.33
768.480,970.70
769.450,943.97
770.420,907.50
771.390,937.70
772.359,967.90
773.329,946.30
774.300,964.63
775.269,919.10
776.238,916.40
777.207,937.83
778.176,910.50
779.145,926.13
780.114,931.13
781.083,937.77
782.051,930.37
783.019,923.27
783.988,895.97
784.956,877.97
785.924,893.77
786.894,875.77
787.862,933.27
788.830,949.20
789.797,905.93
790.765,906.73
791.732,920.87
792.700,914.90
793.667,880.70
794.634,913.37
795.601,902.53
796.568,875.93
797.535,931.47
798.502,920.50
799.468,900.57
800.437,904.53
801.403,880.13
802.370,900.53
803.336,913.80
804.302,877.27
805.268,913.57
806.234,891.70
807.200,877.73
808.166,884.40
809.131,882.27
810.097,875.83
811.062,854.30
812.027,907.00
812.994,871.77
813.960,875.83
814.925,888.47
815.889,850.37
816.854,839.40
817.819,885.63
818.783,869.07
819.748,870.00
820.712,842.37
821.677,867.27
822.641,845.57
823.605,846.33
824.571,853.93
825.534,870.37
826.498,860.93
827.462,862.33
828.425,841.43
829.389,838.63
830.352,835.03
831.315,853.83
832.279,852.57
833.242,850.90
834.204,828.40
835.167,890.07
836.132,838.30
837.095,848.83
838.057,829.23
839.020,849.97
839.982,859.47
840.944,819.23
841.906,789.33
842.868,813.47
843.830,828.57
844.792,839.30
845.753,819.60
846.715,832.27
847.679,847.30
848.640,823.20
849.601,782.37
850.562,838.10
851.523,810.87
852.484,805.93
853.445,819.73
854.406,812.03
855.367,789.57
856.327,791.57
857.288,801.40
858.248,787.17
859.210,794.10
860.170,802.83
861.130,845.33
862.090,805.73
863.050,784.93
864.010,809.20
864.969,801.63
865.929,844.27
866.888,844.80
867.848,813.00
868.807,836.77
869.766,785.13
870.727,817.67
871.686,804.00
872.645,787.40
873.604,794.77
874.562,812.63
875.521,797.40
876.479,815.97
877.437,820.70
878.396,831.57
879.354,813.67
880.312,790.80
881.270,788.37
882.229,832.23
883.187,805.70
884.145,813.00
885.102,816.10
886.059,795.17
887.017,786.80
887.974,764.57
888.931,809.40
889.888,822.87
890.845,773.10
891.802,790.13
892.758,765.37
893.717,829.97
894.673,801.80
895.630,784.50
896.586,794.97
897.542,750.57
898.498,804.93
899.454,770.77
900.410,808.27
901.366,757.90
902.321,804.40
903.277,762.40
904.232,767.97
905.189,806.17
906.145,779.50
907.100,795.13
908.055,804.97
909.010,776.33
909.965,793.23
910.919,798.50
911.874,786.50
912.828,792.70
913.783,802.83
914.737,787.27
915.693,794.97
916.648,799.73
917.602,799.97
918.555,794.17
919.509,781.30
920.463,763.20
921.417,806.00
922.370,788.90
923.324,777.90
924.277,749.07
925.230,803.73
926.183,761.77
927.138,777.20
928.091,777.50
929.044,750.13
929.996,786.57
930.949,747.57
931.902,773.30
932.854,779.50
933.806,790.73
934.758,790.47
935.711,805.27
936.663,828.70
937.614,734.23
938.568,802.80
939.520,769.53
940.471,792.03
941.423,804.03
942.374,751.23
943.326,784.73
944.277,759.83
945.228,808.83
946.179,763.37
947.130,808.60
948.080,803.30
949.031,818.97
949.984,786.17
950.934,786.57
951.884,793.60
952.835,773.57
953.785,785.47
954.735,796.83
955.685,768.40
956.635,812.30
957.585,745.63
958.534,743.27
959.484,777.90
960.433,784.27
961.383,772.23
962.334,785.30
963.283,773.67
964.232,803.27
965.181,755.00
966.130,748.63
967.079,804.07
968.027,776.70
968.976,779.93
969.924,770.23
970.873,744.83
971.821,766.03
972.769,762.27
973.719,786.13
974.667,778.60
975.615,761.07
976.562,781.17
977.510,774.73
978.458,757.10
979.405,750.23
980.352,803.63
981.300,782.27
982.247,762.30
983.194,755.33
984.141,779.67
985.088,802.40
986.036,752.57
986.983,771.87
987.930,759.33
988.876,764.57
989.822,805.90
990.769,775.07
991.715,790.60
992.661,777.30
993.607,777.97
994.553,804.90
995.498,796.93
996.444,775.23
997.389,809.50
998.337,778.00
999.282,788.57
1000.227,781.00
1001.173,780.13
1002.118,813.13
1003.062,779.83
1004.007,814.90
1004.952,767.73
1005.897,762.67
1006.841,736.90
1007.786,822.33
1008.730,801.87
1009.674,760.40
1010.618,805.73
1011.564,781.73
1012.508,795.90
1013.452,800.77
1014.396,766.20
1015.339,802.70
1016.283,783.73
1017.226,806.57
1018.170,794.40
1019.113,803.87
1020.056,827.60
1020.999,768.83
1021.942,808.07
1022.885,796.03
1023.828,837.43
1024.770,816.20
1025.715,795.63
1026.657,784.40
1027.600,804.37
1028.542,818.10
1029.484,825.60
1030.426,840.07
1031.368,814.57
1032.310,824.47
1033.251,778.67
1034.193,794.23
1035.135,790.93
1036.076,847.03
1037.017,813.60
1037.959,841.00
1038.900,800.60
1039.843,818.33
1040.784,828.70
1041.725,816.93
1042.665,782.33
1043.606,818.70
1044.547,862.97
1045.487,821.13
1046.427,810.67
1047.368,823.67
1048.308,822.67
1049.248,815.50
1050.188,814.80
1051.128,830.17
1052.067,840.73
1053.007,827.73
1053.947,833.17
1054.886,833.77
1055.827,838.40
1056.766,831.97
1057.706,867.60
1058.645,826.87
1059.584,834.00
1060.522,844.60
1061.461,839.40
1062.400,838.53
1063.338,826.13
1064.277,810.83
1065.215,822.80
1066.154,846.60
1067.092,813.93
1068.030,844.90
1068.968,852.80
1069.906,836.33
1070.843,842.43
1071.781,855.93
1072.720,861.63
1073.658,851.50
1074.595,846.57
1075.533,833.23
1076.470,867.83
1077.407,853.73
1078.344,847.73
1079.281,871.77
1080.217,867.30
1081.154,869.40
1082.091,832.97
1083.027,849.17
1083.964,856.07
1084.900,863.90
1085.836,862.83
1086.772,854.80
1087.708,861.40
1088.644,878.43
1089.580,872.80
1090.515,834.93
1091.451,892.67
1092.388,863.13
1093.324,891.80
1094.259,902.50
1095.194,868.20
1096.129,851.03
1097.064,852.93
1097.999,860.50
1098.934,860.40
1099.869,881.10
1100.803,844.30
1101.738,858.27
1102.672,864.20
1103.607,855.13
1104.541,845.87
1105.475,847.10
1106.409,829.17
1107.343,844.47
1108.277,831.87
1109.210,857.87
1110.144,828.60
1111.078,825.47
1112.011,822.70
1112.944,835.20
1113.878,846.00
1114.811,810.50
1115.744,853.27
1116.678,837.27
1117.611,837.67
1118.544,806.20
1119.477,861.17
1120.409,841.33
1121.342,792.90
1122.274,810.77
1123.206,843.43
1124.138,847.87
1125.070,814.50
1126.002,831.37
1126.934,865.87
1127.866,819.30
1128.798,851.67
1129.729,834.30
1130.661,815.83
1131.592,822.13
1132.523,842.10
1133.454,813.10
1134.385,843.40
1135.317,799.87
1136.247,836.23
1137.178,873.80
1138.109,810.50
1139.039,795.63
1139.970,844.07
1140.900,833.77
1141.831,795.50
1142.761,805.43
1143.691,800.97
1144.621,816.93
1145.551,824.33
1146.480,810.53
1147.410,794.00
1148.340,844.77
1149.269,776.97
1150.199,838.80
1151.128,807.40
1152.057,834.63
1152.979,793.50
1153.898,825.50
1154.819,817.17
1155.739,795.67
1156.658,811.27
1157.579,807.03
1158.498,804.53
1159.419,814.63
1160.338,815.30
1161.256,837.23
1162.177,797.87
1163.095,776.63
1164.016,802.93
1164.934,772.10
1165.852,811.00
1166.772,821.63
1167.690,783.37
1168.610,820.20
1169.528,825.77
1170.446,808.43
1171.365,820.30
1172.283,800.40
1173.202,772.10
1174.120,820.03
1175.037,830.97
1175.956,804.60
1176.873,820.67
1177.792,789.73
1178.709,782.67
1179.626,790.53
1180.544,779.23
1181.461,783.33
1182.379,838.77
1183.296,823.93
1184.212,818.43
1185.130,802.90
1186.046,790.57
1186.962,788.10
1187.880,803.00
1188.796,846.77
1189.714,807.27
1190.629,823.03
1191.545,824.70
1192.462,828.10
1193.378,839.47
1194.295,801.33
1195.210,825.63
1196.125,845.77
1197.042,794.23
1197.957,825.27
1198.872,839.97
1199.788,795.83
1200.703,837.67
1201.619,832.83
1202.534,865.83
1203.448,835.43
1204.364,850.17
1205.278,817.73
1206.192,867.63
1207.108,870.53
1208.022,824.23
1208.938,888.00
1209.851,814.50
1210.765,872.10
1211.680,846.97
1212.594,878.10
1213.507,834.80
1214.422,859.40
1215.335,844.60
1216.248,865.93
1217.163,881.93
1218.076,848.23
1218.990,872.90
1219.903,878.90
1220.816,870.57
1221.730,876.13
1222.642,908.80
1223.554,870.30
1224.469,894.50
1225.380,904.17
1226.292,884.60
1227.206,870.80
1228.118,890.63
1229.032,896.63
1229.943,889.13
1230.855,897.33
1231.768,885.43
1232.679,911.63
1233.590,909.70
1234.503,900.93
1235.414,922.00
1236.325,901.30
1237.238,876.47
1238.149,925.73
1239.059,921.70
1239.972,906.33
1240.882,912.97
1241.793,921.80
1242.705,919.97
1243.615,899.07
1244.525,917.33
1245.437,933.77
1246.347,926.77
1247.259,926.97
1248.168,951.00
1249.078,962.90
1249.989,937.77
1250.899,919.70
1251.808,912.60
1252.719,931.43
1253.628,963.30
1254.537,948.23
1255.448,911.80
1256.357,954.67
1257.266,933.10
1258.176,916.60
1259.085,964.37
1259.993,952.17
1260.904,969.13
1261.812,969.47
1262.720,930.10
1263.630,949.70
1264.538,975.13
1265.446,901.40
1266.356,954.10
1267.263,938.33
1268.171,939.70
1269.080,942.13
1269.988,901.10
1270.895,940.50
1271.804,978.57
1272.711,958.60
1273.619,951.27
1274.527,938.70
1275.434,970.10
1276.341,955.57
1277.248,952.07
1278.156,913.50
1279.063,929.97
1279.969,943.63
1280.877,910.43
1281.783,953.33
1282.690,945.27
1283.598,918.37
1284.503,959.87
1285.409,934.57
1286.317,922.60
1287.223,930.13
1288.128,906.83
1289.036,918.10
1289.941,909.13
1290.846,925.40
1291.751,941.03
1292.658,917.43
1293.563,922.63
1294.468,934.20
1295.375,908.10
1296.280,942.97
1297.184,902.63
1298.091,903.00
1298.995,916.67
1299.900,886.83
1300.806,922.17
1301.710,889.70
1302.614,917.47
1303.518,885.13
1304.424,905.30
1305.327,871.73
1306.231,859.77
1307.137,893.70
1308.040,876.70
1308.943,899.17
1309.847,856.03
1310.752,890.53
1311.655,852.73
1312.558,863.97
1313.463,843.33
1314.366,839.97
1315.269,826.00
1316.171,856.03
1317.076,855.30
1317.978,829.90
1318.881,800.13
1319.785,816.33
1320.687,795.37
1321.589,816.67
1322.491,795.37
1323.395,789.87
1324.297,832.57
1325.198,806.23
1326.102,792.27
1327.004,777.60
1327.905,800.37
1328.806,801.97
1329.709,782.17
1330.611,767.67
1331.512,779.53
1332.413,772.53
1333.316,770.67
1334.216,775.53
1335.117,770.63
1336.020,742.27
1336.920,733.90
1337.821,752.97
1338.721,740.30
1339.623,729.07
1340.523,780.80
1341.423,732.17
1342.323,730.40
1343.225,716.90
1344.125,733.97
1345.025,729.23
1345.924,704.37
1346.826,731.40
1347.725,682.60
1348.624,698.83
1349.524,713.53
1350.425,725.83
1351.324,719.87
1352.223,665.97
1353.121,671.77
1354.022,684.00
1354.921,704.10
1355.819,682.17
1356.718,711.60
1357.618,709.47
1358.516,680.83
1359.415,694.30
1360.313,679.30
1361.213,653.00
1362.111,683.57
1363.008,637.90
1363.906,660.50
1364.806,700.30
1365.703,695.00
1366.601,635.47
1367.498,661.20
1368.397,700.17
1369.295,663.53
1370.192,660.73
1371.089,656.00
1371.987,640.87
1372.884,640.30
1373.781,632.87
1374.678,630.37
1375.574,644.53
1376.473,643.27
1377.369,657.27
1378.265,642.70
1379.161,640.20
1380.059,625.67
1380.955,633.93
1381.851,657.17
1382.747,623.30
1383.643,621.13
1384.540,629.13
1385.436,570.80
1386.331,598.83
1387.227,602.77
1388.124,634.40
1389.019,593.83
1389.914,612.50
1390.809,598.17
1391.704,611.90
1392.601,622.63
1393.495,642.30
1394.390,634.83
1395.285,599.47
1396.179,602.70
1397.075,599.80
1397.969,593.67
1398.864,588.83
1399.758,610.67
1400.652,595.70
1401.547,600.50
1402.441,565.00
1403.335,567.23
1404.229,591.60
1405.122,563.77
1406.017,603.90
1406.911,584.60
1407.804,572.43
1408.697,574.53
1409.590,577.30
1410.485,593.50
1411.378,572.57
1412.271,578.87
1413.163,578.87
1414.056,550.87
1414.949,551.10
1415.843,557.83
1416.735,559.30
1417.627,563.50
1418.520,528.27
1419.412,557.63
1420.306,597.03
1421.197,592.77
1422.089,546.83
1422.981,602.07
1423.873,532.87
1424.764,548.43
1425.657,531.97
1426.549,531.00
1427.440,543.40
1428.331,528.87
1429.222,550.53
1430.113,559.50
1431.006,586.33
1431.897,564.37
1432.787,548.47
1433.678,556.97
1434.568,567.23
1435.459,576.13
1436.351,520.63
1437.241,505.07
1438.131,522.03
1439.021,520.87
1439.911,542.50
1440.801,540.10
1441.693,510.43
1442.583,590.33
1443.472,517.53
1444.362,540.93
1445.251,537.13
1446.140,529.13
1447.030,599.70
1447.921,523.30
1448.810,511.40
1449.699,552.10
1450.588,525.57
1451.476,547.80
1452.365,511.73
1453.254,547.90
1454.144,515.57
1455.032,500.27
1455.921,525.07
1456.809,543.80
1457.697,506.87
1458.585,500.97
1459.473,536.33
1460.361,522.23
1461.251,510.37
1462.138,535.83
1463.026,513.00
1463.913,505.53
1464.801,525.03
1465.688,487.80
1466.575,506.60
1467.463,508.03
1468.351,509.53
1469.238,500.57
1470.125,470.13
1471.012,465.33
1471.899,492.80
1472.785,507.23
1473.672,535.80
1474.558,482.00
1475.446,525.53
1476.333,492.83
1477.219,499.80
1478.105,489.07
1478.991,523.10
1479.877,471.73
1480.762,495.77
1481.648,524.10
1482.534,489.43
1483.419,534.67
1484.307,518.20
1485.192,512.43
1486.077,503.00
1486.962,498.97
1487.847,456.03
1488.732,467.00
1489.617,495.67
1490.502,485.30
1491.387,499.70
1492.271,467.13
1493.156,501.77
1494.042,497.03
1494.927,504.10
1495.811,487.83
1496.695,501.83
1497.579,471.43
1498.463,477.73
1499.347,489.43
1500.231,482.77
1501.114,461.83
1501.998,476.17
1502.881,494.93
1503.765,491.60
1504.648,491.40
1505.533,459.20
1506.417,485.33
1507.300,454.37
1508.183,478.47
1509.066,487.03
1509.948,460.93
1510.831,475.67
1511.714,459.90
1512.596,479.83
1513.479,447.77
1514.361,493.70
1515.243,483.80
1516.125,437.53
1517.008,444.07
1517.890,459.97
1518.771,475.83
1519.655,482.17
1520.537,490.37
1521.419,457.27
1522.300,472.20
1523.182,453.47
1524.063,457.50
1524.944,460.47
1525.825,478.13
1526.707,464.83
1527.588,471.33
1528.468,481.33
1529.349,468.67
1530.230,475.67
1531.111,502.50
1531.991,456.67
1532.872,473.80
1533.752,426.33
1534.632,484.83
1535.513,441.83
1536.393,474.17
1537.273,454.97
1538.153,519.37
1539.032,441.50
1539.912,472.53
1540.792,438.47
1541.672,435.80
1542.551,456.37
1543.430,469.60
1544.310,429.53
1545.189,430.63
1546.068,470.90
1546.947,458.80
1547.826,453.63
1548.705,437.80
1549.584,450.73
1550.462,425.63
1551.341,458.00
1552.219,454.73
1553.098,442.27
1553.976,443.00
1554.854,446.00
1555.733,445.80
1556.611,437.17
1557.489,444.70
1558.367,415.90
1559.244,464.73
1560.122,472.87
1561.000,456.53
1561.877,467.07
1562.755,423.00
1563.632,443.00
1564.509,423.10
1565.386,456.27
1566.264,423.80
1567.141,449.60
1568.017,407.43
1568.894,428.87
1569.771,452.57
1570.648,433.70
1571.524,439.87
1572.401,453.40
1573.277,441.57
1574.153,443.87
1575.029,441.87
1575.906,440.37
1576.781,460.60
1577.657,422.73
1578.533,420.93
1579.409,446.10
1580.285,443.03
1581.160,463.07
1582.036,428.83
1582.911,423.03
1583.786,415.73
1584.662,415.23
1585.537,432.83
1586.412,410.30
1587.287,447.10
1588.160,410.43
1589.035,417.70
1589.909,419.33
1590.784,414.90
1591.658,445.00
1592.533,410.10
1593.407,468.97
1594.281,421.73
1595.155,449.33
1596.029,419.97
1596.903,430.67
1597.777,418.77
1598.651,431.43
1599.525,433.93
1600.398,454.10
1601.272,418.73
1602.144,443.43
1603.017,427.77
1603.890,414.30
1604.763,441.07
1605.636,409.77
1606.509,447.47
1607.382,429.10
1608.255,417.53
1609.128,410.03
1610.000,435.20
1610.873,434.63
1611.746,435.17
1612.616,412.50
1613.488,426.30
1614.361,455.53
1615.233,418.07
1616.105,391.77
1616.977,431.20
1617.849,396.70
1618.720,416.03
1619.592,384.70
1620.464,403.60
1621.333,423.83
1622.205,448.73
1623.076,424.33
1623.947,406.27
1624.818,443.50
1625.689,457.43
1626.560,409.33
1627.431,392.87
1628.302,447.10
1629.171,446.30
1630.042,419.60
1630.912,415.73
1631.782,451.10
1632.653,391.37
1633.523,388.43
1634.393,411.47
1635.263,431.60
1636.131,436.97
1637.001,428.00
1637.871,414.17
1638.741,408.57
1639.611,407.23
1640.480,402.27
1641.350,423.87
1642.219,421.77
1643.087,425.83
1643.956,412.47
1644.825,389.63
1645.694,375.30
1646.563,409.03
1647.432,394.27
1648.299,450.90
1649.167,417.70
1650.036,394.03
1650.904,406.87
1651.773,396.90
1652.641,440.77
1653.509,388.50
1654.376,418.00
1655.244,444.93
1656.112,396.03
1656.980,399.00
1657.847,415.97
1658.715,429.77
1659.581,394.90
1660.448,405.47
1661.316,411.47
1662.183,390.37
1663.051,410.33
1663.918,434.77
1664.783,410.73
1665.650,386.80
1666.517,465.53
1667.384,413.57
1668.251,404.10
1669.115,379.47
1669.982,435.73
1670.849,398.40
1671.715,412.10
1672.581,385.13
1673.446,428.10
1674.312,408.87
1675.178,416.70
1676.044,416.50
1676.910,410.13
1677.774,432.87
1678.639,395.63
1679.505,402.97
1680.370,380.70
1681.236,395.67
1682.099,367.57
1682.965,391.03
1683.830,415.37
1684.695,392.03
1685.560,397.47
1686.423,382.37
1687.288,406.37
1688.153,349.00
1689.017,381.67
1689.880,403.73
1690.745,396.07
1691.609,414.20
1692.473,373.13
1693.338,400.03
1694.200,431.47
1695.064,382.90
1695.928,413.37
1696.792,358.90
1697.654,393.40
1698.517,383.90
1699.381,369.10
1700.245,384.17
1701.106,406.13
1701.969,432.47
1702.833,371.03
1703.696,399.97
1704.557,422.30
1705.420,394.13
1706.283,412.80
1707.146,366.70
1708.007,367.57
1708.870,369.50
1709.732,388.63
1710.595,403.57
1711.455,377.70
1712.318,386.57
1713.180,407.03
1714.040,369.57
1714.902,376.60
1715.764,374.77
1716.626,399.13
1717.486,390.17
1718.348,414.67
1719.209,448.80
1720.071,390.40
1720.930,406.10
1721.792,393.57
1722.653,358.67
1723.512,393.70
1724.374,385.13
1725.234,408.83
1726.095,386.87
1726.954,400.47
1727.815,415.90
1728.676,383.83
1729.535,388.50
1730.395,394.53
1731.256,433.93
1732.114,400.93
1732.974,377.90
1733.834,397.97
1734.693,414.97
1735.553,380.07
1736.413,403.97
1737.272,381.13
1738.130,395.67
1738.990,385.20
1739.849,412.67
1740.707,417.53
1741.566,381.67
1742.426,345.50
1743.283,373.97
1744.142,402.80
1745.001,359.07
1745.858,406.37
1746.717,382.83
1747.576,417.73
1748.433,371.17
1749.292,350.33
1750.150,445.90
1751.007,400.27
1751.865,371.13
1752.723,378.17
1753.579,375.67
1754.438,406.50
1755.296,427.27
1756.152,392.03
1757.010,382.10
1757.865,426.83
1758.723,390.43
1759.581,401.90
1760.436,359.43
1761.294,385.23
1762.151,382.90
1763.006,371.37
1763.864,420.40
1764.721,374.20
1765.576,376.57
1766.433,415.80
1767.288,377.37
1768.144,388.80
1769.001,417.47
1769.856,409.33
1770.712,390.80
1771.568,412.70
1772.423,400.20
1773.279,410.80
1774.133,404.53
1774.989,418.47
1775.845,370.63
1776.699,399.27
1777.555,406.03
1778.409,365.40
1779.265,383.17
1780.120,378.47
1780.974,388.70
1781.829,423.93
1782.682,419.57
1783.538,379.33
1784.393,393.83
1785.246,426.03
1786.101,380.60
1786.954,374.33
1787.808,382.70
1788.661,409.03
1789.516,386.80
1790.370,390.23
1791.223,411.63
1792.077,407.67
1792.930,368.07
1793.784,373.23
1794.636,405.33
1795.490,401.67
1796.344,385.30
1797.196,371.23
1798.049,402.07
1798.901,414.47
1799.755,376.70
1800.606,396.50
1801.460,405.93
1802.311,382.73
1803.165,367.10
1804.018,391.17
1804.869,395.53
1805.722,363.60
1806.573,337.00
1807.426,374.27
1808.276,362.60
1809.129,380.83
1809.980,335.23
1810.832,375.07
1811.683,389.73
1812.535,367.27
1813.385,405.80
1814.237,390.27
1815.089,386.77
1815.940,381.33
1816.791,390.13
1817.641,405.73
1818.493,425.63
1819.343,366.07
1820.194,385.07
1821.044,377.53
1821.895,362.10
1822.745,413.00
1823.596,391.80
1824.445,382.27
1825.296,362.57
1826.145,379.87
1826.996,419.93
1827.845,376.10
1828.695,391.73
1829.544,425.13
1830.395,392.80
1831.243,377.63
1832.094,367.00
1832.942,341.13
1833.792,408.90
1834.640,384.00
1835.490,417.13
1836.338,413.80
1837.186,364.80
1838.036,366.93
1838.884,378.93
1839.733,373.77
1840.581,386.20
1841.430,381.00
1842.278,406.43
1843.127,382.17
1843.974,366.33
1844.823,372.43
1845.671,372.70
1846.519,407.70
1847.366,403.77
1848.213,376.43
1849.062,386.87
1849.909,377.23
1850.757,384.50
1851.604,369.27
1852.452,349.20
1853.298,357.77
1854.146,362.13
1854.993,353.97
1855.839,367.03
1856.687,380.53
1857.532,339.50
1858.380,397.63
1859.226,395.67
1860.073,378.43
1860.919,347.67
1861.765,384.87
1862.612,368.43
1863.457,371.77
1864.304,378.30
1865.150,312.30
1865.995,405.60
1866.842,374.87
1867.686,410.27
1868.533,390.30
1869.378,336.43
1870.223,390.93
1871.069,369.93
1871.914,321.00
1872.760,359.20
1873.604,363.60
1874.448,390.30
1875.294,408.93
1876.139,359.17
1876.984,414.13
1877.828,385.67
1878.672,399.60
1879.518,355.63
1880.361,385.67
1881.205,410.23
1882.050,361.83
1882.894,387.40
1883.739,342.47
1884.582,382.47
1885.425,374.97
1886.270,391.10
1887.113,358.80
1887.956,385.63
1888.801,379.97
1889.644,368.63
1890.486,375.13
1891.331,392.50
1892.173,367.63
1893.017,370.13
1893.860,363.63
1894.702,381.90
1895.546,343.97
1896.388,380.63
1897.230,401.47
1898.074,362.37
1898.916,394.77
1899.757,407.73
1900.601,370.80
1901.443,406.03
1902.284,356.83
1903.125,356.97
1903.969,368.90
1904.810,346.70
1905.651,397.03
1906.494,381.20
1907.335,367.87
1908.176,384.37
1909.018,369.50
1909.859,398.70
1910.700,391.27
1911.542,386.63
1912.383,358.93
1913.223,380.83
1914.064,339.03
1914.906,368.97
1915.746,391.40
1916.586,374.20
1917.428,387.93
1918.268,355.07
1919.107,371.63
1919.947,390.70
1920.789,373.00
1921.628,377.70
1922.468,351.00
1923.309,341.97
1924.148,363.60
1924.988,377.97
1925.827,366.20
1926.667,369.70
1927.507,387.43
1928.345,360.13
1929.184,390.20
1930.025,393.33
1930.864,368.50
1931.702,379.07
1932.541,370.63
1933.381,347.57
1934.219,381.83
1935.057,394.13
1935.896,366.20
1936.735,388.83
1937.573,345.47
1938.411,370.87
1939.249,378.23
1940.089,371.37
1940.927,341.43
1941.764,389.10
1942.602,370.67
1943.439,390.37
1944.278,395.80
1945.115,357.00
1945.953,370.80
1946.790,363.13
1947.628,371.97
1948.465,323.03
1949.302,326.87
1950.139,317.90
1950.976,334.30
1951.814,376.30
1952.651,366.97
1953.487,374.80
1954.323,392.73
1955.160,345.87
1955.998,386.33
1956.834,364.20
1957.670,365.17
1958.506,367.33
1959.342,373.87
1960.177,419.73
1961.015,372.43
1961.850,366.83
1962.686,402.97
1963.521,384.17
1964.357,348.47
1965.192,390.83
1966.029,365.23
1966.864,374.87
1967.699,378.10
1968.534,360.07
1969.369,360.90
1970.204,375.90
1971.040,372.30
1971.875,333.20
1972.709,388.60
1973.544,390.53
1974.378,360.20
1975.212,377.00
1976.047,370.07
1976.882,372.87
1977.716,385.33
1978.550,354.90
1979.384,355.60
1980.218,379.27
1981.052,351.17
1981.885,366.43
1982.719,380.37
1983.554,370.33
1984.388,353.87
1985.221,377.77
1986.054,387.37
1986.887,407.83
1987.720,328.83
1988.553,411.00
1989.386,401.50
1990.219,386.47
1991.053,375.90
1991.886,376.47
1992.719,361.47
1993.551,370.50
1994.383,382.13
1995.216,398.27
1996.048,395.57
1996.880,337.13
1997.712,389.33
1998.544,390.70
1999.376,378.97
2000.208,387.20
2000.208,387.20

Max Intensity Wave.,219.929
Max Intensity Data,5821.23
Min Intensity Wave.,1865.150
Min Intensity Data,312.30
FWHM Wave.,402.568
FWHM Value,1.09
Pressure Wave.,684.671
Pressure Value [GPa],-24.91530
G/D Ratio,0.51315
G/D Gband Wave.,1559.975
G/D Gband Intensity,473.21
G/D Dband Wave.,1300.806
G/D Dband Intensity,922.17

<< BACKGROUND SPECTRUM >>
Wave[dcm-1],No197
146.591,2257.00
147.626,2084.00
148.664,2058.00
149.699,2517.00
150.737,2254.00
151.772,2406.00
152.809,2357.00
153.846,2297.00
154.881,2391.00
155.918,1940.00
156.953,2268.00
157.989,2599.00
159.026,2431.00
160.060,2623.00
161.096,2837.00
162.130,2480.00
163.167,2571.00
164.200,2463.00
165.236,2642.00
166.272,2674.00
167.305,2264.00
168.341,2535.00
169.374,2758.00
170.409,2741.00
171.445,2717.00
172.477,2532.00
173.512,2386.00
174.545,2660.00
175.580,2842.00
176.614,3015.00
177.647,2817.00
178.681,3052.00
179.713,3345.00
180.747,2809.00
181.781,2723.00
182.813,2950.00
183.847,3089.00
184.878,2683.00
185.912,2962.00
186.945,3091.00
187.976,3096.00
189.010,2710.00
190.043,2819.00
191.073,2873.00
192.106,2723.00
193.137,3156.00
194.170,2545.00
195.202,2930.00
196.232,2666.00
197.265,2959.00
198.297,3061.00
199.327,2751.00
200.359,2932.00
201.388,3276.00
202.420,2883.00
203.452,3074.00
204.481,2683.00
205.512,3237.00
206.544,3064.00
207.573,3075.00
208.604,3368.00
209.635,3482.00
210.663,2879.00
211.694,2965.00
212.725,2814.00
213.753,2768.00
214.783,3364.00
215.813,3222.00
216.841,2986.00
217.871,3132.00
218.899,2889.00
219.929,3124.00
220.959,2869.00
221.986,3156.00
223.016,2744.00
224.045,3147.00
225.072,3072.00
226.101,3195.00
227.130,3232.00
228.157,2844.00
229.185,2382.00
230.214,3188.00
231.241,2802.00
232.269,2453.00
233.297,2688.00
234.323,3217.00
235.351,2788.00
236.379,3064.00
237.407,2719.00
238.433,2937.00
239.460,3083.00
240.488,3104.00
241.513,3180.00
242.540,3086.00
243.568,3223.00
244.592,3202.00
245.619,3181.00
246.646,2941.00
247.671,2953.00
248.697,2770.00
249.724,2985.00
250.748,2962.00
251.774,3030.00
252.801,3258.00
253.827,3073.00
254.850,3055.00
255.876,2641.00
256.902,3092.00
257.925,2981.00
258.951,2758.00
259.976,2794.00
260.999,3066.00
262.024,2793.00
263.049,3606.00
264.074,3068.00
265.097,3013.00
266.122,3073.00
267.146,3043.00
268.168,3200.00
269.193,2813.00
270.217,3182.00
271.241,2734.00
272.263,2843.00
273.287,3184.00
274.311,2731.00
275.332,3313.00
276.356,2813.00
277.379,3070.00
278.402,3140.00
279.424,2955.00
280.447,2858.00
281.470,2706.00
282.492,3040.00
283.513,2880.00
284.536,3163.00
285.558,3113.00
286.581,3109.00
287.601,2857.00
288.623,2792.00
289.645,3046.00
290.665,3119.00
291.687,3126.00
292.709,3134.00
293.730,3360.00
294.750,2876.00
295.771,2775.00
296.792,3017.00
297.813,2924.00
298.832,3024.00
299.853,2701.00
300.874,2966.00
301.895,2946.00
302.913,2980.00
303.934,3253.00
304.954,3022.00
305.975,4197.00
306.993,2720.00
308.013,3117.00
309.033,3010.00
310.052,2884.00
311.072,2867.00
312.090,3044.00
313.109,3270.00
314.129,3352.00
315.148,3013.00
316.165,3018.00
317.184,3233.00
318.203,2732.00
319.222,2741.00
320.238,3114.00
321.257,2840.00
322.275,2695.00
323.294,2981.00
324.312,3119.00
325.328,3273.00
326.346,3284.00
327.364,3194.00
328.382,3138.00
329.397,3090.00
330.415,3219.00
331.432,3216.00
332.450,3245.00
333.467,3433.00
334.482,2581.00
335.499,3318.00
336.516,2885.00
337.533,2618.00
338.547,2819.00
339.564,2826.00
340.580,3056.00
341.597,2974.00
342.613,3428.00
343.627,2991.00
344.643,3052.00
345.659,3089.00
346.675,2944.00
347.690,2860.00
348.704,3075.00
349.719,2872.00
350.735,2742.00
351.750,3152.00
352.765,3033.00
353.778,2975.00
354.793,3157.00
355.808,2853.00
356.822,3160.00
357.837,2615.00
358.851,3215.00
359.864,2958.00
360.878,2682.00
361.892,2929.00
362.906,3123.00
363.920,2582.00
364.932,3124.00
365.945,3080.00
366.959,2979.00
367.972,2915.00
368.986,2756.00
369.999,3384.00
371.010,2845.00
372.023,3319.00
373.036,2919.00
374.049,3377.00
375.061,3040.00
376.072,3014.00
377.084,2854.00
378.097,2706.00
379.109,3198.00
380.121,3012.00
381.133,2648.00
382.143,3133.00
383.155,2744.00
384.166,2872.00
385.178,3124.00
386.189,3217.00
387.201,2710.00
388.212,2880.00
389.221,2936.00
390.232,3037.00
391.243,2967.00
392.254,3040.00
393.264,2825.00
394.275,3212.00
395.283,3155.00
396.294,3583.00
397.304,3516.00
398.314,3131.00
399.324,3021.00
400.334,2683.00
401.344,3150.00
402.351,2608.00
403.361,3162.00
404.370,2995.00
405.380,2875.00
406.389,3309.00
407.398,3149.00
408.407,3104.00
409.414,3142.00
410.423,3326.00
411.431,2762.00
412.440,2663.00
413.448,3305.00
414.457,2829.00
415.465,2749.00
416.471,2881.00
417.479,3018.00
418.487,2807.00
419.495,3290.00
420.503,3118.00
421.510,2599.00
422.518,3169.00
423.525,3154.00
424.530,3393.00
425.537,2861.00
426.544,3259.00
427.551,2854.00
428.558,3576.00
429.565,3419.00
430.571,2850.00
431.578,2850.00
432.582,2849.00
433.588,2945.00
434.595,2635.00
435.601,3312.00
436.607,3220.00
437.612,2735.00
438.618,3366.00
439.624,2914.00
440.627,2909.00
441.633,3096.00
442.638,3587.00
443.643,3121.00
444.648,2985.00
445.653,3190.00
446.658,2853.00
447.663,3019.00
448.667,2879.00
449.672,2927.00
450.674,2993.00
451.678,2727.00
452.682,2854.00
453.687,2838.00
454.690,3611.00
455.694,3255.00
456.698,2547.00
457.702,2637.00
458.705,2761.00
459.709,2795.00
460.710,2834.00
461.713,3026.00
462.716,3019.00
463.719,2975.00
464.722,3179.00
465.725,2949.00
466.727,2832.00
467.730,3051.00
468.732,2751.00
469.735,3274.00
470.737,2898.00
471.737,2909.00
472.739,2914.00
473.741,2830.00
474.742,3061.00
475.744,3056.00
476.746,3026.00
477.747,2952.00
478.748,3169.00
479.750,2906.00
480.751,2952.00
481.752,3713.00
482.753,3080.00
483.751,3546.00
484.752,2585.00
485.753,2961.00
486.753,2859.00
487.753,2977.00
488.754,3385.00
489.754,2687.00
490.754,3307.00
491.754,3150.00
492.754,2683.00
493.753,3027.00
494.753,2935.00
495.752,3342.00
496.752,2997.00
497.749,3042.00
498.748,2851.00
499.747,3411.00
500.746,3057.00
501.745,2758.00
502.744,2748.00
503.742,3299.00
504.741,2971.00
505.739,2487.00
506.737,2897.00
507.735,3184.00
508.734,3386.00
509.732,3135.00
510.729,3266.00
511.727,2890.00
512.725,2925.00
513.720,2768.00
514.718,3234.00
515.715,2701.00
516.712,2593.00
517.709,2930.00
518.706,2861.00
519.703,3057.00
520.700,3163.00
521.696,3323.00
522.693,2900.00
523.689,2863.00
524.686,3147.00
525.682,2766.00
526.678,3438.00
527.674,2896.00
528.670,2594.00
529.666,3454.00
530.661,3480.00
531.657,3668.00
532.652,3157.00
533.648,2973.00
534.641,3212.00
535.636,3016.00
536.631,3052.00
537.626,3134.00
538.621,2747.00
539.616,2597.00
540.610,2520.00
541.605,2981.00
542.599,3080.00
543.593,2990.00
544.587,3907.00
545.581,2804.00
546.575,3026.00
547.569,3004.00
548.563,2688.00
549.557,2674.00
550.550,2809.00
551.543,2741.00
552.537,3177.00
553.530,2744.00
554.523,2764.00
555.516,3086.00
556.509,2947.00
557.502,2622.00
558.494,3172.00
559.487,2896.00
560.479,3153.00
561.472,3227.00
562.464,3109.00
563.456,3293.00
564.448,2941.00
565.440,2986.00
566.432,3311.00
567.423,2874.00
568.415,2871.00
569.404,3103.00
570.396,2813.00
571.387,3118.00
572.378,3008.00
573.369,3958.00
574.360,3639.00
575.351,2922.00
576.341,2832.00
577.332,2921.00
578.323,2661.00
579.313,2867.00
580.303,3232.00
581.293,3133.00
582.283,2970.00
583.273,3111.00
584.263,3026.00
585.253,3068.00
586.243,3131.00
587.232,2664.00
588.222,2958.00
589.211,3161.00
590.200,3053.00
591.189,2922.00
592.178,2924.00
593.167,3393.00
594.156,3266.00
595.145,2882.00
596.133,3432.00
597.122,3081.00
598.110,3215.00
599.098,3068.00
600.086,2976.00
601.074,3172.00
602.062,2834.00
603.050,2710.00
604.038,3120.00
605.025,2745.00
606.013,3196.00
607.000,3329.00
607.987,3053.00
608.975,3021.00
609.962,2726.00
610.949,3161.00
611.936,3242.00
612.922,3159.00
613.909,2695.00
614.895,3340.00
615.882,2842.00
616.868,2972.00
617.854,2718.00
618.841,3003.00
619.826,3081.00
620.812,2997.00
621.798,2789.00
622.784,3177.00
623.769,3098.00
624.755,2698.00
625.740,3066.00
626.725,2715.00
627.711,2859.00
628.698,3089.00
629.683,2805.00
630.667,3156.00
631.652,2715.00
632.637,2947.00
633.621,3178.00
634.606,2906.00
635.590,3089.00
636.574,2931.00
637.558,3074.00
638.542,3033.00
639.526,2828.00
640.510,2635.00
641.493,3046.00
642.477,2989.00
643.460,2671.00
644.444,3240.00
645.427,3211.00
646.410,2669.00
647.393,2942.00
648.376,3054.00
649.359,2932.00
650.341,3075.00
651.324,3090.00
652.307,3016.00
653.289,2929.00
654.271,2852.00
655.253,2911.00
656.235,3097.00
657.217,3244.00
658.199,2602.00
659.181,2760.00
660.163,2942.00
661.144,2842.00
662.126,2853.00
663.107,2740.00
664.088,6125.00
665.069,3225.00
666.050,2805.00
667.033,2743.00
668.014,3053.00
668.995,2590.00
669.975,2983.00
670.956,3007.00
671.936,3159.00
672.916,2930.00
673.896,3072.00
674.876,2915.00
675.856,2859.00
676.836,2731.00
677.816,2317.00
678.795,2792.00
679.775,2667.00
680.754,3071.00
681.734,3127.00
682.713,3134.00
683.692,2784.00
684.671,2618.00
685.650,2747.00
686.629,2862.00
687.607,2725.00
688.586,2785.00
689.564,2828.00
690.543,3191.00
691.523,2397.00
692.501,2802.00
693.479,2922.00
694.457,2757.00
695.435,2866.00
696.413,2682.00
697.390,2508.00
698.368,2673.00
699.345,3114.00
700.322,2872.00
701.300,3049.00
702.277,3072.00
703.254,3211.00
704.231,2557.00
705.207,2972.00
706.184,2763.00
707.161,2668.00
708.137,2831.00
709.113,2798.00
710.090,2772.00
711.068,2566.00
712.044,2612.00
713.020,2898.00
713.996,2581.00
714.971,2784.00
715.947,2852.00
716.922,2816.00
717.898,2745.00
718.873,2882.00
719.848,2697.00
720.823,2704.00
721.798,2953.00
722.773,2727.00
723.748,2525.00
724.723,3014.00
725.697,2865.00
726.672,2742.00
727.646,2498.00
728.622,2923.00
729.596,2605.00
730.570,2686.00
731.544,3052.00
732.518,3249.00
733.492,2815.00
734.466,2843.00
735.439,2992.00
736.413,3100.00
737.386,2438.00
738.359,2402.00
739.332,2511.00
740.305,2845.00
741.278,3301.00
742.251,2905.00
743.224,2700.00
744.196,2515.00
745.171,3098.00
746.143,3002.00
747.115,2751.00
748.087,2668.00
749.059,3067.00
750.031,2881.00
751.003,3705.00
751.975,3238.00
752.947,2685.00
753.918,3055.00
754.890,2567.00
755.861,2754.00
756.832,3045.00
757.803,2843.00
758.774,2842.00
759.747,2586.00
760.718,3204.00
761.689,2715.00
762.659,2567.00
763.630,3140.00
764.600,2573.00
765.570,3057.00
766.540,3158.00
767.510,2946.00
768.480,3005.00
769.450,2731.00
770.420,2847.00
771.390,2637.00
772.359,2728.00
773.329,2651.00
774.300,2487.00
775.269,2754.00
776.238,2994.00
777.207,3149.00
778.176,2518.00
779.145,2790.00
780.114,2664.00
781.083,2544.00
782.051,2742.00
783.019,2681.00
783.988,3101.00
784.956,2873.00
785.924,2993.00
786.894,2897.00
787.862,2674.00
788.830,3091.00
789.797,2623.00
790.765,2595.00
791.732,2754.00
792.700,2645.00
793.667,2611.00
794.634,2742.00
795.601,2735.00
796.568,2808.00
797.535,2790.00
798.502,3415.00
799.468,2897.00
800.437,2379.00
801.403,2657.00
802.370,3248.00
803.336,2966.00
804.302,2882.00
805.268,2419.00
806.234,2555.00
807.200,2740.00
808.166,2777.00
809.131,2569.00
810.097,2974.00
811.062,3663.00
812.027,2980.00
812.994,2606.00
813.960,2611.00
814.925,2924.00
815.889,2519.00
816.854,3025.00
817.819,2620.00
818.783,2722.00
819.748,3073.00
820.712,2759.00
821.677,2663.00
822.641,2705.00
823.605,2713.00
824.571,3135.00
825.534,2723.00
826.498,2678.00
827.462,2794.00
828.425,2626.00
829.389,3066.00
830.352,2846.00
831.315,2885.00
832.279,2496.00
833.242,2736.00
834.204,2660.00
835.167,2608.00
836.132,3059.00
837.095,2501.00
838.057,2708.00
839.020,2808.00
839.982,2821.00
840.944,2698.00
841.906,2683.00
842.868,2980.00
843.830,2536.00
844.792,3039.00
845.753,2688.00
846.715,2430.00
847.679,2581.00
848.640,2620.00
849.601,2786.00
850.562,3224.00
851.523,2721.00
852.484,2487.00
853.445,2969.00
854.406,2724.00
855.367,2745.00
856.327,3074.00
857.288,2531.00
858.248,2718.00
859.210,2721.00
860.170,2535.00
861.130,2972.00
862.090,2434.00
863.050,2652.00
864.010,2686.00
864.969,2907.00
865.929,2560.00
866.888,2489.00
867.848,2828.00
868.807,2632.00
869.766,2870.00
870.727,2721.00
871.686,2990.00
872.645,3017.00
873.604,3312.00
874.562,2765.00
875.521,2803.00
876.479,3336.00
877.437,2571.00
878.396,2560.00
879.354,3158.00
880.312,2610.00
881.270,2680.00
882.229,3075.00
883.187,2624.00
884.145,2656.00
885.102,2924.00
886.059,2833.00
887.017,2903.00
887.974,2985.00
888.931,3061.00
889.888,2496.00
890.845,2451.00
891.802,2358.00
892.758,2671.00
893.717,2414.00
894.673,2560.00
895.630,2646.00
896.586,2904.00
897.542,2719.00
898.498,2512.00
899.454,2880.00
900.410,2668.00
901.366,2704.00
902.321,2599.00
903.277,2725.00
904.232,2777.00
905.189,2456.00
906.145,2669.00
907.100,2218.00
908.055,2703.00
909.010,2938.00
909.965,2336.00
910.919,2783.00
911.874,2572.00
912.828,2762.00
913.783,2756.00
914.737,2360.00
915.693,2751.00
916.648,2896.00
917.602,2929.00
918.555,2780.00
919.509,2845.00
920.463,2778.00
921.417,2732.00
922.370,2570.00
923.324,2685.00
924.277,2699.00
925.230,2737.00
926.183,2437.00
927.138,2697.00
928.091,2951.00
929.044,2842.00
929.996,2643.00
930.949,2690.00
931.902,2842.00
932.854,2842.00
933.806,2565.00
934.758,2962.00
935.711,2961.00
936.663,2748.00
937.614,2841.00
938.568,2714.00
939.520,2404.00
940.471,2698.00
941.423,2768.00
942.374,2919.00
943.326,2756.00
944.277,2609.00
945.228,2824.00
946.179,2725.00
947.130,3007.00
948.080,2648.00
949.031,2539.00
949.984,2681.00
950.934,2710.00
951.884,2463.00
952.835,2708.00
953.785,2734.00
954.735,2590.00
955.685,2365.00
956.635,2599.00
957.585,2660.00
958.534,2660.00
959.484,2741.00
960.433,2611.00
961.383,2474.00
962.334,2960.00
963.283,2788.00
964.232,2823.00
965.181,2735.00
966.130,2812.00
967.079,2596.00
968.027,2729.00
968.976,2739.00
969.924,2622.00
970.873,2841.00
971.821,2764.00
972.769,2942.00
973.719,2851.00
974.667,2481.00
975.615,2742.00
976.562,2720.00
977.510,2420.00
978.458,2643.00
979.405,2862.00
980.352,2744.00
981.300,2964.00
982.247,2817.00
983.194,2570.00
984.141,2636.00
985.088,2724.00
986.036,2813.00
986.983,3015.00
987.930,3140.00
988.876,2381.00
989.822,2932.00
990.769,2567.00
991.715,2603.00
992.661,2444.00
993.607,2802.00
994.553,3245.00
995.498,2587.00
996.444,2295.00
997.389,2761.00
998.337,2537.00
999.282,2874.00
1000.227,2670.00
1001.173,2730.00
1002.118,2430.00
1003.062,2923.00
1004.007,2665.00
1004.952,3009.00
1005.897,2969.00
1006.841,2748.00
1007.786,2430.00
1008.730,2422.00
1009.674,3202.00
1010.618,2646.00
1011.564,2521.00
1012.508,2404.00
1013.452,2933.00
1014.396,2769.00
1015.339,2616.00
1016.283,2706.00
1017.226,2736.00
1018.170,2710.00
1019.113,2902.00
1020.056,2704.00
1020.999,2752.00
1021.942,2592.00
1022.885,2865.00
1023.828,2965.00
1024.770,2497.00
1025.715,2760.00
1026.657,2709.00
1027.600,2751.00
1028.542,2914.00
1029.484,2735.00
1030.426,2824.00
1031.368,2763.00
1032.310,2566.00
1033.251,2565.00
1034.193,2714.00
1035.135,2516.00
1036.076,2598.00
1037.017,2532.00
1037.959,2802.00
1038.900,2781.00
1039.843,2801.00
1040.784,2745.00
1041.725,2796.00
1042.665,2652.00
1043.606,2770.00
1044.547,2703.00
1045.487,2371.00
1046.427,2680.00
1047.368,2757.00
1048.308,2241.00
1049.248,2519.00
1050.188,2719.00
1051.128,2617.00
1052.067,2642.00
1053.007,2403.00
1053.947,2386.00
1054.886,2574.00
1055.827,2490.00
1056.766,2896.00
1057.706,2427.00
1058.645,2677.00
1059.584,2757.00
1060.522,2968.00
1061.461,2444.00
1062.400,2475.00
1063.338,2662.00
1064.277,2534.00
1065.215,2532.00
1066.154,2405.00
1067.092,2635.00
1068.030,2636.00
1068.968,2857.00
1069.906,3016.00
1070.843,2970.00
1071.781,2747.00
1072.720,2800.00
1073.658,2822.00
1074.595,2609.00
1075.533,2577.00
1076.470,2578.00
1077.407,2988.00
1078.344,2784.00
1079.281,2791.00
1080.217,2315.00
1081.154,2660.00
1082.091,2765.00
1083.027,2465.00
1083.964,2935.00
1084.900,2550.00
1085.836,2605.00
1086.772,2894.00
1087.708,2467.00
1088.644,2826.00
1089.580,2684.00
1090.515,2775.00
1091.451,2577.00
1092.388,2714.00
1093.324,2428.00
1094.259,3208.00
1095.194,2750.00
1096.129,2631.00
1097.064,2581.00
1097.999,2816.00
1098.934,2549.00
1099.869,2552.00
1100.803,2727.00
1101.738,2714.00
1102.672,2388.00
1103.607,2815.00
1104.541,2565.00
1105.475,2558.00
1106.409,2449.00
1107.343,2621.00
1108.277,2451.00
1109.210,2707.00
1110.144,2700.00
1111.078,2695.00
1112.011,2462.00
1112.944,2783.00
1113.878,2747.00
1114.811,2224.00
1115.744,2578.00
1116.678,2312.00
1117.611,2575.00
1118.544,2635.00
1119.477,2728.00
1120.409,2553.00
1121.342,3160.00
1122.274,2770.00
1123.206,3086.00
1124.138,2652.00
1125.070,2999.00
1126.002,2849.00
1126.934,2260.00
1127.866,2569.00
1128.798,2312.00
1129.729,2374.00
1130.661,2671.00
1131.592,2576.00
1132.523,2726.00
1133.454,2768.00
1134.385,2276.00
1135.317,2675.00
1136.247,2560.00
1137.178,2812.00
1138.109,2380.00
1139.039,3017.00
1139.970,2807.00
1140.900,2552.00
1141.831,2361.00
1142.761,2236.00
1143.691,2782.00
1144.621,2642.00
1145.551,2685.00
1146.480,2691.00
1147.410,2869.00
1148.340,2273.00
1149.269,2397.00
1150.199,2562.00
1151.128,3039.00
1152.057,2426.00
1152.979,2591.00
1153.898,2611.00
1154.819,2725.00
1155.739,2642.00
1156.658,2560.00
1157.579,2674.00
1158.498,2646.00
1159.419,2175.00
1160.338,2669.00
1161.256,2669.00
1162.177,2505.00
1163.095,2657.00
1164.016,2714.00
1164.934,2927.00
1165.852,2822.00
1166.772,2611.00
1167.690,2670.00
1168.610,2696.00
1169.528,2631.00
1170.446,2196.00
1171.365,2554.00
1172.283,2521.00
1173.202,2677.00
1174.120,2670.00
1175.037,2480.00
1175.956,2473.00
1176.873,2502.00
1177.792,2554.00
1178.709,3140.00
1179.626,2553.00
1180.544,2887.00
1181.461,2537.00
1182.379,2701.00
1183.296,2621.00
1184.212,2279.00
1185.130,2515.00
1186.046,2995.00
1186.962,2662.00
1187.880,2927.00
1188.796,2662.00
1189.714,2438.00
1190.629,2766.00
1191.545,2689.00
1192.462,2558.00
1193.378,2597.00
1194.295,2368.00
1195.210,2648.00
1196.125,2767.00
1197.042,2749.00
1197.957,2647.00
1198.872,2497.00
1199.788,2584.00
1200.703,2954.00
1201.619,2650.00
1202.534,2466.00
1203.448,2714.00
1204.364,2560.00
1205.278,2316.00
1206.192,2660.00
1207.108,3112.00
1208.022,3028.00
1208.938,2440.00
1209.851,2809.00
1210.765,2840.00
1211.680,2533.00
1212.594,2392.00
1213.507,2593.00
1214.422,3023.00
1215.335,2757.00
1216.248,2559.00
1217.163,2628.00
1218.076,3242.00
1218.990,2739.00
1219.903,2398.00
1220.816,2462.00
1221.730,2593.00
1222.642,2465.00
1223.554,2559.00
1224.469,2700.00
1225.380,2564.00
1226.292,2298.00
1227.206,2771.00
1228.118,2955.00
1229.032,2257.00
1229.943,2516.00
1230.855,2576.00
1231.768,2386.00
1232.679,2698.00
1233.590,2591.00
1234.503,2852.00
1235.414,2477.00
1236.325,2513.00
1237.238,2724.00
1238.149,2715.00
1239.059,2441.00
1239.972,2823.00
1240.882,2442.00
1241.793,2749.00
1242.705,2970.00
1243.615,2599.00
1244.525,2723.00
1245.437,2192.00
1246.347,2691.00
1247.259,2780.00
1248.168,3035.00
1249.078,2858.00
1249.989,2884.00
1250.899,2451.00
1251.808,2524.00
1252.719,2571.00
1253.628,2464.00
1254.537,2985.00
1255.448,2490.00
1256.357,2452.00
1257.266,2646.00
1258.176,2396.00
1259.085,2330.00
1259.993,2433.00
1260.904,2460.00
1261.812,2440.00
1262.720,3257.00
1263.630,2793.00
1264.538,2446.00
1265.446,2768.00
1266.356,2613.00
1267.263,2910.00
1268.171,2435.00
1269.080,2709.00
1269.988,2853.00
1270.895,2543.00
1271.804,2568.00
1272.711,2802.00
1273.619,2775.00
1274.527,2459.00
1275.434,2730.00
1276.341,2420.00
1277.248,2653.00
1278.156,2943.00
1279.063,2515.00
1279.969,2728.00
1280.877,3548.00
1281.783,2826.00
1282.690,2686.00
1283.598,2611.00
1284.503,2473.00
1285.409,2468.00
1286.317,2997.00
1287.223,3028.00
1288.128,2711.00
1289.036,2531.00
1289.941,2589.00
1290.846,2631.00
1291.751,2441.00
1292.658,2539.00
1293.563,3059.00
1294.468,2630.00
1295.375,2790.00
1296.280,2839.00
1297.184,3346.00
1298.091,2723.00
1298.995,2776.00
1299.900,3016.00
1300.806,2507.00
1301.710,2388.00
1302.614,2179.00
1303.518,2876.00
1304.424,2557.00
1305.327,2822.00
1306.231,2628.00
1307.137,2759.00
1308.040,2669.00
1308.943,2626.00
1309.847,2856.00
1310.752,2789.00
1311.655,2298.00
1312.558,2390.00
1313.463,2585.00
1314.366,2528.00
1315.269,2690.00
1316.171,2593.00
1317.076,2489.00
1317.978,2423.00
1318.881,2261.00
1319.785,2488.00
1320.687,2523.00
1321.589,2242.00
1322.491,2487.00
1323.395,2719.00
1324.297,3161.00
1325.198,2755.00
1326.102,2452.00
1327.004,2471.00
1327.905,3002.00
1328.806,2575.00
1329.709,2695.00
1330.611,2572.00
1331.512,2438.00
1332.413,3080.00
1333.316,2682.00
1334.216,2787.00
1335.117,2361.00
1336.020,2684.00
1336.920,2656.00
1337.821,2520.00
1338.721,2902.00
1339.623,2710.00
1340.523,2556.00
1341.423,2512.00
1342.323,2913.00
1343.225,2732.00
1344.125,2449.00
1345.025,2509.00
1345.924,2324.00
1346.826,2955.00
1347.725,3081.00
1348.624,2883.00
1349.524,2491.00
1350.425,2568.00
1351.324,2711.00
1352.223,2835.00
1353.121,2643.00
1354.022,2830.00
1354.921,3016.00
1355.819,2770.00
1356.718,2654.00
1357.618,2366.00
1358.516,2745.00
1359.415,2993.00
1360.313,2717.00
1361.213,2604.00
1362.111,2900.00
1363.008,3294.00
1363.906,2607.00
1364.806,2610.00
1365.703,2685.00
1366.601,2481.00
1367.498,2452.00
1368.397,2774.00
1369.295,2669.00
1370.192,2458.00
1371.089,2706.00
1371.987,2625.00
1372.884,2909.00
1373.781,2450.00
1374.678,2637.00
1375.574,2457.00
1376.473,2751.00
1377.369,2826.00
1378.265,2468.00
1379.161,2574.00
1380.059,2343.00
1380.955,2738.00
1381.851,2384.00
1382.747,2517.00
1383.643,2565.00
1384.540,2427.00
1385.436,2560.00
1386.331,2705.00
1387.227,2806.00
1388.124,2718.00
1389.019,2455.00
1389.914,2597.00
1390.809,2291.00
1391.704,3033.00
1392.601,2516.00
1393.495,2878.00
1394.390,2755.00
1395.285,2870.00
1396.179,2691.00
1397.075,2573.00
1397.969,2680.00
1398.864,2331.00
1399.758,2580.00
1400.652,2639.00
1401.547,2442.00
1402.441,2432.00
1403.335,2982.00
1404.229,2665.00
1405.122,2722.00
1406.017,2580.00
1406.911,2753.00
1407.804,3041.00
1408.697,2606.00
1409.590,2460.00
1410.485,2796.00
1411.378,2690.00
1412.271,2334.00
1413.163,2684.00
1414.056,2800.00
1414.949,3021.00
1415.843,2689.00
1416.735,2596.00
1417.627,2648.00
1418.520,2637.00
1419.412,2858.00
1420.306,2763.00
1421.197,2873.00
1422.089,2857.00
1422.981,3043.00
1423.873,2832.00
1424.764,2750.00
1425.657,2682.00
1426.549,2802.00
1427.440,2839.00
1428.331,2573.00
1429.222,2336.00
1430.113,2669.00
1431.006,2780.00
1431.897,2523.00
1432.787,2658.00
1433.678,2545.00
1434.568,2430.00
1435.459,2825.00
1436.351,2834.00
1437.241,2804.00
1438.131,2811.00
1439.021,2417.00
1439.911,2599.00
1440.801,2697.00
1441.693,2896.00
1442.583,2591.00
1443.472,2655.00
1444.362,2746.00
1445.251,2587.00
1446.140,2560.00
1447.030,2759.00
1447.921,2834.00
1448.810,2493.00
1449.699,2975.00
1450.588,2672.00
1451.476,2526.00
1452.365,2757.00
1453.254,2519.00
1454.144,2534.00
1455.032,2804.00
1455.921,2377.00
1456.809,2907.00
1457.697,2462.00
1458.585,2600.00
1459.473,2564.00
1460.361,2478.00
1461.251,2718.00
1462.138,2696.00
1463.026,2604.00
1463.913,2877.00
1464.801,2536.00
1465.688,2752.00
1466.575,2660.00
1467.463,3088.00
1468.351,2511.00
1469.238,2628.00
1470.125,2293.00
1471.012,2737.00
1471.899,2740.00
1472.785,2462.00
1473.672,2604.00
1474.558,2882.00
1475.446,2754.00
1476.333,2805.00
1477.219,2453.00
1478.105,2624.00
1478.991,2585.00
1479.877,2960.00
1480.762,2647.00
1481.648,2490.00
1482.534,2781.00
1483.419,2670.00
1484.307,2729.00
1485.192,2602.00
1486.077,2484.00
1486.962,2506.00
1487.847,2441.00
1488.732,2507.00
1489.617,2649.00
1490.502,2909.00
1491.387,2760.00
1492.271,2511.00
1493.156,2475.00
1494.042,2439.00
1494.927,2830.00
1495.811,2532.00
1496.695,2774.00
1497.579,2931.00
1498.463,2650.00
1499.347,2688.00
1500.231,2680.00
1501.114,2732.00
1501.998,2911.00
1502.881,2672.00
1503.765,2929.00
1504.648,3033.00
1505.533,2785.00
1506.417,2651.00
1507.300,2628.00
1508.183,2710.00
1509.066,2138.00
1509.948,2894.00
1510.831,2994.00
1511.714,2468.00
1512.596,2768.00
1513.479,2913.00
1514.361,2832.00
1515.243,2664.00
1516.125,2841.00
1517.008,2929.00
1517.890,2619.00
1518.771,2668.00
1519.655,2853.00
1520.537,2586.00
1521.419,2487.00
1522.300,2686.00
1523.182,2801.00
1524.063,2787.00
1524.944,2941.00
1525.825,2823.00
1526.707,2469.00
1527.588,2419.00
1528.468,2711.00
1529.349,2322.00
1530.230,2566.00
1531.111,2782.00
1531.991,2707.00
1532.872,2359.00
1533.752,2657.00
1534.632,2496.00
1535.513,2549.00
1536.393,2794.00
1537.273,2947.00
1538.153,3239.00
1539.032,2424.00
1539.912,2619.00
1540.792,2684.00
1541.672,2686.00
1542.551,2774.00
1543.430,3228.00
1544.310,2703.00
1545.189,2568.00
1546.068,3056.00
1546.947,2753.00
1547.826,2976.00
1548.705,2662.00
1549.584,2873.00
1550.462,2636.00
1551.341,2803.00
1552.219,2708.00
1553.098,2809.00
1553.976,2879.00
1554.854,3072.00
1555.733,2855.00
1556.611,2600.00
1557.489,2470.00
1558.367,2690.00
1559.244,2804.00
1560.122,2618.00
1561.000,2717.00
1561.877,2936.00
1562.755,2561.00
1563.632,2624.00
1564.509,2937.00
1565.386,3022.00
1566.264,2436.00
1567.141,2290.00
1568.017,2837.00
1568.894,2670.00
1569.771,2697.00
1570.648,2784.00
1571.524,2684.00
1572.401,2410.00
1573.277,2448.00
1574.153,2703.00
1575.029,2520.00
1575.906,3356.00
1576.781,2804.00
1577.657,2620.00
1578.533,2911.00
1579.409,2301.00
1580.285,2617.00
1581.160,3052.00
1582.036,2828.00
1582.911,2499.00
1583.786,3011.00
1584.662,2490.00
1585.537,2624.00
1586.412,2717.00
1587.287,2487.00
1588.160,2859.00
1589.035,2340.00
1589.909,2697.00
1590.784,2658.00
1591.658,2454.00
1592.533,2742.00
1593.407,2641.00
1594.281,2563.00
1595.155,3041.00
1596.029,2589.00
1596.903,2616.00
1597.777,2594.00
1598.651,2914.00
1599.525,2371.00
1600.398,2662.00
1601.272,2624.00
1602.144,3177.00
1603.017,2609.00
1603.890,2915.00
1604.763,2745.00
1605.636,2833.00
1606.509,2366.00
1607.382,2498.00
1608.255,2739.00
1609.128,2902.00
1610.000,2618.00
1610.873,2360.00
1611.746,2556.00
1612.616,2611.00
1613.488,2249.00
1614.361,2625.00
1615.233,2629.00
1616.105,2925.00
1616.977,2575.00
1617.849,2519.00
1618.720,2986.00
1619.592,3010.00
1620.464,2762.00
1621.333,3114.00
1622.205,2635.00
1623.076,2641.00
1623.947,2668.00
1624.818,2897.00
1625.689,2749.00
1626.560,2586.00
1627.431,2743.00
1628.302,3020.00
1629.171,2767.00
1630.042,2975.00
1630.912,3613.00
1631.782,3218.00
1632.653,2500.00
1633.523,2842.00
1634.393,2906.00
1635.263,2530.00
1636.131,2644.00
1637.001,2584.00
1637.871,2308.00
1638.741,2328.00
1639.611,2424.00
1640.480,2797.00
1641.350,2529.00
1642.219,2501.00
1643.087,2176.00
1643.956,3097.00
1644.825,2927.00
1645.694,2895.00
1646.563,2839.00
1647.432,2733.00
1648.299,2662.00
1649.167,2807.00
1650.036,2498.00
1650.904,2878.00
1651.773,2899.00
1652.641,2664.00
1653.509,2903.00
1654.376,2528.00
1655.244,2685.00
1656.112,2734.00
1656.980,2693.00
1657.847,2538.00
1658.715,2809.00
1659.581,2594.00
1660.448,2893.00
1661.316,2190.00
1662.183,2732.00
1663.051,2711.00
1663.918,2672.00
1664.783,2683.00
1665.650,2777.00
1666.517,2776.00
1667.384,2687.00
1668.251,2709.00
1669.115,2910.00
1669.982,2610.00
1670.849,2965.00
1671.715,2639.00
1672.581,2831.00
1673.446,2753.00
1674.312,2692.00
1675.178,3051.00
1676.044,2746.00
1676.910,2750.00
1677.774,2694.00
1678.639,2348.00
1679.505,2671.00
1680.370,2824.00
1681.236,3317.00
1682.099,2653.00
1682.965,2705.00
1683.830,2274.00
1684.695,2505.00
1685.560,2606.00
1686.423,2822.00
1687.288,2799.00
1688.153,2765.00
1689.017,2630.00
1689.880,2745.00
1690.745,2824.00
1691.609,2503.00
1692.473,2859.00
1693.338,2888.00
1694.200,2911.00
1695.064,2705.00
1695.928,2579.00
1696.792,2727.00
1697.654,3180.00
1698.517,2722.00
1699.381,2462.00
1700.245,2355.00
1701.106,2958.00
1701.969,2553.00
1702.833,2841.00
1703.696,2592.00
1704.557,2627.00
1705.420,2552.00
1706.283,2682.00
1707.146,2846.00
1708.007,2513.00
1708.870,2518.00
1709.732,2380.00
1710.595,2560.00
1711.455,2468.00
1712.318,2603.00
1713.180,2924.00
1714.040,2744.00
1714.902,2864.00
1715.764,2712.00
1716.626,2466.00
1717.486,2640.00
1718.348,2916.00
1719.209,4873.00
1720.071,2345.00
1720.930,2413.00
1721.792,2529.00
1722.653,2576.00
1723.512,2571.00
1724.374,2643.00
1725.234,2711.00
1726.095,2711.00
1726.954,2668.00
1727.815,2786.00
1728.676,2682.00
1729.535,2898.00
1730.395,2647.00
1731.256,2549.00
1732.114,2721.00
1732.974,2180.00
1733.834,3033.00
1734.693,2818.00
1735.553,2707.00
1736.413,3078.00
1737.272,2585.00
1738.130,2610.00
1738.990,2777.00
1739.849,2546.00
1740.707,3632.00
1741.566,2723.00
1742.426,2772.00
1743.283,3094.00
1744.142,2552.00
1745.001,2392.00
1745.858,2842.00
1746.717,2744.00
1747.576,2756.00
1748.433,2849.00
1749.292,3285.00
1750.150,3241.00
1751.007,2872.00
1751.865,2905.00
1752.723,2723.00
1753.579,2626.00
1754.438,2886.00
1755.296,2857.00
1756.152,2263.00
1757.010,2378.00
1757.865,2840.00
1758.723,2341.00
1759.581,2979.00
1760.436,2678.00
1761.294,3060.00
1762.151,2672.00
1763.006,2630.00
1763.864,2311.00
1764.721,2893.00
1765.576,2717.00
1766.433,2808.00
1767.288,2596.00
1768.144,2726.00
1769.001,2611.00
1769.856,2746.00
1770.712,2900.00
1771.568,2461.00
1772.423,2573.00
1773.279,2574.00
1774.133,2573.00
1774.989,3048.00
1775.845,3263.00
1776.699,2915.00
1777.555,2648.00
1778.409,3238.00
1779.265,2652.00
1780.120,2654.00
1780.974,2666.00
1781.829,2261.00
1782.682,2705.00
1783.538,2513.00
1784.393,2724.00
1785.246,2545.00
1786.101,2791.00
1786.954,2830.00
1787.808,2902.00
1788.661,2400.00
1789.516,2599.00
1790.370,2622.00
1791.223,2837.00
1792.077,2664.00
1792.930,2776.00
1793.784,2579.00
1794.636,2685.00
1795.490,2638.00
1796.344,2708.00
1797.196,2693.00
1798.049,2834.00
1798.901,2555.00
1799.755,2912.00
1800.606,2473.00
1801.460,3186.00
1802.311,2981.00
1803.165,3115.00
1804.018,3020.00
1804.869,2759.00
1805.722,3168.00
1806.573,2778.00
1807.426,2527.00
1808.276,2701.00
1809.129,2603.00
1809.980,2932.00
1810.832,2981.00
1811.683,2598.00
1812.535,3034.00
1813.385,2602.00
1814.237,2957.00
1815.089,2726.00
1815.940,2972.00
1816.791,2628.00
1817.641,2545.00
1818.493,2798.00
1819.343,2785.00
1820.194,2565.00
1821.044,2797.00
1821.895,2919.00
1822.745,2384.00
1823.596,2575.00
1824.445,3095.00
1825.296,2823.00
1826.145,2667.00
1826.996,2848.00
1827.845,2746.00
1828.695,2747.00
1829.544,2638.00
1830.395,2722.00
1831.243,2612.00
1832.094,2452.00
1832.942,3335.00
1833.792,2789.00
1834.640,2749.00
1835.490,2673.00
1836.338,2732.00
1837.186,2610.00
1838.036,2574.00
1838.884,2682.00
1839.733,3019.00
1840.581,2868.00
1841.430,2820.00
1842.278,3005.00
1843.127,2576.00
1843.974,2395.00
1844.823,3141.00
1845.671,2848.00
1846.519,2687.00
1847.366,2737.00
1848.213,2347.00
1849.062,2510.00
1849.909,2445.00
1850.757,3330.00
1851.604,2823.00
1852.452,2662.00
1853.298,2901.00
1854.146,2767.00
1854.993,2768.00
1855.839,3211.00
1856.687,2829.00
1857.532,2867.00
1858.380,2698.00
1859.226,2748.00
1860.073,2814.00
1860.919,2562.00
1861.765,2583.00
1862.612,2941.00
1863.457,2920.00
1864.304,2648.00
1865.150,2877.00
1865.995,2658.00
1866.842,2815.00
1867.686,2905.00
1868.533,2760.00
1869.378,2799.00
1870.223,2720.00
1871.069,2606.00
1871.914,2786.00
1872.760,2716.00
1873.604,2519.00
1874.448,2844.00
1875.294,2852.00
1876.139,2604.00
1876.984,2792.00
1877.828,2362.00
1878.672,2196.00
1879.518,2597.00
1880.361,2873.00
1881.205,2825.00
1882.050,2532.00
1882.894,3185.00
1883.739,2615.00
1884.582,2487.00
1885.425,2530.00
1886.270,2933.00
1887.113,2490.00
1887.956,2798.00
1888.801,2759.00
1889.644,2529.00
1890.486,2314.00
1891.331,2628.00
1892.173,2752.00
1893.017,2779.00
1893.860,2999.00
1894.702,3004.00
1895.546,2744.00
1896.388,3376.00
1897.230,3023.00
1898.074,2635.00
1898.916,2481.00
1899.757,2508.00
1900.601,3377.00
1901.443,2963.00
1902.284,3010.00
1903.125,3198.00
1903.969,2897.00
1904.810,2970.00
1905.651,2778.00
1906.494,3024.00
1907.335,3164.00
1908.176,2827.00
1909.018,2809.00
1909.859,2660.00
1910.700,2565.00
1911.542,3236.00
1912.383,2799.00
1913.223,2346.00
1914.064,2876.00
1914.906,2975.00
1915.746,3025.00
1916.586,3167.00
1917.428,2692.00
1918.268,2765.00
1919.107,2615.00
1919.947,2478.00
1920.789,2650.00
1921.628,2937.00
1922.468,2726.00
1923.309,2595.00
1924.148,3032.00
1924.988,2792.00
1925.827,2698.00
1926.667,2617.00
1927.507,2743.00
1928.345,2561.00
1929.184,2853.00
1930.025,2525.00
1930.864,2958.00
1931.702,3019.00
1932.541,2626.00
1933.381,2866.00
1934.219,2862.00
1935.057,2989.00
1935.896,2438.00
1936.735,2664.00
1937.573,2657.00
1938.411,2525.00
1939.249,2874.00
1940.089,2609.00
1940.927,2996.00
1941.764,2979.00
1942.602,2643.00
1943.439,2597.00
1944.278,2667.00
1945.115,2652.00
1945.953,2474.00
1946.790,2802.00
1947.628,3062.00
1948.465,2866.00
1949.302,2908.00
1950.139,2908.00
1950.976,2636.00
1951.814,2873.00
1952.651,2780.00
1953.487,2521.00
1954.323,2964.00
1955.160,2729.00
1955.998,3067.00
1956.834,2717.00
1957.670,2794.00
1958.506,2957.00
1959.342,2815.00
1960.177,2719.00
1961.015,2851.00
1961.850,2764.00
1962.686,2735.00
1963.521,2751.00
1964.357,3026.00
1965.192,2495.00
1966.029,2872.00
1966.864,2651.00
1967.699,2938.00
1968.534,2769.00
1969.369,3006.00
1970.204,2685.00
1971.040,2762.00
1971.875,2693.00
1972.709,2751.00
1973.544,2565.00
1974.378,2635.00
1975.212,2820.00
1976.047,2623.00
1976.882,2599.00
1977.716,3090.00
1978.550,2462.00
1979.384,2697.00
1980.218,2678.00
1981.052,2686.00
1981.885,2765.00
1982.719,2725.00
1983.554,2874.00
1984.388,3037.00
1985.221,2800.00
1986.054,2966.00
1986.887,2746.00
1987.720,2620.00
1988.553,2999.00
1989.386,2796.00
1990.219,2849.00
1991.053,3041.00
1991.886,2629.00
1992.719,2935.00
1993.551,2273.00
1994.383,2859.00
1995.216,2635.00
1996.048,2446.00
1996.880,2927.00
1997.712,2599.00
1998.544,2727.00
1999.376,2810.00
2000.208,2997.00
