RamanScope Measure Spectrum Data V3.72

<< MEASURE CONDITION >>
Exposure Type,Aver
Exposure Time [sec],15
Exposure Count,30
Measure Time,2023/07/12 19:43:00
Data Name,""
Data Comment,""
Rayleigh Wave[nm],532.0

<< SAMPLE SPECTRUM >>
Wave[dcm-1],No36
146.591,823.13
147.626,946.53
148.664,1125.17
149.699,1240.47
150.737,1363.63
151.772,1557.60
152.809,1691.67
153.846,1833.53
154.881,1916.70
155.918,1990.43
156.953,2102.03
157.989,2109.33
159.026,2209.77
160.060,2241.27
161.096,2246.10
162.130,2364.67
163.167,2348.23
164.200,2380.37
165.236,2421.17
166.272,2519.30
167.305,2535.83
168.341,2535.43
169.374,2634.17
170.409,2646.43
171.445,2702.07
172.477,2741.77
173.512,2742.37
174.545,2780.10
175.580,2797.03
176.614,2804.00
177.647,2830.97
178.681,2823.90
179.713,2813.67
180.747,2808.27
181.781,2790.40
182.813,2812.57
183.847,2751.87
184.878,2796.77
185.912,2782.83
186.945,2839.23
187.976,2824.37
189.010,2880.80
190.043,2871.07
191.073,2915.67
192.106,2923.70
193.137,2960.23
194.170,3003.70
195.202,3012.27
196.232,3105.33
197.265,3119.17
198.297,3187.10
199.327,3257.43
200.359,3339.93
201.388,3414.80
202.420,3445.17
203.452,3566.57
204.481,3662.23
205.512,3724.63
206.544,3868.43
207.573,4000.30
208.604,4130.67
209.635,4251.83
210.663,4367.13
211.694,4521.63
212.725,4697.67
213.753,4878.77
214.783,4962.23
215.813,5011.80
216.841,5043.97
217.871,5047.73
218.899,5032.77
219.929,4961.73
220.959,4851.00
221.986,4742.90
223.016,4587.10
224.045,4504.23
225.072,4372.27
226.101,4238.50
227.130,4096.70
228.157,4033.50
229.185,3928.67
230.214,3853.20
231.241,3814.87
232.269,3765.50
233.297,3773.17
234.323,3673.67
235.351,3667.60
236.379,3635.23
237.407,3656.83
238.433,3634.33
239.460,3636.47
240.488,3685.87
241.513,3737.13
242.540,3726.50
243.568,3801.67
244.592,3807.10
245.619,3797.97
246.646,3760.27
247.671,3773.93
248.697,3765.87
249.724,3732.23
250.748,3712.40
251.774,3653.43
252.801,3724.73
253.827,3719.17
254.850,3750.70
255.876,3737.73
256.902,3750.37
257.925,3795.40
258.951,3832.77
259.976,3893.03
260.999,3857.13
262.024,3918.73
263.049,3959.47
264.074,4035.93
265.097,4073.27
266.122,4150.07
267.146,4189.20
268.168,4240.43
269.193,4288.87
270.217,4347.90
271.241,4367.27
272.263,4436.20
273.287,4445.03
274.311,4532.33
275.332,4547.83
276.356,4571.63
277.379,4540.17
278.402,4518.97
279.424,4479.73
280.447,4507.13
281.470,4414.43
282.492,4362.90
283.513,4295.73
284.536,4205.27
285.558,4146.80
286.581,4122.00
287.601,4019.13
288.623,3979.47
289.645,3905.47
290.665,3907.60
291.687,3819.60
292.709,3725.00
293.730,3675.17
294.750,3644.47
295.771,3616.97
296.792,3553.50
297.813,3471.60
298.832,3397.87
299.853,3364.30
300.874,3322.30
301.895,3284.17
302.913,3209.20
303.934,3183.40
304.954,3131.43
305.975,3121.60
306.993,3087.83
308.013,3046.67
309.033,2980.87
310.052,2984.70
311.072,2989.13
312.090,2915.33
313.109,2946.83
314.129,2880.87
315.148,2863.87
316.165,2854.77
317.184,2861.47
318.203,2792.73
319.222,2797.13
320.238,2776.73
321.257,2750.17
322.275,2787.23
323.294,2733.00
324.312,2699.97
325.328,2705.20
326.346,2712.63
327.364,2752.07
328.382,2699.00
329.397,2665.70
330.415,2684.70
331.432,2672.67
332.450,2676.33
333.467,2653.57
334.482,2623.67
335.499,2670.63
336.516,2627.83
337.533,2665.33
338.547,2626.20
339.564,2620.90
340.580,2621.73
341.597,2594.10
342.613,2640.17
343.627,2585.40
344.643,2606.37
345.659,2593.23
346.675,2606.37
347.690,2600.47
348.704,2546.83
349.719,2579.93
350.735,2576.07
351.750,2583.60
352.765,2605.67
353.778,2583.80
354.793,2552.03
355.808,2612.70
356.822,2603.07
357.837,2545.17
358.851,2592.67
359.864,2563.20
360.878,2586.00
361.892,2579.30
362.906,2612.20
363.920,2600.27
364.932,2600.07
365.945,2554.87
366.959,2608.83
367.972,2591.23
368.986,2659.07
369.999,2613.20
371.010,2648.07
372.023,2642.17
373.036,2685.00
374.049,2669.63
375.061,2658.83
376.072,2703.73
377.084,2697.90
378.097,2698.70
379.109,2712.00
380.121,2719.60
381.133,2734.40
382.143,2727.60
383.155,2697.10
384.166,2746.40
385.178,2670.00
386.189,2709.70
387.201,2746.30
388.212,2757.13
389.221,2706.37
390.232,2711.43
391.243,2708.47
392.254,2728.27
393.264,2684.80
394.275,2724.87
395.283,2684.73
396.294,2670.20
397.304,2614.77
398.314,2650.33
399.324,2624.17
400.334,2614.93
401.344,2632.20
402.351,2583.13
403.361,2610.10
404.370,2584.40
405.380,2528.27
406.389,2537.10
407.398,2530.13
408.407,2537.10
409.414,2570.03
410.423,2510.40
411.431,2457.27
412.440,2482.53
413.448,2468.27
414.457,2465.23
415.465,2463.77
416.471,2422.00
417.479,2390.97
418.487,2413.70
419.495,2423.60
420.503,2431.30
421.510,2433.17
422.518,2339.77
423.525,2409.50
424.530,2411.80
425.537,2374.63
426.544,2379.17
427.551,2389.80
428.558,2375.07
429.565,2404.43
430.571,2355.13
431.578,2350.77
432.582,2365.50
433.588,2347.37
434.595,2343.80
435.601,2349.03
436.607,2330.70
437.612,2324.20
438.618,2336.90
439.624,2358.20
440.627,2354.57
441.633,2332.23
442.638,2322.77
443.643,2298.47
444.648,2315.57
445.653,2329.40
446.658,2359.90
447.663,2331.87
448.667,2330.50
449.672,2378.43
450.674,2333.57
451.678,2351.47
452.682,2321.97
453.687,2318.03
454.690,2368.50
455.694,2367.83
456.698,2341.80
457.702,2338.53
458.705,2334.60
459.709,2388.20
460.710,2390.50
461.713,2346.37
462.716,2367.73
463.719,2370.93
464.722,2382.77
465.725,2355.70
466.727,2364.17
467.730,2384.60
468.732,2400.17
469.735,2398.47
470.737,2388.13
471.737,2401.13
472.739,2399.20
473.741,2386.97
474.742,2378.77
475.744,2381.10
476.746,2409.17
477.747,2392.87
478.748,2361.60
479.750,2401.87
480.751,2403.30
481.752,2414.53
482.753,2433.67
483.751,2412.50
484.752,2427.13
485.753,2409.23
486.753,2440.87
487.753,2392.20
488.754,2368.77
489.754,2374.90
490.754,2371.97
491.754,2424.40
492.754,2404.57
493.753,2394.20
494.753,2367.80
495.752,2385.17
496.752,2366.40
497.749,2385.67
498.748,2395.33
499.747,2326.90
500.746,2329.63
501.745,2351.70
502.744,2349.37
503.742,2325.97
504.741,2291.43
505.739,2320.67
506.737,2332.03
507.735,2338.37
508.734,2257.57
509.732,2349.50
510.729,2320.47
511.727,2275.03
512.725,2293.63
513.720,2261.83
514.718,2247.20
515.715,2260.87
516.712,2224.10
517.709,2278.10
518.706,2257.60
519.703,2252.30
520.700,2217.20
521.696,2237.93
522.693,2260.50
523.689,2268.13
524.686,2266.83
525.682,2277.07
526.678,2263.23
527.674,2298.40
528.670,2267.43
529.666,2306.20
530.661,2259.67
531.657,2278.87
532.652,2258.70
533.648,2290.83
534.641,2260.70
535.636,2228.23
536.631,2270.40
537.626,2289.73
538.621,2289.87
539.616,2266.07
540.610,2286.53
541.605,2246.83
542.599,2313.10
543.593,2267.13
544.587,2311.47
545.581,2282.03
546.575,2268.00
547.569,2285.70
548.563,2312.97
549.557,2314.30
550.550,2293.23
551.543,2279.20
552.537,2269.03
553.530,2259.80
554.523,2284.20
555.516,2299.77
556.509,2311.47
557.502,2309.37
558.494,2352.80
559.487,2343.17
560.479,2318.27
561.472,2318.73
562.464,2337.43
563.456,2335.93
564.448,2373.87
565.440,2345.97
566.432,2283.17
567.423,2377.97
568.415,2376.90
569.404,2360.70
570.396,2349.67
571.387,2365.50
572.378,2339.73
573.369,2371.17
574.360,2362.13
575.351,2430.23
576.341,2389.77
577.332,2409.97
578.323,2405.70
579.313,2438.03
580.303,2400.60
581.293,2366.10
582.283,2446.13
583.273,2409.73
584.263,2442.80
585.253,2464.67
586.243,2467.73
587.232,2447.43
588.222,2420.07
589.211,2407.47
590.200,2475.47
591.189,2434.90
592.178,2468.90
593.167,2424.97
594.156,2436.80
595.145,2471.57
596.133,2482.27
597.122,2463.07
598.110,2426.07
599.098,2444.40
600.086,2467.30
601.074,2497.90
602.062,2418.90
603.050,2421.00
604.038,2421.60
605.025,2430.83
606.013,2439.70
607.000,2397.67
607.987,2389.57
608.975,2329.57
609.962,2383.73
610.949,2380.10
611.936,2329.20
612.922,2324.33
613.909,2292.57
614.895,2325.13
615.882,2301.70
616.868,2318.13
617.854,2258.37
618.841,2290.50
619.826,2258.90
620.812,2239.23
621.798,2224.90
622.784,2219.97
623.769,2193.57
624.755,2195.67
625.740,2201.87
626.725,2165.73
627.711,2163.20
628.698,2137.80
629.683,2117.83
630.667,2051.43
631.652,2096.47
632.637,2093.27
633.621,2091.87
634.606,2055.00
635.590,1994.50
636.574,2030.07
637.558,2023.20
638.542,2028.73
639.526,2003.27
640.510,1972.90
641.493,2020.47
642.477,1961.77
643.460,1949.00
644.444,1931.70
645.427,1995.07
646.410,1934.17
647.393,1937.60
648.376,1942.70
649.359,1934.37
650.341,1929.40
651.324,1884.23
652.307,1914.37
653.289,1888.40
654.271,1839.67
655.253,1871.00
656.235,1875.53
657.217,1882.33
658.199,1905.27
659.181,1899.13
660.163,1825.37
661.144,1849.07
662.126,1856.87
663.107,1840.57
664.088,1858.07
665.069,1858.10
666.050,1818.37
667.033,1854.50
668.014,1821.77
668.995,1848.67
669.975,1802.50
670.956,1809.27
671.936,1827.80
672.916,1766.93
673.896,1736.90
674.876,1767.87
675.856,1761.83
676.836,1738.27
677.816,1732.93
678.795,1734.57
679.775,1674.80
680.754,1701.33
681.734,1718.50
682.713,1663.80
683.692,1688.87
684.671,1665.27
685.650,1635.67
686.629,1604.20
687.607,1635.63
688.586,1638.40
689.564,1652.77
690.543,1641.13
691.523,1611.10
692.501,1574.73
693.479,1606.80
694.457,1592.47
695.435,1582.47
696.413,1572.47
697.390,1547.87
698.368,1556.43
699.345,1567.73
700.322,1579.30
701.300,1556.97
702.277,1535.60
703.254,1527.07
704.231,1541.70
705.207,1497.47
706.184,1528.83
707.161,1501.37
708.137,1500.00
709.113,1449.57
710.090,1505.43
711.068,1489.80
712.044,1498.20
713.020,1480.70
713.996,1469.63
714.971,1450.13
715.947,1482.00
716.922,1430.17
717.898,1456.00
718.873,1494.60
719.848,1442.37
720.823,1461.33
721.798,1434.93
722.773,1453.87
723.748,1420.87
724.723,1407.97
725.697,1428.77
726.672,1408.27
727.646,1434.30
728.622,1429.60
729.596,1384.93
730.570,1460.13
731.544,1388.77
732.518,1423.60
733.492,1380.97
734.466,1406.20
735.439,1393.67
736.413,1413.17
737.386,1363.43
738.359,1362.50
739.332,1367.17
740.305,1324.37
741.278,1378.60
742.251,1389.57
743.224,1345.03
744.196,1365.37
745.171,1355.63
746.143,1377.97
747.115,1356.83
748.087,1352.03
749.059,1362.00
750.031,1358.67
751.003,1302.77
751.975,1325.97
752.947,1302.73
753.918,1347.17
754.890,1350.90
755.861,1324.57
756.832,1349.30
757.803,1349.73
758.774,1283.83
759.747,1293.57
760.718,1280.77
761.689,1300.93
762.659,1291.27
763.630,1301.67
764.600,1266.77
765.570,1321.67
766.540,1283.57
767.510,1321.27
768.480,1235.70
769.450,1272.60
770.420,1279.23
771.390,1265.40
772.359,1233.03
773.329,1242.23
774.300,1270.93
775.269,1268.33
776.238,1250.47
777.207,1248.40
778.176,1225.63
779.145,1236.50
780.114,1233.57
781.083,1253.00
782.051,1233.10
783.019,1238.93
783.988,1240.23
784.956,1226.60
785.924,1186.73
786.894,1224.17
787.862,1236.00
788.830,1246.43
789.797,1234.77
790.765,1230.10
791.732,1209.30
792.700,1178.47
793.667,1249.03
794.634,1233.00
795.601,1186.87
796.568,1203.13
797.535,1220.10
798.502,1183.33
799.468,1182.80
800.437,1180.03
801.403,1176.33
802.370,1167.63
803.336,1179.87
804.302,1181.10
805.268,1172.23
806.234,1116.90
807.200,1144.30
808.166,1126.40
809.131,1151.10
810.097,1114.03
811.062,1152.70
812.027,1139.03
812.994,1138.00
813.960,1118.00
814.925,1112.07
815.889,1144.30
816.854,1147.93
817.819,1127.37
818.783,1150.10
819.748,1076.87
820.712,1079.43
821.677,1131.20
822.641,1131.87
823.605,1108.70
824.571,1105.90
825.534,1123.13
826.498,1086.80
827.462,1081.77
828.425,1102.50
829.389,1124.63
830.352,1078.80
831.315,1109.27
832.279,1095.90
833.242,1114.23
834.204,1089.37
835.167,1085.47
836.132,1105.13
837.095,1113.30
838.057,1098.07
839.020,1104.87
839.982,1105.53
840.944,1083.07
841.906,1052.90
842.868,1060.03
843.830,1090.67
844.792,1068.53
845.753,1114.50
846.715,1082.13
847.679,1059.50
848.640,1097.33
849.601,1044.60
850.562,1053.37
851.523,1102.57
852.484,1069.97
853.445,1051.13
854.406,1037.37
855.367,1047.17
856.327,1063.83
857.288,1061.20
858.248,1032.27
859.210,1017.50
860.170,1033.20
861.130,1008.90
862.090,1019.03
863.050,1057.13
864.010,1066.37
864.969,1015.50
865.929,1003.57
866.888,1070.47
867.848,1076.17
868.807,1028.57
869.766,1041.30
870.727,1030.90
871.686,1037.27
872.645,1065.63
873.604,1030.30
874.562,1026.70
875.521,1064.80
876.479,994.13
877.437,1020.77
878.396,1078.63
879.354,1043.23
880.312,1035.00
881.270,1072.23
882.229,1036.03
883.187,1056.03
884.145,1062.70
885.102,1052.53
886.059,1020.53
887.017,1047.77
887.974,998.43
888.931,1026.10
889.888,1034.40
890.845,1019.03
891.802,1002.27
892.758,1079.77
893.717,1016.20
894.673,1006.43
895.630,1043.97
896.586,1017.37
897.542,1029.93
898.498,1002.67
899.454,1041.77
900.410,1026.40
901.366,1005.97
902.321,1022.87
903.277,1028.57
904.232,1036.83
905.189,1046.97
906.145,1052.93
907.100,1014.87
908.055,1033.33
909.010,1063.67
909.965,1039.80
910.919,1007.70
911.874,1043.37
912.828,1033.50
913.783,1032.50
914.737,1042.87
915.693,1043.23
916.648,1024.27
917.602,1060.67
918.555,1027.73
919.509,1086.37
920.463,1024.70
921.417,1028.60
922.370,1029.17
923.324,1034.67
924.277,1061.93
925.230,1067.27
926.183,1040.33
927.138,1062.70
928.091,1021.50
929.044,1076.77
929.996,1061.10
930.949,1057.23
931.902,1037.70
932.854,1061.83
933.806,1047.23
934.758,1086.33
935.711,1062.80
936.663,1030.40
937.614,1050.57
938.568,1059.53
939.520,1028.50
940.471,1057.10
941.423,1055.00
942.374,1040.70
943.326,1041.80
944.277,1084.50
945.228,1070.37
946.179,1062.57
947.130,1059.50
948.080,1031.43
949.031,1017.03
949.984,1053.70
950.934,1055.67
951.884,1054.00
952.835,1052.40
953.785,984.23
954.735,1042.83
955.685,1054.90
956.635,1009.60
957.585,1035.33
958.534,1040.50
959.484,1037.27
960.433,1039.93
961.383,1051.00
962.334,1035.20
963.283,1032.83
964.232,1003.30
965.181,1000.40
966.130,1010.47
967.079,981.43
968.027,1046.17
968.976,997.77
969.924,1015.47
970.873,1033.20
971.821,1034.40
972.769,1017.03
973.719,1027.10
974.667,1031.33
975.615,1018.57
976.562,993.63
977.510,1046.17
978.458,1032.07
979.405,1010.80
980.352,1006.37
981.300,1009.67
982.247,1049.23
983.194,984.03
984.141,985.67
985.088,1054.43
986.036,1016.30
986.983,993.77
987.930,985.93
988.876,1008.90
989.822,999.97
990.769,972.23
991.715,1016.27
992.661,1010.60
993.607,976.37
994.553,1020.00
995.498,1005.73
996.444,1013.87
997.389,1021.57
998.337,1000.33
999.282,1015.10
1000.227,1010.07
1001.173,989.43
1002.118,1035.23
1003.062,1007.20
1004.007,1042.73
1004.952,986.23
1005.897,1006.17
1006.841,976.77
1007.786,1028.83
1008.730,994.20
1009.674,1034.87
1010.618,1007.47
1011.564,1016.33
1012.508,1005.90
1013.452,987.30
1014.396,1044.90
1015.339,1041.97
1016.283,1016.90
1017.226,998.53
1018.170,1026.10
1019.113,1000.57
1020.056,993.27
1020.999,1011.60
1021.942,991.30
1022.885,980.23
1023.828,1010.13
1024.770,983.93
1025.715,1023.00
1026.657,1004.47
1027.600,1051.67
1028.542,985.57
1029.484,983.23
1030.426,1019.23
1031.368,1002.20
1032.310,1022.23
1033.251,1032.03
1034.193,1017.93
1035.135,1009.70
1036.076,1030.20
1037.017,1001.63
1037.959,1020.67
1038.900,1014.10
1039.843,1041.40
1040.784,1017.00
1041.725,1044.47
1042.665,1070.10
1043.606,1008.80
1044.547,1044.73
1045.487,1050.00
1046.427,1024.63
1047.368,1018.27
1048.308,1021.07
1049.248,1030.30
1050.188,1049.60
1051.128,1018.07
1052.067,1064.20
1053.007,1050.37
1053.947,1053.97
1054.886,1049.40
1055.827,1042.67
1056.766,1087.13
1057.706,1065.87
1058.645,1026.97
1059.584,1072.20
1060.522,1071.90
1061.461,1067.57
1062.400,1060.30
1063.338,1053.30
1064.277,1074.17
1065.215,1065.23
1066.154,1067.47
1067.092,1072.63
1068.030,1076.03
1068.968,1123.93
1069.906,1076.67
1070.843,1065.63
1071.781,1110.27
1072.720,1108.57
1073.658,1100.63
1074.595,1122.20
1075.533,1097.03
1076.470,1108.80
1077.407,1101.90
1078.344,1103.57
1079.281,1080.40
1080.217,1097.17
1081.154,1108.57
1082.091,1096.90
1083.027,1152.17
1083.964,1126.87
1084.900,1110.13
1085.836,1107.13
1086.772,1107.43
1087.708,1106.37
1088.644,1129.83
1089.580,1100.77
1090.515,1128.60
1091.451,1105.00
1092.388,1084.90
1093.324,1078.00
1094.259,1113.10
1095.194,1092.63
1096.129,1130.50
1097.064,1085.53
1097.999,1126.83
1098.934,1082.33
1099.869,1093.20
1100.803,1063.27
1101.738,1099.70
1102.672,1083.67
1103.607,1071.90
1104.541,1069.00
1105.475,1063.70
1106.409,1091.40
1107.343,1068.13
1108.277,1093.63
1109.210,1096.40
1110.144,1040.70
1111.078,1035.27
1112.011,1080.63
1112.944,991.13
1113.878,1028.00
1114.811,1002.90
1115.744,1032.17
1116.678,1029.47
1117.611,1011.27
1118.544,1036.07
1119.477,998.43
1120.409,1016.40
1121.342,1058.63
1122.274,997.50
1123.206,1944.93
1124.138,1014.97
1125.070,981.07
1126.002,1006.93
1126.934,957.73
1127.866,1001.20
1128.798,985.03
1129.729,1004.40
1130.661,1008.53
1131.592,954.67
1132.523,969.13
1133.454,933.23
1134.385,963.07
1135.317,949.57
1136.247,945.43
1137.178,964.33
1138.109,971.33
1139.039,962.47
1139.970,995.07
1140.900,935.73
1141.831,963.67
1142.761,956.10
1143.691,943.07
1144.621,944.23
1145.551,972.67
1146.480,928.20
1147.410,933.53
1148.340,950.40
1149.269,930.27
1150.199,922.47
1151.128,948.07
1152.057,913.97
1152.979,939.27
1153.898,888.53
1154.819,893.50
1155.739,910.13
1156.658,905.23
1157.579,908.63
1158.498,894.30
1159.419,901.93
1160.338,899.10
1161.256,917.43
1162.177,867.20
1163.095,927.17
1164.016,886.63
1164.934,900.33
1165.852,862.27
1166.772,895.83
1167.690,935.03
1168.610,858.80
1169.528,846.77
1170.446,880.30
1171.365,903.73
1172.283,894.70
1173.202,868.90
1174.120,924.20
1175.037,886.87
1175.956,920.83
1176.873,884.00
1177.792,892.43
1178.709,930.10
1179.626,893.90
1180.544,888.80
1181.461,879.00
1182.379,854.17
1183.296,858.30
1184.212,890.10
1185.130,882.03
1186.046,920.13
1186.962,880.13
1187.880,844.37
1188.796,872.40
1189.714,869.37
1190.629,910.67
1191.545,842.13
1192.462,892.07
1193.378,884.17
1194.295,877.47
1195.210,834.30
1196.125,878.87
1197.042,856.40
1197.957,852.17
1198.872,882.50
1199.788,881.07
1200.703,857.07
1201.619,875.73
1202.534,887.77
1203.448,881.87
1204.364,872.20
1205.278,892.73
1206.192,868.23
1207.108,888.17
1208.022,840.17
1208.938,854.37
1209.851,876.50
1210.765,876.80
1211.680,896.50
1212.594,870.00
1213.507,903.33
1214.422,883.10
1215.335,885.27
1216.248,833.30
1217.163,911.10
1218.076,894.90
1218.990,884.03
1219.903,856.03
1220.816,909.07
1221.730,870.60
1222.642,881.63
1223.554,894.67
1224.469,872.07
1225.380,908.00
1226.292,885.20
1227.206,879.47
1228.118,917.27
1229.032,870.43
1229.943,864.03
1230.855,916.77
1231.768,880.80
1232.679,886.07
1233.590,863.83
1234.503,891.30
1235.414,884.47
1236.325,886.83
1237.238,925.00
1238.149,881.00
1239.059,886.40
1239.972,907.03
1240.882,886.97
1241.793,885.77
1242.705,911.20
1243.615,888.83
1244.525,921.23
1245.437,921.90
1246.347,875.90
1247.259,914.17
1248.168,884.10
1249.078,899.37
1249.989,936.83
1250.899,873.50
1251.808,927.00
1252.719,904.27
1253.628,910.53
1254.537,925.33
1255.448,887.40
1256.357,901.50
1257.266,915.23
1258.176,879.00
1259.085,937.20
1259.993,936.03
1260.904,912.20
1261.812,901.53
1262.720,920.40
1263.630,921.43
1264.538,919.30
1265.446,901.80
1266.356,886.20
1267.263,962.73
1268.171,883.17
1269.080,892.10
1269.988,961.50
1270.895,909.07
1271.804,919.73
1272.711,896.87
1273.619,896.43
1274.527,896.27
1275.434,902.13
1276.341,915.77
1277.248,915.60
1278.156,916.13
1279.063,950.93
1279.969,914.37
1280.877,879.27
1281.783,899.47
1282.690,919.40
1283.598,903.93
1284.503,864.20
1285.409,912.73
1286.317,909.43
1287.223,890.83
1288.128,886.47
1289.036,914.17
1289.941,872.23
1290.846,908.10
1291.751,918.87
1292.658,862.87
1293.563,892.77
1294.468,879.67
1295.375,845.47
1296.280,880.67
1297.184,870.40
1298.091,888.93
1298.995,885.63
1299.900,907.80
1300.806,871.40
1301.710,845.83
1302.614,868.03
1303.518,847.80
1304.424,889.03
1305.327,861.70
1306.231,860.20
1307.137,877.43
1308.040,839.50
1308.943,852.77
1309.847,854.00
1310.752,818.03
1311.655,829.67
1312.558,863.63
1313.463,842.67
1314.366,849.53
1315.269,835.57
1316.171,819.10
1317.076,830.13
1317.978,843.90
1318.881,798.57
1319.785,814.07
1320.687,818.10
1321.589,771.33
1322.491,816.27
1323.395,802.97
1324.297,800.70
1325.198,837.90
1326.102,810.37
1327.004,832.33
1327.905,837.20
1328.806,782.83
1329.709,848.37
1330.611,804.90
1331.512,796.20
1332.413,792.03
1333.316,797.20
1334.216,785.93
1335.117,782.67
1336.020,805.93
1336.920,779.33
1337.821,784.23
1338.721,765.23
1339.623,759.20
1340.523,769.73
1341.423,795.67
1342.323,765.73
1343.225,747.30
1344.125,766.27
1345.025,754.13
1345.924,744.60
1346.826,782.70
1347.725,743.70
1348.624,728.70
1349.524,762.97
1350.425,741.90
1351.324,737.00
1352.223,701.87
1353.121,701.87
1354.022,742.80
1354.921,729.10
1355.819,737.07
1356.718,713.20
1357.618,721.43
1358.516,739.60
1359.415,704.27
1360.313,719.53
1361.213,727.30
1362.111,733.53
1363.008,631.87
1363.906,685.57
1364.806,704.67
1365.703,721.23
1366.601,705.43
1367.498,684.13
1368.397,713.63
1369.295,739.13
1370.192,680.83
1371.089,664.73
1371.987,677.37
1372.884,691.87
1373.781,734.00
1374.678,713.83
1375.574,698.33
1376.473,667.80
1377.369,702.27
1378.265,681.40
1379.161,683.20
1380.059,671.30
1380.955,703.93
1381.851,658.27
1382.747,684.57
1383.643,688.83
1384.540,678.67
1385.436,634.43
1386.331,693.27
1387.227,711.07
1388.124,705.73
1389.019,708.23
1389.914,645.27
1390.809,670.10
1391.704,674.43
1392.601,653.90
1393.495,628.90
1394.390,690.00
1395.285,696.77
1396.179,707.57
1397.075,667.03
1397.969,666.30
1398.864,662.17
1399.758,672.90
1400.652,643.10
1401.547,657.50
1402.441,663.80
1403.335,689.23
1404.229,639.97
1405.122,634.63
1406.017,670.73
1406.911,667.70
1407.804,614.80
1408.697,626.27
1409.590,667.17
1410.485,647.27
1411.378,653.10
1412.271,661.77
1413.163,664.37
1414.056,637.27
1414.949,590.93
1415.843,609.13
1416.735,632.27
1417.627,651.10
1418.520,615.10
1419.412,605.37
1420.306,634.20
1421.197,645.00
1422.089,658.73
1422.981,637.90
1423.873,596.23
1424.764,586.00
1425.657,627.73
1426.549,614.93
1427.440,609.30
1428.331,586.60
1429.222,642.37
1430.113,661.83
1431.006,592.67
1431.897,635.27
1432.787,598.77
1433.678,627.43
1434.568,645.77
1435.459,624.07
1436.351,595.83
1437.241,603.97
1438.131,602.93
1439.021,607.17
1439.911,580.67
1440.801,633.97
1441.693,605.67
1442.583,600.00
1443.472,599.77
1444.362,595.47
1445.251,639.43
1446.140,610.73
1447.030,607.73
1447.921,591.83
1448.810,603.40
1449.699,608.10
1450.588,612.70
1451.476,603.70
1452.365,602.67
1453.254,607.30
1454.144,612.63
1455.032,614.23
1455.921,590.40
1456.809,604.27
1457.697,586.43
1458.585,614.50
1459.473,606.77
1460.361,572.90
1461.251,597.33
1462.138,565.37
1463.026,592.13
1463.913,593.67
1464.801,555.30
1465.688,603.90
1466.575,523.20
1467.463,562.93
1468.351,612.30
1469.238,574.87
1470.125,583.57
1471.012,564.30
1471.899,567.17
1472.785,587.40
1473.672,550.47
1474.558,590.90
1475.446,578.43
1476.333,586.90
1477.219,553.20
1478.105,565.90
1478.991,595.17
1479.877,557.63
1480.762,582.87
1481.648,556.27
1482.534,567.73
1483.419,588.87
1484.307,559.77
1485.192,567.27
1486.077,596.33
1486.962,529.20
1487.847,535.10
1488.732,553.53
1489.617,590.27
1490.502,556.67
1491.387,561.40
1492.271,562.37
1493.156,564.77
1494.042,547.90
1494.927,543.57
1495.811,576.30
1496.695,545.07
1497.579,543.73
1498.463,575.33
1499.347,561.00
1500.231,521.10
1501.114,566.83
1501.998,558.30
1502.881,525.63
1503.765,556.43
1504.648,534.83
1505.533,521.30
1506.417,535.27
1507.300,517.03
1508.183,508.37
1509.066,546.67
1509.948,516.60
1510.831,539.23
1511.714,547.33
1512.596,535.13
1513.479,538.10
1514.361,525.97
1515.243,518.03
1516.125,512.93
1517.008,524.73
1517.890,509.73
1518.771,561.20
1519.655,529.73
1520.537,531.40
1521.419,580.47
1522.300,532.30
1523.182,517.17
1524.063,522.10
1524.944,535.40
1525.825,492.87
1526.707,533.13
1527.588,505.30
1528.468,541.67
1529.349,529.57
1530.230,540.93
1531.111,533.13
1531.991,495.17
1532.872,502.30
1533.752,509.47
1534.632,513.83
1535.513,509.80
1536.393,534.37
1537.273,504.93
1538.153,544.87
1539.032,487.30
1539.912,496.93
1540.792,491.87
1541.672,491.63
1542.551,516.73
1543.430,525.40
1544.310,485.87
1545.189,521.70
1546.068,490.17
1546.947,509.07
1547.826,495.57
1548.705,526.77
1549.584,472.70
1550.462,478.30
1551.341,503.07
1552.219,506.57
1553.098,493.57
1553.976,494.17
1554.854,522.33
1555.733,508.63
1556.611,524.60
1557.489,485.47
1558.367,491.67
1559.244,497.33
1560.122,474.67
1561.000,483.17
1561.877,495.47
1562.755,504.67
1563.632,526.80
1564.509,477.07
1565.386,487.13
1566.264,529.93
1567.141,507.90
1568.017,491.43
1568.894,495.60
1569.771,462.67
1570.648,526.53
1571.524,515.37
1572.401,481.90
1573.277,489.13
1574.153,486.73
1575.029,487.13
1575.906,524.30
1576.781,493.47
1577.657,485.30
1578.533,529.57
1579.409,490.33
1580.285,508.43
1581.160,474.43
1582.036,473.87
1582.911,501.40
1583.786,491.70
1584.662,494.80
1585.537,457.00
1586.412,455.37
1587.287,468.40
1588.160,475.93
1589.035,483.93
1589.909,458.77
1590.784,497.13
1591.658,457.93
1592.533,472.17
1593.407,449.97
1594.281,506.90
1595.155,508.43
1596.029,454.63
1596.903,521.97
1597.777,436.80
1598.651,508.37
1599.525,454.87
1600.398,469.83
1601.272,479.97
1602.144,453.50
1603.017,459.07
1603.890,479.30
1604.763,434.43
1605.636,470.23
1606.509,452.97
1607.382,472.30
1608.255,470.33
1609.128,463.57
1610.000,461.30
1610.873,454.53
1611.746,482.00
1612.616,493.37
1613.488,443.00
1614.361,467.90
1615.233,448.53
1616.105,462.83
1616.977,468.67
1617.849,469.03
1618.720,461.53
1619.592,466.07
1620.464,468.53
1621.333,479.07
1622.205,474.17
1623.076,492.50
1623.947,523.37
1624.818,466.70
1625.689,438.40
1626.560,468.67
1627.431,441.73
1628.302,463.57
1629.171,445.43
1630.042,460.00
1630.912,475.47
1631.782,440.80
1632.653,415.33
1633.523,425.07
1634.393,444.90
1635.263,483.00
1636.131,469.43
1637.001,449.63
1637.871,450.57
1638.741,483.57
1639.611,451.60
1640.480,485.77
1641.350,474.97
1642.219,441.67
1643.087,476.10
1643.956,415.13
1644.825,447.37
1645.694,457.67
1646.563,442.43
1647.432,446.17
1648.299,467.93
1649.167,455.30
1650.036,463.60
1650.904,437.23
1651.773,436.43
1652.641,454.07
1653.509,414.50
1654.376,486.57
1655.244,438.60
1656.112,438.07
1656.980,442.70
1657.847,497.50
1658.715,405.37
1659.581,457.47
1660.448,451.00
1661.316,451.90
1662.183,443.90
1663.051,462.83
1663.918,434.17
1664.783,440.93
1665.650,460.83
1666.517,445.40
1667.384,388.80
1668.251,452.73
1669.115,476.17
1669.982,427.67
1670.849,425.10
1671.715,437.63
1672.581,462.03
1673.446,437.93
1674.312,439.10
1675.178,456.47
1676.044,415.30
1676.910,425.23
1677.774,433.20
1678.639,457.20
1679.505,432.27
1680.370,456.63
1681.236,440.33
1682.099,427.40
1682.965,456.00
1683.830,415.10
1684.695,432.30
1685.560,414.70
1686.423,449.03
1687.288,432.93
1688.153,436.37
1689.017,403.43
1689.880,405.47
1690.745,427.47
1691.609,449.10
1692.473,448.77
1693.338,419.57
1694.200,447.53
1695.064,437.30
1695.928,462.27
1696.792,387.80
1697.654,478.67
1698.517,413.37
1699.381,405.60
1700.245,435.27
1701.106,396.97
1701.969,425.50
1702.833,442.67
1703.696,408.57
1704.557,422.70
1705.420,416.63
1706.283,439.67
1707.146,421.20
1708.007,434.07
1708.870,426.93
1709.732,403.63
1710.595,436.17
1711.455,424.20
1712.318,384.37
1713.180,399.13
1714.040,444.57
1714.902,424.20
1715.764,417.67
1716.626,426.93
1717.486,443.27
1718.348,474.87
1719.209,419.33
1720.071,401.70
1720.930,443.13
1721.792,415.13
1722.653,436.73
1723.512,389.77
1724.374,440.53
1725.234,423.70
1726.095,409.13
1726.954,443.37
1727.815,420.23
1728.676,407.33
1729.535,436.17
1730.395,441.37
1731.256,413.57
1732.114,424.93
1732.974,405.63
1733.834,393.87
1734.693,425.40
1735.553,440.47
1736.413,398.60
1737.272,426.67
1738.130,405.07
1738.990,429.40
1739.849,391.67
1740.707,430.87
1741.566,410.70
1742.426,419.73
1743.283,428.47
1744.142,391.70
1745.001,418.23
1745.858,412.13
1746.717,416.00
1747.576,406.37
1748.433,414.90
1749.292,463.63
1750.150,366.97
1751.007,436.33
1751.865,365.40
1752.723,405.87
1753.579,417.07
1754.438,374.50
1755.296,408.47
1756.152,422.53
1757.010,355.63
1757.865,422.80
1758.723,403.33
1759.581,420.57
1760.436,445.60
1761.294,413.20
1762.151,397.23
1763.006,442.63
1763.864,407.93
1764.721,386.70
1765.576,376.53
1766.433,447.50
1767.288,410.63
1768.144,440.33
1769.001,412.47
1769.856,454.40
1770.712,391.30
1771.568,396.77
1772.423,421.87
1773.279,427.90
1774.133,402.90
1774.989,424.67
1775.845,382.67
1776.699,378.57
1777.555,396.53
1778.409,409.50
1779.265,430.83
1780.120,393.20
1780.974,403.13
1781.829,440.23
1782.682,395.80
1783.538,399.30
1784.393,413.87
1785.246,424.33
1786.101,385.67
1786.954,396.60
1787.808,411.77
1788.661,396.50
1789.516,411.33
1790.370,420.57
1791.223,403.23
1792.077,414.43
1792.930,430.60
1793.784,435.70
1794.636,388.47
1795.490,416.97
1796.344,425.17
1797.196,426.00
1798.049,397.07
1798.901,412.03
1799.755,392.17
1800.606,418.43
1801.460,399.50
1802.311,399.30
1803.165,437.20
1804.018,387.30
1804.869,384.07
1805.722,403.13
1806.573,402.10
1807.426,428.00
1808.276,421.00
1809.129,405.73
1809.980,433.77
1810.832,415.00
1811.683,413.30
1812.535,401.67
1813.385,406.57
1814.237,434.03
1815.089,390.57
1815.940,388.37
1816.791,353.33
1817.641,386.60
1818.493,393.83
1819.343,392.27
1820.194,393.70
1821.044,375.00
1821.895,422.23
1822.745,403.93
1823.596,391.43
1824.445,406.03
1825.296,384.63
1826.145,386.17
1826.996,415.17
1827.845,369.80
1828.695,372.97
1829.544,395.90
1830.395,393.93
1831.243,394.20
1832.094,388.70
1832.942,391.37
1833.792,436.73
1834.640,422.40
1835.490,403.87
1836.338,436.30
1837.186,391.97
1838.036,402.33
1838.884,376.97
1839.733,373.53
1840.581,356.53
1841.430,379.13
1842.278,391.67
1843.127,397.17
1843.974,387.80
1844.823,394.63
1845.671,388.47
1846.519,384.50
1847.366,369.20
1848.213,392.63
1849.062,384.57
1849.909,385.83
1850.757,362.67
1851.604,383.90
1852.452,408.23
1853.298,406.37
1854.146,427.73
1854.993,401.57
1855.839,404.90
1856.687,352.53
1857.532,418.73
1858.380,385.40
1859.226,405.33
1860.073,380.97
1860.919,367.20
1861.765,418.40
1862.612,380.50
1863.457,395.87
1864.304,404.37
1865.150,377.57
1865.995,386.30
1866.842,388.03
1867.686,399.27
1868.533,426.23
1869.378,362.07
1870.223,383.37
1871.069,401.40
1871.914,359.20
1872.760,374.80
1873.604,420.83
1874.448,368.43
1875.294,410.33
1876.139,381.93
1876.984,362.93
1877.828,403.20
1878.672,400.20
1879.518,395.27
1880.361,342.93
1881.205,447.90
1882.050,354.80
1882.894,346.60
1883.739,391.93
1884.582,371.13
1885.425,389.90
1886.270,378.37
1887.113,390.77
1887.956,356.13
1888.801,394.77
1889.644,374.00
1890.486,362.67
1891.331,388.67
1892.173,386.53
1893.017,390.40
1893.860,355.93
1894.702,366.43
1895.546,388.23
1896.388,407.47
1897.230,367.90
1898.074,405.63
1898.916,325.60
1899.757,413.57
1900.601,384.63
1901.443,394.40
1902.284,415.87
1903.125,358.23
1903.969,378.93
1904.810,384.40
1905.651,337.83
1906.494,409.17
1907.335,345.23
1908.176,382.67
1909.018,374.37
1909.859,387.73
1910.700,369.87
1911.542,341.83
1912.383,378.00
1913.223,370.67
1914.064,378.90
1914.906,413.53
1915.746,376.77
1916.586,366.93
1917.428,377.07
1918.268,353.27
1919.107,406.83
1919.947,384.60
1920.789,373.97
1921.628,361.93
1922.468,367.00
1923.309,362.50
1924.148,366.43
1924.988,421.13
1925.827,369.77
1926.667,386.40
1927.507,333.43
1928.345,389.87
1929.184,387.13
1930.025,373.73
1930.864,371.00
1931.702,386.40
1932.541,418.03
1933.381,375.60
1934.219,378.60
1935.057,367.53
1935.896,383.67
1936.735,394.70
1937.573,371.27
1938.411,386.93
1939.249,382.97
1940.089,400.63
1940.927,412.87
1941.764,391.47
1942.602,373.90
1943.439,394.27
1944.278,406.37
1945.115,373.27
1945.953,366.80
1946.790,371.40
1947.628,387.53
1948.465,359.03
1949.302,354.20
1950.139,372.27
1950.976,399.50
1951.814,336.33
1952.651,382.20
1953.487,386.73
1954.323,394.33
1955.160,375.67
1955.998,356.47
1956.834,369.20
1957.670,366.83
1958.506,329.40
1959.342,378.47
1960.177,369.87
1961.015,401.23
1961.850,375.13
1962.686,392.87
1963.521,354.80
1964.357,372.67
1965.192,367.83
1966.029,362.67
1966.864,377.93
1967.699,403.43
1968.534,378.73
1969.369,350.77
1970.204,347.30
1971.040,369.07
1971.875,353.93
1972.709,382.97
1973.544,371.67
1974.378,390.07
1975.212,369.37
1976.047,365.80
1976.882,361.53
1977.716,391.90
1978.550,373.43
1979.384,333.00
1980.218,367.90
1981.052,375.50
1981.885,375.30
1982.719,370.23
1983.554,347.37
1984.388,348.90
1985.221,361.57
1986.054,366.60
1986.887,342.37
1987.720,345.43
1988.553,352.83
1989.386,365.43
1990.219,368.80
1991.053,365.53
1991.886,376.50
1992.719,349.00
1993.551,380.10
1994.383,382.43
1995.216,372.13
1996.048,392.73
1996.880,400.37
1997.712,377.87
1998.544,359.03
1999.376,371.47
2000.208,387.60
2001.040,337.07
2001.873,350.23
2002.705,360.50
2003.536,357.83
2004.367,377.40
2005.199,375.33
2006.030,389.80
2006.861,348.93
2007.692,325.63
2008.523,339.23
2009.354,357.97
2010.185,382.20
2011.016,381.57
2011.846,389.30
2012.677,386.37
2013.507,371.63
2014.338,338.73
2015.168,375.93
2015.999,376.50
2016.829,374.93
2017.659,389.83
2018.489,399.50
2019.319,390.10
2020.149,377.57
2020.980,380.43
2021.810,369.17
2022.639,348.07
2023.469,357.53
2024.298,343.00
2025.128,378.53
2025.957,353.20
2026.786,364.27
2027.615,350.60
2028.444,383.30
2029.273,365.90
2030.102,394.83
2030.931,361.17
2031.758,406.87
2032.586,356.67
2033.415,379.67
2034.243,393.23
2035.072,339.87
2035.900,376.27
2036.728,345.40
2037.556,384.53
2038.385,368.23
2039.213,374.37
2040.040,394.43
2040.868,364.73
2041.696,355.40
2042.524,392.53
2043.351,366.00
2044.179,336.93
2045.006,387.67
2045.006,387.67

Max Intensity Wave.,217.871
Max Intensity Data,5047.73
Min Intensity Wave.,1898.916
Min Intensity Data,325.60
FWHM Wave.,401.223
FWHM Value,0.50
Pressure Wave.,1123.211
Pressure Value [GPa],3847.88665
G/D Ratio,0.59678
G/D Gband Wave.,1566.404
G/D Gband Intensity,530.76
G/D Dband Wave.,1304.514
G/D Dband Intensity,889.38

<< BACKGROUND SPECTRUM >>
Wave[dcm-1],No36
146.591,2250.00
147.626,2113.00
148.664,2039.00
149.699,2545.00
150.737,2316.00
151.772,2400.00
152.809,2386.00
153.846,2274.00
154.881,2390.00
155.918,1976.00
156.953,2260.00
157.989,2641.00
159.026,2453.00
160.060,2633.00
161.096,2893.00
162.130,2464.00
163.167,2582.00
164.200,2462.00
165.236,2659.00
166.272,2626.00
167.305,2272.00
168.341,2576.00
169.374,2752.00
170.409,2787.00
171.445,2721.00
172.477,2525.00
173.512,2421.00
174.545,2685.00
175.580,2867.00
176.614,3054.00
177.647,2806.00
178.681,3034.00
179.713,3319.00
180.747,2803.00
181.781,2725.00
182.813,2984.00
183.847,3125.00
184.878,2707.00
185.912,2986.00
186.945,3115.00
187.976,3084.00
189.010,2695.00
190.043,2842.00
191.073,2904.00
192.106,2726.00
193.137,3193.00
194.170,2559.00
195.202,2921.00
196.232,2665.00
197.265,3009.00
198.297,3079.00
199.327,2771.00
200.359,2927.00
201.388,3267.00
202.420,2922.00
203.452,3086.00
204.481,2662.00
205.512,3322.00
206.544,3066.00
207.573,3032.00
208.604,3377.00
209.635,3532.00
210.663,2980.00
211.694,3004.00
212.725,2848.00
213.753,2775.00
214.783,3352.00
215.813,3233.00
216.841,2980.00
217.871,3173.00
218.899,2911.00
219.929,3144.00
220.959,2891.00
221.986,3141.00
223.016,2790.00
224.045,3127.00
225.072,3101.00
226.101,3190.00
227.130,3271.00
228.157,2820.00
229.185,2375.00
230.214,3198.00
231.241,2817.00
232.269,2450.00
233.297,2649.00
234.323,3259.00
235.351,2821.00
236.379,3122.00
237.407,2760.00
238.433,2946.00
239.460,3158.00
240.488,3119.00
241.513,3192.00
242.540,3125.00
243.568,3193.00
244.592,3224.00
245.619,3202.00
246.646,2945.00
247.671,2934.00
248.697,2791.00
249.724,3017.00
250.748,3004.00
251.774,3030.00
252.801,3281.00
253.827,3127.00
254.850,3070.00
255.876,2692.00
256.902,3153.00
257.925,2983.00
258.951,2746.00
259.976,2745.00
260.999,3133.00
262.024,2799.00
263.049,3654.00
264.074,3092.00
265.097,3034.00
266.122,3074.00
267.146,3007.00
268.168,3200.00
269.193,2856.00
270.217,3228.00
271.241,2729.00
272.263,2878.00
273.287,3205.00
274.311,2765.00
275.332,3304.00
276.356,2842.00
277.379,3092.00
278.402,3142.00
279.424,2954.00
280.447,2861.00
281.470,2709.00
282.492,3064.00
283.513,2901.00
284.536,3208.00
285.558,3206.00
286.581,3115.00
287.601,2868.00
288.623,2807.00
289.645,3096.00
290.665,3081.00
291.687,3134.00
292.709,3120.00
293.730,3386.00
294.750,2885.00
295.771,2735.00
296.792,3040.00
297.813,2908.00
298.832,3061.00
299.853,2746.00
300.874,3003.00
301.895,2960.00
302.913,2973.00
303.934,3266.00
304.954,3061.00
305.975,3223.00
306.993,2724.00
308.013,3110.00
309.033,3057.00
310.052,2935.00
311.072,2887.00
312.090,3073.00
313.109,3228.00
314.129,3399.00
315.148,3010.00
316.165,3086.00
317.184,3214.00
318.203,2785.00
319.222,2763.00
320.238,3152.00
321.257,2857.00
322.275,2696.00
323.294,3003.00
324.312,3171.00
325.328,3265.00
326.346,3311.00
327.364,3184.00
328.382,3167.00
329.397,3130.00
330.415,3226.00
331.432,3227.00
332.450,3245.00
333.467,3455.00
334.482,2593.00
335.499,3329.00
336.516,2891.00
337.533,2543.00
338.547,2838.00
339.564,2831.00
340.580,3094.00
341.597,2983.00
342.613,3426.00
343.627,2988.00
344.643,2995.00
345.659,3101.00
346.675,2974.00
347.690,2888.00
348.704,3113.00
349.719,2862.00
350.735,2742.00
351.750,3177.00
352.765,2969.00
353.778,2958.00
354.793,3148.00
355.808,2808.00
356.822,3170.00
357.837,2682.00
358.851,3236.00
359.864,2964.00
360.878,2740.00
361.892,2972.00
362.906,3152.00
363.920,2585.00
364.932,3084.00
365.945,3129.00
366.959,3005.00
367.972,2969.00
368.986,2670.00
369.999,3377.00
371.010,2827.00
372.023,3359.00
373.036,2938.00
374.049,3381.00
375.061,3086.00
376.072,2959.00
377.084,2875.00
378.097,2712.00
379.109,3190.00
380.121,2984.00
381.133,2655.00
382.143,3135.00
383.155,2761.00
384.166,2880.00
385.178,3144.00
386.189,3210.00
387.201,2699.00
388.212,2899.00
389.221,2948.00
390.232,3012.00
391.243,2913.00
392.254,3006.00
393.264,2858.00
394.275,3188.00
395.283,3164.00
396.294,3606.00
397.304,3512.00
398.314,3097.00
399.324,3044.00
400.334,2657.00
401.344,3117.00
402.351,2664.00
403.361,3186.00
404.370,2968.00
405.380,2927.00
406.389,3326.00
407.398,3124.00
408.407,3069.00
409.414,3193.00
410.423,3287.00
411.431,2788.00
412.440,2669.00
413.448,3347.00
414.457,2851.00
415.465,2794.00
416.471,2889.00
417.479,3050.00
418.487,2823.00
419.495,3298.00
420.503,3085.00
421.510,2586.00
422.518,3201.00
423.525,3171.00
424.530,3381.00
425.537,2899.00
426.544,3225.00
427.551,2826.00
428.558,3578.00
429.565,3414.00
430.571,2874.00
431.578,2895.00
432.582,2849.00
433.588,2960.00
434.595,2633.00
435.601,3309.00
436.607,3243.00
437.612,2771.00
438.618,3349.00
439.624,2923.00
440.627,2942.00
441.633,3107.00
442.638,3598.00
443.643,3126.00
444.648,3050.00
445.653,3204.00
446.658,2867.00
447.663,3012.00
448.667,2888.00
449.672,2885.00
450.674,2984.00
451.678,2718.00
452.682,2888.00
453.687,2877.00
454.690,3587.00
455.694,3265.00
456.698,2581.00
457.702,2677.00
458.705,2806.00
459.709,2771.00
460.710,2851.00
461.713,3050.00
462.716,3047.00
463.719,2985.00
464.722,3158.00
465.725,2978.00
466.727,2853.00
467.730,3035.00
468.732,2751.00
469.735,3264.00
470.737,2920.00
471.737,2871.00
472.739,2899.00
473.741,2811.00
474.742,3077.00
475.744,3116.00
476.746,3022.00
477.747,2962.00
478.748,3182.00
479.750,2922.00
480.751,2992.00
481.752,3724.00
482.753,3052.00
483.751,3525.00
484.752,2596.00
485.753,2968.00
486.753,2836.00
487.753,3000.00
488.754,3446.00
489.754,2701.00
490.754,3325.00
491.754,3096.00
492.754,2701.00
493.753,3005.00
494.753,2915.00
495.752,3318.00
496.752,3049.00
497.749,2987.00
498.748,2842.00
499.747,3399.00
500.746,3128.00
501.745,2771.00
502.744,2770.00
503.742,3325.00
504.741,2966.00
505.739,2477.00
506.737,2890.00
507.735,3121.00
508.734,3415.00
509.732,3089.00
510.729,3310.00
511.727,2896.00
512.725,2902.00
513.720,2787.00
514.718,3262.00
515.715,2656.00
516.712,2668.00
517.709,2968.00
518.706,2886.00
519.703,3032.00
520.700,3205.00
521.696,3376.00
522.693,2912.00
523.689,2848.00
524.686,3152.00
525.682,2775.00
526.678,3452.00
527.674,2885.00
528.670,2589.00
529.666,3465.00
530.661,3467.00
531.657,3636.00
532.652,3191.00
533.648,3007.00
534.641,3226.00
535.636,3086.00
536.631,3108.00
537.626,3159.00
538.621,2758.00
539.616,2621.00
540.610,2512.00
541.605,3041.00
542.599,3030.00
543.593,3025.00
544.587,3878.00
545.581,2848.00
546.575,3062.00
547.569,3033.00
548.563,2687.00
549.557,2657.00
550.550,2761.00
551.543,2764.00
552.537,3179.00
553.530,2811.00
554.523,2794.00
555.516,3115.00
556.509,2944.00
557.502,2614.00
558.494,3151.00
559.487,2893.00
560.479,3175.00
561.472,3220.00
562.464,3121.00
563.456,3274.00
564.448,2894.00
565.440,2990.00
566.432,3432.00
567.423,2867.00
568.415,2876.00
569.404,3117.00
570.396,2820.00
571.387,3121.00
572.378,3043.00
573.369,3952.00
574.360,3715.00
575.351,2933.00
576.341,2855.00
577.332,2867.00
578.323,2681.00
579.313,2858.00
580.303,3259.00
581.293,3178.00
582.283,2963.00
583.273,3131.00
584.263,3008.00
585.253,3083.00
586.243,3136.00
587.232,2650.00
588.222,2962.00
589.211,3221.00
590.200,3027.00
591.189,2965.00
592.178,2945.00
593.167,3420.00
594.156,3275.00
595.145,2878.00
596.133,3426.00
597.122,3099.00
598.110,3217.00
599.098,3066.00
600.086,2989.00
601.074,3141.00
602.062,2854.00
603.050,2743.00
604.038,3108.00
605.025,2798.00
606.013,3178.00
607.000,3380.00
607.987,3030.00
608.975,3121.00
609.962,2764.00
610.949,3149.00
611.936,3292.00
612.922,3185.00
613.909,2727.00
614.895,3340.00
615.882,2839.00
616.868,2981.00
617.854,2783.00
618.841,2987.00
619.826,3100.00
620.812,2982.00
621.798,2783.00
622.784,3166.00
623.769,3087.00
624.755,2685.00
625.740,3036.00
626.725,2722.00
627.711,2845.00
628.698,3063.00
629.683,2803.00
630.667,3220.00
631.652,2752.00
632.637,2946.00
633.621,3134.00
634.606,2927.00
635.590,3160.00
636.574,2953.00
637.558,3077.00
638.542,3020.00
639.526,2838.00
640.510,2649.00
641.493,3018.00
642.477,3006.00
643.460,2729.00
644.444,3257.00
645.427,3191.00
646.410,2677.00
647.393,2980.00
648.376,3055.00
649.359,2887.00
650.341,3067.00
651.324,3098.00
652.307,3037.00
653.289,2955.00
654.271,2918.00
655.253,2918.00
656.235,3116.00
657.217,3243.00
658.199,2599.00
659.181,2724.00
660.163,3024.00
661.144,2869.00
662.126,2878.00
663.107,2787.00
664.088,4668.00
665.069,3216.00
666.050,2830.00
667.033,2693.00
668.014,3046.00
668.995,2556.00
669.975,2997.00
670.956,2976.00
671.936,3099.00
672.916,2965.00
673.896,3132.00
674.876,2899.00
675.856,2848.00
676.836,2738.00
677.816,2307.00
678.795,2809.00
679.775,2723.00
680.754,3036.00
681.734,3113.00
682.713,3163.00
683.692,2759.00
684.671,2630.00
685.650,2769.00
686.629,2886.00
687.607,2742.00
688.586,2762.00
689.564,2817.00
690.543,3215.00
691.523,2384.00
692.501,2856.00
693.479,2916.00
694.457,2786.00
695.435,2863.00
696.413,2660.00
697.390,2520.00
698.368,2676.00
699.345,3088.00
700.322,2923.00
701.300,3053.00
702.277,3044.00
703.254,3261.00
704.231,2557.00
705.207,2987.00
706.184,2779.00
707.161,2665.00
708.137,2835.00
709.113,2850.00
710.090,2795.00
711.068,2606.00
712.044,2595.00
713.020,2882.00
713.996,2620.00
714.971,2831.00
715.947,2821.00
716.922,2835.00
717.898,2736.00
718.873,2844.00
719.848,2731.00
720.823,2695.00
721.798,2983.00
722.773,2724.00
723.748,2536.00
724.723,3031.00
725.697,2842.00
726.672,2775.00
727.646,2489.00
728.622,2972.00
729.596,2639.00
730.570,2689.00
731.544,3082.00
732.518,3239.00
733.492,2840.00
734.466,2858.00
735.439,2994.00
736.413,3088.00
737.386,2483.00
738.359,2437.00
739.332,2532.00
740.305,2893.00
741.278,3297.00
742.251,2907.00
743.224,2730.00
744.196,2553.00
745.171,3139.00
746.143,3014.00
747.115,2754.00
748.087,2716.00
749.059,3082.00
750.031,2879.00
751.003,3716.00
751.975,3264.00
752.947,2728.00
753.918,3068.00
754.890,2546.00
755.861,2761.00
756.832,3004.00
757.803,2805.00
758.774,2872.00
759.747,2609.00
760.718,3222.00
761.689,2736.00
762.659,2611.00
763.630,3137.00
764.600,2578.00
765.570,3009.00
766.540,3117.00
767.510,2887.00
768.480,3079.00
769.450,2721.00
770.420,2818.00
771.390,2658.00
772.359,2802.00
773.329,2687.00
774.300,2498.00
775.269,2745.00
776.238,3008.00
777.207,3149.00
778.176,2526.00
779.145,2805.00
780.114,2675.00
781.083,2545.00
782.051,2747.00
783.019,2676.00
783.988,3067.00
784.956,2830.00
785.924,2999.00
786.894,2879.00
787.862,2684.00
788.830,3102.00
789.797,2593.00
790.765,2550.00
791.732,2750.00
792.700,2673.00
793.667,2532.00
794.634,2715.00
795.601,2756.00
796.568,2761.00
797.535,2803.00
798.502,3437.00
799.468,2907.00
800.437,2408.00
801.403,2639.00
802.370,3278.00
803.336,2974.00
804.302,2847.00
805.268,2424.00
806.234,2590.00
807.200,2740.00
808.166,2796.00
809.131,2583.00
810.097,3016.00
811.062,3632.00
812.027,3008.00
812.994,2597.00
813.960,2626.00
814.925,2973.00
815.889,2500.00
816.854,2992.00
817.819,2650.00
818.783,2700.00
819.748,3135.00
820.712,2764.00
821.677,2604.00
822.641,2673.00
823.605,2712.00
824.571,3151.00
825.534,2741.00
826.498,2697.00
827.462,2818.00
828.425,2621.00
829.389,3034.00
830.352,2835.00
831.315,2898.00
832.279,2513.00
833.242,2739.00
834.204,2649.00
835.167,2650.00
836.132,3036.00
837.095,2499.00
838.057,2667.00
839.020,2782.00
839.982,2828.00
840.944,2676.00
841.906,2659.00
842.868,2967.00
843.830,2524.00
844.792,3052.00
845.753,2636.00
846.715,2434.00
847.679,2599.00
848.640,2584.00
849.601,2764.00
850.562,3253.00
851.523,2657.00
852.484,2474.00
853.445,2988.00
854.406,2733.00
855.367,2731.00
856.327,3030.00
857.288,2501.00
858.248,2701.00
859.210,2727.00
860.170,2534.00
861.130,3049.00
862.090,2447.00
863.050,2599.00
864.010,2666.00
864.969,2920.00
865.929,2639.00
866.888,2498.00
867.848,2795.00
868.807,2660.00
869.766,2837.00
870.727,2734.00
871.686,2988.00
872.645,2974.00
873.604,3297.00
874.562,2766.00
875.521,2772.00
876.479,3404.00
877.437,2601.00
878.396,2550.00
879.354,3156.00
880.312,2596.00
881.270,2628.00
882.229,3106.00
883.187,2592.00
884.145,2633.00
885.102,2912.00
886.059,2824.00
887.017,2885.00
887.974,2985.00
888.931,3059.00
889.888,2505.00
890.845,2448.00
891.802,2363.00
892.758,2602.00
893.717,2454.00
894.673,2590.00
895.630,2613.00
896.586,2907.00
897.542,2692.00
898.498,2564.00
899.454,2836.00
900.410,2687.00
901.366,2686.00
902.321,2625.00
903.277,2696.00
904.232,2741.00
905.189,2478.00
906.145,2625.00
907.100,2242.00
908.055,2716.00
909.010,2910.00
909.965,2341.00
910.919,2826.00
911.874,2572.00
912.828,2769.00
913.783,2788.00
914.737,2351.00
915.693,2757.00
916.648,2897.00
917.602,2930.00
918.555,2804.00
919.509,2803.00
920.463,2778.00
921.417,2775.00
922.370,2564.00
923.324,2673.00
924.277,2643.00
925.230,2733.00
926.183,2407.00
927.138,2668.00
928.091,2963.00
929.044,2790.00
929.996,2654.00
930.949,2642.00
931.902,2833.00
932.854,2815.00
933.806,2588.00
934.758,2944.00
935.711,2980.00
936.663,2778.00
937.614,2791.00
938.568,2728.00
939.520,2416.00
940.471,2697.00
941.423,2773.00
942.374,2895.00
943.326,2749.00
944.277,2560.00
945.228,2815.00
946.179,2678.00
947.130,3018.00
948.080,2663.00
949.031,2584.00
949.984,2674.00
950.934,2696.00
951.884,2464.00
952.835,2695.00
953.785,2781.00
954.735,2601.00
955.685,2345.00
956.635,2641.00
957.585,2634.00
958.534,2626.00
959.484,2734.00
960.433,2599.00
961.383,2450.00
962.334,2953.00
963.283,2772.00
964.232,2872.00
965.181,2735.00
966.130,2804.00
967.079,2666.00
968.027,2700.00
968.976,2740.00
969.924,2619.00
970.873,2801.00
971.821,2728.00
972.769,2924.00
973.719,2836.00
974.667,2475.00
975.615,2719.00
976.562,2744.00
977.510,2401.00
978.458,2597.00
979.405,2830.00
980.352,2771.00
981.300,2992.00
982.247,2763.00
983.194,2574.00
984.141,2652.00
985.088,2690.00
986.036,2768.00
986.983,3027.00
987.930,3141.00
988.876,2360.00
989.822,2972.00
990.769,2588.00
991.715,2595.00
992.661,2431.00
993.607,2828.00
994.553,3249.00
995.498,2584.00
996.444,2283.00
997.389,2758.00
998.337,2536.00
999.282,2859.00
1000.227,2649.00
1001.173,2718.00
1002.118,2425.00
1003.062,2916.00
1004.007,2666.00
1004.952,3006.00
1005.897,2920.00
1006.841,2715.00
1007.786,2437.00
1008.730,2437.00
1009.674,3132.00
1010.618,2645.00
1011.564,2487.00
1012.508,2391.00
1013.452,2954.00
1014.396,2700.00
1015.339,2587.00
1016.283,2682.00
1017.226,2747.00
1018.170,2685.00
1019.113,2889.00
1020.056,2751.00
1020.999,2712.00
1021.942,2606.00
1022.885,2883.00
1023.828,2986.00
1024.770,2535.00
1025.715,2737.00
1026.657,2689.00
1027.600,2722.00
1028.542,2952.00
1029.484,2778.00
1030.426,2842.00
1031.368,2790.00
1032.310,2580.00
1033.251,2517.00
1034.193,2700.00
1035.135,2504.00
1036.076,2621.00
1037.017,2553.00
1037.959,2831.00
1038.900,2781.00
1039.843,2776.00
1040.784,2759.00
1041.725,2787.00
1042.665,2582.00
1043.606,2775.00
1044.547,2728.00
1045.487,2355.00
1046.427,2691.00
1047.368,2789.00
1048.308,2259.00
1049.248,2533.00
1050.188,2695.00
1051.128,2642.00
1052.067,2650.00
1053.007,2406.00
1053.947,2391.00
1054.886,2567.00
1055.827,2509.00
1056.766,2933.00
1057.706,2440.00
1058.645,2682.00
1059.584,2739.00
1060.522,2970.00
1061.461,2454.00
1062.400,2485.00
1063.338,2657.00
1064.277,2510.00
1065.215,2525.00
1066.154,2408.00
1067.092,2582.00
1068.030,2646.00
1068.968,2824.00
1069.906,3022.00
1070.843,2972.00
1071.781,2736.00
1072.720,2800.00
1073.658,2820.00
1074.595,2581.00
1075.533,2565.00
1076.470,2573.00
1077.407,2981.00
1078.344,2761.00
1079.281,2823.00
1080.217,2311.00
1081.154,2654.00
1082.091,2726.00
1083.027,2407.00
1083.964,2899.00
1084.900,2559.00
1085.836,2609.00
1086.772,2869.00
1087.708,2458.00
1088.644,2811.00
1089.580,2686.00
1090.515,2715.00
1091.451,2590.00
1092.388,2733.00
1093.324,2470.00
1094.259,3217.00
1095.194,2746.00
1096.129,2577.00
1097.064,2574.00
1097.999,2780.00
1098.934,2535.00
1099.869,2536.00
1100.803,2726.00
1101.738,2681.00
1102.672,2388.00
1103.607,2814.00
1104.541,2544.00
1105.475,2549.00
1106.409,2398.00
1107.343,2600.00
1108.277,2393.00
1109.210,2660.00
1110.144,2674.00
1111.078,2676.00
1112.011,2404.00
1112.944,2803.00
1113.878,2732.00
1114.811,2209.00
1115.744,2577.00
1116.678,2317.00
1117.611,2583.00
1118.544,2576.00
1119.477,2767.00
1120.409,2542.00
1121.342,3079.00
1122.274,2743.00
1123.206,3041.00
1124.138,2650.00
1125.070,2985.00
1126.002,2830.00
1126.934,2319.00
1127.866,2542.00
1128.798,2324.00
1129.729,2350.00
1130.661,2621.00
1131.592,2586.00
1132.523,2737.00
1133.454,2792.00
1134.385,2285.00
1135.317,2654.00
1136.247,2596.00
1137.178,2846.00
1138.109,2356.00
1139.039,2982.00
1139.970,2788.00
1140.900,2596.00
1141.831,2329.00
1142.761,2220.00
1143.691,2745.00
1144.621,2641.00
1145.551,2660.00
1146.480,2687.00
1147.410,2844.00
1148.340,2282.00
1149.269,2358.00
1150.199,2592.00
1151.128,3023.00
1152.057,2449.00
1152.979,2565.00
1153.898,2645.00
1154.819,2736.00
1155.739,2635.00
1156.658,2562.00
1157.579,2678.00
1158.498,2650.00
1159.419,2185.00
1160.338,2683.00
1161.256,2681.00
1162.177,2536.00
1163.095,2596.00
1164.016,2710.00
1164.934,2878.00
1165.852,2839.00
1166.772,2616.00
1167.690,2616.00
1168.610,2720.00
1169.528,2696.00
1170.446,2199.00
1171.365,2533.00
1172.283,2517.00
1173.202,2648.00
1174.120,2633.00
1175.037,2487.00
1175.956,2418.00
1176.873,2499.00
1177.792,2524.00
1178.709,3054.00
1179.626,2518.00
1180.544,2829.00
1181.461,2499.00
1182.379,2748.00
1183.296,2637.00
1184.212,2261.00
1185.130,2463.00
1186.046,2914.00
1186.962,2620.00
1187.880,2930.00
1188.796,2678.00
1189.714,2431.00
1190.629,2725.00
1191.545,2717.00
1192.462,2544.00
1193.378,2585.00
1194.295,2335.00
1195.210,2682.00
1196.125,2762.00
1197.042,2713.00
1197.957,2658.00
1198.872,2499.00
1199.788,2521.00
1200.703,2965.00
1201.619,2638.00
1202.534,2476.00
1203.448,2703.00
1204.364,2598.00
1205.278,2279.00
1206.192,2673.00
1207.108,3108.00
1208.022,3011.00
1208.938,2500.00
1209.851,2771.00
1210.765,2846.00
1211.680,2509.00
1212.594,2411.00
1213.507,2540.00
1214.422,3015.00
1215.335,2740.00
1216.248,2602.00
1217.163,2603.00
1218.076,3201.00
1218.990,2735.00
1219.903,2445.00
1220.816,2428.00
1221.730,2599.00
1222.642,2511.00
1223.554,2530.00
1224.469,2722.00
1225.380,2560.00
1226.292,2282.00
1227.206,2759.00
1228.118,2936.00
1229.032,2284.00
1229.943,2528.00
1230.855,2552.00
1231.768,2375.00
1232.679,2708.00
1233.590,2625.00
1234.503,2845.00
1235.414,2504.00
1236.325,2506.00
1237.238,2665.00
1238.149,2731.00
1239.059,2463.00
1239.972,2797.00
1240.882,2453.00
1241.793,2767.00
1242.705,2967.00
1243.615,2598.00
1244.525,2683.00
1245.437,2179.00
1246.347,2699.00
1247.259,2778.00
1248.168,3068.00
1249.078,2870.00
1249.989,2862.00
1250.899,2467.00
1251.808,2481.00
1252.719,2565.00
1253.628,2488.00
1254.537,2981.00
1255.448,2482.00
1256.357,2478.00
1257.266,2631.00
1258.176,2393.00
1259.085,2319.00
1259.993,2409.00
1260.904,2469.00
1261.812,2467.00
1262.720,3127.00
1263.630,2791.00
1264.538,2463.00
1265.446,2735.00
1266.356,2614.00
1267.263,2847.00
1268.171,2455.00
1269.080,2710.00
1269.988,2754.00
1270.895,2548.00
1271.804,2575.00
1272.711,2819.00
1273.619,2792.00
1274.527,2445.00
1275.434,2749.00
1276.341,2423.00
1277.248,2651.00
1278.156,2908.00
1279.063,2450.00
1279.969,2719.00
1280.877,3534.00
1281.783,2818.00
1282.690,2673.00
1283.598,2596.00
1284.503,2514.00
1285.409,2445.00
1286.317,2956.00
1287.223,3026.00
1288.128,2693.00
1289.036,2497.00
1289.941,2594.00
1290.846,2613.00
1291.751,2408.00
1292.658,2579.00
1293.563,3058.00
1294.468,2656.00
1295.375,2819.00
1296.280,2861.00
1297.184,3342.00
1298.091,2717.00
1298.995,2781.00
1299.900,2978.00
1300.806,2526.00
1301.710,2396.00
1302.614,2214.00
1303.518,2895.00
1304.424,2549.00
1305.327,2824.00
1306.231,2608.00
1307.137,2756.00
1308.040,2702.00
1308.943,2659.00
1309.847,2837.00
1310.752,2836.00
1311.655,2313.00
1312.558,2396.00
1313.463,2574.00
1314.366,2506.00
1315.269,2676.00
1316.171,2631.00
1317.076,2533.00
1317.978,2416.00
1318.881,2265.00
1319.785,2496.00
1320.687,2490.00
1321.589,2291.00
1322.491,2457.00
1323.395,2719.00
1324.297,3188.00
1325.198,2740.00
1326.102,2431.00
1327.004,2422.00
1327.905,2983.00
1328.806,2620.00
1329.709,2661.00
1330.611,2566.00
1331.512,2460.00
1332.413,3063.00
1333.316,2677.00
1334.216,2798.00
1335.117,2388.00
1336.020,2648.00
1336.920,2643.00
1337.821,2471.00
1338.721,2900.00
1339.623,2709.00
1340.523,2592.00
1341.423,2466.00
1342.323,2898.00
1343.225,2729.00
1344.125,2454.00
1345.025,2512.00
1345.924,2309.00
1346.826,2953.00
1347.725,3051.00
1348.624,2881.00
1349.524,2484.00
1350.425,2587.00
1351.324,2730.00
1352.223,2842.00
1353.121,2638.00
1354.022,2833.00
1354.921,3026.00
1355.819,2736.00
1356.718,2700.00
1357.618,2389.00
1358.516,2731.00
1359.415,3040.00
1360.313,2725.00
1361.213,2588.00
1362.111,2902.00
1363.008,3358.00
1363.906,2641.00
1364.806,2651.00
1365.703,2712.00
1366.601,2460.00
1367.498,2488.00
1368.397,2806.00
1369.295,2658.00
1370.192,2480.00
1371.089,2748.00
1371.987,2633.00
1372.884,2892.00
1373.781,2389.00
1374.678,2616.00
1375.574,2465.00
1376.473,2775.00
1377.369,2841.00
1378.265,2486.00
1379.161,2600.00
1380.059,2343.00
1380.955,2722.00
1381.851,2435.00
1382.747,2517.00
1383.643,2561.00
1384.540,2426.00
1385.436,2568.00
1386.331,2671.00
1387.227,2746.00
1388.124,2715.00
1389.019,2404.00
1389.914,2633.00
1390.809,2278.00
1391.704,3037.00
1392.601,2546.00
1393.495,2941.00
1394.390,2775.00
1395.285,2845.00
1396.179,2663.00
1397.075,2592.00
1397.969,2671.00
1398.864,2323.00
1399.758,2562.00
1400.652,2658.00
1401.547,2448.00
1402.441,2406.00
1403.335,2939.00
1404.229,2668.00
1405.122,2712.00
1406.017,2593.00
1406.911,2745.00
1407.804,3075.00
1408.697,2641.00
1409.590,2428.00
1410.485,2791.00
1411.378,2682.00
1412.271,2314.00
1413.163,2670.00
1414.056,2780.00
1414.949,3055.00
1415.843,2700.00
1416.735,2588.00
1417.627,2629.00
1418.520,2616.00
1419.412,2887.00
1420.306,2781.00
1421.197,2900.00
1422.089,2818.00
1422.981,3084.00
1423.873,2839.00
1424.764,2779.00
1425.657,2672.00
1426.549,2780.00
1427.440,2844.00
1428.331,2578.00
1429.222,2318.00
1430.113,2632.00
1431.006,2844.00
1431.897,2517.00
1432.787,2668.00
1433.678,2553.00
1434.568,2432.00
1435.459,2853.00
1436.351,2842.00
1437.241,2788.00
1438.131,2794.00
1439.021,2405.00
1439.911,2626.00
1440.801,2677.00
1441.693,2865.00
1442.583,2672.00
1443.472,2642.00
1444.362,2764.00
1445.251,2547.00
1446.140,2554.00
1447.030,2828.00
1447.921,2840.00
1448.810,2465.00
1449.699,3003.00
1450.588,2665.00
1451.476,2540.00
1452.365,2732.00
1453.254,2526.00
1454.144,2510.00
1455.032,2743.00
1455.921,2380.00
1456.809,2921.00
1457.697,2445.00
1458.585,2557.00
1459.473,2574.00
1460.361,2488.00
1461.251,2695.00
1462.138,2739.00
1463.026,2610.00
1463.913,2865.00
1464.801,2580.00
1465.688,2715.00
1466.575,2718.00
1467.463,3104.00
1468.351,2462.00
1469.238,2617.00
1470.125,2255.00
1471.012,2700.00
1471.899,2737.00
1472.785,2453.00
1473.672,2659.00
1474.558,2842.00
1475.446,2772.00
1476.333,2794.00
1477.219,2470.00
1478.105,2611.00
1478.991,2572.00
1479.877,2948.00
1480.762,2625.00
1481.648,2513.00
1482.534,2771.00
1483.419,2681.00
1484.307,2753.00
1485.192,2610.00
1486.077,2459.00
1486.962,2538.00
1487.847,2426.00
1488.732,2490.00
1489.617,2625.00
1490.502,2907.00
1491.387,2768.00
1492.271,2461.00
1493.156,2480.00
1494.042,2458.00
1494.927,2871.00
1495.811,2516.00
1496.695,2787.00
1497.579,2932.00
1498.463,2617.00
1499.347,2678.00
1500.231,2688.00
1501.114,2686.00
1501.998,2901.00
1502.881,2698.00
1503.765,2924.00
1504.648,3049.00
1505.533,2772.00
1506.417,2662.00
1507.300,2636.00
1508.183,2748.00
1509.066,2139.00
1509.948,2893.00
1510.831,2997.00
1511.714,2441.00
1512.596,2785.00
1513.479,2906.00
1514.361,2859.00
1515.243,2690.00
1516.125,2823.00
1517.008,2927.00
1517.890,2633.00
1518.771,2647.00
1519.655,2852.00
1520.537,2599.00
1521.419,2442.00
1522.300,2683.00
1523.182,2794.00
1524.063,2784.00
1524.944,2926.00
1525.825,2873.00
1526.707,2458.00
1527.588,2449.00
1528.468,2708.00
1529.349,2317.00
1530.230,2566.00
1531.111,2812.00
1531.991,2727.00
1532.872,2380.00
1533.752,2638.00
1534.632,2529.00
1535.513,2513.00
1536.393,2790.00
1537.273,2972.00
1538.153,3273.00
1539.032,2422.00
1539.912,2658.00
1540.792,2685.00
1541.672,2705.00
1542.551,2758.00
1543.430,3224.00
1544.310,2705.00
1545.189,2539.00
1546.068,3091.00
1546.947,2756.00
1547.826,2977.00
1548.705,2634.00
1549.584,2910.00
1550.462,2646.00
1551.341,2824.00
1552.219,2715.00
1553.098,2817.00
1553.976,2876.00
1554.854,3040.00
1555.733,2852.00
1556.611,2562.00
1557.489,2486.00
1558.367,2665.00
1559.244,2817.00
1560.122,2672.00
1561.000,2740.00
1561.877,2948.00
1562.755,2530.00
1563.632,2602.00
1564.509,2925.00
1565.386,3037.00
1566.264,2400.00
1567.141,2281.00
1568.017,2801.00
1568.894,2647.00
1569.771,2731.00
1570.648,2740.00
1571.524,2654.00
1572.401,2438.00
1573.277,2443.00
1574.153,2714.00
1575.029,2540.00
1575.906,3348.00
1576.781,2833.00
1577.657,2611.00
1578.533,2857.00
1579.409,2304.00
1580.285,2601.00
1581.160,3091.00
1582.036,2847.00
1582.911,2474.00
1583.786,2996.00
1584.662,2450.00
1585.537,2651.00
1586.412,2730.00
1587.287,2508.00
1588.160,2848.00
1589.035,2324.00
1589.909,2710.00
1590.784,2616.00
1591.658,2488.00
1592.533,2729.00
1593.407,2709.00
1594.281,2533.00
1595.155,3033.00
1596.029,2612.00
1596.903,2566.00
1597.777,2630.00
1598.651,2878.00
1599.525,2390.00
1600.398,2700.00
1601.272,2617.00
1602.144,3224.00
1603.017,2640.00
1603.890,2909.00
1604.763,2785.00
1605.636,2819.00
1606.509,2396.00
1607.382,2505.00
1608.255,2738.00
1609.128,2883.00
1610.000,2638.00
1610.873,2389.00
1611.746,2566.00
1612.616,2573.00
1613.488,2274.00
1614.361,2668.00
1615.233,2635.00
1616.105,2876.00
1616.977,2566.00
1617.849,2504.00
1618.720,2981.00
1619.592,2975.00
1620.464,2745.00
1621.333,3120.00
1622.205,2652.00
1623.076,2659.00
1623.947,2611.00
1624.818,2899.00
1625.689,2813.00
1626.560,2569.00
1627.431,2731.00
1628.302,3066.00
1629.171,2803.00
1630.042,2974.00
1630.912,3614.00
1631.782,3254.00
1632.653,2520.00
1633.523,2859.00
1634.393,2916.00
1635.263,2513.00
1636.131,2636.00
1637.001,2604.00
1637.871,2306.00
1638.741,2297.00
1639.611,2423.00
1640.480,2756.00
1641.350,2517.00
1642.219,2513.00
1643.087,2155.00
1643.956,3138.00
1644.825,2917.00
1645.694,2879.00
1646.563,2838.00
1647.432,2711.00
1648.299,2677.00
1649.167,2798.00
1650.036,2470.00
1650.904,2877.00
1651.773,2899.00
1652.641,2675.00
1653.509,2880.00
1654.376,2504.00
1655.244,2715.00
1656.112,2731.00
1656.980,2694.00
1657.847,2492.00
1658.715,2888.00
1659.581,2567.00
1660.448,2906.00
1661.316,2188.00
1662.183,2712.00
1663.051,2700.00
1663.918,2722.00
1664.783,2692.00
1665.650,2749.00
1666.517,2836.00
1667.384,2752.00
1668.251,2700.00
1669.115,2868.00
1669.982,2650.00
1670.849,2965.00
1671.715,2661.00
1672.581,2788.00
1673.446,2805.00
1674.312,2705.00
1675.178,3063.00
1676.044,2794.00
1676.910,2773.00
1677.774,2723.00
1678.639,2319.00
1679.505,2678.00
1680.370,2800.00
1681.236,3303.00
1682.099,2643.00
1682.965,2683.00
1683.830,2312.00
1684.695,2508.00
1685.560,2622.00
1686.423,2791.00
1687.288,2806.00
1688.153,2725.00
1689.017,2644.00
1689.880,2777.00
1690.745,2834.00
1691.609,2501.00
1692.473,2823.00
1693.338,2904.00
1694.200,2922.00
1695.064,2685.00
1695.928,2558.00
1696.792,2726.00
1697.654,3128.00
1698.517,2724.00
1699.381,2462.00
1700.245,2340.00
1701.106,3005.00
1701.969,2597.00
1702.833,2824.00
1703.696,2609.00
1704.557,2665.00
1705.420,2563.00
1706.283,2694.00
1707.146,2824.00
1708.007,2483.00
1708.870,2483.00
1709.732,2386.00
1710.595,2572.00
1711.455,2437.00
1712.318,2643.00
1713.180,2966.00
1714.040,2713.00
1714.902,2856.00
1715.764,2691.00
1716.626,2471.00
1717.486,2661.00
1718.348,2894.00
1719.209,4748.00
1720.071,2378.00
1720.930,2415.00
1721.792,2539.00
1722.653,2520.00
1723.512,2613.00
1724.374,2624.00
1725.234,2742.00
1726.095,2711.00
1726.954,2660.00
1727.815,2815.00
1728.676,2684.00
1729.535,2884.00
1730.395,2635.00
1731.256,2605.00
1732.114,2735.00
1732.974,2173.00
1733.834,3065.00
1734.693,2850.00
1735.553,2687.00
1736.413,3114.00
1737.272,2566.00
1738.130,2631.00
1738.990,2748.00
1739.849,2603.00
1740.707,3660.00
1741.566,2721.00
1742.426,2727.00
1743.283,3076.00
1744.142,2606.00
1745.001,2361.00
1745.858,2867.00
1746.717,2759.00
1747.576,2801.00
1748.433,2840.00
1749.292,3235.00
1750.150,3338.00
1751.007,2851.00
1751.865,2939.00
1752.723,2720.00
1753.579,2611.00
1754.438,2941.00
1755.296,2902.00
1756.152,2254.00
1757.010,2433.00
1757.865,2879.00
1758.723,2363.00
1759.581,2993.00
1760.436,2644.00
1761.294,3031.00
1762.151,2698.00
1763.006,2582.00
1763.864,2351.00
1764.721,2913.00
1765.576,2747.00
1766.433,2809.00
1767.288,2597.00
1768.144,2739.00
1769.001,2643.00
1769.856,2742.00
1770.712,2919.00
1771.568,2494.00
1772.423,2590.00
1773.279,2583.00
1774.133,2593.00
1774.989,3082.00
1775.845,3089.00
1776.699,2956.00
1777.555,2687.00
1778.409,3223.00
1779.265,2616.00
1780.120,2655.00
1780.974,2673.00
1781.829,2279.00
1782.682,2759.00
1783.538,2528.00
1784.393,2730.00
1785.246,2559.00
1786.101,2802.00
1786.954,2822.00
1787.808,2881.00
1788.661,2432.00
1789.516,2598.00
1790.370,2617.00
1791.223,2881.00
1792.077,2682.00
1792.930,2760.00
1793.784,2540.00
1794.636,2722.00
1795.490,2646.00
1796.344,2701.00
1797.196,2656.00
1798.049,2845.00
1798.901,2569.00
1799.755,2924.00
1800.606,2478.00
1801.460,3209.00
1802.311,3002.00
1803.165,3070.00
1804.018,3053.00
1804.869,2797.00
1805.722,3147.00
1806.573,2721.00
1807.426,2496.00
1808.276,2662.00
1809.129,2595.00
1809.980,2867.00
1810.832,2959.00
1811.683,2613.00
1812.535,3033.00
1813.385,2618.00
1814.237,2938.00
1815.089,2738.00
1815.940,2971.00
1816.791,2687.00
1817.641,2576.00
1818.493,2848.00
1819.343,2765.00
1820.194,2574.00
1821.044,2823.00
1821.895,2876.00
1822.745,2424.00
1823.596,2598.00
1824.445,3093.00
1825.296,2810.00
1826.145,2676.00
1826.996,2877.00
1827.845,2768.00
1828.695,2787.00
1829.544,2692.00
1830.395,2740.00
1831.243,2623.00
1832.094,2464.00
1832.942,3298.00
1833.792,2785.00
1834.640,2741.00
1835.490,2703.00
1836.338,2720.00
1837.186,2605.00
1838.036,2551.00
1838.884,2711.00
1839.733,3034.00
1840.581,2917.00
1841.430,2838.00
1842.278,3038.00
1843.127,2594.00
1843.974,2397.00
1844.823,3119.00
1845.671,2856.00
1846.519,2716.00
1847.366,2784.00
1848.213,2354.00
1849.062,2535.00
1849.909,2448.00
1850.757,3381.00
1851.604,2816.00
1852.452,2612.00
1853.298,2866.00
1854.146,2717.00
1854.993,2734.00
1855.839,3200.00
1856.687,2845.00
1857.532,2785.00
1858.380,2722.00
1859.226,2765.00
1860.073,2825.00
1860.919,2551.00
1861.765,2575.00
1862.612,2940.00
1863.457,2914.00
1864.304,2646.00
1865.150,2834.00
1865.995,2682.00
1866.842,2829.00
1867.686,2925.00
1868.533,2753.00
1869.378,2796.00
1870.223,2729.00
1871.069,2606.00
1871.914,2762.00
1872.760,2718.00
1873.604,2469.00
1874.448,2863.00
1875.294,2856.00
1876.139,2588.00
1876.984,2848.00
1877.828,2358.00
1878.672,2218.00
1879.518,2569.00
1880.361,2928.00
1881.205,2812.00
1882.050,2553.00
1882.894,3256.00
1883.739,2583.00
1884.582,2488.00
1885.425,2537.00
1886.270,2954.00
1887.113,2453.00
1887.956,2835.00
1888.801,2764.00
1889.644,2535.00
1890.486,2336.00
1891.331,2630.00
1892.173,2746.00
1893.017,2769.00
1893.860,3019.00
1894.702,3020.00
1895.546,2725.00
1896.388,3376.00
1897.230,3083.00
1898.074,2590.00
1898.916,2565.00
1899.757,2510.00
1900.601,3368.00
1901.443,2986.00
1902.284,2969.00
1903.125,3194.00
1903.969,2913.00
1904.810,2937.00
1905.651,2845.00
1906.494,2999.00
1907.335,3196.00
1908.176,2831.00
1909.018,2803.00
1909.859,2679.00
1910.700,2603.00
1911.542,3284.00
1912.383,2790.00
1913.223,2366.00
1914.064,2866.00
1914.906,2942.00
1915.746,3057.00
1916.586,3192.00
1917.428,2709.00
1918.268,2789.00
1919.107,2593.00
1919.947,2479.00
1920.789,2656.00
1921.628,2974.00
1922.468,2726.00
1923.309,2586.00
1924.148,3043.00
1924.988,2756.00
1925.827,2712.00
1926.667,2597.00
1927.507,2808.00
1928.345,2551.00
1929.184,2869.00
1930.025,2552.00
1930.864,2979.00
1931.702,3017.00
1932.541,2595.00
1933.381,2854.00
1934.219,2884.00
1935.057,3022.00
1935.896,2423.00
1936.735,2674.00
1937.573,2625.00
1938.411,2509.00
1939.249,2868.00
1940.089,2583.00
1940.927,2937.00
1941.764,2999.00
1942.602,2662.00
1943.439,2600.00
1944.278,2662.00
1945.115,2658.00
1945.953,2475.00
1946.790,2797.00
1947.628,3064.00
1948.465,2852.00
1949.302,2889.00
1950.139,2850.00
1950.976,2575.00
1951.814,2929.00
1952.651,2776.00
1953.487,2515.00
1954.323,2964.00
1955.160,2707.00
1955.998,3110.00
1956.834,2724.00
1957.670,2802.00
1958.506,2992.00
1959.342,2814.00
1960.177,2781.00
1961.015,2836.00
1961.850,2764.00
1962.686,2757.00
1963.521,2793.00
1964.357,3015.00
1965.192,2520.00
1966.029,2884.00
1966.864,2639.00
1967.699,2926.00
1968.534,2759.00
1969.369,3024.00
1970.204,2712.00
1971.040,2762.00
1971.875,2672.00
1972.709,2766.00
1973.544,2565.00
1974.378,2616.00
1975.212,2845.00
1976.047,2645.00
1976.882,2613.00
1977.716,3110.00
1978.550,2440.00
1979.384,2714.00
1980.218,2695.00
1981.052,2658.00
1981.885,2761.00
1982.719,2736.00
1983.554,2904.00
1984.388,3063.00
1985.221,2820.00
1986.054,2991.00
1986.887,2808.00
1987.720,2608.00
1988.553,3054.00
1989.386,2828.00
1990.219,2867.00
1991.053,3033.00
1991.886,2613.00
1992.719,2960.00
1993.551,2276.00
1994.383,2867.00
1995.216,2651.00
1996.048,2442.00
1996.880,2869.00
1997.712,2605.00
1998.544,2735.00
1999.376,2814.00
2000.208,3000.00
2001.040,3207.00
2001.873,2583.00
2002.705,2578.00
2003.536,2808.00
2004.367,2772.00
2005.199,2770.00
2006.030,2607.00
2006.861,2568.00
2007.692,2801.00
2008.523,2636.00
2009.354,2789.00
2010.185,2542.00
2011.016,2864.00
2011.846,2919.00
2012.677,2664.00
2013.507,3071.00
2014.338,2988.00
2015.168,2668.00
2015.999,3243.00
2016.829,2681.00
2017.659,2934.00
2018.489,3233.00
2019.319,2549.00
2020.149,2911.00
2020.980,2758.00
2021.810,2557.00
2022.639,2655.00
2023.469,2643.00
2024.298,2474.00
2025.128,2360.00
2025.957,2378.00
2026.786,2202.00
2027.615,2415.00
2028.444,2580.00
2029.273,2777.00
2030.102,2337.00
2030.931,2609.00
2031.758,2834.00
2032.586,2557.00
2033.415,2586.00
2034.243,2206.00
2035.072,2058.00
2035.900,2501.00
2036.728,2338.00
2037.556,2352.00
2038.385,2380.00
2039.213,2196.00
2040.040,2150.00
2040.868,2160.00
2041.696,2217.00
2042.524,2196.00
2043.351,2412.00
2044.179,2257.00
2045.006,1989.00
