RamanScope Measure Spectrum Data V3.72

<< MEASURE CONDITION >>
Exposure Type,Aver
Exposure Time [sec],15
Exposure Count,30
Measure Time,2023/07/04 14:25:02
Data Name,""
Data Comment,""
Rayleigh Wave[nm],532.0

<< SAMPLE SPECTRUM >>
Wave[dcm-1],No247
146.591,760.40
147.626,895.73
148.664,1094.30
149.699,1176.37
150.737,1493.60
151.772,1692.60
152.809,1929.53
153.846,2138.10
154.881,2331.13
155.918,2525.23
156.953,2698.17
157.989,2816.20
159.026,2940.67
160.060,3082.23
161.096,3101.63
162.130,3224.23
163.167,3281.23
164.200,3323.70
165.236,3420.23
166.272,3419.40
167.305,3466.50
168.341,3513.27
169.374,3612.53
170.409,3692.27
171.445,3703.93
172.477,3814.67
173.512,3818.80
174.545,3968.57
175.580,3952.50
176.614,3999.07
177.647,4053.30
178.681,4057.37
179.713,4061.03
180.747,4057.43
181.781,4025.73
182.813,4025.93
183.847,4033.30
184.878,4020.27
185.912,4023.30
186.945,4021.27
187.976,4030.30
189.010,4022.20
190.043,4080.90
191.073,4104.33
192.106,4097.00
193.137,4157.73
194.170,4162.67
195.202,4237.33
196.232,4346.47
197.265,4293.13
198.297,4402.80
199.327,4440.00
200.359,4499.83
201.388,4605.17
202.420,4669.93
203.452,4745.27
204.481,4897.33
205.512,4995.90
206.544,5081.83
207.573,5194.20
208.604,5327.50
209.635,5483.00
210.663,5726.27
211.694,5862.20
212.725,6016.07
213.753,6177.30
214.783,6379.47
215.813,6529.50
216.841,6674.63
217.871,6759.40
218.899,6722.77
219.929,6772.63
220.959,6737.00
221.986,6602.23
223.016,6466.90
224.045,6317.27
225.072,6203.23
226.101,6114.00
227.130,5953.03
228.157,5758.70
229.185,5676.33
230.214,5640.97
231.241,5487.80
232.269,5454.57
233.297,5362.83
234.323,5319.37
235.351,5270.50
236.379,5265.83
237.407,5240.57
238.433,5167.10
239.460,5160.40
240.488,5232.83
241.513,5243.67
242.540,5270.70
243.568,5296.83
244.592,5345.57
245.619,5364.73
246.646,5422.70
247.671,5398.40
248.697,5458.70
249.724,5461.97
250.748,5407.10
251.774,5386.10
252.801,5379.80
253.827,5369.60
254.850,5333.63
255.876,5370.23
256.902,5380.47
257.925,5429.87
258.951,5451.53
259.976,5486.97
260.999,5521.03
262.024,5590.03
263.049,5644.27
264.074,5621.73
265.097,5666.17
266.122,5726.83
267.146,5788.07
268.168,5868.40
269.193,5924.80
270.217,5916.23
271.241,6060.73
272.263,6084.17
273.287,6118.37
274.311,6150.57
275.332,6186.87
276.356,6206.93
277.379,6223.80
278.402,6217.87
279.424,6198.73
280.447,6123.30
281.470,6067.37
282.492,6034.67
283.513,5967.50
284.536,5876.30
285.558,5815.10
286.581,5716.40
287.601,5669.00
288.623,5609.70
289.645,5498.20
290.665,5392.23
291.687,5318.53
292.709,5297.87
293.730,5202.17
294.750,5142.33
295.771,5005.43
296.792,4977.70
297.813,4901.97
298.832,4872.20
299.853,4786.87
300.874,4730.83
301.895,4638.93
302.913,4617.27
303.934,4596.23
304.954,4496.27
305.975,4500.57
306.993,4413.40
308.013,4402.20
309.033,4392.53
310.052,4313.63
311.072,4292.57
312.090,4247.73
313.109,4269.17
314.129,4210.00
315.148,4207.00
316.165,4122.27
317.184,4128.60
318.203,4116.53
319.222,4165.43
320.238,4103.07
321.257,4032.97
322.275,4052.07
323.294,3995.57
324.312,4003.10
325.328,4000.87
326.346,3965.67
327.364,3939.03
328.382,3996.33
329.397,3963.77
330.415,3925.30
331.432,3917.57
332.450,3933.30
333.467,3940.17
334.482,3866.43
335.499,3894.73
336.516,3881.93
337.533,3908.77
338.547,3908.83
339.564,3850.40
340.580,3888.50
341.597,3858.50
342.613,3840.87
343.627,3824.37
344.643,3821.73
345.659,3862.40
346.675,3834.40
347.690,3837.93
348.704,3837.83
349.719,3835.57
350.735,3840.73
351.750,3791.70
352.765,3750.00
353.778,3800.13
354.793,3805.87
355.808,3813.10
356.822,3818.23
357.837,3807.30
358.851,3836.87
359.864,3832.33
360.878,3870.03
361.892,3809.67
362.906,3834.97
363.920,3864.73
364.932,3873.00
365.945,3831.87
366.959,3845.03
367.972,3849.93
368.986,3839.70
369.999,3899.57
371.010,3898.13
372.023,3901.70
373.036,3869.10
374.049,3898.37
375.061,3928.53
376.072,3973.17
377.084,3957.87
378.097,3956.53
379.109,3930.30
380.121,3975.07
381.133,3993.63
382.143,3949.67
383.155,3931.10
384.166,3976.77
385.178,3960.07
386.189,4005.13
387.201,3961.77
388.212,3950.23
389.221,3955.87
390.232,3946.30
391.243,3912.63
392.254,3942.43
393.264,3925.63
394.275,3857.33
395.283,3894.93
396.294,3855.90
397.304,3798.43
398.314,3840.63
399.324,3793.13
400.334,3790.17
401.344,3796.73
402.351,3766.53
403.361,3757.57
404.370,3718.10
405.380,3697.27
406.389,3703.27
407.398,3697.03
408.407,3679.03
409.414,3640.37
410.423,3662.37
411.431,3678.43
412.440,3632.60
413.448,3604.40
414.457,3609.43
415.465,3549.57
416.471,3560.17
417.479,3549.67
418.487,3541.67
419.495,3481.57
420.503,3508.33
421.510,3545.83
422.518,3517.13
423.525,3503.03
424.530,3486.63
425.537,3492.63
426.544,3470.43
427.551,3509.30
428.558,3463.87
429.565,3427.87
430.571,3450.97
431.578,3465.13
432.582,3434.10
433.588,3419.20
434.595,3433.83
435.601,3433.13
436.607,3439.97
437.612,3410.43
438.618,3459.47
439.624,3415.87
440.627,3422.00
441.633,3413.30
442.638,3462.80
443.643,3405.60
444.648,3406.73
445.653,3410.73
446.658,3399.30
447.663,3414.60
448.667,3434.30
449.672,3420.67
450.674,3384.50
451.678,3434.67
452.682,3429.37
453.687,3402.50
454.690,3433.07
455.694,3434.20
456.698,3463.57
457.702,3483.57
458.705,3453.20
459.709,3452.47
460.710,3417.43
461.713,3513.23
462.716,3466.43
463.719,3513.50
464.722,3480.43
465.725,3472.83
466.727,3437.20
467.730,3504.23
468.732,3487.30
469.735,3539.20
470.737,3470.30
471.737,3439.87
472.739,3520.20
473.741,3510.07
474.742,3486.60
475.744,3456.03
476.746,3540.07
477.747,3483.90
478.748,3530.80
479.750,3518.80
480.751,3510.43
481.752,3517.43
482.753,3486.57
483.751,3487.50
484.752,3499.03
485.753,3540.13
486.753,3499.67
487.753,3513.27
488.754,3518.30
489.754,3504.23
490.754,3480.77
491.754,3506.90
492.754,3519.87
493.753,3515.20
494.753,3529.50
495.752,3486.97
496.752,3478.27
497.749,3490.63
498.748,3499.43
499.747,3516.60
500.746,3488.00
501.745,3470.30
502.744,3489.77
503.742,3461.87
504.741,3421.77
505.739,3433.07
506.737,3394.30
507.735,3407.00
508.734,3407.63
509.732,3409.73
510.729,3433.27
511.727,3387.57
512.725,3359.73
513.720,3389.23
514.718,3382.73
515.715,3349.57
516.712,3302.87
517.709,3262.00
518.706,3288.57
519.703,3301.10
520.700,3285.83
521.696,3297.10
522.693,3294.60
523.689,3306.80
524.686,3344.43
525.682,3330.20
526.678,3320.37
527.674,3256.07
528.670,3310.67
529.666,3316.40
530.661,3305.60
531.657,3339.97
532.652,3307.33
533.648,3340.77
534.641,3346.63
535.636,3328.33
536.631,3388.80
537.626,3342.30
538.621,3354.50
539.616,3385.53
540.610,3334.33
541.605,3336.83
542.599,3326.13
543.593,3357.30
544.587,3332.07
545.581,3386.43
546.575,3334.27
547.569,3380.60
548.563,3358.77
549.557,3360.50
550.550,3373.80
551.543,3363.47
552.537,3388.97
553.530,3337.60
554.523,3343.53
555.516,3376.63
556.509,3371.03
557.502,3391.40
558.494,3357.60
559.487,3369.07
560.479,3375.67
561.472,3411.27
562.464,3430.23
563.456,3362.63
564.448,3390.67
565.440,3347.77
566.432,3379.93
567.423,3437.00
568.415,3406.13
569.404,3413.33
570.396,3409.77
571.387,3463.47
572.378,3502.07
573.369,3475.60
574.360,3481.50
575.351,3432.80
576.341,3484.67
577.332,3540.07
578.323,3494.33
579.313,3489.33
580.303,3531.50
581.293,3519.57
582.283,3543.00
583.273,3604.37
584.263,3531.23
585.253,3557.20
586.243,3536.70
587.232,3608.87
588.222,3599.77
589.211,3624.43
590.200,3577.90
591.189,3598.37
592.178,3600.57
593.167,3601.63
594.156,3581.30
595.145,3585.53
596.133,3609.70
597.122,3606.23
598.110,3608.60
599.098,3621.07
600.086,3595.23
601.074,3608.73
602.062,3565.00
603.050,3627.50
604.038,3611.60
605.025,3639.97
606.013,3614.00
607.000,3605.07
607.987,3620.80
608.975,3556.30
609.962,3531.67
610.949,3520.83
611.936,3553.50
612.922,3524.17
613.909,3542.93
614.895,3530.67
615.882,3487.73
616.868,3502.70
617.854,3459.30
618.841,3487.30
619.826,3370.50
620.812,3401.53
621.798,3350.13
622.784,3358.83
623.769,3411.27
624.755,3324.77
625.740,3291.10
626.725,3257.27
627.711,3261.00
628.698,3261.10
629.683,3245.97
630.667,3200.47
631.652,3190.50
632.637,3159.83
633.621,3179.23
634.606,3125.90
635.590,3133.20
636.574,3073.80
637.558,3071.33
638.542,3079.53
639.526,3012.93
640.510,3046.47
641.493,3009.43
642.477,3012.77
643.460,3014.70
644.444,3034.20
645.427,3003.23
646.410,2934.90
647.393,2944.30
648.376,2954.03
649.359,2933.20
650.341,2943.27
651.324,2879.50
652.307,2860.60
653.289,2859.77
654.271,2925.80
655.253,2880.87
656.235,2869.07
657.217,2841.97
658.199,2871.37
659.181,2850.37
660.163,2850.10
661.144,2883.90
662.126,2850.50
663.107,2762.50
664.088,2839.30
665.069,2834.97
666.050,2784.73
667.033,2760.20
668.014,2760.87
668.995,2755.93
669.975,2757.83
670.956,2745.43
671.936,2747.77
672.916,2673.33
673.896,2673.57
674.876,2684.30
675.856,2681.30
676.836,2665.43
677.816,2654.13
678.795,2635.43
679.775,2571.30
680.754,2616.33
681.734,2579.33
682.713,2512.73
683.692,2550.97
684.671,2528.10
685.650,2510.23
686.629,2527.93
687.607,2490.93
688.586,2468.33
689.564,2485.03
690.543,2451.87
691.523,2440.67
692.501,2441.23
693.479,2397.80
694.457,2414.57
695.435,2354.20
696.413,2415.03
697.390,2392.17
698.368,2375.37
699.345,2390.40
700.322,2345.20
701.300,2336.33
702.277,2351.07
703.254,2315.90
704.231,2309.50
705.207,2312.67
706.184,2287.57
707.161,2296.63
708.137,2263.90
709.113,2276.40
710.090,2293.47
711.068,2290.50
712.044,2261.00
713.020,2246.13
713.996,2253.20
714.971,2212.33
715.947,2221.40
716.922,2267.97
717.898,2233.93
718.873,2218.03
719.848,2239.50
720.823,2215.10
721.798,2201.07
722.773,2164.33
723.748,2191.57
724.723,2206.40
725.697,2189.60
726.672,2179.97
727.646,2131.03
728.622,2158.57
729.596,2150.97
730.570,2118.93
731.544,2131.40
732.518,2145.00
733.492,2129.80
734.466,2170.60
735.439,2122.83
736.413,2113.33
737.386,2142.60
738.359,2083.50
739.332,2110.07
740.305,2116.20
741.278,2057.13
742.251,2069.53
743.224,2094.50
744.196,2085.17
745.171,2074.10
746.143,2043.57
747.115,2008.63
748.087,2059.73
749.059,2058.90
750.031,2075.43
751.003,2026.17
751.975,1989.47
752.947,2017.13
753.918,1991.47
754.890,2030.93
755.861,1976.00
756.832,2014.93
757.803,1988.93
758.774,2002.40
759.747,1982.57
760.718,1981.00
761.689,1953.67
762.659,1953.87
763.630,1922.60
764.600,1963.40
765.570,1919.27
766.540,1942.27
767.510,1914.43
768.480,1914.83
769.450,1926.63
770.420,1928.00
771.390,1919.20
772.359,1940.30
773.329,1894.63
774.300,1882.23
775.269,1905.80
776.238,1948.43
777.207,1893.63
778.176,1901.07
779.145,1876.37
780.114,1896.77
781.083,1860.67
782.051,1886.30
783.019,1796.43
783.988,1888.70
784.956,1880.43
785.924,1848.90
786.894,1840.70
787.862,1805.97
788.830,1845.43
789.797,1872.83
790.765,1833.57
791.732,1819.40
792.700,1789.67
793.667,1801.47
794.634,1783.87
795.601,1798.13
796.568,1796.50
797.535,1811.30
798.502,1785.97
799.468,1757.70
800.437,1765.13
801.403,1754.87
802.370,1827.30
803.336,1749.43
804.302,1787.63
805.268,1760.83
806.234,1775.67
807.200,1769.67
808.166,1768.20
809.131,1784.10
810.097,1754.23
811.062,1757.50
812.027,1734.33
812.994,1759.73
813.960,1738.60
814.925,1720.70
815.889,1731.00
816.854,1717.80
817.819,1751.17
818.783,1665.93
819.748,1695.13
820.712,1697.73
821.677,1689.50
822.641,1678.17
823.605,1692.17
824.571,1695.97
825.534,1711.50
826.498,1692.87
827.462,1743.80
828.425,1669.87
829.389,1700.50
830.352,1674.93
831.315,1702.27
832.279,1677.10
833.242,1641.30
834.204,1686.57
835.167,1639.53
836.132,1664.43
837.095,1684.63
838.057,1677.87
839.020,1670.87
839.982,1665.90
840.944,1650.93
841.906,1671.97
842.868,1632.63
843.830,1652.80
844.792,1628.63
845.753,1648.67
846.715,1627.63
847.679,1628.47
848.640,1631.70
849.601,1636.93
850.562,1626.53
851.523,1644.97
852.484,1613.47
853.445,1598.23
854.406,1586.77
855.367,1604.33
856.327,1566.33
857.288,1618.13
858.248,1584.97
859.210,1627.87
860.170,1598.10
861.130,1592.33
862.090,1585.40
863.050,1574.43
864.010,1602.50
864.969,1578.13
865.929,1555.27
866.888,1565.07
867.848,1567.87
868.807,1576.43
869.766,1571.00
870.727,1577.43
871.686,1584.03
872.645,1531.43
873.604,1579.57
874.562,1615.83
875.521,1572.53
876.479,1599.77
877.437,1579.13
878.396,1559.10
879.354,1564.83
880.312,1595.00
881.270,1592.77
882.229,1548.33
883.187,1564.07
884.145,1520.87
885.102,1564.33
886.059,1538.07
887.017,1538.90
887.974,1539.57
888.931,1533.13
889.888,1556.97
890.845,1519.57
891.802,1504.47
892.758,1541.73
893.717,1539.23
894.673,1544.50
895.630,1545.70
896.586,1576.67
897.542,1552.27
898.498,1577.07
899.454,1582.20
900.410,1524.37
901.366,1594.73
902.321,1577.97
903.277,1570.13
904.232,1526.73
905.189,1579.73
906.145,1572.60
907.100,1565.07
908.055,1544.87
909.010,1558.80
909.965,1531.80
910.919,1558.50
911.874,1579.30
912.828,1563.13
913.783,1576.60
914.737,1540.47
915.693,1556.67
916.648,1557.40
917.602,1542.10
918.555,1600.63
919.509,1573.90
920.463,1564.37
921.417,1590.50
922.370,1523.90
923.324,1576.43
924.277,1555.33
925.230,1570.77
926.183,1592.67
927.138,1607.07
928.091,1549.50
929.044,1560.20
929.996,1579.00
930.949,1571.37
931.902,1577.07
932.854,1611.47
933.806,1549.77
934.758,1543.30
935.711,1555.57
936.663,1574.97
937.614,1602.37
938.568,1530.63
939.520,1550.57
940.471,1626.83
941.423,1564.53
942.374,1572.67
943.326,1606.93
944.277,1592.77
945.228,1578.30
946.179,1586.63
947.130,1593.20
948.080,1585.10
949.031,1587.20
949.984,1578.20
950.934,1610.70
951.884,1517.57
952.835,1592.20
953.785,1589.10
954.735,1583.80
955.685,1548.33
956.635,1549.37
957.585,1565.43
958.534,1581.17
959.484,1599.40
960.433,1559.80
961.383,1522.20
962.334,1604.17
963.283,1586.43
964.232,1591.77
965.181,1552.23
966.130,1545.57
967.079,1559.50
968.027,1532.60
968.976,1555.73
969.924,1562.00
970.873,1547.60
971.821,1524.50
972.769,1549.00
973.719,1607.93
974.667,1568.73
975.615,1554.83
976.562,1559.67
977.510,1555.10
978.458,1555.50
979.405,1506.93
980.352,1568.67
981.300,1556.07
982.247,1537.10
983.194,1593.33
984.141,1563.27
985.088,1522.57
986.036,1559.70
986.983,1522.43
987.930,1516.80
988.876,1534.93
989.822,1528.20
990.769,1548.83
991.715,1578.93
992.661,1539.07
993.607,1575.43
994.553,1570.07
995.498,1542.63
996.444,1520.63
997.389,1569.20
998.337,1588.30
999.282,1522.80
1000.227,1544.73
1001.173,1540.00
1002.118,1551.83
1003.062,1476.27
1004.007,1527.80
1004.952,1551.30
1005.897,1508.63
1006.841,1536.13
1007.786,1522.90
1008.730,1519.40
1009.674,1519.63
1010.618,1557.80
1011.564,1567.73
1012.508,1559.17
1013.452,1537.27
1014.396,1523.30
1015.339,1556.30
1016.283,1495.73
1017.226,1527.00
1018.170,1534.97
1019.113,1495.17
1020.056,1536.83
1020.999,1580.90
1021.942,1520.87
1022.885,1550.70
1023.828,1542.37
1024.770,1566.53
1025.715,1555.13
1026.657,1520.10
1027.600,1527.60
1028.542,1580.57
1029.484,1550.93
1030.426,1578.53
1031.368,1586.67
1032.310,1536.47
1033.251,1521.10
1034.193,1574.60
1035.135,1573.00
1036.076,1587.40
1037.017,1571.27
1037.959,1568.70
1038.900,1589.23
1039.843,1552.00
1040.784,1587.37
1041.725,1551.07
1042.665,1553.83
1043.606,1565.53
1044.547,1571.70
1045.487,1576.97
1046.427,1564.50
1047.368,1557.67
1048.308,1595.63
1049.248,1566.37
1050.188,1592.37
1051.128,1600.50
1052.067,1557.60
1053.007,1591.70
1053.947,1613.23
1054.886,1599.53
1055.827,1582.70
1056.766,1630.40
1057.706,1572.33
1058.645,1607.03
1059.584,1622.07
1060.522,1600.67
1061.461,1628.33
1062.400,1637.70
1063.338,1616.00
1064.277,1639.17
1065.215,1658.70
1066.154,1638.23
1067.092,1627.63
1068.030,1674.80
1068.968,1633.47
1069.906,1635.40
1070.843,1648.27
1071.781,1644.90
1072.720,1652.10
1073.658,1641.97
1074.595,1650.27
1075.533,1663.63
1076.470,1652.73
1077.407,1652.03
1078.344,1639.90
1079.281,1631.17
1080.217,1648.83
1081.154,1688.77
1082.091,1703.73
1083.027,1673.50
1083.964,1703.23
1084.900,1699.07
1085.836,1680.00
1086.772,1644.37
1087.708,1665.97
1088.644,1672.77
1089.580,1701.40
1090.515,1672.93
1091.451,1697.97
1092.388,1664.00
1093.324,1672.47
1094.259,1695.83
1095.194,1670.10
1096.129,1705.10
1097.064,1679.67
1097.999,1649.97
1098.934,1686.80
1099.869,1678.60
1100.803,1699.60
1101.738,1731.23
1102.672,1668.70
1103.607,1610.83
1104.541,1628.80
1105.475,1636.43
1106.409,1650.00
1107.343,1615.37
1108.277,1643.77
1109.210,1642.07
1110.144,1619.87
1111.078,1618.93
1112.011,1625.70
1112.944,1614.07
1113.878,1614.87
1114.811,1576.40
1115.744,1574.60
1116.678,1588.27
1117.611,1578.37
1118.544,1585.50
1119.477,1559.03
1120.409,1541.77
1121.342,1596.13
1122.274,1562.37
1123.206,1580.43
1124.138,1555.93
1125.070,1526.20
1126.002,1576.60
1126.934,1562.10
1127.866,1547.53
1128.798,1566.23
1129.729,1558.83
1130.661,1509.03
1131.592,1528.00
1132.523,1480.90
1133.454,1504.70
1134.385,1501.60
1135.317,1507.73
1136.247,1500.30
1137.178,1494.13
1138.109,1531.80
1139.039,1460.10
1139.970,1507.20
1140.900,1486.77
1141.831,1488.73
1142.761,1483.57
1143.691,1470.80
1144.621,1501.33
1145.551,1455.40
1146.480,1477.83
1147.410,1448.73
1148.340,1471.20
1149.269,1467.63
1150.199,1471.63
1151.128,1464.53
1152.057,1426.07
1152.979,1444.27
1153.898,1454.83
1154.819,1414.27
1155.739,1424.83
1156.658,1435.87
1157.579,1402.73
1158.498,1500.90
1159.419,1440.77
1160.338,1449.73
1161.256,1415.63
1162.177,1442.80
1163.095,1452.60
1164.016,1457.27
1164.934,1453.80
1165.852,1423.97
1166.772,1392.00
1167.690,1419.27
1168.610,1440.50
1169.528,1442.90
1170.446,1413.60
1171.365,1420.17
1172.283,1416.20
1173.202,1386.30
1174.120,1434.10
1175.037,1421.33
1175.956,1420.90
1176.873,1396.80
1177.792,1437.87
1178.709,1380.20
1179.626,1397.47
1180.544,1412.13
1181.461,1387.83
1182.379,1400.57
1183.296,1416.73
1184.212,1407.53
1185.130,1407.57
1186.046,1399.07
1186.962,1410.93
1187.880,1380.30
1188.796,1389.90
1189.714,1412.93
1190.629,1409.77
1191.545,1420.60
1192.462,1394.77
1193.378,1431.43
1194.295,1381.77
1195.210,1396.30
1196.125,1383.27
1197.042,1365.80
1197.957,1434.43
1198.872,1340.43
1199.788,1370.80
1200.703,1382.43
1201.619,1379.17
1202.534,1393.13
1203.448,1381.37
1204.364,1396.40
1205.278,1380.30
1206.192,1420.57
1207.108,1386.20
1208.022,1405.67
1208.938,1371.50
1209.851,1365.40
1210.765,1406.63
1211.680,1385.47
1212.594,1380.80
1213.507,1396.60
1214.422,1407.27
1215.335,1427.37
1216.248,1366.63
1217.163,1410.50
1218.076,1409.53
1218.990,1396.30
1219.903,1389.10
1220.816,1372.10
1221.730,1369.33
1222.642,1417.43
1223.554,1428.00
1224.469,1411.43
1225.380,1362.90
1226.292,1419.83
1227.206,1419.10
1228.118,1420.07
1229.032,1418.07
1229.943,1406.57
1230.855,1409.40
1231.768,1410.23
1232.679,1413.83
1233.590,1398.03
1234.503,1411.50
1235.414,1437.90
1236.325,1423.63
1237.238,1423.83
1238.149,1443.13
1239.059,1427.53
1239.972,1455.80
1240.882,1419.93
1241.793,1383.70
1242.705,1447.17
1243.615,1464.43
1244.525,1421.63
1245.437,1422.87
1246.347,1447.10
1247.259,1479.13
1248.168,1413.30
1249.078,1452.80
1249.989,1464.70
1250.899,1429.03
1251.808,1438.47
1252.719,1425.40
1253.628,1428.57
1254.537,1457.63
1255.448,1433.30
1256.357,1430.27
1257.266,1458.27
1258.176,1418.07
1259.085,1409.17
1259.993,1431.37
1260.904,1428.13
1261.812,1435.70
1262.720,1402.63
1263.630,1438.93
1264.538,1448.27
1265.446,1433.00
1266.356,1445.37
1267.263,1429.50
1268.171,1415.40
1269.080,1400.93
1269.988,1429.50
1270.895,1436.77
1271.804,1446.73
1272.711,1405.80
1273.619,1453.47
1274.527,1428.13
1275.434,1406.33
1276.341,1413.90
1277.248,1397.90
1278.156,1419.30
1279.063,1405.23
1279.969,1422.70
1280.877,1377.37
1281.783,1419.40
1282.690,1388.53
1283.598,1404.37
1284.503,1412.90
1285.409,1365.03
1286.317,1436.43
1287.223,1386.23
1288.128,1395.17
1289.036,1384.67
1289.941,1402.07
1290.846,1384.50
1291.751,1401.27
1292.658,1403.10
1293.563,1400.73
1294.468,1418.87
1295.375,1388.10
1296.280,1355.00
1297.184,1402.13
1298.091,1386.97
1298.995,1365.30
1299.900,1373.30
1300.806,1380.07
1301.710,1369.47
1302.614,1344.87
1303.518,1360.83
1304.424,1351.73
1305.327,1374.73
1306.231,1329.33
1307.137,1297.77
1308.040,1337.63
1308.943,1332.30
1309.847,1303.93
1310.752,1327.67
1311.655,1323.30
1312.558,1306.60
1313.463,1308.17
1314.366,1297.03
1315.269,1301.17
1316.171,1321.03
1317.076,1293.63
1317.978,1314.87
1318.881,1281.57
1319.785,1265.37
1320.687,1290.43
1321.589,1314.53
1322.491,1267.73
1323.395,1300.23
1324.297,1255.00
1325.198,1298.40
1326.102,1273.47
1327.004,1278.40
1327.905,1285.40
1328.806,1296.20
1329.709,1272.03
1330.611,1262.83
1331.512,1258.30
1332.413,1241.77
1333.316,1219.17
1334.216,1284.13
1335.117,1240.30
1336.020,1262.73
1336.920,1241.63
1337.821,1223.20
1338.721,1208.77
1339.623,1228.00
1340.523,1213.73
1341.423,1224.33
1342.323,1216.63
1343.225,1220.97
1344.125,1256.07
1345.025,1238.03
1345.924,1191.33
1346.826,1228.33
1347.725,1191.03
1348.624,1200.67
1349.524,1219.07
1350.425,1212.10
1351.324,1211.73
1352.223,1174.77
1353.121,1210.20
1354.022,1160.57
1354.921,1202.33
1355.819,1167.50
1356.718,1142.83
1357.618,1154.37
1358.516,1199.77
1359.415,1170.47
1360.313,1187.10
1361.213,1135.00
1362.111,1162.13
1363.008,1146.70
1363.906,1177.33
1364.806,1141.03
1365.703,1154.20
1366.601,1145.33
1367.498,1159.40
1368.397,1117.07
1369.295,1130.60
1370.192,1110.23
1371.089,1133.33
1371.987,1114.13
1372.884,1148.40
1373.781,1105.87
1374.678,1107.77
1375.574,1122.53
1376.473,1117.70
1377.369,1077.83
1378.265,1100.83
1379.161,1116.00
1380.059,1114.87
1380.955,1109.07
1381.851,1096.53
1382.747,1091.83
1383.643,1120.40
1384.540,1107.20
1385.436,1090.93
1386.331,1127.07
1387.227,1101.77
1388.124,1095.13
1389.019,1086.93
1389.914,1062.10
1390.809,1098.20
1391.704,1109.47
1392.601,1064.27
1393.495,1053.00
1394.390,1066.27
1395.285,1084.20
1396.179,1067.33
1397.075,1076.50
1397.969,1091.13
1398.864,1040.37
1399.758,1107.67
1400.652,1087.03
1401.547,1062.37
1402.441,1077.67
1403.335,1078.77
1404.229,1062.90
1405.122,1048.23
1406.017,1065.83
1406.911,1031.03
1407.804,1070.43
1408.697,1071.30
1409.590,1033.33
1410.485,1096.37
1411.378,1038.83
1412.271,1065.90
1413.163,1071.90
1414.056,1036.10
1414.949,1061.43
1415.843,1045.50
1416.735,1050.50
1417.627,1024.37
1418.520,1053.37
1419.412,1046.47
1420.306,1061.83
1421.197,1016.67
1422.089,1039.87
1422.981,1015.53
1423.873,996.57
1424.764,1036.13
1425.657,1010.83
1426.549,1044.87
1427.440,1028.30
1428.331,1036.27
1429.222,988.77
1430.113,1031.33
1431.006,1028.57
1431.897,1011.83
1432.787,1034.17
1433.678,1019.60
1434.568,1029.27
1435.459,1024.13
1436.351,1034.77
1437.241,974.17
1438.131,1014.63
1439.021,989.67
1439.911,1030.27
1440.801,984.80
1441.693,973.87
1442.583,1014.83
1443.472,1012.13
1444.362,998.67
1445.251,960.57
1446.140,1008.30
1447.030,980.47
1447.921,1003.33
1448.810,976.97
1449.699,967.03
1450.588,998.20
1451.476,987.80
1452.365,981.37
1453.254,962.30
1454.144,989.90
1455.032,1022.47
1455.921,1012.77
1456.809,992.77
1457.697,975.93
1458.585,966.80
1459.473,1020.87
1460.361,1003.90
1461.251,996.20
1462.138,1001.67
1463.026,1002.77
1463.913,971.53
1464.801,968.50
1465.688,972.90
1466.575,969.53
1467.463,964.27
1468.351,972.27
1469.238,946.53
1470.125,967.80
1471.012,951.03
1471.899,965.50
1472.785,955.07
1473.672,933.10
1474.558,936.53
1475.446,931.57
1476.333,974.20
1477.219,970.67
1478.105,949.27
1478.991,942.90
1479.877,974.40
1480.762,949.67
1481.648,964.57
1482.534,944.10
1483.419,946.33
1484.307,950.37
1485.192,916.27
1486.077,923.07
1486.962,953.93
1487.847,932.17
1488.732,932.07
1489.617,954.53
1490.502,928.17
1491.387,908.00
1492.271,935.40
1493.156,919.60
1494.042,926.70
1494.927,921.33
1495.811,920.37
1496.695,896.50
1497.579,899.63
1498.463,929.10
1499.347,909.70
1500.231,907.50
1501.114,924.53
1501.998,911.23
1502.881,919.17
1503.765,885.63
1504.648,925.60
1505.533,906.90
1506.417,903.13
1507.300,900.07
1508.183,882.03
1509.066,914.20
1509.948,894.57
1510.831,888.37
1511.714,913.07
1512.596,914.00
1513.479,885.23
1514.361,884.73
1515.243,876.93
1516.125,891.53
1517.008,895.40
1517.890,893.23
1518.771,892.77
1519.655,894.50
1520.537,895.20
1521.419,890.93
1522.300,891.53
1523.182,839.73
1524.063,877.03
1524.944,893.57
1525.825,891.03
1526.707,879.90
1527.588,840.60
1528.468,888.70
1529.349,888.77
1530.230,881.77
1531.111,871.50
1531.991,876.60
1532.872,843.13
1533.752,893.10
1534.632,865.00
1535.513,845.83
1536.393,873.03
1537.273,830.07
1538.153,840.70
1539.032,882.50
1539.912,847.90
1540.792,852.53
1541.672,860.07
1542.551,852.77
1543.430,887.93
1544.310,860.60
1545.189,835.30
1546.068,865.43
1546.947,841.77
1547.826,901.00
1548.705,829.20
1549.584,877.57
1550.462,878.03
1551.341,858.77
1552.219,820.87
1553.098,831.80
1553.976,854.37
1554.854,875.27
1555.733,871.90
1556.611,856.77
1557.489,908.43
1558.367,864.73
1559.244,865.43
1560.122,884.87
1561.000,879.50
1561.877,848.60
1562.755,835.87
1563.632,869.43
1564.509,848.97
1565.386,830.33
1566.264,817.57
1567.141,867.53
1568.017,854.37
1568.894,870.73
1569.771,823.53
1570.648,811.23
1571.524,865.70
1572.401,849.17
1573.277,841.13
1574.153,830.23
1575.029,854.17
1575.906,805.37
1576.781,847.70
1577.657,833.80
1578.533,849.13
1579.409,819.07
1580.285,850.40
1581.160,832.30
1582.036,849.60
1582.911,844.50
1583.786,801.23
1584.662,807.73
1585.537,812.27
1586.412,814.27
1587.287,836.93
1588.160,841.17
1589.035,846.80
1589.909,802.30
1590.784,830.50
1591.658,853.00
1592.533,817.60
1593.407,811.53
1594.281,830.30
1595.155,821.20
1596.029,826.63
1596.903,832.27
1597.777,824.50
1598.651,807.93
1599.525,835.40
1600.398,837.43
1601.272,810.20
1602.144,796.40
1603.017,822.53
1603.890,813.00
1604.763,823.97
1605.636,827.03
1606.509,791.67
1607.382,809.63
1608.255,798.77
1609.128,832.07
1610.000,819.33
1610.873,837.97
1611.746,812.37
1612.616,800.83
1613.488,803.90
1614.361,813.43
1615.233,838.30
1616.105,798.87
1616.977,817.10
1617.849,838.27
1618.720,776.73
1619.592,795.93
1620.464,804.67
1621.333,773.53
1622.205,775.17
1623.076,801.73
1623.947,799.73
1624.818,834.37
1625.689,812.27
1626.560,817.63
1627.431,783.73
1628.302,820.20
1629.171,806.67
1630.042,777.50
1630.912,799.73
1631.782,812.47
1632.653,799.27
1633.523,769.43
1634.393,837.10
1635.263,810.43
1636.131,801.73
1637.001,771.73
1637.871,777.10
1638.741,780.10
1639.611,789.33
1640.480,811.43
1641.350,764.23
1642.219,788.73
1643.087,801.70
1643.956,784.07
1644.825,806.00
1645.694,802.83
1646.563,778.03
1647.432,812.60
1648.299,759.67
1649.167,780.57
1650.036,804.07
1650.904,784.73
1651.773,758.40
1652.641,819.73
1653.509,803.07
1654.376,773.73
1655.244,776.70
1656.112,775.37
1656.980,843.63
1657.847,769.57
1658.715,779.17
1659.581,791.13
1660.448,753.53
1661.316,736.63
1662.183,791.70
1663.051,760.70
1663.918,774.17
1664.783,749.33
1665.650,789.43
1666.517,759.63
1667.384,777.97
1668.251,779.60
1669.115,750.30
1669.982,772.03
1670.849,786.50
1671.715,814.10
1672.581,774.50
1673.446,776.30
1674.312,788.37
1675.178,750.90
1676.044,760.90
1676.910,803.93
1677.774,759.47
1678.639,779.40
1679.505,780.50
1680.370,767.57
1681.236,788.00
1682.099,753.63
1682.965,785.13
1683.830,772.23
1684.695,777.93
1685.560,759.03
1686.423,776.43
1687.288,759.23
1688.153,804.33
1689.017,740.20
1689.880,768.10
1690.745,754.30
1691.609,780.50
1692.473,760.07
1693.338,775.67
1694.200,755.47
1695.064,805.63
1695.928,777.90
1696.792,745.43
1697.654,781.93
1698.517,758.10
1699.381,772.83
1700.245,756.13
1701.106,764.20
1701.969,772.27
1702.833,764.00
1703.696,732.97
1704.557,772.67
1705.420,770.43
1706.283,739.77
1707.146,768.30
1708.007,779.40
1708.870,754.93
1709.732,744.10
1710.595,756.27
1711.455,724.97
1712.318,753.40
1713.180,775.90
1714.040,790.10
1714.902,763.53
1715.764,789.50
1716.626,738.60
1717.486,719.97
1718.348,726.87
1719.209,593.67
1720.071,727.67
1720.930,759.23
1721.792,768.40
1722.653,729.80
1723.512,710.90
1724.374,756.20
1725.234,731.43
1726.095,735.90
1726.954,755.90
1727.815,783.47
1728.676,769.80
1729.535,799.90
1730.395,752.93
1731.256,708.30
1732.114,774.23
1732.974,727.30
1733.834,738.97
1734.693,745.40
1735.553,753.93
1736.413,716.77
1737.272,749.30
1738.130,708.80
1738.990,760.33
1739.849,745.57
1740.707,742.80
1741.566,734.80
1742.426,745.00
1743.283,734.67
1744.142,745.27
1745.001,758.83
1745.858,757.13
1746.717,724.03
1747.576,744.87
1748.433,716.03
1749.292,736.50
1750.150,763.87
1751.007,731.20
1751.865,718.23
1752.723,763.23
1753.579,722.83
1754.438,719.87
1755.296,755.00
1756.152,726.97
1757.010,735.80
1757.865,729.97
1758.723,780.53
1759.581,716.53
1760.436,716.03
1761.294,733.37
1762.151,736.73
1763.006,735.90
1763.864,736.57
1764.721,735.80
1765.576,756.90
1766.433,744.67
1767.288,729.20
1768.144,710.07
1769.001,763.67
1769.856,761.10
1770.712,737.83
1771.568,697.33
1772.423,758.70
1773.279,726.53
1774.133,714.17
1774.989,703.80
1775.845,732.00
1776.699,710.43
1777.555,719.37
1778.409,707.47
1779.265,709.73
1780.120,701.70
1780.974,737.60
1781.829,758.63
1782.682,708.47
1783.538,741.53
1784.393,734.13
1785.246,739.17
1786.101,750.20
1786.954,720.97
1787.808,710.23
1788.661,720.40
1789.516,744.77
1790.370,736.77
1791.223,731.57
1792.077,705.60
1792.930,716.90
1793.784,702.07
1794.636,721.73
1795.490,709.67
1796.344,706.80
1797.196,717.67
1798.049,729.83
1798.901,739.10
1799.755,732.53
1800.606,754.17
1801.460,692.73
1802.311,715.67
1803.165,706.87
1804.018,711.27
1804.869,763.73
1805.722,728.67
1806.573,709.77
1807.426,688.80
1808.276,751.70
1809.129,728.53
1809.980,720.13
1810.832,703.60
1811.683,730.90
1812.535,730.23
1813.385,673.00
1814.237,738.60
1815.089,714.63
1815.940,690.40
1816.791,750.93
1817.641,709.10
1818.493,717.20
1819.343,704.57
1820.194,741.67
1821.044,680.33
1821.895,714.40
1822.745,715.60
1823.596,735.53
1824.445,693.60
1825.296,695.07
1826.145,757.93
1826.996,715.53
1827.845,691.37
1828.695,710.93
1829.544,719.43
1830.395,742.03
1831.243,723.60
1832.094,724.77
1832.942,738.67
1833.792,696.63
1834.640,702.17
1835.490,721.80
1836.338,724.33
1837.186,750.30
1838.036,692.67
1838.884,724.70
1839.733,711.83
1840.581,696.50
1841.430,712.57
1842.278,734.70
1843.127,703.63
1843.974,725.43
1844.823,721.77
1845.671,709.70
1846.519,706.23
1847.366,677.77
1848.213,728.50
1849.062,696.27
1849.909,721.97
1850.757,711.60
1851.604,731.70
1852.452,703.57
1853.298,707.83
1854.146,718.90
1854.993,678.27
1855.839,746.40
1856.687,701.37
1857.532,682.73
1858.380,714.23
1859.226,707.50
1860.073,684.77
1860.919,723.13
1861.765,718.00
1862.612,724.07
1863.457,731.77
1864.304,686.83
1865.150,710.50
1865.995,709.73
1866.842,703.93
1867.686,700.33
1868.533,673.83
1869.378,690.23
1870.223,731.80
1871.069,693.60
1871.914,668.37
1872.760,711.57
1873.604,701.43
1874.448,677.47
1875.294,701.73
1876.139,710.57
1876.984,676.40
1877.828,690.37
1878.672,700.83
1879.518,724.23
1880.361,708.07
1881.205,693.53
1882.050,716.37
1882.894,726.40
1883.739,687.40
1884.582,669.00
1885.425,691.70
1886.270,701.03
1887.113,717.27
1887.956,719.50
1888.801,695.97
1889.644,711.50
1890.486,688.07
1891.331,711.17
1892.173,662.30
1893.017,683.43
1893.860,695.93
1894.702,698.87
1895.546,729.83
1896.388,723.47
1897.230,674.43
1898.074,675.77
1898.916,657.03
1899.757,678.20
1900.601,669.20
1901.443,698.50
1902.284,706.07
1903.125,698.63
1903.969,664.97
1904.810,704.73
1905.651,686.10
1906.494,719.00
1907.335,696.90
1908.176,667.77
1909.018,704.77
1909.859,666.00
1910.700,664.27
1911.542,695.63
1912.383,737.77
1913.223,713.83
1914.064,728.20
1914.906,671.70
1915.746,666.97
1916.586,688.37
1917.428,703.30
1918.268,730.40
1919.107,704.00
1919.947,683.60
1920.789,694.87
1921.628,699.33
1922.468,696.37
1923.309,696.07
1924.148,679.83
1924.988,701.60
1925.827,703.00
1926.667,707.93
1927.507,670.80
1928.345,684.10
1929.184,655.37
1930.025,685.97
1930.864,695.57
1931.702,679.57
1932.541,661.73
1933.381,706.07
1934.219,687.20
1935.057,676.93
1935.896,705.17
1936.735,678.17
1937.573,697.43
1938.411,700.80
1939.249,710.57
1940.089,688.10
1940.927,737.40
1941.764,678.43
1942.602,667.43
1943.439,696.70
1944.278,676.17
1945.115,711.60
1945.953,654.37
1946.790,680.37
1947.628,694.20
1948.465,674.77
1949.302,709.53
1950.139,670.97
1950.976,657.20
1951.814,710.50
1952.651,679.67
1953.487,702.13
1954.323,666.23
1955.160,689.33
1955.998,680.13
1956.834,705.87
1957.670,688.37
1958.506,623.97
1959.342,681.07
1960.177,698.13
1961.015,691.07
1961.850,697.33
1962.686,708.57
1963.521,693.70
1964.357,700.10
1965.192,679.33
1966.029,667.57
1966.864,663.80
1967.699,700.83
1968.534,683.97
1969.369,671.10
1970.204,671.83
1971.040,680.00
1971.875,674.17
1972.709,674.87
1973.544,678.40
1974.378,688.43
1975.212,691.97
1976.047,690.07
1976.882,706.37
1977.716,666.50
1978.550,696.63
1979.384,670.53
1980.218,683.97
1981.052,677.17
1981.885,678.13
1982.719,671.83
1983.554,678.20
1984.388,708.23
1985.221,648.40
1986.054,684.13
1986.887,700.47
1987.720,678.13
1988.553,692.17
1989.386,696.17
1990.219,683.90
1991.053,669.20
1991.886,660.50
1992.719,651.60
1993.551,670.13
1994.383,662.97
1995.216,656.50
1996.048,691.37
1996.880,668.37
1997.712,672.60
1998.544,690.07
1999.376,694.07
2000.208,638.67
2001.040,679.83
2001.873,673.77
2002.705,679.87
2003.536,673.93
2004.367,687.37
2005.199,680.30
2006.030,691.80
2006.861,625.43
2007.692,682.57
2008.523,659.67
2009.354,695.60
2010.185,694.47
2011.016,698.77
2011.846,675.00
2012.677,671.77
2013.507,673.90
2014.338,665.13
2015.168,688.80
2015.999,658.80
2016.829,673.63
2017.659,734.17
2018.489,680.33
2019.319,695.10
2020.149,676.43
2020.980,700.60
2021.810,667.20
2022.639,689.00
2023.469,664.20
2024.298,695.73
2025.128,665.63
2025.957,679.63
2026.786,685.80
2027.615,662.07
2028.444,683.13
2029.273,707.27
2030.102,682.13
2030.931,679.20
2031.758,687.83
2032.586,702.47
2033.415,667.77
2034.243,673.47
2035.072,707.73
2035.900,741.10
2036.728,716.40
2037.556,700.03
2038.385,700.60
2039.213,661.67
2040.040,711.93
2040.868,705.37
2041.696,710.33
2042.524,717.20
2043.351,669.90
2044.179,673.53
2045.006,668.27
2045.006,668.27

Max Intensity Wave.,219.929
Max Intensity Data,6772.63
Min Intensity Wave.,1719.209
Min Intensity Data,593.67
FWHM Wave.,401.228
FWHM Value,0.36
Pressure Wave.,684.671
Pressure Value [GPa],-24.91530
G/D Ratio,0.65831
G/D Gband Wave.,1557.525
G/D Gband Intensity,908.52
G/D Dband Wave.,1300.806
G/D Dband Intensity,1380.07

<< BACKGROUND SPECTRUM >>
Wave[dcm-1],No247
146.591,2215.00
147.626,2082.00
148.664,2024.00
149.699,2603.00
150.737,2219.00
151.772,2387.00
152.809,2349.00
153.846,2269.00
154.881,2363.00
155.918,1938.00
156.953,2243.00
157.989,2571.00
159.026,2434.00
160.060,2594.00
161.096,2860.00
162.130,2455.00
163.167,2530.00
164.200,2436.00
165.236,2592.00
166.272,2669.00
167.305,2270.00
168.341,2548.00
169.374,2736.00
170.409,2732.00
171.445,2710.00
172.477,2472.00
173.512,2393.00
174.545,2597.00
175.580,2872.00
176.614,3041.00
177.647,2769.00
178.681,3030.00
179.713,3335.00
180.747,2809.00
181.781,2735.00
182.813,2963.00
183.847,3037.00
184.878,2682.00
185.912,2938.00
186.945,3106.00
187.976,3006.00
189.010,2695.00
190.043,2781.00
191.073,2881.00
192.106,2721.00
193.137,3124.00
194.170,2534.00
195.202,2902.00
196.232,2623.00
197.265,2987.00
198.297,3017.00
199.327,2749.00
200.359,2933.00
201.388,3282.00
202.420,2883.00
203.452,3079.00
204.481,2639.00
205.512,3247.00
206.544,3061.00
207.573,3051.00
208.604,3371.00
209.635,3507.00
210.663,2886.00
211.694,2962.00
212.725,2818.00
213.753,2791.00
214.783,3346.00
215.813,3208.00
216.841,2957.00
217.871,3076.00
218.899,2879.00
219.929,3064.00
220.959,2841.00
221.986,3147.00
223.016,2752.00
224.045,3131.00
225.072,3081.00
226.101,3130.00
227.130,3194.00
228.157,2825.00
229.185,2338.00
230.214,3126.00
231.241,2841.00
232.269,2444.00
233.297,2678.00
234.323,3177.00
235.351,2784.00
236.379,3047.00
237.407,2720.00
238.433,2917.00
239.460,3099.00
240.488,3069.00
241.513,3186.00
242.540,3105.00
243.568,3162.00
244.592,3178.00
245.619,3198.00
246.646,2924.00
247.671,2966.00
248.697,2749.00
249.724,2948.00
250.748,2964.00
251.774,2972.00
252.801,3257.00
253.827,3062.00
254.850,3057.00
255.876,2640.00
256.902,3120.00
257.925,2958.00
258.951,2697.00
259.976,2734.00
260.999,3057.00
262.024,2741.00
263.049,3561.00
264.074,3087.00
265.097,2993.00
266.122,3047.00
267.146,3030.00
268.168,3163.00
269.193,2802.00
270.217,3215.00
271.241,2638.00
272.263,2861.00
273.287,3162.00
274.311,2768.00
275.332,3246.00
276.356,2821.00
277.379,3063.00
278.402,3108.00
279.424,2900.00
280.447,2857.00
281.470,2699.00
282.492,3051.00
283.513,2868.00
284.536,3121.00
285.558,3090.00
286.581,3106.00
287.601,2803.00
288.623,2752.00
289.645,3034.00
290.665,3097.00
291.687,3112.00
292.709,3067.00
293.730,3349.00
294.750,2833.00
295.771,2759.00
296.792,3032.00
297.813,2923.00
298.832,3002.00
299.853,2735.00
300.874,2958.00
301.895,2964.00
302.913,2971.00
303.934,3217.00
304.954,3039.00
305.975,3145.00
306.993,2733.00
308.013,3099.00
309.033,2970.00
310.052,2895.00
311.072,2878.00
312.090,3023.00
313.109,3231.00
314.129,3385.00
315.148,2970.00
316.165,3049.00
317.184,3222.00
318.203,2746.00
319.222,2687.00
320.238,3080.00
321.257,2798.00
322.275,2664.00
323.294,2988.00
324.312,3143.00
325.328,3224.00
326.346,3265.00
327.364,3224.00
328.382,3124.00
329.397,3091.00
330.415,3220.00
331.432,3182.00
332.450,3209.00
333.467,3412.00
334.482,2611.00
335.499,3321.00
336.516,2853.00
337.533,2539.00
338.547,2801.00
339.564,2867.00
340.580,3050.00
341.597,2919.00
342.613,3378.00
343.627,2975.00
344.643,3015.00
345.659,3065.00
346.675,2954.00
347.690,2852.00
348.704,3050.00
349.719,2866.00
350.735,2719.00
351.750,3196.00
352.765,3045.00
353.778,2980.00
354.793,3152.00
355.808,2822.00
356.822,3157.00
357.837,2618.00
358.851,3217.00
359.864,2933.00
360.878,2680.00
361.892,2951.00
362.906,3141.00
363.920,2550.00
364.932,3055.00
365.945,3088.00
366.959,2998.00
367.972,2902.00
368.986,2744.00
369.999,3322.00
371.010,2840.00
372.023,3321.00
373.036,2945.00
374.049,3365.00
375.061,3072.00
376.072,2953.00
377.084,2830.00
378.097,2694.00
379.109,3198.00
380.121,2981.00
381.133,2651.00
382.143,3140.00
383.155,2724.00
384.166,2865.00
385.178,3078.00
386.189,3163.00
387.201,2701.00
388.212,2896.00
389.221,2890.00
390.232,3005.00
391.243,2943.00
392.254,2979.00
393.264,2784.00
394.275,3216.00
395.283,3146.00
396.294,3607.00
397.304,3486.00
398.314,3060.00
399.324,3021.00
400.334,2665.00
401.344,3106.00
402.351,2648.00
403.361,3168.00
404.370,2939.00
405.380,2906.00
406.389,3320.00
407.398,3100.00
408.407,3061.00
409.414,3126.00
410.423,3273.00
411.431,2717.00
412.440,2640.00
413.448,3298.00
414.457,2812.00
415.465,2802.00
416.471,2870.00
417.479,2992.00
418.487,2793.00
419.495,3309.00
420.503,3089.00
421.510,2593.00
422.518,3124.00
423.525,3146.00
424.530,3363.00
425.537,2854.00
426.544,3215.00
427.551,2808.00
428.558,3545.00
429.565,3407.00
430.571,2861.00
431.578,2854.00
432.582,2876.00
433.588,2943.00
434.595,2607.00
435.601,3258.00
436.607,3201.00
437.612,2772.00
438.618,3283.00
439.624,2918.00
440.627,2909.00
441.633,3102.00
442.638,3537.00
443.643,3099.00
444.648,3000.00
445.653,3163.00
446.658,2881.00
447.663,3003.00
448.667,2862.00
449.672,2885.00
450.674,2990.00
451.678,2702.00
452.682,2874.00
453.687,2856.00
454.690,3562.00
455.694,3248.00
456.698,2529.00
457.702,2621.00
458.705,2784.00
459.709,2793.00
460.710,2884.00
461.713,2958.00
462.716,3062.00
463.719,2944.00
464.722,3155.00
465.725,2928.00
466.727,2849.00
467.730,2993.00
468.732,2768.00
469.735,3202.00
470.737,2877.00
471.737,2906.00
472.739,2858.00
473.741,2784.00
474.742,3064.00
475.744,3095.00
476.746,2969.00
477.747,2957.00
478.748,3132.00
479.750,2892.00
480.751,2986.00
481.752,3662.00
482.753,3086.00
483.751,3557.00
484.752,2632.00
485.753,2913.00
486.753,2844.00
487.753,2973.00
488.754,3394.00
489.754,2704.00
490.754,3290.00
491.754,3088.00
492.754,2650.00
493.753,2989.00
494.753,2873.00
495.752,3328.00
496.752,3036.00
497.749,2948.00
498.748,2835.00
499.747,3343.00
500.746,3064.00
501.745,2737.00
502.744,2697.00
503.742,3283.00
504.741,2962.00
505.739,2484.00
506.737,2910.00
507.735,3107.00
508.734,3354.00
509.732,3125.00
510.729,3293.00
511.727,2849.00
512.725,2883.00
513.720,2748.00
514.718,3218.00
515.715,2662.00
516.712,2647.00
517.709,3031.00
518.706,2912.00
519.703,3049.00
520.700,3212.00
521.696,3339.00
522.693,2894.00
523.689,2828.00
524.686,3107.00
525.682,2785.00
526.678,3442.00
527.674,2937.00
528.670,2577.00
529.666,3487.00
530.661,3482.00
531.657,3116.00
532.652,3151.00
533.648,2971.00
534.641,3186.00
535.636,3033.00
536.631,3053.00
537.626,3126.00
538.621,2722.00
539.616,2548.00
540.610,2519.00
541.605,3010.00
542.599,3064.00
543.593,2960.00
544.587,3892.00
545.581,2823.00
546.575,3076.00
547.569,3009.00
548.563,2664.00
549.557,2628.00
550.550,2755.00
551.543,2733.00
552.537,3118.00
553.530,2761.00
554.523,2777.00
555.516,3087.00
556.509,2962.00
557.502,2617.00
558.494,3179.00
559.487,2903.00
560.479,3155.00
561.472,3201.00
562.464,3094.00
563.456,3298.00
564.448,2926.00
565.440,3034.00
566.432,3391.00
567.423,2845.00
568.415,2897.00
569.404,3096.00
570.396,2821.00
571.387,3098.00
572.378,2982.00
573.369,3918.00
574.360,3637.00
575.351,2974.00
576.341,2852.00
577.332,2824.00
578.323,2692.00
579.313,2878.00
580.303,3200.00
581.293,3125.00
582.283,2972.00
583.273,3060.00
584.263,2989.00
585.253,3056.00
586.243,3146.00
587.232,2620.00
588.222,2921.00
589.211,3107.00
590.200,3029.00
591.189,2921.00
592.178,2949.00
593.167,3411.00
594.156,3262.00
595.145,2887.00
596.133,3402.00
597.122,3119.00
598.110,3190.00
599.098,3024.00
600.086,3002.00
601.074,3153.00
602.062,2859.00
603.050,2725.00
604.038,3084.00
605.025,2752.00
606.013,3171.00
607.000,3355.00
607.987,2991.00
608.975,3085.00
609.962,2784.00
610.949,3138.00
611.936,3218.00
612.922,3162.00
613.909,2682.00
614.895,3316.00
615.882,2828.00
616.868,2948.00
617.854,2720.00
618.841,2973.00
619.826,3128.00
620.812,2949.00
621.798,2805.00
622.784,3153.00
623.769,3022.00
624.755,2696.00
625.740,3039.00
626.725,2722.00
627.711,2830.00
628.698,3048.00
629.683,2793.00
630.667,3158.00
631.652,2720.00
632.637,2933.00
633.621,3128.00
634.606,2919.00
635.590,3080.00
636.574,2945.00
637.558,3050.00
638.542,3009.00
639.526,2866.00
640.510,2641.00
641.493,3038.00
642.477,2949.00
643.460,2651.00
644.444,3181.00
645.427,3195.00
646.410,2677.00
647.393,2959.00
648.376,3018.00
649.359,2882.00
650.341,3035.00
651.324,3087.00
652.307,3023.00
653.289,2940.00
654.271,2821.00
655.253,2890.00
656.235,3095.00
657.217,3227.00
658.199,2589.00
659.181,2723.00
660.163,2980.00
661.144,2795.00
662.126,2834.00
663.107,2794.00
664.088,6138.00
665.069,3180.00
666.050,2811.00
667.033,2712.00
668.014,3032.00
668.995,2569.00
669.975,2972.00
670.956,2974.00
671.936,3101.00
672.916,2977.00
673.896,3095.00
674.876,2905.00
675.856,2857.00
676.836,2723.00
677.816,2278.00
678.795,2779.00
679.775,2702.00
680.754,2994.00
681.734,3151.00
682.713,3176.00
683.692,2754.00
684.671,2632.00
685.650,2748.00
686.629,2827.00
687.607,2729.00
688.586,2745.00
689.564,2804.00
690.543,3225.00
691.523,2382.00
692.501,2807.00
693.479,2939.00
694.457,2765.00
695.435,2890.00
696.413,2633.00
697.390,2495.00
698.368,2662.00
699.345,3043.00
700.322,2913.00
701.300,3054.00
702.277,3030.00
703.254,3257.00
704.231,2567.00
705.207,2939.00
706.184,2781.00
707.161,2664.00
708.137,2846.00
709.113,2782.00
710.090,2759.00
711.068,2542.00
712.044,2600.00
713.020,2889.00
713.996,2601.00
714.971,2798.00
715.947,2836.00
716.922,2753.00
717.898,2726.00
718.873,2870.00
719.848,2672.00
720.823,2656.00
721.798,2946.00
722.773,2777.00
723.748,2524.00
724.723,2988.00
725.697,2792.00
726.672,2725.00
727.646,2526.00
728.622,2956.00
729.596,2581.00
730.570,2736.00
731.544,3055.00
732.518,3236.00
733.492,2809.00
734.466,2827.00
735.439,2977.00
736.413,3094.00
737.386,2409.00
738.359,2427.00
739.332,2527.00
740.305,2806.00
741.278,3313.00
742.251,2914.00
743.224,2707.00
744.196,2554.00
745.171,3101.00
746.143,3010.00
747.115,2800.00
748.087,2698.00
749.059,3057.00
750.031,2851.00
751.003,3668.00
751.975,3252.00
752.947,2692.00
753.918,3090.00
754.890,2543.00
755.861,2780.00
756.832,2989.00
757.803,2809.00
758.774,2792.00
759.747,2599.00
760.718,3180.00
761.689,2738.00
762.659,2575.00
763.630,3156.00
764.600,2531.00
765.570,3065.00
766.540,3109.00
767.510,2931.00
768.480,3044.00
769.450,2695.00
770.420,2802.00
771.390,2643.00
772.359,2722.00
773.329,2660.00
774.300,2527.00
775.269,2737.00
776.238,2923.00
777.207,3136.00
778.176,2480.00
779.145,2783.00
780.114,2655.00
781.083,2578.00
782.051,2717.00
783.019,2728.00
783.988,3026.00
784.956,2826.00
785.924,2977.00
786.894,2862.00
787.862,2713.00
788.830,3121.00
789.797,2576.00
790.765,2599.00
791.732,2757.00
792.700,2675.00
793.667,2587.00
794.634,2756.00
795.601,2751.00
796.568,2786.00
797.535,2823.00
798.502,3415.00
799.468,2912.00
800.437,2407.00
801.403,2680.00
802.370,3211.00
803.336,2995.00
804.302,2840.00
805.268,2446.00
806.234,2533.00
807.200,2719.00
808.166,2755.00
809.131,2524.00
810.097,2945.00
811.062,3622.00
812.027,3010.00
812.994,2591.00
813.960,2597.00
814.925,2930.00
815.889,2501.00
816.854,3005.00
817.819,2618.00
818.783,2758.00
819.748,3089.00
820.712,2731.00
821.677,2686.00
822.641,2725.00
823.605,2720.00
824.571,3110.00
825.534,2710.00
826.498,2688.00
827.462,2750.00
828.425,2633.00
829.389,3021.00
830.352,2820.00
831.315,2861.00
832.279,2501.00
833.242,2783.00
834.204,2631.00
835.167,2672.00
836.132,3038.00
837.095,2499.00
838.057,2690.00
839.020,2803.00
839.982,2829.00
840.944,2680.00
841.906,2606.00
842.868,2960.00
843.830,2538.00
844.792,3046.00
845.753,2657.00
846.715,2436.00
847.679,2601.00
848.640,2620.00
849.601,2737.00
850.562,3238.00
851.523,2669.00
852.484,2479.00
853.445,2992.00
854.406,2730.00
855.367,2725.00
856.327,3070.00
857.288,2482.00
858.248,2697.00
859.210,2669.00
860.170,2523.00
861.130,3005.00
862.090,2424.00
863.050,2639.00
864.010,2667.00
864.969,2899.00
865.929,2618.00
866.888,2536.00
867.848,2830.00
868.807,2647.00
869.766,2850.00
870.727,2729.00
871.686,2965.00
872.645,3033.00
873.604,3271.00
874.562,2724.00
875.521,2799.00
876.479,3307.00
877.437,2563.00
878.396,2582.00
879.354,3177.00
880.312,2566.00
881.270,2635.00
882.229,3103.00
883.187,2608.00
884.145,2695.00
885.102,2917.00
886.059,2847.00
887.017,2911.00
887.974,2957.00
888.931,3083.00
889.888,2510.00
890.845,2466.00
891.802,2398.00
892.758,2642.00
893.717,2447.00
894.673,2576.00
895.630,2628.00
896.586,2885.00
897.542,2680.00
898.498,2495.00
899.454,2821.00
900.410,2704.00
901.366,2639.00
902.321,2596.00
903.277,2678.00
904.232,2758.00
905.189,2448.00
906.145,2650.00
907.100,2217.00
908.055,2716.00
909.010,2912.00
909.965,2365.00
910.919,2788.00
911.874,2554.00
912.828,2765.00
913.783,2745.00
914.737,2367.00
915.693,2752.00
916.648,2924.00
917.602,2963.00
918.555,2743.00
919.509,2819.00
920.463,2737.00
921.417,2724.00
922.370,2611.00
923.324,2667.00
924.277,2671.00
925.230,2743.00
926.183,2384.00
927.138,2654.00
928.091,2954.00
929.044,2807.00
929.996,2639.00
930.949,2640.00
931.902,2824.00
932.854,2808.00
933.806,2610.00
934.758,3003.00
935.711,2989.00
936.663,2784.00
937.614,2773.00
938.568,2785.00
939.520,2415.00
940.471,2662.00
941.423,2785.00
942.374,2895.00
943.326,2726.00
944.277,2583.00
945.228,2840.00
946.179,2690.00
947.130,3003.00
948.080,2664.00
949.031,2566.00
949.984,2680.00
950.934,2665.00
951.884,2523.00
952.835,2688.00
953.785,2733.00
954.735,2600.00
955.685,2367.00
956.635,2634.00
957.585,2629.00
958.534,2627.00
959.484,2708.00
960.433,2606.00
961.383,2505.00
962.334,2906.00
963.283,2738.00
964.232,2832.00
965.181,2728.00
966.130,2806.00
967.079,2609.00
968.027,2728.00
968.976,2737.00
969.924,2608.00
970.873,2808.00
971.821,2770.00
972.769,2937.00
973.719,2795.00
974.667,2484.00
975.615,2721.00
976.562,2704.00
977.510,2414.00
978.458,2602.00
979.405,2860.00
980.352,2759.00
981.300,2956.00
982.247,2804.00
983.194,2500.00
984.141,2625.00
985.088,2758.00
986.036,2777.00
986.983,3032.00
987.930,3153.00
988.876,2386.00
989.822,2969.00
990.769,2563.00
991.715,2573.00
992.661,2447.00
993.607,2744.00
994.553,3238.00
995.498,2614.00
996.444,2318.00
997.389,2762.00
998.337,2489.00
999.282,2876.00
1000.227,2641.00
1001.173,2712.00
1002.118,2437.00
1003.062,2954.00
1004.007,2692.00
1004.952,2966.00
1005.897,2961.00
1006.841,2699.00
1007.786,2472.00
1008.730,2452.00
1009.674,3169.00
1010.618,2635.00
1011.564,2494.00
1012.508,2380.00
1013.452,2937.00
1014.396,2738.00
1015.339,2594.00
1016.283,2737.00
1017.226,2757.00
1018.170,2715.00
1019.113,2936.00
1020.056,2724.00
1020.999,2682.00
1021.942,2626.00
1022.885,2855.00
1023.828,3000.00
1024.770,2473.00
1025.715,2725.00
1026.657,2693.00
1027.600,2770.00
1028.542,2896.00
1029.484,2731.00
1030.426,2822.00
1031.368,2739.00
1032.310,2584.00
1033.251,2564.00
1034.193,2679.00
1035.135,2481.00
1036.076,2603.00
1037.017,2521.00
1037.959,2828.00
1038.900,2750.00
1039.843,2815.00
1040.784,2726.00
1041.725,2818.00
1042.665,2636.00
1043.606,2777.00
1044.547,2755.00
1045.487,2369.00
1046.427,2689.00
1047.368,2780.00
1048.308,2239.00
1049.248,2527.00
1050.188,2694.00
1051.128,2594.00
1052.067,2680.00
1053.007,2406.00
1053.947,2379.00
1054.886,2576.00
1055.827,2509.00
1056.766,2860.00
1057.706,2492.00
1058.645,2663.00
1059.584,2748.00
1060.522,2990.00
1061.461,2440.00
1062.400,2461.00
1063.338,2646.00
1064.277,2501.00
1065.215,2484.00
1066.154,2397.00
1067.092,2595.00
1068.030,2588.00
1068.968,2871.00
1069.906,3009.00
1070.843,2955.00
1071.781,2743.00
1072.720,2813.00
1073.658,2830.00
1074.595,2606.00
1075.533,2562.00
1076.470,2591.00
1077.407,2986.00
1078.344,2781.00
1079.281,2833.00
1080.217,2337.00
1081.154,2650.00
1082.091,2701.00
1083.027,2454.00
1083.964,2887.00
1084.900,2538.00
1085.836,2608.00
1086.772,2914.00
1087.708,2472.00
1088.644,2831.00
1089.580,2668.00
1090.515,2764.00
1091.451,2592.00
1092.388,2732.00
1093.324,2458.00
1094.259,3224.00
1095.194,2764.00
1096.129,2588.00
1097.064,2573.00
1097.999,2833.00
1098.934,2517.00
1099.869,2537.00
1100.803,2684.00
1101.738,2639.00
1102.672,2375.00
1103.607,2838.00
1104.541,2558.00
1105.475,2553.00
1106.409,2419.00
1107.343,2626.00
1108.277,2428.00
1109.210,2700.00
1110.144,2667.00
1111.078,2675.00
1112.011,2444.00
1112.944,2780.00
1113.878,2724.00
1114.811,2207.00
1115.744,2599.00
1116.678,2325.00
1117.611,2572.00
1118.544,2596.00
1119.477,2754.00
1120.409,2586.00
1121.342,3090.00
1122.274,2748.00
1123.206,3048.00
1124.138,2681.00
1125.070,2988.00
1126.002,2804.00
1126.934,2276.00
1127.866,2565.00
1128.798,2310.00
1129.729,2352.00
1130.661,2664.00
1131.592,2557.00
1132.523,2779.00
1133.454,2772.00
1134.385,2313.00
1135.317,2648.00
1136.247,2571.00
1137.178,2862.00
1138.109,2340.00
1139.039,3043.00
1139.970,2812.00
1140.900,2571.00
1141.831,2332.00
1142.761,2237.00
1143.691,2778.00
1144.621,2625.00
1145.551,2718.00
1146.480,2681.00
1147.410,2867.00
1148.340,2301.00
1149.269,2370.00
1150.199,2572.00
1151.128,3031.00
1152.057,2471.00
1152.979,2579.00
1153.898,2628.00
1154.819,2757.00
1155.739,2655.00
1156.658,2567.00
1157.579,2691.00
1158.498,2572.00
1159.419,2187.00
1160.338,2678.00
1161.256,2711.00
1162.177,2483.00
1163.095,2593.00
1164.016,2683.00
1164.934,2868.00
1165.852,2819.00
1166.772,2646.00
1167.690,2650.00
1168.610,2678.00
1169.528,2636.00
1170.446,2206.00
1171.365,2556.00
1172.283,2509.00
1173.202,2653.00
1174.120,2648.00
1175.037,2493.00
1175.956,2445.00
1176.873,2519.00
1177.792,2499.00
1178.709,3125.00
1179.626,2543.00
1180.544,2851.00
1181.461,2526.00
1182.379,2715.00
1183.296,2610.00
1184.212,2266.00
1185.130,2483.00
1186.046,2964.00
1186.962,2626.00
1187.880,2904.00
1188.796,2676.00
1189.714,2423.00
1190.629,2757.00
1191.545,2669.00
1192.462,2552.00
1193.378,2572.00
1194.295,2354.00
1195.210,2638.00
1196.125,2778.00
1197.042,2745.00
1197.957,2588.00
1198.872,2552.00
1199.788,2553.00
1200.703,2956.00
1201.619,2654.00
1202.534,2493.00
1203.448,2708.00
1204.364,2555.00
1205.278,2313.00
1206.192,2645.00
1207.108,3142.00
1208.022,2981.00
1208.938,2490.00
1209.851,2807.00
1210.765,2850.00
1211.680,2537.00
1212.594,2431.00
1213.507,2568.00
1214.422,3007.00
1215.335,2720.00
1216.248,2583.00
1217.163,2630.00
1218.076,3209.00
1218.990,2746.00
1219.903,2400.00
1220.816,2490.00
1221.730,2629.00
1222.642,2498.00
1223.554,2521.00
1224.469,2696.00
1225.380,2604.00
1226.292,2286.00
1227.206,2760.00
1228.118,2934.00
1229.032,2248.00
1229.943,2517.00
1230.855,2576.00
1231.768,2373.00
1232.679,2709.00
1233.590,2621.00
1234.503,2863.00
1235.414,2469.00
1236.325,2502.00
1237.238,2687.00
1238.149,2702.00
1239.059,2446.00
1239.972,2774.00
1240.882,2440.00
1241.793,2783.00
1242.705,2969.00
1243.615,2541.00
1244.525,2725.00
1245.437,2216.00
1246.347,2667.00
1247.259,2730.00
1248.168,3075.00
1249.078,2854.00
1249.989,2857.00
1250.899,2434.00
1251.808,2489.00
1252.719,2575.00
1253.628,2493.00
1254.537,2975.00
1255.448,2461.00
1256.357,2463.00
1257.266,2607.00
1258.176,2387.00
1259.085,2370.00
1259.993,2447.00
1260.904,2474.00
1261.812,2447.00
1262.720,3262.00
1263.630,2793.00
1264.538,2455.00
1265.446,2732.00
1266.356,2603.00
1267.263,2889.00
1268.171,2439.00
1269.080,2727.00
1269.988,2812.00
1270.895,2531.00
1271.804,2570.00
1272.711,2822.00
1273.619,2758.00
1274.527,2444.00
1275.434,2758.00
1276.341,2440.00
1277.248,2680.00
1278.156,2912.00
1279.063,2512.00
1279.969,2716.00
1280.877,3552.00
1281.783,2845.00
1282.690,2712.00
1283.598,2601.00
1284.503,2477.00
1285.409,2497.00
1286.317,2963.00
1287.223,3037.00
1288.128,2694.00
1289.036,2531.00
1289.941,2559.00
1290.846,2646.00
1291.751,2455.00
1292.658,2512.00
1293.563,3042.00
1294.468,2610.00
1295.375,2777.00
1296.280,2887.00
1297.184,3305.00
1298.091,2712.00
1298.995,2788.00
1299.900,2994.00
1300.806,2519.00
1301.710,2391.00
1302.614,2221.00
1303.518,2868.00
1304.424,2585.00
1305.327,2790.00
1306.231,2634.00
1307.137,2819.00
1308.040,2704.00
1308.943,2666.00
1309.847,2877.00
1310.752,2821.00
1311.655,2306.00
1312.558,2433.00
1313.463,2572.00
1314.366,2534.00
1315.269,2690.00
1316.171,2597.00
1317.076,2531.00
1317.978,2412.00
1318.881,2261.00
1319.785,2509.00
1320.687,2491.00
1321.589,2218.00
1322.491,2480.00
1323.395,2687.00
1324.297,3198.00
1325.198,2738.00
1326.102,2444.00
1327.004,2448.00
1327.905,3011.00
1328.806,2581.00
1329.709,2696.00
1330.611,2568.00
1331.512,2440.00
1332.413,3094.00
1333.316,2710.00
1334.216,2765.00
1335.117,2372.00
1336.020,2645.00
1336.920,2632.00
1337.821,2525.00
1338.721,2915.00
1339.623,2692.00
1340.523,2610.00
1341.423,2505.00
1342.323,2894.00
1343.225,2706.00
1344.125,2424.00
1345.025,2481.00
1345.924,2326.00
1346.826,2941.00
1347.725,3044.00
1348.624,2861.00
1349.524,2462.00
1350.425,2564.00
1351.324,2703.00
1352.223,2805.00
1353.121,2591.00
1354.022,2840.00
1354.921,3000.00
1355.819,2762.00
1356.718,2702.00
1357.618,2403.00
1358.516,2712.00
1359.415,3009.00
1360.313,2701.00
1361.213,2600.00
1362.111,2894.00
1363.008,3260.00
1363.906,2582.00
1364.806,2647.00
1365.703,2713.00
1366.601,2457.00
1367.498,2437.00
1368.397,2824.00
1369.295,2695.00
1370.192,2486.00
1371.089,2718.00
1371.987,2626.00
1372.884,2853.00
1373.781,2446.00
1374.678,2648.00
1375.574,2469.00
1376.473,2737.00
1377.369,2883.00
1378.265,2480.00
1379.161,2580.00
1380.059,2347.00
1380.955,2747.00
1381.851,2414.00
1382.747,2537.00
1383.643,2544.00
1384.540,2419.00
1385.436,2526.00
1386.331,2653.00
1387.227,2767.00
1388.124,2736.00
1389.019,2447.00
1389.914,2625.00
1390.809,2275.00
1391.704,3027.00
1392.601,2572.00
1393.495,2946.00
1394.390,2798.00
1395.285,2870.00
1396.179,2703.00
1397.075,2577.00
1397.969,2672.00
1398.864,2357.00
1399.758,2545.00
1400.652,2631.00
1401.547,2462.00
1402.441,2393.00
1403.335,2943.00
1404.229,2659.00
1405.122,2715.00
1406.017,2604.00
1406.911,2799.00
1407.804,3014.00
1408.697,2590.00
1409.590,2483.00
1410.485,2765.00
1411.378,2702.00
1412.271,2317.00
1413.163,2665.00
1414.056,2778.00
1414.949,2982.00
1415.843,2664.00
1416.735,2583.00
1417.627,2659.00
1418.520,2588.00
1419.412,2833.00
1420.306,2772.00
1421.197,2914.00
1422.089,2827.00
1422.981,3088.00
1423.873,2831.00
1424.764,2733.00
1425.657,2672.00
1426.549,2751.00
1427.440,2833.00
1428.331,2535.00
1429.222,2363.00
1430.113,2660.00
1431.006,2806.00
1431.897,2543.00
1432.787,2634.00
1433.678,2559.00
1434.568,2449.00
1435.459,2840.00
1436.351,2782.00
1437.241,2800.00
1438.131,2783.00
1439.021,2406.00
1439.911,2596.00
1440.801,2704.00
1441.693,2884.00
1442.583,2639.00
1443.472,2621.00
1444.362,2756.00
1445.251,2616.00
1446.140,2549.00
1447.030,2822.00
1447.921,2823.00
1448.810,2489.00
1449.699,3012.00
1450.588,2663.00
1451.476,2557.00
1452.365,2743.00
1453.254,2574.00
1454.144,2513.00
1455.032,2742.00
1455.921,2334.00
1456.809,2915.00
1457.697,2437.00
1458.585,2599.00
1459.473,2536.00
1460.361,2453.00
1461.251,2690.00
1462.138,2687.00
1463.026,2574.00
1463.913,2869.00
1464.801,2551.00
1465.688,2724.00
1466.575,2654.00
1467.463,3096.00
1468.351,2490.00
1469.238,2623.00
1470.125,2248.00
1471.012,2684.00
1471.899,2716.00
1472.785,2464.00
1473.672,2650.00
1474.558,2872.00
1475.446,2797.00
1476.333,2776.00
1477.219,2433.00
1478.105,2620.00
1478.991,2600.00
1479.877,2899.00
1480.762,2628.00
1481.648,2487.00
1482.534,2769.00
1483.419,2685.00
1484.307,2743.00
1485.192,2636.00
1486.077,2495.00
1486.962,2491.00
1487.847,2391.00
1488.732,2494.00
1489.617,2624.00
1490.502,2906.00
1491.387,2794.00
1492.271,2475.00
1493.156,2489.00
1494.042,2449.00
1494.927,2840.00
1495.811,2536.00
1496.695,2802.00
1497.579,2934.00
1498.463,2627.00
1499.347,2692.00
1500.231,2681.00
1501.114,2692.00
1501.998,2904.00
1502.881,2686.00
1503.765,2960.00
1504.648,3014.00
1505.533,2752.00
1506.417,2660.00
1507.300,2609.00
1508.183,2736.00
1509.066,2128.00
1509.948,2885.00
1510.831,2993.00
1511.714,2427.00
1512.596,2764.00
1513.479,2896.00
1514.361,2855.00
1515.243,2682.00
1516.125,2806.00
1517.008,2900.00
1517.890,2605.00
1518.771,2667.00
1519.655,2857.00
1520.537,2593.00
1521.419,2484.00
1522.300,2683.00
1523.182,2822.00
1524.063,2783.00
1524.944,2914.00
1525.825,2825.00
1526.707,2470.00
1527.588,2477.00
1528.468,2706.00
1529.349,2308.00
1530.230,2562.00
1531.111,2829.00
1531.991,2690.00
1532.872,2388.00
1533.752,2589.00
1534.632,2525.00
1535.513,2551.00
1536.393,2789.00
1537.273,2976.00
1538.153,3306.00
1539.032,2378.00
1539.912,2642.00
1540.792,2678.00
1541.672,2648.00
1542.551,2768.00
1543.430,3205.00
1544.310,2676.00
1545.189,2569.00
1546.068,3061.00
1546.947,2785.00
1547.826,2919.00
1548.705,2676.00
1549.584,2859.00
1550.462,2594.00
1551.341,2811.00
1552.219,2742.00
1553.098,2816.00
1553.976,2854.00
1554.854,3017.00
1555.733,2826.00
1556.611,2576.00
1557.489,2397.00
1558.367,2640.00
1559.244,2799.00
1560.122,2592.00
1561.000,2689.00
1561.877,2950.00
1562.755,2541.00
1563.632,2602.00
1564.509,2901.00
1565.386,3019.00
1566.264,2433.00
1567.141,2271.00
1568.017,2789.00
1568.894,2619.00
1569.771,2719.00
1570.648,2794.00
1571.524,2651.00
1572.401,2410.00
1573.277,2438.00
1574.153,2706.00
1575.029,2505.00
1575.906,3379.00
1576.781,2804.00
1577.657,2592.00
1578.533,2872.00
1579.409,2306.00
1580.285,2603.00
1581.160,3064.00
1582.036,2793.00
1582.911,2461.00
1583.786,3021.00
1584.662,2479.00
1585.537,2632.00
1586.412,2699.00
1587.287,2479.00
1588.160,2798.00
1589.035,2291.00
1589.909,2693.00
1590.784,2610.00
1591.658,2431.00
1592.533,2708.00
1593.407,2682.00
1594.281,2542.00
1595.155,3045.00
1596.029,2567.00
1596.903,2588.00
1597.777,2573.00
1598.651,2908.00
1599.525,2351.00
1600.398,2666.00
1601.272,2633.00
1602.144,3191.00
1603.017,2593.00
1603.890,2895.00
1604.763,2741.00
1605.636,2795.00
1606.509,2387.00
1607.382,2494.00
1608.255,2739.00
1609.128,2851.00
1610.000,2623.00
1610.873,2331.00
1611.746,2561.00
1612.616,2602.00
1613.488,2251.00
1614.361,2654.00
1615.233,2583.00
1616.105,2882.00
1616.977,2568.00
1617.849,2459.00
1618.720,2985.00
1619.592,2966.00
1620.464,2748.00
1621.333,3133.00
1622.205,2683.00
1623.076,2638.00
1623.947,2641.00
1624.818,2857.00
1625.689,2762.00
1626.560,2555.00
1627.431,2721.00
1628.302,3018.00
1629.171,2786.00
1630.042,2977.00
1630.912,3286.00
1631.782,3214.00
1632.653,2461.00
1633.523,2832.00
1634.393,2847.00
1635.263,2517.00
1636.131,2625.00
1637.001,2611.00
1637.871,2308.00
1638.741,2310.00
1639.611,2407.00
1640.480,2766.00
1641.350,2547.00
1642.219,2500.00
1643.087,2156.00
1643.956,3079.00
1644.825,2885.00
1645.694,2846.00
1646.563,2829.00
1647.432,2680.00
1648.299,2702.00
1649.167,2799.00
1650.036,2449.00
1650.904,2795.00
1651.773,2909.00
1652.641,2656.00
1653.509,2838.00
1654.376,2539.00
1655.244,2707.00
1656.112,2714.00
1656.980,2621.00
1657.847,2533.00
1658.715,2834.00
1659.581,2558.00
1660.448,2908.00
1661.316,2218.00
1662.183,2679.00
1663.051,2724.00
1663.918,2693.00
1664.783,2700.00
1665.650,2736.00
1666.517,2839.00
1667.384,2677.00
1668.251,2694.00
1669.115,2888.00
1669.982,2624.00
1670.849,2926.00
1671.715,2594.00
1672.581,2796.00
1673.446,2764.00
1674.312,2665.00
1675.178,3069.00
1676.044,2752.00
1676.910,2709.00
1677.774,2716.00
1678.639,2310.00
1679.505,2643.00
1680.370,2789.00
1681.236,3287.00
1682.099,2620.00
1682.965,2676.00
1683.830,2267.00
1684.695,2475.00
1685.560,2590.00
1686.423,2788.00
1687.288,2796.00
1688.153,2666.00
1689.017,2622.00
1689.880,2737.00
1690.745,2821.00
1691.609,2493.00
1692.473,2820.00
1693.338,2872.00
1694.200,2926.00
1695.064,2627.00
1695.928,2558.00
1696.792,2688.00
1697.654,3132.00
1698.517,2692.00
1699.381,2403.00
1700.245,2337.00
1701.106,2944.00
1701.969,2557.00
1702.833,2793.00
1703.696,2591.00
1704.557,2622.00
1705.420,2521.00
1706.283,2711.00
1707.146,2787.00
1708.007,2446.00
1708.870,2472.00
1709.732,2366.00
1710.595,2559.00
1711.455,2458.00
1712.318,2584.00
1713.180,2909.00
1714.040,2677.00
1714.902,2827.00
1715.764,2640.00
1716.626,2465.00
1717.486,2650.00
1718.348,2939.00
1719.209,4326.00
1720.071,2353.00
1720.930,2407.00
1721.792,2492.00
1722.653,2538.00
1723.512,2593.00
1724.374,2610.00
1725.234,2726.00
1726.095,2700.00
1726.954,2652.00
1727.815,2746.00
1728.676,2644.00
1729.535,2837.00
1730.395,2633.00
1731.256,2617.00
1732.114,2689.00
1732.974,2164.00
1733.834,3030.00
1734.693,2839.00
1735.553,2682.00
1736.413,3086.00
1737.272,2548.00
1738.130,2632.00
1738.990,2735.00
1739.849,2568.00
1740.707,3629.00
1741.566,2709.00
1742.426,2700.00
1743.283,3066.00
1744.142,2544.00
1745.001,2326.00
1745.858,2823.00
1746.717,2741.00
1747.576,2765.00
1748.433,2840.00
1749.292,3236.00
1750.150,3242.00
1751.007,2866.00
1751.865,2890.00
1752.723,2668.00
1753.579,2604.00
1754.438,2901.00
1755.296,2869.00
1756.152,2256.00
1757.010,2356.00
1757.865,2868.00
1758.723,2299.00
1759.581,2995.00
1760.436,2648.00
1761.294,3024.00
1762.151,2657.00
1763.006,2590.00
1763.864,2319.00
1764.721,2860.00
1765.576,2673.00
1766.433,2810.00
1767.288,2580.00
1768.144,2743.00
1769.001,2596.00
1769.856,2727.00
1770.712,2876.00
1771.568,2505.00
1772.423,2550.00
1773.279,2597.00
1774.133,2594.00
1774.989,3081.00
1775.845,3047.00
1776.699,2936.00
1777.555,2670.00
1778.409,3224.00
1779.265,2651.00
1780.120,2662.00
1780.974,2652.00
1781.829,2260.00
1782.682,2745.00
1783.538,2482.00
1784.393,2717.00
1785.246,2561.00
1786.101,2753.00
1786.954,2803.00
1787.808,2900.00
1788.661,2394.00
1789.516,2575.00
1790.370,2595.00
1791.223,2846.00
1792.077,2696.00
1792.930,2765.00
1793.784,2571.00
1794.636,2698.00
1795.490,2652.00
1796.344,2705.00
1797.196,2674.00
1798.049,2827.00
1798.901,2552.00
1799.755,2885.00
1800.606,2439.00
1801.460,3213.00
1802.311,2970.00
1803.165,3084.00
1804.018,3031.00
1804.869,2715.00
1805.722,3114.00
1806.573,2725.00
1807.426,2537.00
1808.276,2634.00
1809.129,2578.00
1809.980,2876.00
1810.832,2974.00
1811.683,2578.00
1812.535,2989.00
1813.385,2657.00
1814.237,2932.00
1815.089,2717.00
1815.940,2984.00
1816.791,2587.00
1817.641,2547.00
1818.493,2825.00
1819.343,2759.00
1820.194,2528.00
1821.044,2815.00
1821.895,2895.00
1822.745,2410.00
1823.596,2550.00
1824.445,3088.00
1825.296,2802.00
1826.145,2610.00
1826.996,2865.00
1827.845,2748.00
1828.695,2744.00
1829.544,2660.00
1830.395,2697.00
1831.243,2583.00
1832.094,2413.00
1832.942,3264.00
1833.792,2813.00
1834.640,2751.00
1835.490,2683.00
1836.338,2735.00
1837.186,2540.00
1838.036,2571.00
1838.884,2659.00
1839.733,3002.00
1840.581,2871.00
1841.430,2800.00
1842.278,2990.00
1843.127,2583.00
1843.974,2361.00
1844.823,3083.00
1845.671,2836.00
1846.519,2688.00
1847.366,2786.00
1848.213,2318.00
1849.062,2519.00
1849.909,2405.00
1850.757,3305.00
1851.604,2765.00
1852.452,2609.00
1853.298,2863.00
1854.146,2722.00
1854.993,2755.00
1855.839,3131.00
1856.687,2810.00
1857.532,2831.00
1858.380,2688.00
1859.226,2750.00
1860.073,2823.00
1860.919,2501.00
1861.765,2558.00
1862.612,2904.00
1863.457,2876.00
1864.304,2662.00
1865.150,2798.00
1865.995,2656.00
1866.842,2801.00
1867.686,2913.00
1868.533,2793.00
1869.378,2756.00
1870.223,2697.00
1871.069,2583.00
1871.914,2738.00
1872.760,2667.00
1873.604,2481.00
1874.448,2854.00
1875.294,2870.00
1876.139,2557.00
1876.984,2838.00
1877.828,2371.00
1878.672,2217.00
1879.518,2545.00
1880.361,2858.00
1881.205,2853.00
1882.050,2483.00
1882.894,3147.00
1883.739,2574.00
1884.582,2496.00
1885.425,2526.00
1886.270,2943.00
1887.113,2439.00
1887.956,2764.00
1888.801,2753.00
1889.644,2489.00
1890.486,2311.00
1891.331,2615.00
1892.173,2773.00
1893.017,2770.00
1893.860,2967.00
1894.702,2983.00
1895.546,2671.00
1896.388,3342.00
1897.230,3061.00
1898.074,2622.00
1898.916,2522.00
1899.757,2531.00
1900.601,3372.00
1901.443,2967.00
1902.284,2969.00
1903.125,3152.00
1903.969,2907.00
1904.810,2912.00
1905.651,2783.00
1906.494,2978.00
1907.335,3120.00
1908.176,2839.00
1909.018,2769.00
1909.859,2686.00
1910.700,2589.00
1911.542,3225.00
1912.383,2726.00
1913.223,2319.00
1914.064,2796.00
1914.906,2974.00
1915.746,3047.00
1916.586,3156.00
1917.428,2679.00
1918.268,2701.00
1919.107,2585.00
1919.947,2490.00
1920.789,2621.00
1921.628,2918.00
1922.468,2690.00
1923.309,2539.00
1924.148,3009.00
1924.988,2770.00
1925.827,2676.00
1926.667,2569.00
1927.507,2763.00
1928.345,2539.00
1929.184,2893.00
1930.025,2533.00
1930.864,2946.00
1931.702,3015.00
1932.541,2631.00
1933.381,2807.00
1934.219,2855.00
1935.057,2996.00
1935.896,2398.00
1936.735,2667.00
1937.573,2607.00
1938.411,2490.00
1939.249,2841.00
1940.089,2593.00
1940.927,2899.00
1941.764,2987.00
1942.602,2652.00
1943.439,2582.00
1944.278,2695.00
1945.115,2602.00
1945.953,2475.00
1946.790,2780.00
1947.628,3036.00
1948.465,2815.00
1949.302,2828.00
1950.139,2862.00
1950.976,2605.00
1951.814,2845.00
1952.651,2778.00
1953.487,2509.00
1954.323,2969.00
1955.160,2694.00
1955.998,3058.00
1956.834,2664.00
1957.670,2770.00
1958.506,2982.00
1959.342,2805.00
1960.177,2740.00
1961.015,2840.00
1961.850,2729.00
1962.686,2736.00
1963.521,2739.00
1964.357,2968.00
1965.192,2504.00
1966.029,2854.00
1966.864,2648.00
1967.699,2915.00
1968.534,2729.00
1969.369,2988.00
1970.204,2680.00
1971.040,2752.00
1971.875,2658.00
1972.709,2754.00
1973.544,2565.00
1974.378,2600.00
1975.212,2796.00
1976.047,2596.00
1976.882,2549.00
1977.716,3107.00
1978.550,2413.00
1979.384,2672.00
1980.218,2669.00
1981.052,2658.00
1981.885,2743.00
1982.719,2719.00
1983.554,2865.00
1984.388,2983.00
1985.221,2820.00
1986.054,2962.00
1986.887,2738.00
1987.720,2567.00
1988.553,3002.00
1989.386,2780.00
1990.219,2844.00
1991.053,3025.00
1991.886,2611.00
1992.719,2933.00
1993.551,2252.00
1994.383,2881.00
1995.216,2658.00
1996.048,2435.00
1996.880,2886.00
1997.712,2604.00
1998.544,2711.00
1999.376,2772.00
2000.208,3035.00
2001.040,3141.00
2001.873,2549.00
2002.705,2539.00
2003.536,2773.00
2004.367,2751.00
2005.199,2751.00
2006.030,2578.00
2006.861,2570.00
2007.692,2726.00
2008.523,2598.00
2009.354,2739.00
2010.185,2517.00
2011.016,2833.00
2011.846,2917.00
2012.677,2673.00
2013.507,3063.00
2014.338,2950.00
2015.168,2639.00
2015.999,3254.00
2016.829,2666.00
2017.659,2894.00
2018.489,3225.00
2019.319,2518.00
2020.149,2885.00
2020.980,2729.00
2021.810,2556.00
2022.639,2595.00
2023.469,2625.00
2024.298,2406.00
2025.128,2375.00
2025.957,2365.00
2026.786,2191.00
2027.615,2406.00
2028.444,2580.00
2029.273,2726.00
2030.102,2338.00
2030.931,2582.00
2031.758,2848.00
2032.586,2504.00
2033.415,2600.00
2034.243,2236.00
2035.072,1997.00
2035.900,2432.00
2036.728,2273.00
2037.556,2328.00
2038.385,2357.00
2039.213,2199.00
2040.040,2145.00
2040.868,2119.00
2041.696,2173.00
2042.524,2190.00
2043.351,2423.00
2044.179,2207.00
2045.006,2007.00
