RamanScope Measure Spectrum Data V3.72

<< MEASURE CONDITION >>
Exposure Type,Aver
Exposure Time [sec],15
Exposure Count,30
Measure Time,2023/07/04 14:46:25
Data Name,""
Data Comment,""
Rayleigh Wave[nm],532.0

<< SAMPLE SPECTRUM >>
Wave[dcm-1],No253
146.591,367.10
147.626,422.40
148.664,506.63
149.699,628.03
150.737,705.37
151.772,795.97
152.809,885.83
153.846,1033.40
154.881,1133.67
155.918,1177.67
156.953,1249.00
157.989,1304.77
159.026,1388.13
160.060,1444.40
161.096,1497.73
162.130,1497.53
163.167,1552.47
164.200,1568.10
165.236,1581.63
166.272,1627.93
167.305,1691.17
168.341,1694.30
169.374,1734.37
170.409,1771.37
171.445,1769.53
172.477,1813.73
173.512,1816.77
174.545,1878.90
175.580,1897.30
176.614,1935.33
177.647,1943.53
178.681,1965.67
179.713,2005.33
180.747,2022.73
181.781,2033.40
182.813,2010.27
183.847,2018.03
184.878,2011.40
185.912,2030.20
186.945,2045.03
187.976,2067.33
189.010,2066.60
190.043,2121.20
191.073,2149.23
192.106,2187.60
193.137,2181.70
194.170,2217.87
195.202,2280.37
196.232,2289.87
197.265,2333.47
198.297,2418.70
199.327,2489.97
200.359,2541.50
201.388,2593.33
202.420,2637.17
203.452,2730.17
204.481,2851.53
205.512,2931.83
206.544,3089.57
207.573,3196.87
208.604,3319.10
209.635,3489.87
210.663,3704.87
211.694,3856.77
212.725,4153.03
213.753,4358.40
214.783,4632.30
215.813,4912.77
216.841,5135.57
217.871,5369.97
218.899,5560.53
219.929,5691.23
220.959,5868.33
221.986,5814.47
223.016,5772.57
224.045,5621.57
225.072,5418.97
226.101,5200.87
227.130,4984.03
228.157,4684.20
229.185,4412.43
230.214,4209.23
231.241,4010.77
232.269,3802.87
233.297,3705.03
234.323,3554.13
235.351,3406.93
236.379,3358.37
237.407,3294.50
238.433,3209.77
239.460,3157.03
240.488,3125.00
241.513,3111.13
242.540,3064.73
243.568,3011.63
244.592,3018.67
245.619,3077.83
246.646,3068.63
247.671,3060.47
248.697,3061.33
249.724,3031.87
250.748,3073.17
251.774,3084.73
252.801,3113.50
253.827,3128.43
254.850,3142.63
255.876,3201.87
256.902,3203.87
257.925,3271.77
258.951,3285.90
259.976,3345.40
260.999,3419.57
262.024,3505.33
263.049,3498.03
264.074,3577.53
265.097,3691.10
266.122,3748.90
267.146,3785.87
268.168,3919.17
269.193,3977.20
270.217,4060.80
271.241,4143.80
272.263,4223.77
273.287,4341.67
274.311,4410.20
275.332,4486.37
276.356,4510.70
277.379,4545.13
278.402,4607.53
279.424,4624.33
280.447,4621.03
281.470,4588.73
282.492,4595.60
283.513,4527.80
284.536,4435.63
285.558,4383.73
286.581,4313.10
287.601,4234.50
288.623,4125.17
289.645,4011.77
290.665,3948.60
291.687,3863.40
292.709,3759.57
293.730,3673.70
294.750,3603.60
295.771,3493.23
296.792,3416.03
297.813,3344.97
298.832,3243.50
299.853,3132.50
300.874,3050.27
301.895,2975.20
302.913,2915.17
303.934,2868.20
304.954,2760.80
305.975,2736.00
306.993,2674.67
308.013,2629.07
309.033,2574.07
310.052,2519.23
311.072,2448.33
312.090,2420.17
313.109,2393.93
314.129,2361.83
315.148,2349.00
316.165,2325.80
317.184,2252.10
318.203,2227.03
319.222,2260.10
320.238,2171.30
321.257,2198.00
322.275,2136.20
323.294,2125.33
324.312,2155.77
325.328,2094.97
326.346,2063.20
327.364,2096.90
328.382,2070.47
329.397,2078.00
330.415,2074.37
331.432,2017.00
332.450,2024.40
333.467,2049.63
334.482,2001.93
335.499,1990.37
336.516,1969.63
337.533,2005.03
338.547,1977.77
339.564,1993.60
340.580,1969.97
341.597,1997.63
342.613,1950.17
343.627,1966.53
344.643,1985.27
345.659,1967.20
346.675,1997.93
347.690,1981.87
348.704,1990.80
349.719,1975.97
350.735,1968.77
351.750,1938.07
352.765,2003.80
353.778,1985.30
354.793,1995.80
355.808,2021.97
356.822,1996.90
357.837,2008.13
358.851,2029.40
359.864,2008.90
360.878,2043.57
361.892,2024.30
362.906,2089.13
363.920,2061.13
364.932,2044.70
365.945,2048.50
366.959,2091.30
367.972,2115.40
368.986,2105.63
369.999,2173.57
371.010,2106.60
372.023,2130.17
373.036,2121.83
374.049,2221.40
375.061,2217.00
376.072,2186.60
377.084,2201.93
378.097,2209.27
379.109,2261.83
380.121,2264.47
381.133,2244.70
382.143,2258.73
383.155,2287.47
384.166,2291.03
385.178,2268.17
386.189,2310.77
387.201,2260.53
388.212,2300.63
389.221,2281.43
390.232,2320.70
391.243,2307.53
392.254,2292.87
393.264,2262.70
394.275,2254.97
395.283,2244.30
396.294,2219.90
397.304,2196.07
398.314,2152.33
399.324,2219.97
400.334,2195.93
401.344,2132.73
402.351,2139.37
403.361,2112.60
404.370,2129.30
405.380,2092.83
406.389,2066.30
407.398,2081.23
408.407,2056.97
409.414,1989.67
410.423,2006.87
411.431,1974.27
412.440,1956.33
413.448,1905.63
414.457,1928.83
415.465,1898.70
416.471,1889.83
417.479,1827.30
418.487,1856.47
419.495,1818.47
420.503,1813.33
421.510,1806.37
422.518,1818.73
423.525,1817.33
424.530,1750.47
425.537,1798.20
426.544,1816.40
427.551,1784.83
428.558,1709.80
429.565,1713.70
430.571,1727.27
431.578,1762.63
432.582,1771.13
433.588,1743.03
434.595,1733.37
435.601,1695.40
436.607,1713.17
437.612,1742.23
438.618,1742.50
439.624,1727.80
440.627,1685.00
441.633,1693.73
442.638,1766.83
443.643,1709.80
444.648,1706.47
445.653,1688.37
446.658,1726.63
447.663,1689.40
448.667,1681.50
449.672,1708.90
450.674,1723.60
451.678,1760.03
452.682,1738.27
453.687,1718.73
454.690,1696.87
455.694,1718.27
456.698,1721.83
457.702,1714.93
458.705,1714.37
459.709,1672.60
460.710,1756.33
461.713,1730.13
462.716,1690.37
463.719,1752.90
464.722,1744.67
465.725,1734.50
466.727,1749.63
467.730,1792.50
468.732,1791.03
469.735,1753.57
470.737,1766.80
471.737,1756.40
472.739,1788.10
473.741,1765.63
474.742,1792.43
475.744,1808.90
476.746,1794.67
477.747,1789.37
478.748,1801.90
479.750,1819.27
480.751,1799.43
481.752,1759.93
482.753,1789.80
483.751,1792.87
484.752,1802.20
485.753,1796.73
486.753,1760.67
487.753,1789.23
488.754,1775.37
489.754,1809.27
490.754,1745.20
491.754,1714.40
492.754,1783.30
493.753,1839.17
494.753,1792.10
495.752,1764.97
496.752,1736.43
497.749,1765.47
498.748,1770.33
499.747,1713.60
500.746,1743.17
501.745,1720.87
502.744,1717.50
503.742,1690.47
504.741,1707.60
505.739,1751.93
506.737,1760.00
507.735,1702.87
508.734,1736.87
509.732,1662.27
510.729,1709.33
511.727,1738.33
512.725,1654.17
513.720,1699.90
514.718,1715.47
515.715,1687.10
516.712,1677.30
517.709,1702.37
518.706,1711.13
519.703,1732.00
520.700,1675.93
521.696,1656.03
522.693,1669.73
523.689,1647.33
524.686,1694.23
525.682,1671.83
526.678,1703.00
527.674,1665.13
528.670,1663.63
529.666,1708.27
530.661,1680.93
531.657,1680.83
532.652,1653.47
533.648,1688.40
534.641,1717.43
535.636,1649.27
536.631,1714.20
537.626,1655.00
538.621,1709.90
539.616,1677.47
540.610,1695.90
541.605,1695.07
542.599,1686.57
543.593,1702.17
544.587,1706.07
545.581,1709.23
546.575,1730.13
547.569,1721.40
548.563,1697.90
549.557,1732.63
550.550,1724.17
551.543,1699.77
552.537,1722.70
553.530,1708.40
554.523,1752.03
555.516,1753.10
556.509,1765.17
557.502,1735.70
558.494,1748.63
559.487,1742.93
560.479,1771.57
561.472,1802.97
562.464,1773.33
563.456,1774.07
564.448,1767.37
565.440,1782.43
566.432,1806.87
567.423,1803.53
568.415,1781.33
569.404,1786.87
570.396,1827.17
571.387,1860.40
572.378,1820.00
573.369,1807.33
574.360,1829.70
575.351,1863.03
576.341,1869.10
577.332,1830.47
578.323,1864.37
579.313,1879.07
580.303,1860.63
581.293,1877.67
582.283,1902.37
583.273,1870.73
584.263,1923.67
585.253,1872.67
586.243,1949.50
587.232,1906.13
588.222,1869.40
589.211,1871.80
590.200,1859.30
591.189,1838.40
592.178,1846.73
593.167,1889.97
594.156,1843.73
595.145,1874.37
596.133,1852.50
597.122,1840.27
598.110,1840.50
599.098,1827.60
600.086,1804.83
601.074,1796.93
602.062,1772.53
603.050,1775.80
604.038,1777.00
605.025,1741.03
606.013,1749.00
607.000,1772.23
607.987,1772.77
608.975,1779.60
609.962,1725.50
610.949,1686.80
611.936,1687.53
612.922,1704.57
613.909,1679.53
614.895,1656.97
615.882,1670.17
616.868,1631.73
617.854,1689.93
618.841,1710.90
619.826,1649.37
620.812,1652.23
621.798,1638.17
622.784,1686.80
623.769,1642.90
624.755,1638.07
625.740,1599.00
626.725,1608.37
627.711,1600.47
628.698,1595.33
629.683,1560.20
630.667,1590.67
631.652,1590.57
632.637,1559.77
633.621,1578.13
634.606,1553.47
635.590,1511.50
636.574,1500.73
637.558,1541.23
638.542,1526.30
639.526,1508.77
640.510,1490.00
641.493,1502.37
642.477,1475.17
643.460,1504.57
644.444,1468.07
645.427,1464.33
646.410,1461.13
647.393,1502.27
648.376,1480.43
649.359,1451.27
650.341,1492.73
651.324,1473.33
652.307,1437.20
653.289,1447.87
654.271,1426.47
655.253,1422.53
656.235,1426.03
657.217,1428.30
658.199,1377.13
659.181,1452.50
660.163,1373.60
661.144,1386.33
662.126,1399.27
663.107,1368.63
664.088,1354.63
665.069,1344.00
666.050,1347.20
667.033,1335.20
668.014,1369.63
668.995,1313.07
669.975,1376.07
670.956,1389.17
671.936,1372.73
672.916,1394.03
673.896,1303.97
674.876,1334.60
675.856,1332.90
676.836,1297.57
677.816,1310.13
678.795,1283.70
679.775,1351.63
680.754,1327.77
681.734,1312.27
682.713,1299.63
683.692,1306.20
684.671,1290.20
685.650,1278.03
686.629,1284.87
687.607,1247.43
688.586,1260.33
689.564,1254.93
690.543,1290.63
691.523,1271.93
692.501,1254.50
693.479,1230.63
694.457,1240.67
695.435,1265.67
696.413,1237.17
697.390,1230.37
698.368,1264.77
699.345,1226.50
700.322,1235.67
701.300,1204.27
702.277,1234.23
703.254,1222.30
704.231,1235.97
705.207,1181.20
706.184,1204.17
707.161,1232.00
708.137,1184.40
709.113,1183.03
710.090,1229.70
711.068,1202.87
712.044,1167.73
713.020,1201.90
713.996,1177.87
714.971,1197.43
715.947,1185.63
716.922,1158.63
717.898,1145.07
718.873,1187.90
719.848,1160.17
720.823,1153.37
721.798,1162.40
722.773,1148.20
723.748,1159.20
724.723,1171.33
725.697,1130.20
726.672,1163.57
727.646,1164.23
728.622,1155.50
729.596,1160.23
730.570,1143.87
731.544,1146.03
732.518,1173.03
733.492,1145.17
734.466,1158.07
735.439,1139.63
736.413,1181.17
737.386,1109.50
738.359,1117.70
739.332,1116.73
740.305,1129.27
741.278,1133.40
742.251,1126.87
743.224,1135.37
744.196,1138.97
745.171,1125.37
746.143,1133.50
747.115,1103.70
748.087,1100.90
749.059,1124.50
750.031,1116.97
751.003,1129.13
751.975,1052.33
752.947,1145.53
753.918,1142.83
754.890,1099.13
755.861,1111.90
756.832,1071.07
757.803,1098.90
758.774,1051.30
759.747,1129.50
760.718,1111.13
761.689,1110.93
762.659,1099.13
763.630,1069.67
764.600,1077.67
765.570,1092.13
766.540,1034.07
767.510,1050.30
768.480,1087.30
769.450,1074.97
770.420,1037.60
771.390,1103.40
772.359,1055.67
773.329,1056.70
774.300,1076.10
775.269,1083.67
776.238,1049.83
777.207,1058.63
778.176,1088.17
779.145,1045.50
780.114,1064.13
781.083,1067.10
782.051,1051.20
783.019,1061.83
783.988,1046.27
784.956,1048.40
785.924,1079.17
786.894,1063.87
787.862,1042.87
788.830,1065.90
789.797,1063.80
790.765,1037.53
791.732,1021.27
792.700,1021.10
793.667,1025.77
794.634,1024.27
795.601,989.50
796.568,1034.90
797.535,1002.10
798.502,1006.47
799.468,1019.77
800.437,1029.07
801.403,1060.57
802.370,1036.73
803.336,1018.83
804.302,1018.30
805.268,1016.70
806.234,995.50
807.200,1049.00
808.166,1031.23
809.131,1009.10
810.097,991.30
811.062,975.23
812.027,1031.17
812.994,1028.67
813.960,1011.17
814.925,962.63
815.889,992.47
816.854,1030.33
817.819,1019.13
818.783,977.47
819.748,995.97
820.712,976.43
821.677,1003.57
822.641,981.57
823.605,975.53
824.571,922.50
825.534,1017.47
826.498,979.93
827.462,947.13
828.425,998.90
829.389,1004.37
830.352,974.50
831.315,951.70
832.279,986.40
833.242,987.07
834.204,960.20
835.167,951.77
836.132,969.77
837.095,940.67
838.057,972.27
839.020,961.67
839.982,989.80
840.944,941.67
841.906,930.27
842.868,988.47
843.830,957.30
844.792,962.97
845.753,946.43
846.715,972.60
847.679,953.17
848.640,974.20
849.601,991.53
850.562,946.10
851.523,963.20
852.484,956.17
853.445,940.00
854.406,927.10
855.367,920.80
856.327,958.33
857.288,915.23
858.248,980.27
859.210,944.50
860.170,967.87
861.130,958.80
862.090,942.10
863.050,917.80
864.010,935.40
864.969,933.63
865.929,950.60
866.888,961.87
867.848,955.73
868.807,914.63
869.766,933.57
870.727,908.67
871.686,917.33
872.645,936.83
873.604,950.93
874.562,904.77
875.521,923.03
876.479,926.63
877.437,903.50
878.396,899.20
879.354,935.30
880.312,935.17
881.270,940.90
882.229,924.77
883.187,915.87
884.145,921.30
885.102,915.63
886.059,964.43
887.017,919.30
887.974,912.90
888.931,957.00
889.888,914.83
890.845,914.10
891.802,943.87
892.758,941.00
893.717,891.33
894.673,897.33
895.630,925.93
896.586,920.70
897.542,920.73
898.498,897.23
899.454,889.93
900.410,919.97
901.366,939.73
902.321,923.27
903.277,896.27
904.232,909.43
905.189,907.03
906.145,888.63
907.100,918.17
908.055,920.13
909.010,919.80
909.965,901.60
910.919,917.37
911.874,880.50
912.828,930.67
913.783,900.27
914.737,880.33
915.693,918.80
916.648,899.27
917.602,881.67
918.555,923.07
919.509,902.20
920.463,945.37
921.417,900.40
922.370,904.70
923.324,880.10
924.277,918.03
925.230,898.83
926.183,919.83
927.138,887.90
928.091,881.33
929.044,886.80
929.996,870.27
930.949,885.97
931.902,937.13
932.854,911.13
933.806,908.97
934.758,873.90
935.711,931.63
936.663,926.70
937.614,885.90
938.568,886.77
939.520,904.90
940.471,891.97
941.423,904.10
942.374,923.10
943.326,930.57
944.277,881.60
945.228,923.03
946.179,834.80
947.130,918.30
948.080,907.13
949.031,863.83
949.984,896.73
950.934,888.23
951.884,915.37
952.835,886.67
953.785,878.03
954.735,878.27
955.685,889.33
956.635,882.17
957.585,931.77
958.534,914.83
959.484,886.13
960.433,883.67
961.383,902.73
962.334,877.70
963.283,888.03
964.232,884.77
965.181,924.40
966.130,897.20
967.079,871.20
968.027,888.53
968.976,889.77
969.924,869.60
970.873,848.03
971.821,914.30
972.769,842.03
973.719,876.77
974.667,873.73
975.615,888.53
976.562,845.30
977.510,908.23
978.458,863.13
979.405,887.77
980.352,894.40
981.300,880.37
982.247,897.47
983.194,874.53
984.141,915.97
985.088,879.07
986.036,894.03
986.983,884.67
987.930,900.10
988.876,906.77
989.822,902.67
990.769,893.90
991.715,853.57
992.661,892.97
993.607,908.83
994.553,876.20
995.498,938.53
996.444,914.40
997.389,910.17
998.337,882.07
999.282,888.47
1000.227,896.80
1001.173,922.10
1002.118,905.40
1003.062,905.97
1004.007,902.37
1004.952,845.83
1005.897,917.57
1006.841,890.57
1007.786,895.00
1008.730,886.50
1009.674,907.47
1010.618,909.07
1011.564,908.20
1012.508,896.90
1013.452,901.73
1014.396,897.43
1015.339,883.53
1016.283,943.83
1017.226,937.07
1018.170,896.73
1019.113,918.17
1020.056,862.27
1020.999,935.63
1021.942,923.23
1022.885,917.53
1023.828,959.03
1024.770,913.47
1025.715,906.47
1026.657,902.07
1027.600,921.97
1028.542,920.77
1029.484,901.63
1030.426,928.27
1031.368,916.77
1032.310,919.47
1033.251,890.00
1034.193,928.83
1035.135,924.60
1036.076,931.83
1037.017,915.90
1037.959,943.43
1038.900,892.23
1039.843,921.67
1040.784,920.03
1041.725,911.30
1042.665,934.30
1043.606,933.50
1044.547,911.40
1045.487,922.53
1046.427,933.77
1047.368,918.97
1048.308,919.00
1049.248,900.57
1050.188,921.43
1051.128,893.43
1052.067,905.20
1053.007,933.73
1053.947,923.43
1054.886,965.43
1055.827,906.80
1056.766,893.97
1057.706,935.73
1058.645,930.67
1059.584,931.87
1060.522,943.03
1061.461,940.17
1062.400,945.50
1063.338,901.17
1064.277,948.47
1065.215,939.53
1066.154,933.87
1067.092,902.90
1068.030,979.27
1068.968,938.47
1069.906,973.53
1070.843,936.57
1071.781,971.87
1072.720,945.90
1073.658,951.93
1074.595,970.63
1075.533,931.63
1076.470,953.13
1077.407,981.87
1078.344,972.80
1079.281,943.40
1080.217,942.63
1081.154,963.00
1082.091,930.93
1083.027,961.77
1083.964,996.10
1084.900,948.30
1085.836,961.47
1086.772,984.93
1087.708,957.43
1088.644,946.67
1089.580,957.93
1090.515,991.87
1091.451,979.60
1092.388,954.67
1093.324,956.87
1094.259,976.17
1095.194,935.13
1096.129,982.63
1097.064,1010.83
1097.999,941.70
1098.934,957.80
1099.869,951.97
1100.803,982.10
1101.738,974.87
1102.672,958.43
1103.607,997.60
1104.541,990.47
1105.475,977.03
1106.409,961.30
1107.343,957.97
1108.277,986.33
1109.210,964.03
1110.144,926.83
1111.078,976.43
1112.011,981.50
1112.944,928.63
1113.878,934.50
1114.811,951.70
1115.744,981.43
1116.678,966.97
1117.611,970.80
1118.544,957.97
1119.477,939.73
1120.409,968.43
1121.342,991.33
1122.274,964.53
1123.206,922.00
1124.138,925.50
1125.070,912.00
1126.002,940.63
1126.934,957.57
1127.866,932.80
1128.798,919.67
1129.729,927.87
1130.661,933.03
1131.592,950.93
1132.523,941.90
1133.454,899.80
1134.385,936.77
1135.317,925.27
1136.247,934.90
1137.178,913.27
1138.109,932.97
1139.039,933.67
1139.970,900.50
1140.900,890.30
1141.831,873.03
1142.761,929.90
1143.691,1118.73
1144.621,919.57
1145.551,908.83
1146.480,883.80
1147.410,946.47
1148.340,948.23
1149.269,908.57
1150.199,912.23
1151.128,926.77
1152.057,910.03
1152.979,913.90
1153.898,942.87
1154.819,922.23
1155.739,965.00
1156.658,905.47
1157.579,914.07
1158.498,929.07
1159.419,904.57
1160.338,915.93
1161.256,937.23
1162.177,888.23
1163.095,925.77
1164.016,928.07
1164.934,937.67
1165.852,919.60
1166.772,891.33
1167.690,928.83
1168.610,973.70
1169.528,907.80
1170.446,901.50
1171.365,929.67
1172.283,926.03
1173.202,910.60
1174.120,896.10
1175.037,916.67
1175.956,943.97
1176.873,930.17
1177.792,909.90
1178.709,946.10
1179.626,917.03
1180.544,956.10
1181.461,920.30
1182.379,901.60
1183.296,897.17
1184.212,933.27
1185.130,907.43
1186.046,960.33
1186.962,929.13
1187.880,938.43
1188.796,927.40
1189.714,913.40
1190.629,894.67
1191.545,930.77
1192.462,918.40
1193.378,935.77
1194.295,930.97
1195.210,967.83
1196.125,959.17
1197.042,984.27
1197.957,958.43
1198.872,941.27
1199.788,980.97
1200.703,983.00
1201.619,972.10
1202.534,983.80
1203.448,978.10
1204.364,933.87
1205.278,969.60
1206.192,955.13
1207.108,1003.00
1208.022,958.90
1208.938,978.60
1209.851,982.53
1210.765,950.93
1211.680,981.07
1212.594,983.80
1213.507,981.87
1214.422,954.90
1215.335,948.73
1216.248,969.77
1217.163,1001.80
1218.076,975.03
1218.990,1012.13
1219.903,995.87
1220.816,959.67
1221.730,1003.20
1222.642,1005.23
1223.554,993.33
1224.469,1003.50
1225.380,1010.97
1226.292,1029.57
1227.206,1040.83
1228.118,982.97
1229.032,1016.83
1229.943,978.63
1230.855,1014.80
1231.768,1030.77
1232.679,1005.37
1233.590,1030.07
1234.503,997.43
1235.414,1002.83
1236.325,991.60
1237.238,1008.33
1238.149,1042.97
1239.059,1034.03
1239.972,1045.87
1240.882,1068.07
1241.793,1027.63
1242.705,1030.13
1243.615,1020.53
1244.525,1042.23
1245.437,1051.63
1246.347,1028.33
1247.259,1076.53
1248.168,1063.87
1249.078,1064.90
1249.989,1034.77
1250.899,1053.63
1251.808,1036.73
1252.719,1074.60
1253.628,1058.83
1254.537,1031.90
1255.448,1065.97
1256.357,1043.37
1257.266,1023.93
1258.176,1071.93
1259.085,1086.77
1259.993,1045.87
1260.904,1044.17
1261.812,1030.47
1262.720,1052.33
1263.630,1047.17
1264.538,1055.77
1265.446,1069.93
1266.356,1046.43
1267.263,1061.33
1268.171,1088.10
1269.080,1064.37
1269.988,1068.80
1270.895,1067.57
1271.804,1085.67
1272.711,1027.50
1273.619,1048.07
1274.527,1076.27
1275.434,1075.83
1276.341,1066.10
1277.248,1071.43
1278.156,1091.67
1279.063,1061.27
1279.969,1048.17
1280.877,1053.47
1281.783,1066.77
1282.690,1042.97
1283.598,1035.10
1284.503,1067.37
1285.409,1086.50
1286.317,1037.47
1287.223,1053.47
1288.128,1041.03
1289.036,1013.83
1289.941,1056.73
1290.846,1049.07
1291.751,1042.00
1292.658,1025.33
1293.563,1065.97
1294.468,1018.73
1295.375,1043.10
1296.280,995.43
1297.184,1043.40
1298.091,1030.80
1298.995,996.73
1299.900,1012.97
1300.806,990.20
1301.710,1036.33
1302.614,1032.87
1303.518,1015.27
1304.424,983.97
1305.327,1013.23
1306.231,1020.43
1307.137,1000.40
1308.040,1005.73
1308.943,979.23
1309.847,962.47
1310.752,971.83
1311.655,981.07
1312.558,958.93
1313.463,943.90
1314.366,958.80
1315.269,953.00
1316.171,975.60
1317.076,962.00
1317.978,950.83
1318.881,961.97
1319.785,960.87
1320.687,938.50
1321.589,908.70
1322.491,936.90
1323.395,903.90
1324.297,966.37
1325.198,920.43
1326.102,925.90
1327.004,950.20
1327.905,917.87
1328.806,898.53
1329.709,929.13
1330.611,882.60
1331.512,906.17
1332.413,877.47
1333.316,882.77
1334.216,849.37
1335.117,897.67
1336.020,864.20
1336.920,900.03
1337.821,880.47
1338.721,868.20
1339.623,839.57
1340.523,861.10
1341.423,866.77
1342.323,867.43
1343.225,869.80
1344.125,867.07
1345.025,831.73
1345.924,839.10
1346.826,849.37
1347.725,829.63
1348.624,873.93
1349.524,801.50
1350.425,829.63
1351.324,852.27
1352.223,837.57
1353.121,856.30
1354.022,807.37
1354.921,789.03
1355.819,826.73
1356.718,829.07
1357.618,786.50
1358.516,826.47
1359.415,794.23
1360.313,834.97
1361.213,820.40
1362.111,818.13
1363.008,792.73
1363.906,794.97
1364.806,737.57
1365.703,796.40
1366.601,765.43
1367.498,791.10
1368.397,783.97
1369.295,785.47
1370.192,747.60
1371.089,786.30
1371.987,767.83
1372.884,738.70
1373.781,756.90
1374.678,747.80
1375.574,800.60
1376.473,767.33
1377.369,752.30
1378.265,740.80
1379.161,749.47
1380.059,746.93
1380.955,758.40
1381.851,728.70
1382.747,766.83
1383.643,754.60
1384.540,729.50
1385.436,719.57
1386.331,763.30
1387.227,712.27
1388.124,718.50
1389.019,719.80
1389.914,737.57
1390.809,703.53
1391.704,732.07
1392.601,704.43
1393.495,734.63
1394.390,740.10
1395.285,714.53
1396.179,707.47
1397.075,720.77
1397.969,729.73
1398.864,722.67
1399.758,719.47
1400.652,707.07
1401.547,700.13
1402.441,679.80
1403.335,679.40
1404.229,702.30
1405.122,714.30
1406.017,732.47
1406.911,734.60
1407.804,719.80
1408.697,693.83
1409.590,681.73
1410.485,669.57
1411.378,684.17
1412.271,693.83
1413.163,707.70
1414.056,698.83
1414.949,689.13
1415.843,670.87
1416.735,665.00
1417.627,673.67
1418.520,680.67
1419.412,703.57
1420.306,683.40
1421.197,671.20
1422.089,707.70
1422.981,678.60
1423.873,667.40
1424.764,722.10
1425.657,664.87
1426.549,634.23
1427.440,714.27
1428.331,650.20
1429.222,668.50
1430.113,675.07
1431.006,676.23
1431.897,681.50
1432.787,695.10
1433.678,670.07
1434.568,693.20
1435.459,721.53
1436.351,670.57
1437.241,697.73
1438.131,666.87
1439.021,626.30
1439.911,696.40
1440.801,653.13
1441.693,635.13
1442.583,667.80
1443.472,664.40
1444.362,642.10
1445.251,668.60
1446.140,638.93
1447.030,672.00
1447.921,655.13
1448.810,644.50
1449.699,663.40
1450.588,668.47
1451.476,617.20
1452.365,664.67
1453.254,638.30
1454.144,639.57
1455.032,653.10
1455.921,655.63
1456.809,640.30
1457.697,655.23
1458.585,636.87
1459.473,641.30
1460.361,652.23
1461.251,630.77
1462.138,638.23
1463.026,635.50
1463.913,667.03
1464.801,621.43
1465.688,662.97
1466.575,629.13
1467.463,654.63
1468.351,641.90
1469.238,615.47
1470.125,648.63
1471.012,617.13
1471.899,625.47
1472.785,649.90
1473.672,608.20
1474.558,668.47
1475.446,634.87
1476.333,611.23
1477.219,623.83
1478.105,617.97
1478.991,657.27
1479.877,632.07
1480.762,597.37
1481.648,597.37
1482.534,630.90
1483.419,612.33
1484.307,587.40
1485.192,572.13
1486.077,644.77
1486.962,609.50
1487.847,629.97
1488.732,612.57
1489.617,633.93
1490.502,612.80
1491.387,634.57
1492.271,601.57
1493.156,620.40
1494.042,585.23
1494.927,613.07
1495.811,632.27
1496.695,604.23
1497.579,596.67
1498.463,626.50
1499.347,608.87
1500.231,631.37
1501.114,597.97
1501.998,628.07
1502.881,604.53
1503.765,594.27
1504.648,594.50
1505.533,581.93
1506.417,585.47
1507.300,614.90
1508.183,602.17
1509.066,601.90
1509.948,578.60
1510.831,601.73
1511.714,608.10
1512.596,608.20
1513.479,610.03
1514.361,573.87
1515.243,590.67
1516.125,594.73
1517.008,606.00
1517.890,586.53
1518.771,559.43
1519.655,594.33
1520.537,592.70
1521.419,588.50
1522.300,586.57
1523.182,584.27
1524.063,544.30
1524.944,553.97
1525.825,604.40
1526.707,602.47
1527.588,600.03
1528.468,553.73
1529.349,575.97
1530.230,623.20
1531.111,611.43
1531.991,578.43
1532.872,607.73
1533.752,599.93
1534.632,616.50
1535.513,631.10
1536.393,601.20
1537.273,588.63
1538.153,565.37
1539.032,592.67
1539.912,598.10
1540.792,558.00
1541.672,570.40
1542.551,596.53
1543.430,556.70
1544.310,576.10
1545.189,562.20
1546.068,566.27
1546.947,542.13
1547.826,574.27
1548.705,565.20
1549.584,595.63
1550.462,582.93
1551.341,591.30
1552.219,583.23
1553.098,580.70
1553.976,582.33
1554.854,554.17
1555.733,602.63
1556.611,557.23
1557.489,555.00
1558.367,560.97
1559.244,569.27
1560.122,588.77
1561.000,571.17
1561.877,564.37
1562.755,570.37
1563.632,564.50
1564.509,565.63
1565.386,554.07
1566.264,570.47
1567.141,601.23
1568.017,578.80
1568.894,582.53
1569.771,570.10
1570.648,523.67
1571.524,581.57
1572.401,571.63
1573.277,593.63
1574.153,578.00
1575.029,562.60
1575.906,552.10
1576.781,572.77
1577.657,564.97
1578.533,561.87
1579.409,568.03
1580.285,543.87
1581.160,576.60
1582.036,591.93
1582.911,564.57
1583.786,613.10
1584.662,526.63
1585.537,547.00
1586.412,541.73
1587.287,563.37
1588.160,565.60
1589.035,545.50
1589.909,569.23
1590.784,557.53
1591.658,538.07
1592.533,557.97
1593.407,529.63
1594.281,578.83
1595.155,557.80
1596.029,551.37
1596.903,587.43
1597.777,555.43
1598.651,544.87
1599.525,585.73
1600.398,570.83
1601.272,560.23
1602.144,543.60
1603.017,560.57
1603.890,546.97
1604.763,563.43
1605.636,563.27
1606.509,571.33
1607.382,538.37
1608.255,605.87
1609.128,581.10
1610.000,522.43
1610.873,532.77
1611.746,556.93
1612.616,567.03
1613.488,546.23
1614.361,523.63
1615.233,550.87
1616.105,575.07
1616.977,578.57
1617.849,545.90
1618.720,548.03
1619.592,579.33
1620.464,538.43
1621.333,544.50
1622.205,546.77
1623.076,532.00
1623.947,525.03
1624.818,566.40
1625.689,552.50
1626.560,534.53
1627.431,543.93
1628.302,527.97
1629.171,539.90
1630.042,530.27
1630.912,520.40
1631.782,537.33
1632.653,556.43
1633.523,539.13
1634.393,581.30
1635.263,563.20
1636.131,560.17
1637.001,530.63
1637.871,538.07
1638.741,550.73
1639.611,541.53
1640.480,547.03
1641.350,514.20
1642.219,537.97
1643.087,548.40
1643.956,562.23
1644.825,509.70
1645.694,527.63
1646.563,550.37
1647.432,542.80
1648.299,531.90
1649.167,525.97
1650.036,556.97
1650.904,560.53
1651.773,574.77
1652.641,517.10
1653.509,574.07
1654.376,525.87
1655.244,526.97
1656.112,553.43
1656.980,547.87
1657.847,505.20
1658.715,545.20
1659.581,531.00
1660.448,502.67
1661.316,540.73
1662.183,574.63
1663.051,503.53
1663.918,537.57
1664.783,560.63
1665.650,535.77
1666.517,542.53
1667.384,539.47
1668.251,562.73
1669.115,531.67
1669.982,514.17
1670.849,532.37
1671.715,531.77
1672.581,546.77
1673.446,524.00
1674.312,510.33
1675.178,558.17
1676.044,527.20
1676.910,529.83
1677.774,533.87
1678.639,553.60
1679.505,522.10
1680.370,540.00
1681.236,516.00
1682.099,552.63
1682.965,567.07
1683.830,508.97
1684.695,524.30
1685.560,513.97
1686.423,547.87
1687.288,485.60
1688.153,507.70
1689.017,525.13
1689.880,541.00
1690.745,519.83
1691.609,526.43
1692.473,521.77
1693.338,556.53
1694.200,538.13
1695.064,522.37
1695.928,541.27
1696.792,502.77
1697.654,525.97
1698.517,542.90
1699.381,501.37
1700.245,545.63
1701.106,520.20
1701.969,543.90
1702.833,529.83
1703.696,503.23
1704.557,522.03
1705.420,491.87
1706.283,527.67
1707.146,541.87
1708.007,550.47
1708.870,522.67
1709.732,533.63
1710.595,525.53
1711.455,515.73
1712.318,554.33
1713.180,507.03
1714.040,519.63
1714.902,509.20
1715.764,558.63
1716.626,529.20
1717.486,546.53
1718.348,523.93
1719.209,621.63
1720.071,564.17
1720.930,513.50
1721.792,563.13
1722.653,549.90
1723.512,553.27
1724.374,513.10
1725.234,452.60
1726.095,552.17
1726.954,512.37
1727.815,505.33
1728.676,522.90
1729.535,556.03
1730.395,519.47
1731.256,523.33
1732.114,510.10
1732.974,508.47
1733.834,512.87
1734.693,504.87
1735.553,527.77
1736.413,491.00
1737.272,510.90
1738.130,569.43
1738.990,504.67
1739.849,540.97
1740.707,529.13
1741.566,525.43
1742.426,536.00
1743.283,522.07
1744.142,532.93
1745.001,528.67
1745.858,486.57
1746.717,506.00
1747.576,553.77
1748.433,503.93
1749.292,536.73
1750.150,511.33
1751.007,535.03
1751.865,524.80
1752.723,529.00
1753.579,556.00
1754.438,539.00
1755.296,527.07
1756.152,500.60
1757.010,504.17
1757.865,517.33
1758.723,532.43
1759.581,477.13
1760.436,542.87
1761.294,543.47
1762.151,517.27
1763.006,517.97
1763.864,512.73
1764.721,530.80
1765.576,491.70
1766.433,519.80
1767.288,528.43
1768.144,511.23
1769.001,528.17
1769.856,515.50
1770.712,508.63
1771.568,540.50
1772.423,517.13
1773.279,504.97
1774.133,527.30
1774.989,546.93
1775.845,518.03
1776.699,529.50
1777.555,551.93
1778.409,523.53
1779.265,488.77
1780.120,509.90
1780.974,508.07
1781.829,503.90
1782.682,510.70
1783.538,562.47
1784.393,517.47
1785.246,533.90
1786.101,555.27
1786.954,536.70
1787.808,513.83
1788.661,511.10
1789.516,532.33
1790.370,493.73
1791.223,520.13
1792.077,492.57
1792.930,536.43
1793.784,487.27
1794.636,503.73
1795.490,564.60
1796.344,506.33
1797.196,501.30
1798.049,510.90
1798.901,517.07
1799.755,532.43
1800.606,501.93
1801.460,505.77
1802.311,496.77
1803.165,509.50
1804.018,554.80
1804.869,501.23
1805.722,519.23
1806.573,485.37
1807.426,523.77
1808.276,525.47
1809.129,524.87
1809.980,492.80
1810.832,497.87
1811.683,528.67
1812.535,503.07
1813.385,553.57
1814.237,514.90
1815.089,553.87
1815.940,529.97
1816.791,519.90
1817.641,535.53
1818.493,511.40
1819.343,523.07
1820.194,500.53
1821.044,529.77
1821.895,557.40
1822.745,537.63
1823.596,470.67
1824.445,480.17
1825.296,546.57
1826.145,524.43
1826.996,535.87
1827.845,509.87
1828.695,568.93
1829.544,531.27
1830.395,553.80
1831.243,535.73
1832.094,520.93
1832.942,517.60
1833.792,474.07
1834.640,499.10
1835.490,513.30
1836.338,479.93
1837.186,513.73
1838.036,535.80
1838.884,491.00
1839.733,490.93
1840.581,482.60
1841.430,509.27
1842.278,541.10
1843.127,518.67
1843.974,496.77
1844.823,500.50
1845.671,529.77
1846.519,522.20
1847.366,492.33
1848.213,535.63
1849.062,531.07
1849.909,495.87
1850.757,535.77
1851.604,536.33
1852.452,528.53
1853.298,516.03
1854.146,519.73
1854.993,516.87
1855.839,519.40
1856.687,504.90
1857.532,526.87
1858.380,511.67
1859.226,554.63
1860.073,507.40
1860.919,503.87
1861.765,494.97
1862.612,524.13
1863.457,534.63
1864.304,516.17
1865.150,507.37
1865.995,535.40
1866.842,533.13
1867.686,488.83
1868.533,488.40
1869.378,523.43
1870.223,515.97
1871.069,503.00
1871.914,483.20
1872.760,516.90
1873.604,495.67
1874.448,548.57
1875.294,489.57
1876.139,465.20
1876.984,497.70
1877.828,526.27
1878.672,480.40
1879.518,495.23
1880.361,526.77
1881.205,516.20
1882.050,505.17
1882.894,516.67
1883.739,502.53
1884.582,505.60
1885.425,521.57
1886.270,529.30
1887.113,496.93
1887.956,487.50
1888.801,512.20
1889.644,504.67
1890.486,497.73
1891.331,504.70
1892.173,549.87
1893.017,507.53
1893.860,540.13
1894.702,503.67
1895.546,510.03
1896.388,499.23
1897.230,531.40
1898.074,516.73
1898.916,497.50
1899.757,491.93
1900.601,535.10
1901.443,500.13
1902.284,513.33
1903.125,547.47
1903.969,514.40
1904.810,536.93
1905.651,549.93
1906.494,516.97
1907.335,491.70
1908.176,495.67
1909.018,521.60
1909.859,540.63
1910.700,530.33
1911.542,513.87
1912.383,518.53
1913.223,518.13
1914.064,558.67
1914.906,519.67
1915.746,500.93
1916.586,481.03
1917.428,494.97
1918.268,497.27
1919.107,539.37
1919.947,516.27
1920.789,549.87
1921.628,487.60
1922.468,520.40
1923.309,549.20
1924.148,538.07
1924.988,501.33
1925.827,471.07
1926.667,501.60
1927.507,525.57
1928.345,491.37
1929.184,531.47
1930.025,526.57
1930.864,480.53
1931.702,494.00
1932.541,547.70
1933.381,507.07
1934.219,521.53
1935.057,504.17
1935.896,533.73
1936.735,478.33
1937.573,500.73
1938.411,501.17
1939.249,542.67
1940.089,522.37
1940.927,513.03
1941.764,526.47
1942.602,502.23
1943.439,500.43
1944.278,513.13
1945.115,509.03
1945.953,511.37
1946.790,544.60
1947.628,488.17
1948.465,506.93
1949.302,527.17
1950.139,500.03
1950.976,523.50
1951.814,544.10
1952.651,467.37
1953.487,497.20
1954.323,545.23
1955.160,529.43
1955.998,497.90
1956.834,536.17
1957.670,505.97
1958.506,531.57
1959.342,479.13
1960.177,505.50
1961.015,484.33
1961.850,510.63
1962.686,537.50
1963.521,512.03
1964.357,566.00
1965.192,493.70
1966.029,508.73
1966.864,543.37
1967.699,535.17
1968.534,471.70
1969.369,540.30
1970.204,502.20
1971.040,533.47
1971.875,503.27
1972.709,521.30
1973.544,500.37
1974.378,520.87
1975.212,533.20
1976.047,516.20
1976.882,485.90
1977.716,482.83
1978.550,571.10
1979.384,518.47
1980.218,500.90
1981.052,524.27
1981.885,526.07
1982.719,516.00
1983.554,559.50
1984.388,533.77
1985.221,532.13
1986.054,541.53
1986.887,525.77
1987.720,508.30
1988.553,539.63
1989.386,503.07
1990.219,550.27
1991.053,522.70
1991.886,507.53
1992.719,536.93
1993.551,544.67
1994.383,510.70
1995.216,519.27
1996.048,502.93
1996.880,515.63
1997.712,503.63
1998.544,496.37
1999.376,576.87
2000.208,540.63
2000.208,540.63

Max Intensity Wave.,220.959
Max Intensity Data,5868.33
Min Intensity Wave.,146.591
Min Intensity Data,367.10
FWHM Wave.,399.657
FWHM Value,1.83
Pressure Wave.,690.697
Pressure Value [GPa],-8.97703
G/D Ratio,0.59028
G/D Gband Wave.,1583.663
G/D Gband Intensity,614.43
G/D Dband Wave.,1302.099
G/D Dband Intensity,1040.92

<< BACKGROUND SPECTRUM >>
Wave[dcm-1],No253
146.591,2219.00
147.626,2091.00
148.664,2046.00
149.699,2487.00
150.737,2224.00
151.772,2398.00
152.809,2390.00
153.846,2248.00
154.881,2339.00
155.918,1956.00
156.953,2281.00
157.989,2605.00
159.026,2425.00
160.060,2614.00
161.096,2820.00
162.130,2499.00
163.167,2555.00
164.200,2442.00
165.236,2664.00
166.272,2669.00
167.305,2238.00
168.341,2534.00
169.374,2749.00
170.409,2744.00
171.445,2711.00
172.477,2505.00
173.512,2396.00
174.545,2642.00
175.580,2841.00
176.614,3007.00
177.647,2775.00
178.681,3020.00
179.713,3292.00
180.747,2763.00
181.781,2671.00
182.813,2962.00
183.847,3053.00
184.878,2713.00
185.912,2955.00
186.945,3102.00
187.976,3025.00
189.010,2695.00
190.043,2799.00
191.073,2890.00
192.106,2685.00
193.137,3150.00
194.170,2531.00
195.202,2883.00
196.232,2713.00
197.265,2987.00
198.297,3045.00
199.327,2738.00
200.359,2910.00
201.388,3283.00
202.420,2906.00
203.452,3066.00
204.481,2648.00
205.512,3293.00
206.544,3018.00
207.573,3004.00
208.604,3356.00
209.635,3488.00
210.663,2906.00
211.694,2980.00
212.725,2773.00
213.753,2760.00
214.783,3336.00
215.813,3201.00
216.841,2973.00
217.871,3122.00
218.899,2876.00
219.929,3141.00
220.959,2850.00
221.986,3158.00
223.016,2737.00
224.045,3120.00
225.072,3111.00
226.101,3168.00
227.130,3172.00
228.157,2794.00
229.185,2349.00
230.214,3151.00
231.241,2808.00
232.269,2480.00
233.297,2660.00
234.323,3195.00
235.351,2811.00
236.379,3085.00
237.407,2752.00
238.433,2913.00
239.460,3086.00
240.488,3091.00
241.513,3159.00
242.540,3084.00
243.568,3202.00
244.592,3204.00
245.619,3146.00
246.646,2887.00
247.671,2929.00
248.697,2780.00
249.724,3028.00
250.748,2997.00
251.774,2987.00
252.801,3267.00
253.827,3084.00
254.850,3049.00
255.876,2627.00
256.902,3127.00
257.925,2938.00
258.951,2716.00
259.976,2751.00
260.999,3050.00
262.024,2730.00
263.049,3620.00
264.074,3096.00
265.097,2959.00
266.122,3024.00
267.146,3048.00
268.168,3160.00
269.193,2821.00
270.217,3171.00
271.241,2693.00
272.263,2885.00
273.287,3133.00
274.311,2730.00
275.332,3218.00
276.356,2839.00
277.379,3086.00
278.402,3102.00
279.424,2924.00
280.447,2840.00
281.470,2698.00
282.492,3032.00
283.513,2869.00
284.536,3141.00
285.558,3124.00
286.581,3088.00
287.601,2824.00
288.623,2795.00
289.645,3091.00
290.665,3092.00
291.687,3088.00
292.709,3112.00
293.730,3359.00
294.750,2854.00
295.771,2736.00
296.792,3029.00
297.813,2896.00
298.832,3014.00
299.853,2740.00
300.874,2965.00
301.895,2942.00
302.913,2945.00
303.934,3224.00
304.954,3045.00
305.975,4194.00
306.993,2717.00
308.013,3082.00
309.033,2988.00
310.052,2895.00
311.072,2889.00
312.090,3035.00
313.109,3244.00
314.129,3385.00
315.148,2959.00
316.165,2991.00
317.184,3238.00
318.203,2752.00
319.222,2707.00
320.238,3119.00
321.257,2771.00
322.275,2689.00
323.294,2960.00
324.312,3090.00
325.328,3242.00
326.346,3286.00
327.364,3179.00
328.382,3136.00
329.397,3089.00
330.415,3173.00
331.432,3205.00
332.450,3219.00
333.467,3412.00
334.482,2590.00
335.499,3339.00
336.516,2878.00
337.533,2546.00
338.547,2824.00
339.564,2840.00
340.580,3078.00
341.597,2916.00
342.613,3409.00
343.627,2977.00
344.643,2984.00
345.659,3089.00
346.675,2945.00
347.690,2858.00
348.704,3054.00
349.719,2876.00
350.735,2739.00
351.750,3203.00
352.765,2972.00
353.778,2964.00
354.793,3129.00
355.808,2802.00
356.822,3158.00
357.837,2625.00
358.851,3217.00
359.864,2951.00
360.878,2701.00
361.892,2956.00
362.906,3106.00
363.920,2570.00
364.932,3087.00
365.945,3091.00
366.959,2977.00
367.972,2873.00
368.986,2701.00
369.999,3278.00
371.010,2831.00
372.023,3323.00
373.036,2943.00
374.049,3290.00
375.061,3028.00
376.072,2987.00
377.084,2838.00
378.097,2695.00
379.109,3136.00
380.121,2964.00
381.133,2666.00
382.143,3113.00
383.155,2666.00
384.166,2852.00
385.178,3081.00
386.189,3156.00
387.201,2719.00
388.212,2876.00
389.221,2905.00
390.232,2975.00
391.243,2880.00
392.254,2979.00
393.264,2817.00
394.275,3194.00
395.283,3166.00
396.294,3605.00
397.304,3474.00
398.314,3122.00
399.324,2980.00
400.334,2625.00
401.344,3142.00
402.351,2641.00
403.361,3181.00
404.370,2905.00
405.380,2874.00
406.389,3316.00
407.398,3059.00
408.407,3031.00
409.414,3119.00
410.423,3269.00
411.431,2740.00
412.440,2651.00
413.448,3322.00
414.457,2830.00
415.465,2795.00
416.471,2861.00
417.479,3038.00
418.487,2805.00
419.495,3312.00
420.503,3103.00
421.510,2619.00
422.518,3137.00
423.525,3134.00
424.530,3396.00
425.537,2851.00
426.544,3171.00
427.551,2838.00
428.558,3597.00
429.565,3421.00
430.571,2875.00
431.578,2870.00
432.582,2825.00
433.588,2915.00
434.595,2602.00
435.601,3287.00
436.607,3216.00
437.612,2718.00
438.618,3282.00
439.624,2901.00
440.627,2934.00
441.633,3108.00
442.638,3512.00
443.643,3068.00
444.648,2991.00
445.653,3164.00
446.658,2848.00
447.663,3001.00
448.667,2869.00
449.672,2887.00
450.674,2933.00
451.678,2649.00
452.682,2830.00
453.687,2799.00
454.690,3579.00
455.694,3234.00
456.698,2550.00
457.702,2649.00
458.705,2778.00
459.709,2839.00
460.710,2821.00
461.713,3017.00
462.716,3086.00
463.719,2976.00
464.722,3147.00
465.725,2959.00
466.727,2819.00
467.730,2988.00
468.732,2724.00
469.735,3259.00
470.737,2859.00
471.737,2879.00
472.739,2857.00
473.741,2805.00
474.742,3031.00
475.744,3047.00
476.746,3003.00
477.747,2930.00
478.748,3131.00
479.750,2875.00
480.751,2975.00
481.752,3710.00
482.753,3061.00
483.751,3526.00
484.752,2602.00
485.753,2939.00
486.753,2864.00
487.753,2959.00
488.754,3412.00
489.754,2668.00
490.754,3303.00
491.754,3144.00
492.754,2651.00
493.753,2928.00
494.753,2880.00
495.752,3303.00
496.752,3036.00
497.749,2938.00
498.748,2825.00
499.747,3416.00
500.746,3066.00
501.745,2777.00
502.744,2745.00
503.742,3338.00
504.741,2961.00
505.739,2453.00
506.737,2863.00
507.735,3127.00
508.734,3340.00
509.732,3182.00
510.729,3307.00
511.727,2831.00
512.725,2938.00
513.720,2776.00
514.718,3232.00
515.715,2682.00
516.712,2631.00
517.709,2964.00
518.706,2861.00
519.703,2984.00
520.700,3188.00
521.696,3342.00
522.693,2897.00
523.689,2850.00
524.686,3129.00
525.682,2792.00
526.678,3420.00
527.674,2915.00
528.670,2589.00
529.666,3446.00
530.661,3453.00
531.657,3125.00
532.652,3166.00
533.648,2970.00
534.641,3160.00
535.636,3062.00
536.631,3070.00
537.626,3161.00
538.621,2709.00
539.616,2601.00
540.610,2508.00
541.605,2993.00
542.599,3062.00
543.593,2962.00
544.587,3874.00
545.581,2833.00
546.575,3035.00
547.569,3020.00
548.563,2692.00
549.557,2637.00
550.550,2755.00
551.543,2759.00
552.537,3133.00
553.530,2777.00
554.523,2750.00
555.516,3083.00
556.509,2935.00
557.502,2639.00
558.494,3170.00
559.487,2908.00
560.479,3146.00
561.472,3187.00
562.464,3126.00
563.456,3276.00
564.448,2929.00
565.440,2989.00
566.432,3354.00
567.423,2860.00
568.415,2900.00
569.404,3107.00
570.396,2798.00
571.387,3080.00
572.378,3036.00
573.369,3957.00
574.360,3662.00
575.351,2912.00
576.341,2825.00
577.332,2888.00
578.323,2678.00
579.313,2856.00
580.303,3236.00
581.293,3122.00
582.283,2960.00
583.273,3125.00
584.263,2945.00
585.253,3077.00
586.243,3069.00
587.232,2632.00
588.222,2950.00
589.211,3171.00
590.200,3050.00
591.189,2943.00
592.178,2964.00
593.167,3361.00
594.156,3263.00
595.145,2861.00
596.133,3410.00
597.122,3108.00
598.110,3167.00
599.098,3039.00
600.086,2987.00
601.074,3157.00
602.062,2844.00
603.050,2750.00
604.038,3090.00
605.025,2799.00
606.013,3207.00
607.000,3341.00
607.987,2985.00
608.975,3017.00
609.962,2763.00
610.949,3143.00
611.936,3258.00
612.922,3158.00
613.909,2703.00
614.895,3359.00
615.882,2834.00
616.868,3020.00
617.854,2701.00
618.841,2958.00
619.826,3086.00
620.812,2960.00
621.798,2793.00
622.784,3110.00
623.769,3068.00
624.755,2685.00
625.740,3044.00
626.725,2695.00
627.711,2832.00
628.698,3061.00
629.683,2819.00
630.667,3140.00
631.652,2711.00
632.637,2925.00
633.621,3134.00
634.606,2899.00
635.590,3125.00
636.574,2947.00
637.558,3038.00
638.542,3025.00
639.526,2827.00
640.510,2643.00
641.493,3026.00
642.477,2993.00
643.460,2666.00
644.444,3227.00
645.427,3242.00
646.410,2672.00
647.393,2914.00
648.376,3029.00
649.359,2894.00
650.341,3029.00
651.324,3037.00
652.307,3013.00
653.289,2911.00
654.271,2857.00
655.253,2886.00
656.235,3091.00
657.217,3203.00
658.199,2647.00
659.181,2691.00
660.163,3013.00
661.144,2871.00
662.126,2858.00
663.107,2779.00
664.088,6203.00
665.069,3254.00
666.050,2834.00
667.033,2733.00
668.014,3023.00
668.995,2614.00
669.975,2952.00
670.956,2944.00
671.936,3091.00
672.916,2886.00
673.896,3105.00
674.876,2909.00
675.856,2852.00
676.836,2755.00
677.816,2305.00
678.795,2818.00
679.775,2626.00
680.754,2985.00
681.734,3134.00
682.713,3134.00
683.692,2753.00
684.671,2628.00
685.650,2738.00
686.629,2848.00
687.607,2764.00
688.586,2762.00
689.564,2837.00
690.543,3205.00
691.523,2352.00
692.501,2821.00
693.479,2932.00
694.457,2775.00
695.435,2818.00
696.413,2664.00
697.390,2510.00
698.368,2632.00
699.345,3074.00
700.322,2905.00
701.300,3068.00
702.277,3020.00
703.254,3232.00
704.231,2533.00
705.207,2970.00
706.184,2765.00
707.161,2628.00
708.137,2828.00
709.113,2806.00
710.090,2749.00
711.068,2559.00
712.044,2625.00
713.020,2868.00
713.996,2609.00
714.971,2775.00
715.947,2827.00
716.922,2823.00
717.898,2780.00
718.873,2863.00
719.848,2710.00
720.823,2703.00
721.798,2966.00
722.773,2769.00
723.748,2538.00
724.723,3000.00
725.697,2830.00
726.672,2733.00
727.646,2495.00
728.622,2968.00
729.596,2576.00
730.570,2733.00
731.544,3055.00
732.518,3215.00
733.492,2800.00
734.466,2845.00
735.439,2983.00
736.413,3050.00
737.386,2470.00
738.359,2417.00
739.332,2546.00
740.305,2826.00
741.278,3269.00
742.251,2897.00
743.224,2718.00
744.196,2532.00
745.171,3105.00
746.143,2995.00
747.115,2778.00
748.087,2716.00
749.059,3060.00
750.031,2879.00
751.003,3622.00
751.975,3276.00
752.947,2640.00
753.918,3045.00
754.890,2578.00
755.861,2740.00
756.832,3037.00
757.803,2825.00
758.774,2866.00
759.747,2565.00
760.718,3172.00
761.689,2711.00
762.659,2567.00
763.630,3145.00
764.600,2562.00
765.570,3037.00
766.540,3159.00
767.510,2947.00
768.480,3022.00
769.450,2705.00
770.420,2851.00
771.390,2611.00
772.359,2762.00
773.329,2664.00
774.300,2495.00
775.269,2727.00
776.238,2987.00
777.207,3140.00
778.176,2461.00
779.145,2798.00
780.114,2671.00
781.083,2563.00
782.051,2748.00
783.019,2670.00
783.988,3069.00
784.956,2847.00
785.924,2946.00
786.894,2841.00
787.862,2689.00
788.830,3115.00
789.797,2599.00
790.765,2605.00
791.732,2775.00
792.700,2666.00
793.667,2587.00
794.634,2747.00
795.601,2782.00
796.568,2774.00
797.535,2856.00
798.502,3442.00
799.468,2902.00
800.437,2380.00
801.403,2617.00
802.370,3232.00
803.336,2977.00
804.302,2857.00
805.268,2444.00
806.234,2570.00
807.200,2696.00
808.166,2746.00
809.131,2566.00
810.097,2973.00
811.062,3668.00
812.027,2980.00
812.994,2573.00
813.960,2596.00
814.925,2958.00
815.889,2513.00
816.854,2977.00
817.819,2614.00
818.783,2733.00
819.748,3068.00
820.712,2739.00
821.677,2654.00
822.641,2705.00
823.605,2718.00
824.571,3181.00
825.534,2683.00
826.498,2681.00
827.462,2831.00
828.425,2605.00
829.389,3014.00
830.352,2814.00
831.315,2914.00
832.279,2495.00
833.242,2739.00
834.204,2652.00
835.167,2668.00
836.132,3040.00
837.095,2546.00
838.057,2699.00
839.020,2817.00
839.982,2812.00
840.944,2705.00
841.906,2664.00
842.868,2922.00
843.830,2546.00
844.792,3028.00
845.753,2679.00
846.715,2416.00
847.679,2589.00
848.640,2593.00
849.601,2712.00
850.562,3243.00
851.523,2681.00
852.484,2462.00
853.445,2986.00
854.406,2736.00
855.367,2735.00
856.327,3018.00
857.288,2528.00
858.248,2652.00
859.210,2697.00
860.170,2499.00
861.130,2981.00
862.090,2417.00
863.050,2645.00
864.010,2686.00
864.969,2911.00
865.929,2574.00
866.888,2491.00
867.848,2802.00
868.807,2681.00
869.766,2843.00
870.727,2745.00
871.686,2995.00
872.645,2985.00
873.604,3266.00
874.562,2779.00
875.521,2795.00
876.479,3339.00
877.437,2598.00
878.396,2612.00
879.354,3171.00
880.312,2583.00
881.270,2655.00
882.229,3088.00
883.187,2609.00
884.145,2671.00
885.102,2938.00
886.059,2783.00
887.017,2893.00
887.974,2947.00
888.931,3019.00
889.888,2524.00
890.845,2451.00
891.802,2322.00
892.758,2606.00
893.717,2459.00
894.673,2580.00
895.630,2606.00
896.586,2893.00
897.542,2677.00
898.498,2534.00
899.454,2877.00
900.410,2661.00
901.366,2647.00
902.321,2602.00
903.277,2697.00
904.232,2743.00
905.189,2478.00
906.145,2686.00
907.100,2217.00
908.055,2690.00
909.010,2899.00
909.965,2341.00
910.919,2784.00
911.874,2587.00
912.828,2749.00
913.783,2771.00
914.737,2375.00
915.693,2732.00
916.648,2918.00
917.602,2963.00
918.555,2755.00
919.509,2823.00
920.463,2697.00
921.417,2761.00
922.370,2574.00
923.324,2695.00
924.277,2639.00
925.230,2754.00
926.183,2390.00
927.138,2693.00
928.091,2954.00
929.044,2815.00
929.996,2676.00
930.949,2656.00
931.902,2790.00
932.854,2820.00
933.806,2570.00
934.758,2977.00
935.711,2948.00
936.663,2752.00
937.614,2805.00
938.568,2756.00
939.520,2387.00
940.471,2712.00
941.423,2760.00
942.374,2859.00
943.326,2724.00
944.277,2614.00
945.228,2809.00
946.179,2761.00
947.130,2998.00
948.080,2653.00
949.031,2592.00
949.984,2679.00
950.934,2703.00
951.884,2457.00
952.835,2707.00
953.785,2764.00
954.735,2630.00
955.685,2350.00
956.635,2643.00
957.585,2579.00
958.534,2608.00
959.484,2744.00
960.433,2620.00
961.383,2458.00
962.334,2967.00
963.283,2784.00
964.232,2857.00
965.181,2684.00
966.130,2780.00
967.079,2638.00
968.027,2717.00
968.976,2734.00
969.924,2628.00
970.873,2848.00
971.821,2716.00
972.769,2963.00
973.719,2864.00
974.667,2504.00
975.615,2725.00
976.562,2764.00
977.510,2387.00
978.458,2632.00
979.405,2821.00
980.352,2767.00
981.300,2968.00
982.247,2786.00
983.194,2556.00
984.141,2603.00
985.088,2731.00
986.036,2780.00
986.983,3012.00
987.930,3121.00
988.876,2351.00
989.822,2939.00
990.769,2548.00
991.715,2645.00
992.661,2434.00
993.607,2763.00
994.553,3290.00
995.498,2557.00
996.444,2271.00
997.389,2769.00
998.337,2534.00
999.282,2869.00
1000.227,2666.00
1001.173,2694.00
1002.118,2442.00
1003.062,2888.00
1004.007,2678.00
1004.952,3029.00
1005.897,2929.00
1006.841,2701.00
1007.786,2465.00
1008.730,2441.00
1009.674,3158.00
1010.618,2646.00
1011.564,2511.00
1012.508,2402.00
1013.452,2934.00
1014.396,2732.00
1015.339,2632.00
1016.283,2659.00
1017.226,2704.00
1018.170,2709.00
1019.113,2873.00
1020.056,2768.00
1020.999,2695.00
1021.942,2596.00
1022.885,2850.00
1023.828,2954.00
1024.770,2497.00
1025.715,2743.00
1026.657,2681.00
1027.600,2744.00
1028.542,2909.00
1029.484,2751.00
1030.426,2838.00
1031.368,2763.00
1032.310,2557.00
1033.251,2551.00
1034.193,2682.00
1035.135,2485.00
1036.076,2610.00
1037.017,2535.00
1037.959,2810.00
1038.900,2801.00
1039.843,2795.00
1040.784,2745.00
1041.725,2811.00
1042.665,2605.00
1043.606,2758.00
1044.547,2771.00
1045.487,2366.00
1046.427,2667.00
1047.368,2770.00
1048.308,2248.00
1049.248,2535.00
1050.188,2708.00
1051.128,2639.00
1052.067,2677.00
1053.007,2396.00
1053.947,2402.00
1054.886,2549.00
1055.827,2518.00
1056.766,2926.00
1057.706,2452.00
1058.645,2668.00
1059.584,2751.00
1060.522,2968.00
1061.461,2453.00
1062.400,2473.00
1063.338,2684.00
1064.277,2503.00
1065.215,2517.00
1066.154,2410.00
1067.092,2634.00
1068.030,2601.00
1068.968,2863.00
1069.906,2966.00
1070.843,2972.00
1071.781,2728.00
1072.720,2814.00
1073.658,2815.00
1074.595,2580.00
1075.533,2584.00
1076.470,2588.00
1077.407,2949.00
1078.344,2742.00
1079.281,2813.00
1080.217,2328.00
1081.154,2665.00
1082.091,2766.00
1083.027,2444.00
1083.964,2882.00
1084.900,2568.00
1085.836,2614.00
1086.772,2853.00
1087.708,2464.00
1088.644,2840.00
1089.580,2680.00
1090.515,2733.00
1091.451,2590.00
1092.388,2732.00
1093.324,2452.00
1094.259,3213.00
1095.194,2787.00
1096.129,2597.00
1097.064,2529.00
1097.999,2840.00
1098.934,2546.00
1099.869,2566.00
1100.803,2694.00
1101.738,2699.00
1102.672,2400.00
1103.607,2773.00
1104.541,2513.00
1105.475,2533.00
1106.409,2426.00
1107.343,2612.00
1108.277,2410.00
1109.210,2699.00
1110.144,2694.00
1111.078,2653.00
1112.011,2428.00
1112.944,2801.00
1113.878,2747.00
1114.811,2181.00
1115.744,2550.00
1116.678,2296.00
1117.611,2551.00
1118.544,2594.00
1119.477,2754.00
1120.409,2537.00
1121.342,3077.00
1122.274,2723.00
1123.206,3084.00
1124.138,2692.00
1125.070,2991.00
1126.002,2843.00
1126.934,2274.00
1127.866,2577.00
1128.798,2349.00
1129.729,2391.00
1130.661,2658.00
1131.592,2548.00
1132.523,2743.00
1133.454,2795.00
1134.385,2290.00
1135.317,2656.00
1136.247,2573.00
1137.178,2870.00
1138.109,2378.00
1139.039,3000.00
1139.970,2861.00
1140.900,2606.00
1141.831,2393.00
1142.761,2228.00
1143.691,2764.00
1144.621,2655.00
1145.551,2724.00
1146.480,2739.00
1147.410,2824.00
1148.340,2284.00
1149.269,2383.00
1150.199,2597.00
1151.128,3030.00
1152.057,2457.00
1152.979,2573.00
1153.898,2611.00
1154.819,2730.00
1155.739,2593.00
1156.658,2579.00
1157.579,2679.00
1158.498,2634.00
1159.419,2209.00
1160.338,2694.00
1161.256,2687.00
1162.177,2534.00
1163.095,2620.00
1164.016,2702.00
1164.934,2876.00
1165.852,2823.00
1166.772,2649.00
1167.690,2644.00
1168.610,2660.00
1169.528,2669.00
1170.446,2223.00
1171.365,2563.00
1172.283,2517.00
1173.202,2645.00
1174.120,2706.00
1175.037,2511.00
1175.956,2451.00
1176.873,2510.00
1177.792,2550.00
1178.709,3093.00
1179.626,2554.00
1180.544,2834.00
1181.461,2520.00
1182.379,2760.00
1183.296,2663.00
1184.212,2280.00
1185.130,2529.00
1186.046,2936.00
1186.962,2637.00
1187.880,2906.00
1188.796,2684.00
1189.714,2451.00
1190.629,2817.00
1191.545,2699.00
1192.462,2589.00
1193.378,2621.00
1194.295,2351.00
1195.210,2631.00
1196.125,2771.00
1197.042,2690.00
1197.957,2627.00
1198.872,2531.00
1199.788,2523.00
1200.703,2930.00
1201.619,2641.00
1202.534,2474.00
1203.448,2687.00
1204.364,2594.00
1205.278,2289.00
1206.192,2679.00
1207.108,3101.00
1208.022,3003.00
1208.938,2468.00
1209.851,2759.00
1210.765,2886.00
1211.680,2527.00
1212.594,2403.00
1213.507,2568.00
1214.422,3035.00
1215.335,2797.00
1216.248,2570.00
1217.163,2627.00
1218.076,3229.00
1218.990,2730.00
1219.903,2394.00
1220.816,2489.00
1221.730,2594.00
1222.642,2498.00
1223.554,2552.00
1224.469,2704.00
1225.380,2563.00
1226.292,2264.00
1227.206,2721.00
1228.118,2973.00
1229.032,2248.00
1229.943,2543.00
1230.855,2573.00
1231.768,2359.00
1232.679,2719.00
1233.590,2588.00
1234.503,2863.00
1235.414,2511.00
1236.325,2539.00
1237.238,2711.00
1238.149,2705.00
1239.059,2442.00
1239.972,2791.00
1240.882,2403.00
1241.793,2759.00
1242.705,2994.00
1243.615,2605.00
1244.525,2718.00
1245.437,2191.00
1246.347,2702.00
1247.259,2741.00
1248.168,3039.00
1249.078,2861.00
1249.989,2903.00
1250.899,2429.00
1251.808,2506.00
1252.719,2547.00
1253.628,2483.00
1254.537,3018.00
1255.448,2451.00
1256.357,2480.00
1257.266,2670.00
1258.176,2363.00
1259.085,2328.00
1259.993,2462.00
1260.904,2485.00
1261.812,2481.00
1262.720,3234.00
1263.630,2809.00
1264.538,2473.00
1265.446,2723.00
1266.356,2631.00
1267.263,2892.00
1268.171,2407.00
1269.080,2702.00
1269.988,2802.00
1270.895,2535.00
1271.804,2560.00
1272.711,2846.00
1273.619,2789.00
1274.527,2429.00
1275.434,2742.00
1276.341,2421.00
1277.248,2644.00
1278.156,2886.00
1279.063,2494.00
1279.969,2741.00
1280.877,3518.00
1281.783,2833.00
1282.690,2700.00
1283.598,2608.00
1284.503,2471.00
1285.409,2433.00
1286.317,3010.00
1287.223,3017.00
1288.128,2689.00
1289.036,2550.00
1289.941,2554.00
1290.846,2629.00
1291.751,2451.00
1292.658,2543.00
1293.563,3025.00
1294.468,2656.00
1295.375,2766.00
1296.280,2895.00
1297.184,3322.00
1298.091,2715.00
1298.995,2797.00
1299.900,3005.00
1300.806,2554.00
1301.710,2364.00
1302.614,2179.00
1303.518,2855.00
1304.424,2586.00
1305.327,2804.00
1306.231,2580.00
1307.137,2762.00
1308.040,2670.00
1308.943,2661.00
1309.847,2868.00
1310.752,2820.00
1311.655,2288.00
1312.558,2421.00
1313.463,2586.00
1314.366,2520.00
1315.269,2685.00
1316.171,2596.00
1317.076,2507.00
1317.978,2428.00
1318.881,2224.00
1319.785,2470.00
1320.687,2492.00
1321.589,2270.00
1322.491,2456.00
1323.395,2725.00
1324.297,3137.00
1325.198,2756.00
1326.102,2437.00
1327.004,2420.00
1327.905,3007.00
1328.806,2610.00
1329.709,2677.00
1330.611,2582.00
1331.512,2432.00
1332.413,3094.00
1333.316,2693.00
1334.216,2839.00
1335.117,2360.00
1336.020,2676.00
1336.920,2616.00
1337.821,2510.00
1338.721,2891.00
1339.623,2720.00
1340.523,2601.00
1341.423,2492.00
1342.323,2885.00
1343.225,2694.00
1344.125,2453.00
1345.025,2522.00
1345.924,2312.00
1346.826,2963.00
1347.725,3061.00
1348.624,2830.00
1349.524,2520.00
1350.425,2581.00
1351.324,2699.00
1352.223,2786.00
1353.121,2580.00
1354.022,2836.00
1354.921,3043.00
1355.819,2750.00
1356.718,2668.00
1357.618,2404.00
1358.516,2725.00
1359.415,3027.00
1360.313,2689.00
1361.213,2561.00
1362.111,2884.00
1363.008,3259.00
1363.906,2606.00
1364.806,2690.00
1365.703,2706.00
1366.601,2480.00
1367.498,2447.00
1368.397,2809.00
1369.295,2684.00
1370.192,2485.00
1371.089,2700.00
1371.987,2623.00
1372.884,2911.00
1373.781,2432.00
1374.678,2646.00
1375.574,2428.00
1376.473,2739.00
1377.369,2858.00
1378.265,2485.00
1379.161,2588.00
1380.059,2349.00
1380.955,2747.00
1381.851,2420.00
1382.747,2503.00
1383.643,2553.00
1384.540,2443.00
1385.436,2543.00
1386.331,2664.00
1387.227,2810.00
1388.124,2754.00
1389.019,2455.00
1389.914,2606.00
1390.809,2296.00
1391.704,3036.00
1392.601,2560.00
1393.495,2899.00
1394.390,2776.00
1395.285,2888.00
1396.179,2708.00
1397.075,2585.00
1397.969,2679.00
1398.864,2320.00
1399.758,2580.00
1400.652,2657.00
1401.547,2463.00
1402.441,2430.00
1403.335,2981.00
1404.229,2672.00
1405.122,2706.00
1406.017,2587.00
1406.911,2748.00
1407.804,3014.00
1408.697,2612.00
1409.590,2473.00
1410.485,2843.00
1411.378,2692.00
1412.271,2340.00
1413.163,2680.00
1414.056,2779.00
1414.949,3007.00
1415.843,2692.00
1416.735,2616.00
1417.627,2656.00
1418.520,2603.00
1419.412,2826.00
1420.306,2808.00
1421.197,2916.00
1422.089,2805.00
1422.981,3078.00
1423.873,2812.00
1424.764,2696.00
1425.657,2676.00
1426.549,2815.00
1427.440,2789.00
1428.331,2568.00
1429.222,2332.00
1430.113,2676.00
1431.006,2807.00
1431.897,2534.00
1432.787,2632.00
1433.678,2564.00
1434.568,2433.00
1435.459,2803.00
1436.351,2796.00
1437.241,2753.00
1438.131,2784.00
1439.021,2431.00
1439.911,2594.00
1440.801,2692.00
1441.693,2886.00
1442.583,2641.00
1443.472,2627.00
1444.362,2764.00
1445.251,2576.00
1446.140,2560.00
1447.030,2807.00
1447.921,2835.00
1448.810,2480.00
1449.699,2985.00
1450.588,2652.00
1451.476,2583.00
1452.365,2730.00
1453.254,2552.00
1454.144,2534.00
1455.032,2781.00
1455.921,2355.00
1456.809,2924.00
1457.697,2433.00
1458.585,2588.00
1459.473,2578.00
1460.361,2474.00
1461.251,2720.00
1462.138,2719.00
1463.026,2601.00
1463.913,2841.00
1464.801,2565.00
1465.688,2697.00
1466.575,2654.00
1467.463,3078.00
1468.351,2498.00
1469.238,2622.00
1470.125,2242.00
1471.012,2693.00
1471.899,2728.00
1472.785,2449.00
1473.672,2653.00
1474.558,2817.00
1475.446,2778.00
1476.333,2812.00
1477.219,2455.00
1478.105,2622.00
1478.991,2571.00
1479.877,2929.00
1480.762,2657.00
1481.648,2538.00
1482.534,2768.00
1483.419,2694.00
1484.307,2782.00
1485.192,2662.00
1486.077,2464.00
1486.962,2512.00
1487.847,2384.00
1488.732,2493.00
1489.617,2625.00
1490.502,2897.00
1491.387,2748.00
1492.271,2496.00
1493.156,2479.00
1494.042,2475.00
1494.927,2830.00
1495.811,2513.00
1496.695,2781.00
1497.579,2927.00
1498.463,2626.00
1499.347,2685.00
1500.231,2650.00
1501.114,2706.00
1501.998,2875.00
1502.881,2684.00
1503.765,2939.00
1504.648,3036.00
1505.533,2773.00
1506.417,2662.00
1507.300,2585.00
1508.183,2706.00
1509.066,2141.00
1509.948,2902.00
1510.831,2984.00
1511.714,2431.00
1512.596,2772.00
1513.479,2863.00
1514.361,2864.00
1515.243,2668.00
1516.125,2799.00
1517.008,2885.00
1517.890,2606.00
1518.771,2697.00
1519.655,2865.00
1520.537,2599.00
1521.419,2495.00
1522.300,2684.00
1523.182,2778.00
1524.063,2815.00
1524.944,2959.00
1525.825,2814.00
1526.707,2452.00
1527.588,2421.00
1528.468,2747.00
1529.349,2334.00
1530.230,2540.00
1531.111,2801.00
1531.991,2699.00
1532.872,2339.00
1533.752,2597.00
1534.632,2488.00
1535.513,2475.00
1536.393,2774.00
1537.273,2939.00
1538.153,3287.00
1539.032,2392.00
1539.912,2610.00
1540.792,2689.00
1541.672,2642.00
1542.551,2746.00
1543.430,3261.00
1544.310,2677.00
1545.189,2555.00
1546.068,3069.00
1546.947,2801.00
1547.826,2974.00
1548.705,2662.00
1549.584,2851.00
1550.462,2606.00
1551.341,2795.00
1552.219,2700.00
1553.098,2792.00
1553.976,2843.00
1554.854,3072.00
1555.733,2822.00
1556.611,2596.00
1557.489,2468.00
1558.367,2667.00
1559.244,2808.00
1560.122,2620.00
1561.000,2716.00
1561.877,2953.00
1562.755,2530.00
1563.632,2629.00
1564.509,2916.00
1565.386,3028.00
1566.264,2403.00
1567.141,2264.00
1568.017,2786.00
1568.894,2633.00
1569.771,2693.00
1570.648,2803.00
1571.524,2661.00
1572.401,2400.00
1573.277,2407.00
1574.153,2690.00
1575.029,2531.00
1575.906,3367.00
1576.781,2813.00
1577.657,2590.00
1578.533,2884.00
1579.409,2302.00
1580.285,2646.00
1581.160,3063.00
1582.036,2781.00
1582.911,2481.00
1583.786,2949.00
1584.662,2500.00
1585.537,2627.00
1586.412,2710.00
1587.287,2491.00
1588.160,2823.00
1589.035,2333.00
1589.909,2666.00
1590.784,2625.00
1591.658,2483.00
1592.533,2698.00
1593.407,2687.00
1594.281,2532.00
1595.155,3046.00
1596.029,2578.00
1596.903,2572.00
1597.777,2578.00
1598.651,2912.00
1599.525,2345.00
1600.398,2665.00
1601.272,2621.00
1602.144,3192.00
1603.017,2601.00
1603.890,2903.00
1604.763,2738.00
1605.636,2803.00
1606.509,2344.00
1607.382,2506.00
1608.255,2674.00
1609.128,2848.00
1610.000,2650.00
1610.873,2380.00
1611.746,2561.00
1612.616,2584.00
1613.488,2244.00
1614.361,2676.00
1615.233,2600.00
1616.105,2839.00
1616.977,2545.00
1617.849,2497.00
1618.720,2960.00
1619.592,2932.00
1620.464,2750.00
1621.333,3106.00
1622.205,2654.00
1623.076,2656.00
1623.947,2657.00
1624.818,2872.00
1625.689,2764.00
1626.560,2588.00
1627.431,2712.00
1628.302,3047.00
1629.171,2789.00
1630.042,2989.00
1630.912,3316.00
1631.782,3236.00
1632.653,2470.00
1633.523,2818.00
1634.393,2855.00
1635.263,2521.00
1636.131,2617.00
1637.001,2592.00
1637.871,2297.00
1638.741,2295.00
1639.611,2410.00
1640.480,2770.00
1641.350,2556.00
1642.219,2503.00
1643.087,2171.00
1643.956,3061.00
1644.825,2932.00
1645.694,2873.00
1646.563,2818.00
1647.432,2699.00
1648.299,2686.00
1649.167,2801.00
1650.036,2451.00
1650.904,2768.00
1651.773,2851.00
1652.641,2708.00
1653.509,2831.00
1654.376,2534.00
1655.244,2713.00
1656.112,2695.00
1656.980,2668.00
1657.847,2563.00
1658.715,2824.00
1659.581,2570.00
1660.448,2919.00
1661.316,2185.00
1662.183,2651.00
1663.051,2740.00
1663.918,2689.00
1664.783,2655.00
1665.650,2746.00
1666.517,2822.00
1667.384,2673.00
1668.251,2671.00
1669.115,2874.00
1669.982,2640.00
1670.849,2949.00
1671.715,2634.00
1672.581,2791.00
1673.446,2777.00
1674.312,2705.00
1675.178,3035.00
1676.044,2752.00
1676.910,2743.00
1677.774,2695.00
1678.639,2311.00
1679.505,2663.00
1680.370,2784.00
1681.236,3322.00
1682.099,2599.00
1682.965,2650.00
1683.830,2294.00
1684.695,2492.00
1685.560,2608.00
1686.423,2790.00
1687.288,2841.00
1688.153,2725.00
1689.017,2600.00
1689.880,2733.00
1690.745,2820.00
1691.609,2515.00
1692.473,2827.00
1693.338,2857.00
1694.200,2923.00
1695.064,2673.00
1695.928,2563.00
1696.792,2695.00
1697.654,3162.00
1698.517,2691.00
1699.381,2447.00
1700.245,2318.00
1701.106,2955.00
1701.969,2552.00
1702.833,2807.00
1703.696,2603.00
1704.557,2645.00
1705.420,2574.00
1706.283,2688.00
1707.146,2790.00
1708.007,2455.00
1708.870,2474.00
1709.732,2348.00
1710.595,2556.00
1711.455,2440.00
1712.318,2555.00
1713.180,2944.00
1714.040,2716.00
1714.902,2853.00
1715.764,2644.00
1716.626,2454.00
1717.486,2597.00
1718.348,2924.00
1719.209,4015.00
1720.071,2297.00
1720.930,2424.00
1721.792,2478.00
1722.653,2493.00
1723.512,2535.00
1724.374,2630.00
1725.234,2785.00
1726.095,2669.00
1726.954,2679.00
1727.815,2802.00
1728.676,2664.00
1729.535,2855.00
1730.395,2647.00
1731.256,2583.00
1732.114,2732.00
1732.974,2168.00
1733.834,3031.00
1734.693,2859.00
1735.553,2691.00
1736.413,3109.00
1737.272,2572.00
1738.130,2562.00
1738.990,2767.00
1739.849,2551.00
1740.707,3634.00
1741.566,2701.00
1742.426,2696.00
1743.283,3063.00
1744.142,2543.00
1745.001,2344.00
1745.858,2870.00
1746.717,2737.00
1747.576,2734.00
1748.433,2834.00
1749.292,3220.00
1750.150,3285.00
1751.007,2850.00
1751.865,2876.00
1752.723,2681.00
1753.579,2565.00
1754.438,2875.00
1755.296,2869.00
1756.152,2277.00
1757.010,2379.00
1757.865,2867.00
1758.723,2326.00
1759.581,3018.00
1760.436,2619.00
1761.294,3006.00
1762.151,2659.00
1763.006,2589.00
1763.864,2329.00
1764.721,2851.00
1765.576,2721.00
1766.433,2822.00
1767.288,2570.00
1768.144,2727.00
1769.001,2627.00
1769.856,2759.00
1770.712,2896.00
1771.568,2445.00
1772.423,2570.00
1773.279,2607.00
1774.133,2571.00
1774.989,3032.00
1775.845,3047.00
1776.699,2897.00
1777.555,2626.00
1778.409,3195.00
1779.265,2657.00
1780.120,2635.00
1780.974,2670.00
1781.829,2305.00
1782.682,2734.00
1783.538,2458.00
1784.393,2723.00
1785.246,2560.00
1786.101,2734.00
1786.954,2785.00
1787.808,2885.00
1788.661,2419.00
1789.516,2585.00
1790.370,2641.00
1791.223,2855.00
1792.077,2702.00
1792.930,2739.00
1793.784,2582.00
1794.636,2702.00
1795.490,2595.00
1796.344,2701.00
1797.196,2678.00
1798.049,2849.00
1798.901,2564.00
1799.755,2882.00
1800.606,2491.00
1801.460,3192.00
1802.311,2991.00
1803.165,3081.00
1804.018,2989.00
1804.869,2770.00
1805.722,3129.00
1806.573,2746.00
1807.426,2499.00
1808.276,2663.00
1809.129,2580.00
1809.980,2899.00
1810.832,2981.00
1811.683,2586.00
1812.535,3015.00
1813.385,2576.00
1814.237,2962.00
1815.089,2674.00
1815.940,2937.00
1816.791,2622.00
1817.641,2524.00
1818.493,2824.00
1819.343,2748.00
1820.194,2571.00
1821.044,2765.00
1821.895,2844.00
1822.745,2388.00
1823.596,2617.00
1824.445,3114.00
1825.296,2754.00
1826.145,2640.00
1826.996,2856.00
1827.845,2727.00
1828.695,2688.00
1829.544,2652.00
1830.395,2684.00
1831.243,2576.00
1832.094,2422.00
1832.942,3281.00
1833.792,2836.00
1834.640,2749.00
1835.490,2684.00
1836.338,2777.00
1837.186,2575.00
1838.036,2529.00
1838.884,2694.00
1839.733,3016.00
1840.581,2890.00
1841.430,2810.00
1842.278,2990.00
1843.127,2569.00
1843.974,2389.00
1844.823,3112.00
1845.671,2820.00
1846.519,2680.00
1847.366,2775.00
1848.213,2315.00
1849.062,2496.00
1849.909,2436.00
1850.757,3288.00
1851.604,2763.00
1852.452,2595.00
1853.298,2869.00
1854.146,2729.00
1854.993,2732.00
1855.839,3167.00
1856.687,2814.00
1857.532,2786.00
1858.380,2695.00
1859.226,2708.00
1860.073,2803.00
1860.919,2532.00
1861.765,2597.00
1862.612,2922.00
1863.457,2877.00
1864.304,2643.00
1865.150,2804.00
1865.995,2642.00
1866.842,2776.00
1867.686,2939.00
1868.533,2790.00
1869.378,2736.00
1870.223,2704.00
1871.069,2589.00
1871.914,2731.00
1872.760,2668.00
1873.604,2501.00
1874.448,2809.00
1875.294,2890.00
1876.139,2610.00
1876.984,2817.00
1877.828,2343.00
1878.672,2243.00
1879.518,2589.00
1880.361,2856.00
1881.205,2835.00
1882.050,2514.00
1882.894,3174.00
1883.739,2574.00
1884.582,2476.00
1885.425,2510.00
1886.270,2921.00
1887.113,2469.00
1887.956,2817.00
1888.801,2737.00
1889.644,2512.00
1890.486,2310.00
1891.331,2630.00
1892.173,2702.00
1893.017,2762.00
1893.860,2949.00
1894.702,2992.00
1895.546,2704.00
1896.388,3392.00
1897.230,3025.00
1898.074,2594.00
1898.916,2504.00
1899.757,2549.00
1900.601,3332.00
1901.443,2983.00
1902.284,2985.00
1903.125,3121.00
1903.969,2886.00
1904.810,2904.00
1905.651,2742.00
1906.494,3003.00
1907.335,3154.00
1908.176,2832.00
1909.018,2769.00
1909.859,2632.00
1910.700,2547.00
1911.542,3224.00
1912.383,2761.00
1913.223,2330.00
1914.064,2789.00
1914.906,2951.00
1915.746,3041.00
1916.586,3182.00
1917.428,2700.00
1918.268,2747.00
1919.107,2567.00
1919.947,2475.00
1920.789,2585.00
1921.628,2948.00
1922.468,2679.00
1923.309,2539.00
1924.148,3030.00
1924.988,2782.00
1925.827,2720.00
1926.667,2595.00
1927.507,2734.00
1928.345,2553.00
1929.184,2836.00
1930.025,2516.00
1930.864,2990.00
1931.702,3024.00
1932.541,2575.00
1933.381,2832.00
1934.219,2849.00
1935.057,2993.00
1935.896,2392.00
1936.735,2695.00
1937.573,2624.00
1938.411,2519.00
1939.249,2839.00
1940.089,2580.00
1940.927,2955.00
1941.764,2957.00
1942.602,2635.00
1943.439,2603.00
1944.278,2677.00
1945.115,2626.00
1945.953,2450.00
1946.790,2750.00
1947.628,3062.00
1948.465,2815.00
1949.302,2836.00
1950.139,2853.00
1950.976,2572.00
1951.814,2837.00
1952.651,2818.00
1953.487,2536.00
1954.323,2922.00
1955.160,2676.00
1955.998,3078.00
1956.834,2673.00
1957.670,2780.00
1958.506,2913.00
1959.342,2845.00
1960.177,2756.00
1961.015,2870.00
1961.850,2753.00
1962.686,2726.00
1963.521,2758.00
1964.357,2929.00
1965.192,2512.00
1966.029,2855.00
1966.864,2604.00
1967.699,2913.00
1968.534,2786.00
1969.369,2956.00
1970.204,2682.00
1971.040,2720.00
1971.875,2659.00
1972.709,2744.00
1973.544,2577.00
1974.378,2604.00
1975.212,2785.00
1976.047,2602.00
1976.882,2601.00
1977.716,3131.00
1978.550,2373.00
1979.384,2667.00
1980.218,2685.00
1981.052,2634.00
1981.885,2730.00
1982.719,2715.00
1983.554,2819.00
1984.388,2991.00
1985.221,2769.00
1986.054,2932.00
1986.887,2751.00
1987.720,2570.00
1988.553,2990.00
1989.386,2810.00
1990.219,2809.00
1991.053,3011.00
1991.886,2601.00
1992.719,2881.00
1993.551,2216.00
1994.383,2867.00
1995.216,2634.00
1996.048,2462.00
1996.880,2882.00
1997.712,2608.00
1998.544,2738.00
1999.376,2728.00
2000.208,2968.00
