RamanScope Measure Spectrum Data V3.72

<< MEASURE CONDITION >>
Exposure Type,Aver
Exposure Time [sec],15
Exposure Count,30
Measure Time,2023/07/14 20:55:37
Data Name,""
Data Comment,""
Rayleigh Wave[nm],532.0

<< SAMPLE SPECTRUM >>
Wave[dcm-1],No102
146.591,620.73
147.626,715.67
148.664,868.80
149.699,1052.23
150.737,1188.43
151.772,1369.93
152.809,1498.33
153.846,1663.00
154.881,1843.03
155.918,1950.20
156.953,2056.80
157.989,2170.60
159.026,2297.30
160.060,2362.67
161.096,2410.33
162.130,2438.33
163.167,2493.27
164.200,2549.43
165.236,2549.80
166.272,2658.60
167.305,2654.13
168.341,2711.80
169.374,2775.50
170.409,2841.33
171.445,2875.90
172.477,2927.30
173.512,2956.27
174.545,2960.57
175.580,3043.80
176.614,3055.57
177.647,3081.77
178.681,3058.87
179.713,3035.17
180.747,3041.87
181.781,3041.60
182.813,2968.83
183.847,2958.47
184.878,2981.90
185.912,2985.57
186.945,2997.27
187.976,3022.90
189.010,3002.23
190.043,3030.17
191.073,3083.90
192.106,3067.63
193.137,3128.17
194.170,3095.50
195.202,3151.27
196.232,3217.57
197.265,3186.73
198.297,3266.50
199.327,3291.97
200.359,3372.43
201.388,3415.50
202.420,3452.60
203.452,3492.13
204.481,3582.23
205.512,3697.77
206.544,3756.13
207.573,3829.77
208.604,3908.67
209.635,4124.20
210.663,4278.20
211.694,4486.10
212.725,4667.53
213.753,4909.90
214.783,5184.07
215.813,5415.37
216.841,5647.07
217.871,5847.90
218.899,6084.27
219.929,6188.23
220.959,6246.83
221.986,6297.77
223.016,6183.03
224.045,5999.20
225.072,5867.20
226.101,5582.47
227.130,5358.10
228.157,5088.27
229.185,4863.73
230.214,4666.27
231.241,4519.90
232.269,4370.00
233.297,4245.83
234.323,4172.70
235.351,4090.47
236.379,4048.57
237.407,4011.33
238.433,3969.40
239.460,3938.27
240.488,3940.60
241.513,3961.03
242.540,3910.00
243.568,3913.23
244.592,4008.90
245.619,4031.83
246.646,4069.73
247.671,4103.60
248.697,4084.27
249.724,4081.07
250.748,4046.80
251.774,4016.40
252.801,3996.23
253.827,3960.53
254.850,4005.20
255.876,3977.03
256.902,4037.37
257.925,4022.00
258.951,4000.87
259.976,4080.60
260.999,4153.60
262.024,4182.37
263.049,4211.07
264.074,4256.47
265.097,4308.70
266.122,4405.93
267.146,4441.17
268.168,4532.97
269.193,4613.83
270.217,4732.00
271.241,4790.53
272.263,4881.77
273.287,4999.60
274.311,5089.20
275.332,5215.03
276.356,5317.93
277.379,5369.47
278.402,5412.73
279.424,5480.00
280.447,5472.53
281.470,5489.90
282.492,5520.37
283.513,5505.40
284.536,5435.43
285.558,5382.97
286.581,5278.73
287.601,5194.53
288.623,5110.77
289.645,4963.87
290.665,4900.57
291.687,4765.17
292.709,4680.43
293.730,4608.33
294.750,4459.00
295.771,4389.03
296.792,4258.60
297.813,4207.03
298.832,4076.83
299.853,3994.73
300.874,3921.80
301.895,3841.63
302.913,3760.40
303.934,3707.87
304.954,3595.97
305.975,4103.80
306.993,3472.97
308.013,3441.40
309.033,3396.00
310.052,3327.87
311.072,3261.83
312.090,3217.00
313.109,3228.13
314.129,3193.40
315.148,3106.13
316.165,3139.03
317.184,3071.63
318.203,3085.70
319.222,3021.30
320.238,3021.70
321.257,2962.80
322.275,2963.83
323.294,2999.07
324.312,2941.90
325.328,2897.77
326.346,2878.27
327.364,2903.27
328.382,2892.90
329.397,2863.40
330.415,2857.43
331.432,2844.57
332.450,2791.10
333.467,2823.90
334.482,2815.03
335.499,2803.30
336.516,2766.60
337.533,2816.17
338.547,2794.90
339.564,2807.00
340.580,2781.23
341.597,2745.00
342.613,2749.83
343.627,2795.67
344.643,2763.97
345.659,2756.93
346.675,2765.67
347.690,2745.00
348.704,2785.80
349.719,2785.97
350.735,2721.23
351.750,2688.80
352.765,2754.37
353.778,2727.40
354.793,2741.13
355.808,2767.27
356.822,2770.90
357.837,2775.23
358.851,2772.03
359.864,2808.60
360.878,2773.93
361.892,2793.03
362.906,2749.23
363.920,2795.90
364.932,2787.37
365.945,2818.93
366.959,2776.77
367.972,2812.00
368.986,2886.80
369.999,2870.00
371.010,2903.87
372.023,2922.33
373.036,2860.67
374.049,2957.73
375.061,2992.77
376.072,2940.57
377.084,3024.00
378.097,3034.07
379.109,3056.30
380.121,3072.73
381.133,3083.80
382.143,3092.87
383.155,3109.23
384.166,3083.50
385.178,3152.07
386.189,3190.10
387.201,3185.20
388.212,3125.70
389.221,3165.53
390.232,3221.97
391.243,3157.83
392.254,3176.77
393.264,3199.30
394.275,3194.57
395.283,3174.37
396.294,3169.17
397.304,3133.30
398.314,3143.90
399.324,3121.90
400.334,3095.00
401.344,3086.07
402.351,2967.30
403.361,2967.93
404.370,2976.03
405.380,2969.70
406.389,2970.47
407.398,2889.77
408.407,2860.80
409.414,2322.97
410.423,2809.17
411.431,2863.57
412.440,2788.50
413.448,2737.87
414.457,2778.03
415.465,2738.73
416.471,2717.57
417.479,2682.07
418.487,2694.77
419.495,2645.87
420.503,2641.30
421.510,2640.13
422.518,2634.30
423.525,2601.33
424.530,2571.77
425.537,2599.83
426.544,2588.73
427.551,2606.20
428.558,2525.30
429.565,2584.57
430.571,2556.77
431.578,2562.70
432.582,2563.53
433.588,2553.37
434.595,2516.13
435.601,2477.90
436.607,2519.67
437.612,2509.70
438.618,2505.17
439.624,2538.23
440.627,2493.77
441.633,2537.40
442.638,2510.90
443.643,2496.33
444.648,2546.73
445.653,2525.67
446.658,2473.73
447.663,2508.17
448.667,2515.87
449.672,2500.63
450.674,2515.67
451.678,2532.00
452.682,2510.43
453.687,2521.03
454.690,2519.50
455.694,2519.67
456.698,2498.67
457.702,2566.63
458.705,2557.83
459.709,2551.07
460.710,2567.73
461.713,2557.23
462.716,2571.97
463.719,2608.17
464.722,2573.40
465.725,2581.13
466.727,2585.57
467.730,2623.97
468.732,2628.60
469.735,2602.37
470.737,2603.37
471.737,2640.53
472.739,2639.73
473.741,2647.43
474.742,2637.03
475.744,2640.87
476.746,2644.10
477.747,2642.67
478.748,2655.50
479.750,2670.60
480.751,2620.60
481.752,2694.10
482.753,2648.03
483.751,2557.70
484.752,2687.17
485.753,2632.37
486.753,2592.60
487.753,2666.13
488.754,2639.53
489.754,2599.00
490.754,2600.87
491.754,2624.43
492.754,2629.17
493.753,2654.40
494.753,2668.33
495.752,2610.00
496.752,2622.33
497.749,2620.27
498.748,2591.23
499.747,2591.37
500.746,2612.20
501.745,2634.40
502.744,2581.90
503.742,2562.37
504.741,2600.33
505.739,2567.70
506.737,2608.80
507.735,2576.23
508.734,2577.93
509.732,2547.70
510.729,2569.53
511.727,2510.13
512.725,2544.70
513.720,2534.13
514.718,2539.73
515.715,2514.63
516.712,2511.10
517.709,2481.43
518.706,2485.63
519.703,2529.10
520.700,2529.03
521.696,2486.97
522.693,2512.83
523.689,2511.93
524.686,2467.53
525.682,2543.77
526.678,2552.93
527.674,2506.83
528.670,2507.87
529.666,2551.13
530.661,2558.27
531.657,2532.07
532.652,2574.70
533.648,2570.27
534.641,2557.77
535.636,2546.23
536.631,2604.00
537.626,2557.80
538.621,2589.23
539.616,2573.53
540.610,2644.30
541.605,2627.27
542.599,2575.03
543.593,2582.20
544.587,2611.37
545.581,2609.53
546.575,2613.23
547.569,2577.33
548.563,2639.60
549.557,2603.17
550.550,2618.77
551.543,2646.80
552.537,2597.73
553.530,2663.43
554.523,2626.00
555.516,2643.40
556.509,2641.10
557.502,2645.10
558.494,2661.20
559.487,2646.53
560.479,2697.47
561.472,2685.73
562.464,2682.40
563.456,2682.17
564.448,2659.27
565.440,2689.23
566.432,2704.70
567.423,2667.23
568.415,2722.37
569.404,2768.87
570.396,2724.70
571.387,2743.20
572.378,2736.53
573.369,2754.03
574.360,2789.70
575.351,2798.70
576.341,2807.83
577.332,2823.57
578.323,2809.07
579.313,2853.23
580.303,2858.30
581.293,2847.43
582.283,2870.07
583.273,2921.77
584.263,2859.90
585.253,2858.93
586.243,2871.70
587.232,2908.43
588.222,2906.43
589.211,2853.77
590.200,2892.33
591.189,2921.20
592.178,2905.87
593.167,2884.10
594.156,2906.67
595.145,2883.37
596.133,2854.10
597.122,2878.67
598.110,2885.27
599.098,2887.07
600.086,2854.23
601.074,2877.23
602.062,2877.97
603.050,2848.83
604.038,2826.67
605.025,2839.20
606.013,2829.80
607.000,2817.67
607.987,2799.97
608.975,2839.97
609.962,2793.73
610.949,2819.47
611.936,2781.60
612.922,2779.90
613.909,2797.17
614.895,2750.47
615.882,2756.30
616.868,2731.83
617.854,2738.50
618.841,2730.97
619.826,2702.67
620.812,2692.33
621.798,2685.37
622.784,2626.07
623.769,2670.67
624.755,2614.53
625.740,2560.90
626.725,2594.50
627.711,2542.17
628.698,2586.50
629.683,2597.10
630.667,2511.43
631.652,2491.23
632.637,2467.80
633.621,2478.67
634.606,2477.70
635.590,2435.40
636.574,2403.20
637.558,2405.40
638.542,2382.10
639.526,2370.73
640.510,2349.90
641.493,2352.07
642.477,2357.90
643.460,2332.07
644.444,2275.93
645.427,2324.37
646.410,2243.17
647.393,2262.20
648.376,2256.37
649.359,2275.17
650.341,2222.23
651.324,2218.73
652.307,2238.40
653.289,2194.07
654.271,2246.03
655.253,2187.90
656.235,2178.43
657.217,2144.23
658.199,2177.03
659.181,2154.87
660.163,2158.97
661.144,2082.43
662.126,2136.07
663.107,2134.40
664.088,2098.63
665.069,2121.63
666.050,2121.00
667.033,2074.40
668.014,2053.70
668.995,2082.53
669.975,2063.37
670.956,2061.13
671.936,2068.93
672.916,2025.47
673.896,2069.23
674.876,2061.83
675.856,2022.00
676.836,2057.10
677.816,2006.57
678.795,2007.50
679.775,1973.00
680.754,2008.80
681.734,1949.93
682.713,1944.90
683.692,1930.40
684.671,1926.63
685.650,1906.27
686.629,1916.27
687.607,1918.43
688.586,1854.23
689.564,1858.77
690.543,1857.50
691.523,1845.10
692.501,1826.47
693.479,1825.23
694.457,1799.00
695.435,1788.47
696.413,1810.17
697.390,1810.00
698.368,1774.97
699.345,1784.53
700.322,1780.60
701.300,1751.00
702.277,1767.50
703.254,1728.30
704.231,1777.73
705.207,1747.17
706.184,1720.03
707.161,1703.63
708.137,1718.50
709.113,1681.73
710.090,1710.37
711.068,1725.10
712.044,1721.10
713.020,1682.73
713.996,1683.87
714.971,1691.87
715.947,1615.37
716.922,1710.07
717.898,1658.03
718.873,1671.90
719.848,1636.80
720.823,1599.07
721.798,1678.10
722.773,1636.37
723.748,1651.67
724.723,1623.03
725.697,1628.90
726.672,1600.10
727.646,1622.07
728.622,1570.97
729.596,1570.20
730.570,1605.10
731.544,1611.20
732.518,1612.50
733.492,1569.50
734.466,1604.10
735.439,1607.67
736.413,1551.27
737.386,1562.57
738.359,1554.07
739.332,1551.27
740.305,1537.27
741.278,1587.00
742.251,1599.57
743.224,1526.57
744.196,1510.47
745.171,1569.57
746.143,1544.60
747.115,1586.70
748.087,1550.30
749.059,1530.37
750.031,1551.13
751.003,1488.80
751.975,1509.83
752.947,1556.70
753.918,1542.20
754.890,1531.33
755.861,1515.77
756.832,1546.70
757.803,1515.03
758.774,1529.67
759.747,1549.30
760.718,1521.90
761.689,1484.30
762.659,1497.37
763.630,1507.63
764.600,1470.37
765.570,1437.97
766.540,1479.67
767.510,1439.13
768.480,1476.23
769.450,1519.83
770.420,1435.40
771.390,1482.60
772.359,1466.20
773.329,1451.43
774.300,1454.93
775.269,1466.80
776.238,1478.00
777.207,1457.50
778.176,1455.73
779.145,1408.33
780.114,1439.67
781.083,1430.03
782.051,1425.50
783.019,1397.87
783.988,1407.00
784.956,1432.73
785.924,1406.23
786.894,1436.77
787.862,1433.90
788.830,1399.33
789.797,1407.87
790.765,1378.03
791.732,1418.47
792.700,1418.77
793.667,1399.67
794.634,1367.53
795.601,1396.90
796.568,1364.33
797.535,1336.90
798.502,1366.50
799.468,1352.47
800.437,1352.10
801.403,1378.40
802.370,1387.87
803.336,1298.90
804.302,1362.67
805.268,1364.50
806.234,1336.47
807.200,1338.47
808.166,1357.50
809.131,1342.80
810.097,1353.30
811.062,1329.93
812.027,1285.90
812.994,1343.43
813.960,1316.33
814.925,1339.40
815.889,1264.77
816.854,1287.83
817.819,1319.20
818.783,1342.17
819.748,1270.47
820.712,1310.00
821.677,1321.40
822.641,1322.77
823.605,1272.47
824.571,1285.23
825.534,1263.63
826.498,1278.27
827.462,1312.40
828.425,1304.30
829.389,1276.97
830.352,1294.33
831.315,1267.77
832.279,1249.67
833.242,1304.87
834.204,1276.47
835.167,1286.87
836.132,1253.63
837.095,1266.97
838.057,1275.73
839.020,1232.03
839.982,1257.60
840.944,1255.37
841.906,1270.57
842.868,1264.17
843.830,1218.57
844.792,1236.37
845.753,1239.50
846.715,1242.00
847.679,1220.37
848.640,1267.07
849.601,1247.37
850.562,1227.90
851.523,1254.00
852.484,1256.87
853.445,1239.67
854.406,1232.33
855.367,1246.03
856.327,1254.20
857.288,1202.27
858.248,1245.70
859.210,1219.73
860.170,1249.17
861.130,1224.60
862.090,1219.13
863.050,1229.07
864.010,1219.53
864.969,1236.50
865.929,1171.77
866.888,1199.57
867.848,1201.40
868.807,1192.80
869.766,1234.33
870.727,1181.00
871.686,1203.50
872.645,1173.27
873.604,1209.17
874.562,1184.73
875.521,1259.80
876.479,1188.63
877.437,1179.07
878.396,1198.93
879.354,1171.93
880.312,1181.27
881.270,1177.67
882.229,1191.50
883.187,1208.13
884.145,1210.17
885.102,1193.17
886.059,1190.20
887.017,1195.10
887.974,1172.97
888.931,1190.63
889.888,1191.67
890.845,1162.80
891.802,1152.17
892.758,1193.53
893.717,1191.00
894.673,1166.10
895.630,1191.10
896.586,1220.20
897.542,1189.33
898.498,1164.30
899.454,1210.13
900.410,1194.50
901.366,1182.57
902.321,1163.47
903.277,1197.97
904.232,1154.90
905.189,1157.27
906.145,1184.67
907.100,1183.77
908.055,1212.90
909.010,1158.23
909.965,1192.63
910.919,1176.87
911.874,1189.93
912.828,1195.07
913.783,1187.87
914.737,1198.67
915.693,1166.10
916.648,1164.87
917.602,1186.67
918.555,1191.47
919.509,1171.03
920.463,1207.93
921.417,1176.40
922.370,1173.07
923.324,1179.47
924.277,1181.83
925.230,1181.43
926.183,1190.00
927.138,1188.80
928.091,1156.40
929.044,1194.00
929.996,1189.13
930.949,1147.43
931.902,1204.43
932.854,1196.97
933.806,1210.27
934.758,1205.50
935.711,1191.17
936.663,1209.73
937.614,1172.10
938.568,1219.57
939.520,1164.37
940.471,1178.03
941.423,1208.03
942.374,1181.10
943.326,1250.67
944.277,1217.30
945.228,1225.50
946.179,1202.07
947.130,1199.57
948.080,1247.00
949.031,1255.57
949.984,1184.97
950.934,1206.07
951.884,1187.83
952.835,1195.03
953.785,1212.80
954.735,1199.73
955.685,1189.67
956.635,1178.30
957.585,1183.60
958.534,1220.30
959.484,1186.67
960.433,1187.80
961.383,1204.67
962.334,1166.10
963.283,1191.83
964.232,1215.57
965.181,1217.07
966.130,1226.07
967.079,1167.97
968.027,1188.43
968.976,1219.77
969.924,1203.03
970.873,1196.93
971.821,1172.90
972.769,1180.67
973.719,1235.70
974.667,1199.63
975.615,1210.90
976.562,1176.93
977.510,1218.83
978.458,1194.77
979.405,1227.53
980.352,1229.93
981.300,1185.23
982.247,1209.17
983.194,1200.40
984.141,1207.50
985.088,1224.70
986.036,1194.97
986.983,1225.33
987.930,1256.47
988.876,1211.97
989.822,1231.67
990.769,1224.77
991.715,1220.53
992.661,1206.70
993.607,1226.13
994.553,1196.80
995.498,1262.27
996.444,1213.93
997.389,1190.43
998.337,1213.57
999.282,1226.37
1000.227,1196.30
1001.173,1200.87
1002.118,1210.93
1003.062,1236.90
1004.007,1203.87
1004.952,1231.50
1005.897,1233.80
1006.841,1221.47
1007.786,1216.33
1008.730,1220.43
1009.674,1192.43
1010.618,1233.73
1011.564,1226.43
1012.508,1239.13
1013.452,1271.00
1014.396,1216.13
1015.339,1247.07
1016.283,1247.77
1017.226,1233.60
1018.170,1230.53
1019.113,1227.57
1020.056,1261.27
1020.999,1259.57
1021.942,1266.73
1022.885,1263.57
1023.828,1311.27
1024.770,1272.33
1025.715,1267.90
1026.657,1256.63
1027.600,1251.60
1028.542,1291.07
1029.484,1309.03
1030.426,1284.73
1031.368,1264.47
1032.310,1262.20
1033.251,1308.37
1034.193,1289.40
1035.135,1277.03
1036.076,1240.97
1037.017,1284.20
1037.959,1256.23
1038.900,1256.50
1039.843,1299.63
1040.784,1302.57
1041.725,1252.90
1042.665,1295.00
1043.606,1311.70
1044.547,1284.67
1045.487,1290.87
1046.427,1348.80
1047.368,1288.33
1048.308,1354.47
1049.248,1293.83
1050.188,1327.10
1051.128,1345.67
1052.067,1342.43
1053.007,1299.13
1053.947,1311.93
1054.886,1343.03
1055.827,1326.93
1056.766,1337.23
1057.706,1374.23
1058.645,1357.57
1059.584,1376.33
1060.522,1384.77
1061.461,1390.40
1062.400,1384.23
1063.338,1390.33
1064.277,1386.90
1065.215,1381.80
1066.154,1378.80
1067.092,1416.87
1068.030,1398.27
1068.968,1402.40
1069.906,1410.40
1070.843,1406.07
1071.781,1410.47
1072.720,1420.23
1073.658,1389.70
1074.595,1471.67
1075.533,1427.40
1076.470,1418.83
1077.407,1428.67
1078.344,1418.57
1079.281,1475.30
1080.217,1464.43
1081.154,1464.60
1082.091,1466.20
1083.027,1433.90
1083.964,1450.10
1084.900,1428.33
1085.836,1452.27
1086.772,1464.23
1087.708,1440.03
1088.644,1442.20
1089.580,1463.30
1090.515,1455.77
1091.451,1456.73
1092.388,1463.70
1093.324,1459.43
1094.259,1473.00
1095.194,1476.17
1096.129,1455.73
1097.064,1475.77
1097.999,1433.70
1098.934,1438.33
1099.869,1427.47
1100.803,1449.17
1101.738,1411.23
1102.672,1401.63
1103.607,1434.13
1104.541,1429.90
1105.475,1423.03
1106.409,1436.97
1107.343,1399.40
1108.277,1393.57
1109.210,1403.37
1110.144,1395.97
1111.078,1368.47
1112.011,1387.23
1112.944,1381.47
1113.878,1371.23
1114.811,1342.83
1115.744,1355.43
1116.678,1341.07
1117.611,1358.70
1118.544,1359.53
1119.477,1339.67
1120.409,1374.33
1121.342,1320.63
1122.274,1343.93
1123.206,981.73
1124.138,1331.47
1125.070,1295.10
1126.002,1291.97
1126.934,1308.87
1127.866,1344.93
1128.798,1297.13
1129.729,1310.97
1130.661,1309.27
1131.592,1303.10
1132.523,1308.40
1133.454,1264.63
1134.385,1263.63
1135.317,1283.03
1136.247,1228.97
1137.178,1271.20
1138.109,1274.87
1139.039,1264.47
1139.970,1287.87
1140.900,1244.17
1141.831,1260.60
1142.761,1244.53
1143.691,1169.37
1144.621,1227.70
1145.551,1216.20
1146.480,1243.17
1147.410,1201.37
1148.340,1228.17
1149.269,1231.20
1150.199,1204.43
1151.128,1216.83
1152.057,1219.33
1152.979,1184.87
1153.898,1216.37
1154.819,1195.90
1155.739,1178.80
1156.658,1211.20
1157.579,1187.60
1158.498,1243.57
1159.419,1204.10
1160.338,1186.33
1161.256,1224.90
1162.177,1217.23
1163.095,1205.47
1164.016,1172.60
1164.934,1160.83
1165.852,1195.67
1166.772,1188.70
1167.690,1219.40
1168.610,1187.67
1169.528,1190.13
1170.446,1208.57
1171.365,1189.57
1172.283,1202.93
1173.202,1187.47
1174.120,1210.60
1175.037,1169.40
1175.956,1202.27
1176.873,1156.83
1177.792,1176.77
1178.709,1189.13
1179.626,1169.97
1180.544,1164.03
1181.461,1189.30
1182.379,1123.60
1183.296,1200.83
1184.212,1181.93
1185.130,1157.37
1186.046,1171.10
1186.962,1186.07
1187.880,1189.73
1188.796,1170.70
1189.714,1154.03
1190.629,1156.07
1191.545,1208.90
1192.462,1151.57
1193.378,1176.83
1194.295,1175.40
1195.210,1194.90
1196.125,1177.97
1197.042,1183.40
1197.957,1180.83
1198.872,1158.50
1199.788,1175.83
1200.703,1191.73
1201.619,1174.63
1202.534,1198.20
1203.448,1154.90
1204.364,1176.27
1205.278,1179.20
1206.192,1184.27
1207.108,1193.67
1208.022,1174.83
1208.938,1165.97
1209.851,1192.40
1210.765,1200.43
1211.680,1183.60
1212.594,1176.37
1213.507,1175.97
1214.422,1233.43
1215.335,1212.93
1216.248,1168.00
1217.163,1189.43
1218.076,1205.50
1218.990,1232.43
1219.903,1228.57
1220.816,1203.20
1221.730,1195.60
1222.642,1191.80
1223.554,1237.93
1224.469,1235.23
1225.380,1209.80
1226.292,1193.17
1227.206,1196.57
1228.118,1159.20
1229.032,1246.23
1229.943,1230.50
1230.855,1240.30
1231.768,1235.27
1232.679,1232.83
1233.590,1221.07
1234.503,1269.80
1235.414,1241.87
1236.325,1248.63
1237.238,1242.17
1238.149,1253.33
1239.059,1267.97
1239.972,1241.80
1240.882,1266.03
1241.793,1227.60
1242.705,1276.57
1243.615,1243.97
1244.525,1258.33
1245.437,1287.37
1246.347,1255.57
1247.259,1283.10
1248.168,1261.57
1249.078,1286.00
1249.989,1258.07
1250.899,1283.43
1251.808,1294.23
1252.719,1258.23
1253.628,1288.00
1254.537,1298.03
1255.448,1311.13
1256.357,1246.33
1257.266,1312.63
1258.176,1328.93
1259.085,1289.03
1259.993,1279.47
1260.904,1295.13
1261.812,1318.00
1262.720,1287.27
1263.630,1295.57
1264.538,1328.40
1265.446,1287.57
1266.356,1338.93
1267.263,1314.80
1268.171,1295.87
1269.080,1337.43
1269.988,1331.17
1270.895,1326.10
1271.804,1325.03
1272.711,1329.90
1273.619,1348.27
1274.527,1323.53
1275.434,1309.67
1276.341,1343.40
1277.248,1314.10
1278.156,1282.27
1279.063,1307.53
1279.969,1302.33
1280.877,1353.40
1281.783,1329.37
1282.690,1299.93
1283.598,1311.00
1284.503,1300.10
1285.409,1300.13
1286.317,1303.30
1287.223,1273.57
1288.128,1288.63
1289.036,1317.23
1289.941,1304.83
1290.846,1325.77
1291.751,1319.87
1292.658,1307.00
1293.563,1308.33
1294.468,1268.03
1295.375,1306.17
1296.280,1298.47
1297.184,1245.63
1298.091,1273.17
1298.995,1304.67
1299.900,1276.33
1300.806,1267.43
1301.710,1277.13
1302.614,1277.80
1303.518,1244.37
1304.424,1282.90
1305.327,1252.47
1306.231,1237.83
1307.137,1233.20
1308.040,1253.13
1308.943,1241.20
1309.847,1216.57
1310.752,1199.17
1311.655,1197.03
1312.558,1196.80
1313.463,1217.93
1314.366,1177.37
1315.269,1182.40
1316.171,1177.60
1317.076,1180.13
1317.978,1200.30
1318.881,1164.20
1319.785,1147.37
1320.687,1163.80
1321.589,1135.53
1322.491,1149.90
1323.395,1148.83
1324.297,1166.13
1325.198,1096.57
1326.102,1150.40
1327.004,1120.37
1327.905,1114.63
1328.806,1105.90
1329.709,1103.97
1330.611,1105.97
1331.512,1097.23
1332.413,1126.87
1333.316,1087.73
1334.216,1058.73
1335.117,1098.60
1336.020,1045.87
1336.920,1065.43
1337.821,1075.27
1338.721,1073.13
1339.623,1071.03
1340.523,1054.77
1341.423,999.13
1342.323,1024.13
1343.225,1023.30
1344.125,1011.40
1345.025,1014.30
1345.924,1023.60
1346.826,1018.73
1347.725,1041.13
1348.624,1049.07
1349.524,1023.50
1350.425,984.97
1351.324,994.03
1352.223,960.07
1353.121,1015.87
1354.022,968.60
1354.921,1000.07
1355.819,1017.93
1356.718,1002.33
1357.618,978.40
1358.516,936.80
1359.415,949.57
1360.313,970.47
1361.213,947.67
1362.111,944.13
1363.008,940.90
1363.906,968.47
1364.806,922.40
1365.703,933.47
1366.601,977.47
1367.498,928.50
1368.397,950.47
1369.295,918.87
1370.192,911.70
1371.089,923.00
1371.987,917.70
1372.884,910.93
1373.781,922.97
1374.678,923.70
1375.574,920.33
1376.473,919.77
1377.369,918.23
1378.265,893.67
1379.161,919.17
1380.059,886.03
1380.955,872.53
1381.851,893.80
1382.747,861.10
1383.643,899.33
1384.540,862.20
1385.436,863.73
1386.331,872.33
1387.227,896.27
1388.124,848.80
1389.019,831.20
1389.914,833.03
1390.809,847.60
1391.704,884.13
1392.601,849.00
1393.495,830.53
1394.390,859.30
1395.285,872.07
1396.179,849.43
1397.075,868.20
1397.969,838.87
1398.864,862.27
1399.758,832.57
1400.652,857.80
1401.547,823.17
1402.441,828.13
1403.335,812.07
1404.229,842.63
1405.122,797.43
1406.017,822.93
1406.911,847.10
1407.804,820.03
1408.697,846.53
1409.590,800.30
1410.485,789.30
1411.378,790.53
1412.271,808.60
1413.163,817.63
1414.056,822.47
1414.949,781.40
1415.843,801.50
1416.735,798.70
1417.627,797.53
1418.520,824.13
1419.412,817.90
1420.306,796.80
1421.197,809.40
1422.089,804.53
1422.981,792.07
1423.873,812.97
1424.764,833.40
1425.657,787.20
1426.549,810.13
1427.440,791.97
1428.331,775.20
1429.222,760.17
1430.113,818.60
1431.006,794.00
1431.897,795.73
1432.787,747.97
1433.678,787.07
1434.568,778.33
1435.459,773.13
1436.351,757.73
1437.241,809.07
1438.131,752.37
1439.021,747.30
1439.911,762.20
1440.801,793.37
1441.693,786.73
1442.583,764.20
1443.472,777.10
1444.362,755.53
1445.251,751.60
1446.140,767.47
1447.030,747.33
1447.921,761.07
1448.810,732.07
1449.699,739.17
1450.588,751.40
1451.476,743.63
1452.365,762.37
1453.254,738.27
1454.144,758.30
1455.032,764.53
1455.921,764.00
1456.809,739.70
1457.697,736.80
1458.585,748.00
1459.473,744.70
1460.361,727.63
1461.251,736.83
1462.138,755.43
1463.026,724.67
1463.913,770.70
1464.801,686.03
1465.688,729.83
1466.575,749.10
1467.463,724.23
1468.351,706.90
1469.238,726.23
1470.125,693.70
1471.012,739.97
1471.899,748.47
1472.785,716.90
1473.672,738.60
1474.558,739.77
1475.446,698.63
1476.333,728.37
1477.219,727.03
1478.105,704.17
1478.991,707.67
1479.877,668.77
1480.762,694.90
1481.648,748.17
1482.534,725.53
1483.419,704.33
1484.307,692.07
1485.192,666.53
1486.077,705.17
1486.962,683.10
1487.847,692.97
1488.732,699.80
1489.617,671.33
1490.502,695.27
1491.387,691.63
1492.271,679.77
1493.156,703.37
1494.042,676.37
1494.927,688.53
1495.811,711.23
1496.695,716.27
1497.579,673.43
1498.463,702.27
1499.347,683.63
1500.231,684.93
1501.114,679.73
1501.998,698.53
1502.881,646.83
1503.765,666.90
1504.648,694.07
1505.533,669.50
1506.417,727.50
1507.300,652.47
1508.183,687.60
1509.066,657.60
1509.948,673.50
1510.831,639.07
1511.714,660.20
1512.596,662.03
1513.479,655.10
1514.361,702.83
1515.243,646.13
1516.125,648.87
1517.008,641.90
1517.890,666.83
1518.771,663.27
1519.655,660.80
1520.537,679.97
1521.419,657.50
1522.300,713.87
1523.182,633.97
1524.063,647.43
1524.944,613.77
1525.825,650.87
1526.707,672.30
1527.588,674.47
1528.468,651.90
1529.349,632.17
1530.230,670.13
1531.111,643.30
1531.991,629.47
1532.872,657.87
1533.752,649.10
1534.632,650.70
1535.513,668.23
1536.393,611.07
1537.273,663.50
1538.153,675.63
1539.032,652.70
1539.912,631.13
1540.792,623.70
1541.672,650.17
1542.551,619.43
1543.430,635.53
1544.310,661.23
1545.189,611.73
1546.068,655.57
1546.947,643.87
1547.826,630.47
1548.705,641.93
1549.584,621.33
1550.462,646.03
1551.341,653.97
1552.219,619.40
1553.098,630.40
1553.976,625.70
1554.854,627.13
1555.733,610.50
1556.611,624.60
1557.489,629.30
1558.367,616.30
1559.244,622.63
1560.122,637.13
1561.000,637.33
1561.877,599.57
1562.755,620.83
1563.632,654.70
1564.509,682.60
1565.386,630.17
1566.264,642.07
1567.141,625.27
1568.017,626.87
1568.894,620.93
1569.771,606.33
1570.648,611.53
1571.524,629.40
1572.401,637.77
1573.277,617.37
1574.153,621.87
1575.029,597.90
1575.906,638.33
1576.781,647.73
1577.657,590.47
1578.533,645.53
1579.409,625.97
1580.285,603.63
1581.160,593.63
1582.036,569.50
1582.911,587.23
1583.786,606.20
1584.662,576.93
1585.537,583.80
1586.412,590.87
1587.287,596.30
1588.160,611.07
1589.035,597.87
1589.909,592.03
1590.784,626.93
1591.658,610.40
1592.533,638.77
1593.407,573.80
1594.281,601.23
1595.155,603.87
1596.029,607.13
1596.903,584.93
1597.777,584.67
1598.651,573.60
1599.525,579.73
1600.398,618.53
1601.272,576.50
1602.144,580.10
1603.017,604.70
1603.890,600.87
1604.763,612.47
1605.636,580.63
1606.509,584.47
1607.382,572.33
1608.255,605.50
1609.128,559.63
1610.000,614.47
1610.873,597.83
1611.746,576.27
1612.616,605.67
1613.488,565.23
1614.361,587.30
1615.233,609.67
1616.105,583.00
1616.977,581.70
1617.849,569.27
1618.720,553.20
1619.592,607.70
1620.464,560.13
1621.333,601.00
1622.205,541.17
1623.076,580.10
1623.947,595.77
1624.818,599.87
1625.689,569.23
1626.560,564.83
1627.431,557.37
1628.302,540.03
1629.171,558.43
1630.042,593.27
1630.912,582.07
1631.782,581.57
1632.653,601.37
1633.523,566.53
1634.393,593.03
1635.263,562.07
1636.131,594.83
1637.001,602.57
1637.871,566.00
1638.741,579.87
1639.611,574.90
1640.480,617.60
1641.350,575.97
1642.219,580.70
1643.087,570.80
1643.956,606.73
1644.825,575.00
1645.694,554.83
1646.563,584.27
1647.432,550.17
1648.299,574.40
1649.167,606.37
1650.036,557.47
1650.904,579.30
1651.773,594.50
1652.641,567.80
1653.509,550.40
1654.376,559.20
1655.244,580.33
1656.112,551.63
1656.980,565.60
1657.847,548.10
1658.715,543.80
1659.581,527.73
1660.448,535.97
1661.316,564.43
1662.183,556.40
1663.051,532.60
1663.918,555.07
1664.783,567.87
1665.650,581.27
1666.517,540.07
1667.384,530.03
1668.251,556.00
1669.115,574.90
1669.982,587.17
1670.849,572.50
1671.715,518.77
1672.581,560.87
1673.446,557.80
1674.312,561.77
1675.178,565.33
1676.044,557.60
1676.910,529.50
1677.774,538.03
1678.639,558.40
1679.505,572.67
1680.370,550.17
1681.236,559.60
1682.099,526.50
1682.965,570.13
1683.830,560.20
1684.695,545.90
1685.560,521.87
1686.423,593.33
1687.288,566.23
1688.153,543.27
1689.017,551.70
1689.880,547.17
1690.745,550.63
1691.609,538.80
1692.473,497.00
1693.338,544.27
1694.200,542.40
1695.064,554.13
1695.928,548.70
1696.792,527.00
1697.654,510.47
1698.517,546.27
1699.381,538.90
1700.245,536.00
1701.106,546.47
1701.969,527.87
1702.833,540.53
1703.696,543.90
1704.557,544.47
1705.420,561.40
1706.283,542.87
1707.146,552.07
1708.007,562.67
1708.870,540.70
1709.732,533.87
1710.595,509.57
1711.455,504.60
1712.318,519.63
1713.180,520.30
1714.040,517.33
1714.902,517.77
1715.764,520.43
1716.626,523.07
1717.486,498.13
1718.348,524.10
1719.209,529.80
1720.071,550.27
1720.930,533.00
1721.792,552.07
1722.653,534.60
1723.512,540.20
1724.374,555.93
1725.234,536.37
1726.095,530.67
1726.954,535.20
1727.815,524.77
1728.676,535.80
1729.535,549.67
1730.395,540.13
1731.256,542.47
1732.114,521.23
1732.974,519.53
1733.834,552.63
1734.693,494.73
1735.553,524.60
1736.413,539.13
1737.272,542.23
1738.130,579.47
1738.990,484.13
1739.849,529.47
1740.707,540.07
1741.566,518.80
1742.426,521.33
1743.283,525.80
1744.142,509.53
1745.001,521.20
1745.858,532.13
1746.717,525.97
1747.576,536.80
1748.433,525.53
1749.292,515.80
1750.150,508.00
1751.007,555.33
1751.865,554.53
1752.723,536.67
1753.579,521.63
1754.438,529.40
1755.296,516.57
1756.152,502.90
1757.010,512.93
1757.865,515.37
1758.723,564.53
1759.581,501.73
1760.436,528.50
1761.294,524.13
1762.151,541.40
1763.006,551.70
1763.864,508.93
1764.721,546.40
1765.576,514.03
1766.433,513.27
1767.288,520.67
1768.144,535.87
1769.001,522.27
1769.856,506.20
1770.712,540.40
1771.568,507.47
1772.423,514.00
1773.279,508.67
1774.133,497.93
1774.989,513.57
1775.845,532.53
1776.699,552.03
1777.555,541.93
1778.409,538.27
1779.265,527.53
1780.120,506.53
1780.974,516.13
1781.829,478.83
1782.682,510.73
1783.538,539.67
1784.393,507.73
1785.246,495.27
1786.101,544.47
1786.954,503.83
1787.808,501.27
1788.661,506.00
1789.516,539.97
1790.370,509.53
1791.223,435.93
1792.077,533.23
1792.930,474.27
1793.784,529.80
1794.636,475.23
1795.490,542.73
1796.344,537.03
1797.196,496.37
1798.049,517.70
1798.901,477.17
1799.755,513.37
1800.606,491.83
1801.460,531.63
1802.311,515.83
1803.165,536.67
1804.018,512.10
1804.869,491.63
1805.722,491.87
1806.573,523.57
1807.426,519.50
1808.276,485.03
1809.129,467.23
1809.980,500.37
1810.832,506.13
1811.683,500.23
1812.535,513.10
1813.385,476.70
1814.237,478.23
1815.089,511.30
1815.940,507.53
1816.791,489.50
1817.641,488.87
1818.493,538.83
1819.343,490.20
1820.194,510.43
1821.044,480.60
1821.895,493.17
1822.745,488.07
1823.596,541.77
1824.445,483.37
1825.296,529.50
1826.145,510.60
1826.996,507.90
1827.845,502.60
1828.695,462.50
1829.544,527.73
1830.395,519.37
1831.243,513.67
1832.094,484.93
1832.942,491.33
1833.792,520.77
1834.640,524.43
1835.490,498.83
1836.338,492.60
1837.186,519.03
1838.036,517.13
1838.884,474.80
1839.733,461.87
1840.581,469.20
1841.430,493.83
1842.278,478.13
1843.127,467.50
1843.974,507.63
1844.823,465.70
1845.671,500.07
1846.519,477.67
1847.366,463.43
1848.213,485.57
1849.062,464.80
1849.909,478.87
1850.757,494.03
1851.604,498.97
1852.452,498.20
1853.298,491.43
1854.146,476.17
1854.993,454.90
1855.839,466.93
1856.687,484.07
1857.532,493.50
1858.380,493.17
1859.226,483.40
1860.073,539.97
1860.919,481.70
1861.765,472.33
1862.612,493.27
1863.457,471.70
1864.304,492.23
1865.150,525.90
1865.995,461.67
1866.842,466.37
1867.686,468.70
1868.533,456.77
1869.378,448.33
1870.223,501.10
1871.069,465.57
1871.914,486.90
1872.760,490.60
1873.604,480.70
1874.448,505.47
1875.294,496.77
1876.139,474.33
1876.984,493.93
1877.828,507.03
1878.672,470.97
1879.518,468.37
1880.361,461.23
1881.205,498.33
1882.050,505.33
1882.894,490.17
1883.739,487.60
1884.582,478.70
1885.425,455.87
1886.270,489.30
1887.113,442.97
1887.956,503.83
1888.801,482.33
1889.644,458.07
1890.486,465.03
1891.331,490.17
1892.173,481.57
1893.017,489.80
1893.860,474.30
1894.702,487.33
1895.546,499.40
1896.388,488.13
1897.230,528.40
1898.074,487.60
1898.916,476.30
1899.757,532.03
1900.601,447.37
1901.443,465.40
1902.284,459.83
1903.125,500.23
1903.969,491.17
1904.810,486.10
1905.651,454.27
1906.494,465.57
1907.335,479.93
1908.176,492.90
1909.018,411.87
1909.859,453.87
1910.700,440.90
1911.542,495.63
1912.383,476.23
1913.223,475.07
1914.064,496.43
1914.906,447.87
1915.746,460.13
1916.586,496.63
1917.428,481.53
1918.268,466.93
1919.107,447.83
1919.947,480.10
1920.789,489.37
1921.628,474.20
1922.468,480.83
1923.309,505.93
1924.148,484.70
1924.988,482.73
1925.827,473.03
1926.667,483.77
1927.507,474.43
1928.345,481.90
1929.184,438.60
1930.025,472.17
1930.864,474.43
1931.702,462.23
1932.541,463.27
1933.381,463.40
1934.219,471.37
1935.057,455.50
1935.896,518.00
1936.735,471.43
1937.573,450.80
1938.411,477.33
1939.249,474.97
1940.089,478.77
1940.927,435.17
1941.764,458.33
1942.602,463.97
1943.439,495.73
1944.278,416.13
1945.115,434.07
1945.953,482.07
1946.790,467.37
1947.628,478.70
1948.465,433.83
1949.302,456.67
1950.139,474.63
1950.976,426.33
1951.814,484.83
1952.651,496.00
1953.487,471.60
1954.323,453.50
1955.160,452.30
1955.998,444.03
1956.834,475.43
1957.670,446.67
1958.506,458.63
1959.342,433.77
1960.177,487.83
1961.015,447.20
1961.850,463.73
1962.686,502.37
1963.521,476.63
1964.357,447.27
1965.192,497.17
1966.029,417.50
1966.864,439.00
1967.699,478.60
1968.534,472.27
1969.369,455.83
1970.204,459.80
1971.040,469.30
1971.875,442.77
1972.709,473.03
1973.544,457.83
1974.378,448.50
1975.212,432.27
1976.047,464.73
1976.882,433.93
1977.716,536.10
1978.550,456.40
1979.384,482.37
1980.218,457.47
1981.052,453.63
1981.885,434.63
1982.719,449.93
1983.554,487.07
1984.388,487.67
1985.221,416.93
1986.054,437.50
1986.887,398.17
1987.720,481.93
1988.553,465.50
1989.386,433.50
1990.219,475.30
1991.053,459.23
1991.886,454.73
1992.719,445.13
1993.551,459.13
1994.383,463.23
1995.216,472.63
1996.048,448.00
1996.880,457.63
1997.712,448.50
1998.544,430.17
1999.376,452.70
2000.208,448.67
2001.040,444.90
2001.873,458.87
2002.705,470.70
2003.536,440.37
2004.367,454.67
2005.199,458.23
2006.030,446.97
2006.861,500.17
2007.692,476.13
2008.523,469.30
2009.354,474.73
2010.185,455.70
2011.016,434.87
2011.846,483.77
2012.677,461.83
2013.507,444.47
2014.338,466.03
2015.168,424.20
2015.999,447.50
2016.829,467.17
2017.659,458.30
2018.489,469.40
2019.319,459.40
2020.149,481.60
2020.980,485.67
2021.810,456.70
2022.639,448.80
2023.469,438.23
2024.298,428.87
2025.128,467.60
2025.957,464.80
2026.786,453.83
2027.615,470.83
2028.444,458.47
2029.273,433.53
2030.102,443.17
2030.931,476.37
2031.758,471.07
2032.586,492.20
2033.415,463.60
2034.243,453.93
2035.072,474.30
2035.900,481.00
2036.728,460.23
2037.556,476.67
2038.385,459.77
2039.213,482.23
2040.040,490.27
2040.868,432.23
2041.696,467.17
2042.524,486.83
2043.351,475.43
2044.179,458.13
2045.006,445.30
2045.006,445.30

Max Intensity Wave.,221.986
Max Intensity Data,6297.77
Min Intensity Wave.,1986.887
Min Intensity Data,398.17
FWHM Wave.,391.001
FWHM Value,20.82
Pressure Wave.,684.671
Pressure Value [GPa],-24.91530
G/D Ratio,0.53276
G/D Gband Wave.,1564.375
G/D Gband Intensity,683.54
G/D Dband Wave.,1304.476
G/D Dband Intensity,1283.01

<< BACKGROUND SPECTRUM >>
Wave[dcm-1],No102
146.591,2241.00
147.626,2127.00
148.664,2073.00
149.699,2522.00
150.737,2281.00
151.772,2390.00
152.809,2418.00
153.846,2326.00
154.881,2388.00
155.918,1975.00
156.953,2296.00
157.989,2613.00
159.026,2425.00
160.060,2617.00
161.096,2838.00
162.130,2500.00
163.167,2554.00
164.200,2439.00
165.236,2666.00
166.272,2633.00
167.305,2272.00
168.341,2528.00
169.374,2762.00
170.409,2752.00
171.445,2707.00
172.477,2504.00
173.512,2388.00
174.545,2721.00
175.580,2861.00
176.614,3022.00
177.647,2788.00
178.681,3028.00
179.713,3355.00
180.747,2811.00
181.781,2700.00
182.813,3012.00
183.847,3105.00
184.878,2726.00
185.912,2970.00
186.945,3128.00
187.976,3037.00
189.010,2719.00
190.043,2856.00
191.073,2892.00
192.106,2713.00
193.137,3147.00
194.170,2575.00
195.202,2916.00
196.232,2652.00
197.265,3011.00
198.297,3055.00
199.327,2791.00
200.359,2913.00
201.388,3325.00
202.420,2886.00
203.452,3110.00
204.481,2686.00
205.512,3286.00
206.544,3082.00
207.573,3061.00
208.604,3433.00
209.635,3520.00
210.663,2980.00
211.694,2956.00
212.725,2823.00
213.753,2778.00
214.783,3340.00
215.813,3232.00
216.841,2993.00
217.871,3158.00
218.899,2868.00
219.929,3169.00
220.959,2929.00
221.986,3127.00
223.016,2757.00
224.045,3153.00
225.072,3083.00
226.101,3207.00
227.130,3223.00
228.157,2830.00
229.185,2338.00
230.214,3214.00
231.241,2831.00
232.269,2463.00
233.297,2700.00
234.323,3237.00
235.351,2824.00
236.379,3091.00
237.407,2746.00
238.433,2912.00
239.460,3110.00
240.488,3117.00
241.513,3187.00
242.540,3136.00
243.568,3244.00
244.592,3204.00
245.619,3194.00
246.646,2938.00
247.671,2924.00
248.697,2804.00
249.724,3004.00
250.748,3012.00
251.774,3012.00
252.801,3296.00
253.827,3125.00
254.850,3045.00
255.876,2689.00
256.902,3101.00
257.925,2977.00
258.951,2762.00
259.976,2771.00
260.999,3070.00
262.024,2786.00
263.049,3642.00
264.074,3093.00
265.097,3019.00
266.122,3060.00
267.146,3049.00
268.168,3196.00
269.193,2839.00
270.217,3186.00
271.241,2709.00
272.263,2910.00
273.287,3161.00
274.311,2774.00
275.332,3249.00
276.356,2818.00
277.379,3101.00
278.402,3138.00
279.424,2920.00
280.447,2919.00
281.470,2732.00
282.492,3074.00
283.513,2881.00
284.536,3149.00
285.558,3110.00
286.581,3120.00
287.601,2844.00
288.623,2771.00
289.645,3070.00
290.665,3088.00
291.687,3132.00
292.709,3112.00
293.730,3355.00
294.750,2884.00
295.771,2721.00
296.792,3069.00
297.813,2893.00
298.832,3047.00
299.853,2720.00
300.874,2971.00
301.895,2942.00
302.913,2974.00
303.934,3234.00
304.954,3029.00
305.975,3150.00
306.993,2749.00
308.013,3104.00
309.033,3000.00
310.052,2931.00
311.072,2897.00
312.090,3087.00
313.109,3268.00
314.129,3385.00
315.148,3042.00
316.165,3031.00
317.184,3242.00
318.203,2733.00
319.222,2763.00
320.238,3117.00
321.257,2831.00
322.275,2685.00
323.294,2939.00
324.312,3139.00
325.328,3274.00
326.346,3299.00
327.364,3214.00
328.382,3159.00
329.397,3142.00
330.415,3224.00
331.432,3218.00
332.450,3296.00
333.467,3459.00
334.482,2589.00
335.499,3364.00
336.516,2901.00
337.533,2557.00
338.547,2839.00
339.564,2819.00
340.580,3084.00
341.597,2983.00
342.613,3466.00
343.627,2954.00
344.643,3015.00
345.659,3108.00
346.675,2966.00
347.690,2901.00
348.704,3056.00
349.719,2846.00
350.735,2776.00
351.750,3232.00
352.765,2971.00
353.778,2992.00
354.793,3157.00
355.808,2808.00
356.822,3141.00
357.837,2618.00
358.851,3228.00
359.864,2935.00
360.878,2757.00
361.892,2938.00
362.906,3189.00
363.920,2597.00
364.932,3114.00
365.945,3086.00
366.959,3033.00
367.972,2947.00
368.986,2659.00
369.999,3381.00
371.010,2828.00
372.023,3322.00
373.036,3003.00
374.049,3363.00
375.061,3063.00
376.072,3028.00
377.084,2848.00
378.097,2679.00
379.109,3171.00
380.121,2994.00
381.133,2676.00
382.143,3145.00
383.155,2719.00
384.166,2943.00
385.178,3101.00
386.189,3173.00
387.201,2710.00
388.212,2955.00
389.221,2943.00
390.232,2983.00
391.243,2962.00
392.254,3045.00
393.264,2823.00
394.275,3194.00
395.283,3179.00
396.294,3608.00
397.304,3479.00
398.314,3095.00
399.324,3008.00
400.334,2655.00
401.344,3128.00
402.351,2735.00
403.361,3227.00
404.370,2956.00
405.380,2906.00
406.389,3312.00
407.398,3150.00
408.407,3098.00
409.414,3736.00
410.423,3324.00
411.431,2716.00
412.440,2673.00
413.448,3348.00
414.457,2828.00
415.465,2789.00
416.471,2861.00
417.479,3014.00
418.487,2781.00
419.495,3300.00
420.503,3110.00
421.510,2610.00
422.518,3136.00
423.525,3194.00
424.530,3409.00
425.537,2880.00
426.544,3225.00
427.551,2821.00
428.558,3616.00
429.565,3394.00
430.571,2868.00
431.578,2879.00
432.582,2867.00
433.588,2925.00
434.595,2616.00
435.601,3344.00
436.607,3250.00
437.612,2782.00
438.618,3327.00
439.624,2909.00
440.627,2948.00
441.633,3097.00
442.638,3600.00
443.643,3118.00
444.648,2974.00
445.653,3165.00
446.658,2923.00
447.663,3025.00
448.667,2864.00
449.672,2909.00
450.674,2974.00
451.678,2706.00
452.682,2891.00
453.687,2849.00
454.690,3607.00
455.694,3284.00
456.698,2597.00
457.702,2651.00
458.705,2786.00
459.709,2806.00
460.710,2848.00
461.713,3039.00
462.716,3059.00
463.719,2976.00
464.722,3185.00
465.725,2948.00
466.727,2842.00
467.730,3026.00
468.732,2753.00
469.735,3283.00
470.737,2904.00
471.737,2865.00
472.739,2877.00
473.741,2815.00
474.742,3043.00
475.744,3076.00
476.746,3018.00
477.747,2939.00
478.748,3142.00
479.750,2894.00
480.751,3008.00
481.752,3672.00
482.753,3086.00
483.751,3641.00
484.752,2585.00
485.753,2977.00
486.753,2897.00
487.753,2977.00
488.754,3422.00
489.754,2743.00
490.754,3334.00
491.754,3123.00
492.754,2698.00
493.753,3000.00
494.753,2891.00
495.752,3337.00
496.752,3038.00
497.749,2981.00
498.748,2885.00
499.747,3418.00
500.746,3082.00
501.745,2716.00
502.744,2766.00
503.742,3343.00
504.741,2921.00
505.739,2489.00
506.737,2852.00
507.735,3132.00
508.734,3343.00
509.732,3146.00
510.729,3314.00
511.727,2901.00
512.725,2900.00
513.720,2755.00
514.718,3245.00
515.715,2689.00
516.712,2635.00
517.709,3008.00
518.706,2902.00
519.703,3023.00
520.700,3162.00
521.696,3355.00
522.693,2897.00
523.689,2840.00
524.686,3198.00
525.682,2780.00
526.678,3431.00
527.674,2915.00
528.670,2596.00
529.666,3477.00
530.661,3445.00
531.657,3647.00
532.652,3126.00
533.648,2985.00
534.641,3218.00
535.636,3079.00
536.631,3071.00
537.626,3169.00
538.621,2731.00
539.616,2613.00
540.610,2479.00
541.605,2983.00
542.599,3082.00
543.593,3010.00
544.587,3907.00
545.581,2859.00
546.575,3054.00
547.569,3073.00
548.563,2656.00
549.557,2659.00
550.550,2786.00
551.543,2728.00
552.537,3183.00
553.530,2745.00
554.523,2774.00
555.516,3109.00
556.509,2961.00
557.502,2639.00
558.494,3163.00
559.487,2920.00
560.479,3143.00
561.472,3223.00
562.464,3138.00
563.456,3283.00
564.448,2969.00
565.440,2998.00
566.432,3375.00
567.423,2932.00
568.415,2883.00
569.404,3067.00
570.396,2820.00
571.387,3126.00
572.378,3053.00
573.369,3955.00
574.360,3654.00
575.351,2952.00
576.341,2832.00
577.332,2870.00
578.323,2694.00
579.313,2857.00
580.303,3228.00
581.293,3140.00
582.283,2985.00
583.273,3060.00
584.263,3007.00
585.253,3117.00
586.243,3176.00
587.232,2638.00
588.222,2945.00
589.211,3206.00
590.200,3059.00
591.189,2929.00
592.178,2953.00
593.167,3419.00
594.156,3237.00
595.145,2902.00
596.133,3470.00
597.122,3107.00
598.110,3210.00
599.098,3043.00
600.086,2992.00
601.074,3145.00
602.062,2818.00
603.050,2757.00
604.038,3127.00
605.025,2789.00
606.013,3174.00
607.000,3389.00
607.987,3050.00
608.975,3030.00
609.962,2767.00
610.949,3109.00
611.936,3263.00
612.922,3177.00
613.909,2696.00
614.895,3379.00
615.882,2823.00
616.868,3010.00
617.854,2751.00
618.841,3013.00
619.826,3099.00
620.812,2966.00
621.798,2773.00
622.784,3202.00
623.769,3062.00
624.755,2726.00
625.740,3092.00
626.725,2707.00
627.711,2888.00
628.698,3056.00
629.683,2761.00
630.667,3177.00
631.652,2762.00
632.637,2972.00
633.621,3164.00
634.606,2918.00
635.590,3126.00
636.574,2960.00
637.558,3068.00
638.542,3049.00
639.526,2860.00
640.510,2632.00
641.493,3048.00
642.477,2960.00
643.460,2694.00
644.444,3284.00
645.427,3257.00
646.410,2712.00
647.393,2977.00
648.376,3076.00
649.359,2889.00
650.341,3098.00
651.324,3104.00
652.307,3022.00
653.289,2949.00
654.271,2838.00
655.253,2912.00
656.235,3128.00
657.217,3257.00
658.199,2631.00
659.181,2757.00
660.163,2996.00
661.144,2940.00
662.126,2874.00
663.107,2782.00
664.088,4707.00
665.069,3225.00
666.050,2813.00
667.033,2736.00
668.014,3056.00
668.995,2590.00
669.975,3006.00
670.956,3015.00
671.936,3132.00
672.916,2985.00
673.896,3081.00
674.876,2889.00
675.856,2874.00
676.836,2708.00
677.816,2311.00
678.795,2799.00
679.775,2699.00
680.754,2996.00
681.734,3177.00
682.713,3167.00
683.692,2778.00
684.671,2638.00
685.650,2776.00
686.629,2863.00
687.607,2719.00
688.586,2792.00
689.564,2865.00
690.543,3253.00
691.523,2403.00
692.501,2846.00
693.479,2944.00
694.457,2818.00
695.435,2882.00
696.413,2671.00
697.390,2504.00
698.368,2696.00
699.345,3073.00
700.322,2929.00
701.300,3087.00
702.277,3037.00
703.254,3285.00
704.231,2527.00
705.207,2938.00
706.184,2791.00
707.161,2691.00
708.137,2843.00
709.113,2826.00
710.090,2796.00
711.068,2563.00
712.044,2590.00
713.020,2891.00
713.996,2605.00
714.971,2784.00
715.947,2879.00
716.922,2784.00
717.898,2743.00
718.873,2874.00
719.848,2729.00
720.823,2735.00
721.798,2945.00
722.773,2750.00
723.748,2509.00
724.723,2999.00
725.697,2834.00
726.672,2763.00
727.646,2509.00
728.622,3022.00
729.596,2642.00
730.570,2733.00
731.544,3054.00
732.518,3246.00
733.492,2836.00
734.466,2841.00
735.439,2970.00
736.413,3109.00
737.386,2461.00
738.359,2448.00
739.332,2558.00
740.305,2865.00
741.278,3283.00
742.251,2874.00
743.224,2752.00
744.196,2589.00
745.171,3106.00
746.143,3022.00
747.115,2720.00
748.087,2716.00
749.059,3102.00
750.031,2873.00
751.003,3720.00
751.975,3264.00
752.947,2680.00
753.918,3069.00
754.890,2570.00
755.861,2773.00
756.832,3004.00
757.803,2841.00
758.774,2823.00
759.747,2577.00
760.718,3175.00
761.689,2741.00
762.659,2586.00
763.630,3122.00
764.600,2575.00
765.570,3098.00
766.540,3115.00
767.510,2960.00
768.480,3024.00
769.450,2674.00
770.420,2841.00
771.390,2639.00
772.359,2753.00
773.329,2668.00
774.300,2517.00
775.269,2750.00
776.238,2975.00
777.207,3146.00
778.176,2496.00
779.145,2822.00
780.114,2692.00
781.083,2567.00
782.051,2748.00
783.019,2708.00
783.988,3089.00
784.956,2836.00
785.924,2990.00
786.894,2868.00
787.862,2685.00
788.830,3146.00
789.797,2617.00
790.765,2617.00
791.732,2757.00
792.700,2626.00
793.667,2576.00
794.634,2783.00
795.601,2738.00
796.568,2802.00
797.535,2876.00
798.502,3444.00
799.468,2923.00
800.437,2432.00
801.403,2653.00
802.370,3260.00
803.336,3029.00
804.302,2858.00
805.268,2456.00
806.234,2574.00
807.200,2741.00
808.166,2758.00
809.131,2561.00
810.097,2960.00
811.062,3645.00
812.027,3047.00
812.994,2581.00
813.960,2611.00
814.925,2921.00
815.889,2567.00
816.854,3050.00
817.819,2646.00
818.783,2687.00
819.748,3115.00
820.712,2723.00
821.677,2596.00
822.641,2684.00
823.605,2727.00
824.571,3139.00
825.534,2762.00
826.498,2676.00
827.462,2781.00
828.425,2603.00
829.389,3051.00
830.352,2792.00
831.315,2913.00
832.279,2534.00
833.242,2734.00
834.204,2654.00
835.167,2632.00
836.132,3074.00
837.095,2524.00
838.057,2680.00
839.020,2848.00
839.982,2836.00
840.944,2641.00
841.906,2617.00
842.868,2952.00
843.830,2577.00
844.792,3057.00
845.753,2687.00
846.715,2442.00
847.679,2621.00
848.640,2595.00
849.601,2727.00
850.562,3246.00
851.523,2693.00
852.484,2459.00
853.445,2986.00
854.406,2706.00
855.367,2705.00
856.327,3019.00
857.288,2515.00
858.248,2668.00
859.210,2692.00
860.170,2506.00
861.130,3011.00
862.090,2419.00
863.050,2589.00
864.010,2672.00
864.969,2877.00
865.929,2623.00
866.888,2527.00
867.848,2835.00
868.807,2665.00
869.766,2835.00
870.727,2730.00
871.686,2983.00
872.645,3019.00
873.604,3270.00
874.562,2790.00
875.521,2737.00
876.479,3358.00
877.437,2603.00
878.396,2564.00
879.354,3196.00
880.312,2615.00
881.270,2684.00
882.229,3099.00
883.187,2592.00
884.145,2657.00
885.102,2919.00
886.059,2832.00
887.017,2875.00
887.974,2952.00
888.931,3054.00
889.888,2503.00
890.845,2452.00
891.802,2378.00
892.758,2617.00
893.717,2436.00
894.673,2567.00
895.630,2613.00
896.586,2856.00
897.542,2666.00
898.498,2544.00
899.454,2802.00
900.410,2671.00
901.366,2664.00
902.321,3757.00
903.277,2660.00
904.232,2764.00
905.189,2506.00
906.145,2640.00
907.100,2211.00
908.055,2692.00
909.010,2936.00
909.965,2324.00
910.919,2808.00
911.874,2559.00
912.828,2761.00
913.783,2764.00
914.737,2332.00
915.693,2772.00
916.648,2906.00
917.602,2939.00
918.555,2780.00
919.509,2848.00
920.463,2736.00
921.417,2777.00
922.370,2571.00
923.324,2693.00
924.277,2681.00
925.230,2768.00
926.183,2403.00
927.138,2690.00
928.091,2983.00
929.044,2818.00
929.996,2657.00
930.949,2695.00
931.902,2833.00
932.854,2842.00
933.806,2584.00
934.758,2958.00
935.711,2998.00
936.663,2778.00
937.614,2821.00
938.568,2721.00
939.520,2429.00
940.471,2732.00
941.423,2773.00
942.374,2914.00
943.326,2707.00
944.277,2590.00
945.228,2804.00
946.179,2695.00
947.130,3048.00
948.080,2618.00
949.031,2520.00
949.984,2688.00
950.934,2699.00
951.884,2484.00
952.835,2705.00
953.785,2737.00
954.735,2612.00
955.685,2371.00
956.635,2640.00
957.585,2643.00
958.534,2618.00
959.484,2749.00
960.433,2610.00
961.383,2452.00
962.334,2983.00
963.283,2776.00
964.232,2835.00
965.181,2697.00
966.130,2757.00
967.079,2643.00
968.027,2732.00
968.976,2698.00
969.924,2611.00
970.873,2811.00
971.821,2751.00
972.769,2940.00
973.719,2808.00
974.667,2479.00
975.615,2711.00
976.562,2750.00
977.510,2413.00
978.458,2620.00
979.405,2810.00
980.352,2738.00
981.300,2988.00
982.247,2795.00
983.194,2548.00
984.141,2625.00
985.088,2704.00
986.036,2776.00
986.983,2990.00
987.930,3080.00
988.876,2374.00
989.822,2932.00
990.769,2544.00
991.715,2601.00
992.661,2445.00
993.607,2780.00
994.553,3289.00
995.498,2545.00
996.444,2295.00
997.389,2806.00
998.337,2545.00
999.282,2859.00
1000.227,2691.00
1001.173,2715.00
1002.118,2456.00
1003.062,2890.00
1004.007,2690.00
1004.952,2979.00
1005.897,2930.00
1006.841,2709.00
1007.786,2469.00
1008.730,2445.00
1009.674,3198.00
1010.618,2656.00
1011.564,2510.00
1012.508,2403.00
1013.452,2899.00
1014.396,2741.00
1015.339,2605.00
1016.283,2689.00
1017.226,2762.00
1018.170,2711.00
1019.113,2915.00
1020.056,2718.00
1020.999,2718.00
1021.942,2597.00
1022.885,2846.00
1023.828,2950.00
1024.770,2501.00
1025.715,2749.00
1026.657,2699.00
1027.600,2772.00
1028.542,2893.00
1029.484,2706.00
1030.426,2818.00
1031.368,2799.00
1032.310,2596.00
1033.251,2511.00
1034.193,2692.00
1035.135,2497.00
1036.076,2667.00
1037.017,2540.00
1037.959,2867.00
1038.900,2817.00
1039.843,2790.00
1040.784,2742.00
1041.725,2845.00
1042.665,2642.00
1043.606,2751.00
1044.547,2780.00
1045.487,2388.00
1046.427,2634.00
1047.368,2809.00
1048.308,2214.00
1049.248,2552.00
1050.188,2693.00
1051.128,2597.00
1052.067,2654.00
1053.007,2452.00
1053.947,2420.00
1054.886,2574.00
1055.827,2511.00
1056.766,2972.00
1057.706,2441.00
1058.645,2661.00
1059.584,2724.00
1060.522,2958.00
1061.461,2429.00
1062.400,2462.00
1063.338,2631.00
1064.277,2508.00
1065.215,2524.00
1066.154,2414.00
1067.092,2564.00
1068.030,2631.00
1068.968,2861.00
1069.906,3005.00
1070.843,2961.00
1071.781,2744.00
1072.720,2798.00
1073.658,2847.00
1074.595,2558.00
1075.533,2559.00
1076.470,2600.00
1077.407,2977.00
1078.344,2782.00
1079.281,2764.00
1080.217,2290.00
1081.154,2644.00
1082.091,2710.00
1083.027,2461.00
1083.964,2905.00
1084.900,2588.00
1085.836,2604.00
1086.772,2861.00
1087.708,2463.00
1088.644,2827.00
1089.580,2672.00
1090.515,2744.00
1091.451,2611.00
1092.388,2698.00
1093.324,2434.00
1094.259,3221.00
1095.194,2725.00
1096.129,2603.00
1097.064,2541.00
1097.999,2824.00
1098.934,2531.00
1099.869,2546.00
1100.803,2706.00
1101.738,2734.00
1102.672,2413.00
1103.607,2795.00
1104.541,2541.00
1105.475,2536.00
1106.409,2409.00
1107.343,2607.00
1108.277,2443.00
1109.210,2698.00
1110.144,2661.00
1111.078,2683.00
1112.011,2466.00
1112.944,2754.00
1113.878,2720.00
1114.811,2214.00
1115.744,2595.00
1116.678,2345.00
1117.611,2576.00
1118.544,2601.00
1119.477,2765.00
1120.409,2514.00
1121.342,3146.00
1122.274,2737.00
1123.206,4239.00
1124.138,2659.00
1125.070,3008.00
1126.002,2861.00
1126.934,2287.00
1127.866,2534.00
1128.798,2338.00
1129.729,2349.00
1130.661,2622.00
1131.592,2554.00
1132.523,2708.00
1133.454,2776.00
1134.385,2298.00
1135.317,2633.00
1136.247,2617.00
1137.178,2853.00
1138.109,2372.00
1139.039,2993.00
1139.970,2807.00
1140.900,2579.00
1141.831,2335.00
1142.761,2241.00
1143.691,3254.00
1144.621,2654.00
1145.551,2715.00
1146.480,2690.00
1147.410,2878.00
1148.340,2312.00
1149.269,2376.00
1150.199,2602.00
1151.128,3041.00
1152.057,2437.00
1152.979,2608.00
1153.898,2616.00
1154.819,2740.00
1155.739,2655.00
1156.658,2555.00
1157.579,2693.00
1158.498,2597.00
1159.419,2181.00
1160.338,2687.00
1161.256,2662.00
1162.177,2467.00
1163.095,2607.00
1164.016,2726.00
1164.934,2923.00
1165.852,2821.00
1166.772,2623.00
1167.690,2610.00
1168.610,2693.00
1169.528,2646.00
1170.446,2175.00
1171.365,2534.00
1172.283,2489.00
1173.202,2614.00
1174.120,2628.00
1175.037,2491.00
1175.956,2437.00
1176.873,2507.00
1177.792,2512.00
1178.709,3085.00
1179.626,2539.00
1180.544,2858.00
1181.461,2487.00
1182.379,2769.00
1183.296,2590.00
1184.212,2258.00
1185.130,2485.00
1186.046,2958.00
1186.962,2615.00
1187.880,2885.00
1188.796,2676.00
1189.714,2455.00
1190.629,2772.00
1191.545,2650.00
1192.462,2582.00
1193.378,2580.00
1194.295,2331.00
1195.210,2640.00
1196.125,2769.00
1197.042,2688.00
1197.957,2624.00
1198.872,2515.00
1199.788,2524.00
1200.703,2943.00
1201.619,2641.00
1202.534,2480.00
1203.448,2730.00
1204.364,2581.00
1205.278,2294.00
1206.192,2675.00
1207.108,3112.00
1208.022,2992.00
1208.938,2498.00
1209.851,2764.00
1210.765,2834.00
1211.680,2541.00
1212.594,2424.00
1213.507,2593.00
1214.422,2976.00
1215.335,2725.00
1216.248,2590.00
1217.163,2656.00
1218.076,3218.00
1218.990,2712.00
1219.903,2395.00
1220.816,2457.00
1221.730,2604.00
1222.642,2516.00
1223.554,2521.00
1224.469,2686.00
1225.380,2579.00
1226.292,2312.00
1227.206,2780.00
1228.118,3002.00
1229.032,2256.00
1229.943,2503.00
1230.855,2561.00
1231.768,2369.00
1232.679,2712.00
1233.590,2616.00
1234.503,2803.00
1235.414,2479.00
1236.325,2506.00
1237.238,2696.00
1238.149,2713.00
1239.059,2431.00
1239.972,2815.00
1240.882,2420.00
1241.793,2780.00
1242.705,2975.00
1243.615,2598.00
1244.525,2715.00
1245.437,2184.00
1246.347,2676.00
1247.259,2782.00
1248.168,3072.00
1249.078,2859.00
1249.989,2925.00
1250.899,2429.00
1251.808,2492.00
1252.719,2593.00
1253.628,2503.00
1254.537,3002.00
1255.448,2434.00
1256.357,2496.00
1257.266,2610.00
1258.176,2326.00
1259.085,2357.00
1259.993,2469.00
1260.904,2476.00
1261.812,2441.00
1262.720,3221.00
1263.630,2815.00
1264.538,2450.00
1265.446,2757.00
1266.356,2578.00
1267.263,2902.00
1268.171,2442.00
1269.080,2681.00
1269.988,2795.00
1270.895,2545.00
1271.804,2585.00
1272.711,2789.00
1273.619,2763.00
1274.527,2438.00
1275.434,2747.00
1276.341,2419.00
1277.248,2667.00
1278.156,2946.00
1279.063,2500.00
1279.969,2750.00
1280.877,3483.00
1281.783,2810.00
1282.690,2716.00
1283.598,2596.00
1284.503,2504.00
1285.409,2466.00
1286.317,2984.00
1287.223,3053.00
1288.128,2692.00
1289.036,2505.00
1289.941,2556.00
1290.846,2597.00
1291.751,2439.00
1292.658,2524.00
1293.563,3047.00
1294.468,2665.00
1295.375,2758.00
1296.280,2855.00
1297.184,3360.00
1298.091,2718.00
1298.995,2747.00
1299.900,2992.00
1300.806,2527.00
1301.710,2352.00
1302.614,2193.00
1303.518,2887.00
1304.424,2529.00
1305.327,2810.00
1306.231,2616.00
1307.137,2778.00
1308.040,2675.00
1308.943,2643.00
1309.847,2840.00
1310.752,2824.00
1311.655,2305.00
1312.558,2427.00
1313.463,2554.00
1314.366,2533.00
1315.269,2676.00
1316.171,2614.00
1317.076,2507.00
1317.978,2405.00
1318.881,2250.00
1319.785,2500.00
1320.687,2492.00
1321.589,2250.00
1322.491,2455.00
1323.395,2704.00
1324.297,3157.00
1325.198,2789.00
1326.102,2416.00
1327.004,2459.00
1327.905,3032.00
1328.806,2607.00
1329.709,2698.00
1330.611,2560.00
1331.512,2463.00
1332.413,3041.00
1333.316,2687.00
1334.216,2833.00
1335.117,2369.00
1336.020,2698.00
1336.920,2651.00
1337.821,2478.00
1338.721,2875.00
1339.623,2671.00
1340.523,2600.00
1341.423,2546.00
1342.323,2912.00
1343.225,2727.00
1344.125,2491.00
1345.025,2524.00
1345.924,2300.00
1346.826,2981.00
1347.725,3010.00
1348.624,2819.00
1349.524,2493.00
1350.425,2617.00
1351.324,2731.00
1352.223,2840.00
1353.121,2586.00
1354.022,2831.00
1354.921,3006.00
1355.819,2718.00
1356.718,2653.00
1357.618,2380.00
1358.516,2779.00
1359.415,3045.00
1360.313,2725.00
1361.213,2595.00
1362.111,2929.00
1363.008,3262.00
1363.906,2582.00
1364.806,2666.00
1365.703,2730.00
1366.601,2418.00
1367.498,2473.00
1368.397,2801.00
1369.295,2692.00
1370.192,2476.00
1371.089,2717.00
1371.987,2618.00
1372.884,2894.00
1373.781,2417.00
1374.678,2625.00
1375.574,2459.00
1376.473,2741.00
1377.369,2836.00
1378.265,2478.00
1379.161,2567.00
1380.059,2335.00
1380.955,2770.00
1381.851,2401.00
1382.747,2541.00
1383.643,2554.00
1384.540,2427.00
1385.436,2532.00
1386.331,2695.00
1387.227,2754.00
1388.124,2761.00
1389.019,2466.00
1389.914,2644.00
1390.809,2299.00
1391.704,3021.00
1392.601,2547.00
1393.495,2933.00
1394.390,2780.00
1395.285,2850.00
1396.179,2707.00
1397.075,2578.00
1397.969,2690.00
1398.864,2309.00
1399.758,2589.00
1400.652,2631.00
1401.547,2473.00
1402.441,2413.00
1403.335,3002.00
1404.229,2767.00
1405.122,2743.00
1406.017,2619.00
1406.911,2755.00
1407.804,3036.00
1408.697,2599.00
1409.590,2474.00
1410.485,2814.00
1411.378,2722.00
1412.271,2349.00
1413.163,2682.00
1414.056,2768.00
1414.949,3025.00
1415.843,2676.00
1416.735,2591.00
1417.627,2656.00
1418.520,2576.00
1419.412,2838.00
1420.306,2789.00
1421.197,2898.00
1422.089,2832.00
1422.981,3097.00
1423.873,2784.00
1424.764,2694.00
1425.657,2668.00
1426.549,2744.00
1427.440,2834.00
1428.331,2556.00
1429.222,2348.00
1430.113,2653.00
1431.006,2804.00
1431.897,2529.00
1432.787,2688.00
1433.678,2565.00
1434.568,2455.00
1435.459,2861.00
1436.351,2826.00
1437.241,2741.00
1438.131,2806.00
1439.021,2418.00
1439.911,2598.00
1440.801,2673.00
1441.693,2843.00
1442.583,2664.00
1443.472,2628.00
1444.362,2748.00
1445.251,2594.00
1446.140,2555.00
1447.030,2853.00
1447.921,2825.00
1448.810,2484.00
1449.699,3000.00
1450.588,2674.00
1451.476,2555.00
1452.365,2742.00
1453.254,2565.00
1454.144,2509.00
1455.032,2753.00
1455.921,2359.00
1456.809,2933.00
1457.697,2447.00
1458.585,2574.00
1459.473,2575.00
1460.361,2482.00
1461.251,2707.00
1462.138,2702.00
1463.026,2624.00
1463.913,2835.00
1464.801,2601.00
1465.688,2739.00
1466.575,2656.00
1467.463,3088.00
1468.351,2523.00
1469.238,2614.00
1470.125,2282.00
1471.012,2676.00
1471.899,2701.00
1472.785,2467.00
1473.672,2616.00
1474.558,2832.00
1475.446,2801.00
1476.333,2786.00
1477.219,2442.00
1478.105,2629.00
1478.991,2600.00
1479.877,2978.00
1480.762,2652.00
1481.648,2472.00
1482.534,2759.00
1483.419,2716.00
1484.307,2781.00
1485.192,2652.00
1486.077,2496.00
1486.962,2535.00
1487.847,2400.00
1488.732,2487.00
1489.617,2676.00
1490.502,2908.00
1491.387,2786.00
1492.271,2497.00
1493.156,2487.00
1494.042,2472.00
1494.927,2853.00
1495.811,2516.00
1496.695,2775.00
1497.579,2947.00
1498.463,2629.00
1499.347,2698.00
1500.231,2665.00
1501.114,2722.00
1501.998,2895.00
1502.881,2722.00
1503.765,2953.00
1504.648,3031.00
1505.533,2777.00
1506.417,2615.00
1507.300,2632.00
1508.183,2706.00
1509.066,2155.00
1509.948,2871.00
1510.831,3030.00
1511.714,2448.00
1512.596,2800.00
1513.479,2907.00
1514.361,2822.00
1515.243,2680.00
1516.125,2832.00
1517.008,2940.00
1517.890,2611.00
1518.771,2684.00
1519.655,2864.00
1520.537,2573.00
1521.419,2493.00
1522.300,2646.00
1523.182,2816.00
1524.063,2789.00
1524.944,2991.00
1525.825,2850.00
1526.707,2465.00
1527.588,2433.00
1528.468,2746.00
1529.349,2350.00
1530.230,2556.00
1531.111,2826.00
1531.991,2722.00
1532.872,2361.00
1533.752,2621.00
1534.632,2517.00
1535.513,2489.00
1536.393,2844.00
1537.273,2958.00
1538.153,3222.00
1539.032,2387.00
1539.912,2646.00
1540.792,2681.00
1541.672,2664.00
1542.551,2788.00
1543.430,3247.00
1544.310,2661.00
1545.189,2587.00
1546.068,3061.00
1546.947,2753.00
1547.826,2970.00
1548.705,2647.00
1549.584,2895.00
1550.462,2599.00
1551.341,2798.00
1552.219,2740.00
1553.098,2794.00
1553.976,2867.00
1554.854,3062.00
1555.733,2884.00
1556.611,2589.00
1557.489,2476.00
1558.367,2671.00
1559.244,2824.00
1560.122,2629.00
1561.000,2715.00
1561.877,2973.00
1562.755,2543.00
1563.632,2604.00
1564.509,2862.00
1565.386,3019.00
1566.264,2398.00
1567.141,2282.00
1568.017,2797.00
1568.894,2648.00
1569.771,2715.00
1570.648,2785.00
1571.524,2660.00
1572.401,2399.00
1573.277,2432.00
1574.153,2703.00
1575.029,2534.00
1575.906,3332.00
1576.781,2802.00
1577.657,2613.00
1578.533,2874.00
1579.409,2289.00
1580.285,2633.00
1581.160,3093.00
1582.036,2879.00
1582.911,2501.00
1583.786,3003.00
1584.662,2487.00
1585.537,2646.00
1586.412,2718.00
1587.287,2511.00
1588.160,2835.00
1589.035,2315.00
1589.909,2693.00
1590.784,2608.00
1591.658,2443.00
1592.533,2683.00
1593.407,2703.00
1594.281,2551.00
1595.155,3052.00
1596.029,2567.00
1596.903,2626.00
1597.777,2583.00
1598.651,2934.00
1599.525,2388.00
1600.398,2662.00
1601.272,2644.00
1602.144,3210.00
1603.017,2616.00
1603.890,2904.00
1604.763,2736.00
1605.636,2816.00
1606.509,2376.00
1607.382,2533.00
1608.255,2721.00
1609.128,2896.00
1610.000,2605.00
1610.873,2369.00
1611.746,2574.00
1612.616,2590.00
1613.488,2289.00
1614.361,2662.00
1615.233,2590.00
1616.105,2881.00
1616.977,2577.00
1617.849,2530.00
1618.720,2992.00
1619.592,2945.00
1620.464,2771.00
1621.333,3107.00
1622.205,2704.00
1623.076,2636.00
1623.947,2638.00
1624.818,2891.00
1625.689,2799.00
1626.560,2593.00
1627.431,2736.00
1628.302,3100.00
1629.171,2803.00
1630.042,2962.00
1630.912,3627.00
1631.782,3233.00
1632.653,2468.00
1633.523,2838.00
1634.393,2908.00
1635.263,2558.00
1636.131,2635.00
1637.001,2557.00
1637.871,2312.00
1638.741,2309.00
1639.611,2408.00
1640.480,2735.00
1641.350,2531.00
1642.219,2492.00
1643.087,2171.00
1643.956,3056.00
1644.825,2915.00
1645.694,2882.00
1646.563,2816.00
1647.432,2735.00
1648.299,2684.00
1649.167,2759.00
1650.036,2488.00
1650.904,2792.00
1651.773,2854.00
1652.641,2672.00
1653.509,2862.00
1654.376,2541.00
1655.244,2685.00
1656.112,2717.00
1656.980,2672.00
1657.847,2553.00
1658.715,2863.00
1659.581,2607.00
1660.448,2931.00
1661.316,2188.00
1662.183,2699.00
1663.051,2743.00
1663.918,2703.00
1664.783,2667.00
1665.650,2732.00
1666.517,2855.00
1667.384,2714.00
1668.251,2711.00
1669.115,2879.00
1669.982,2609.00
1670.849,2927.00
1671.715,2684.00
1672.581,2802.00
1673.446,2770.00
1674.312,2687.00
1675.178,3067.00
1676.044,2760.00
1676.910,2773.00
1677.774,2717.00
1678.639,2339.00
1679.505,2643.00
1680.370,2817.00
1681.236,3295.00
1682.099,2651.00
1682.965,2678.00
1683.830,2271.00
1684.695,2495.00
1685.560,2630.00
1686.423,2751.00
1687.288,2780.00
1688.153,2726.00
1689.017,2602.00
1689.880,2736.00
1690.745,2806.00
1691.609,2516.00
1692.473,2860.00
1693.338,2893.00
1694.200,2941.00
1695.064,2669.00
1695.928,2577.00
1696.792,2701.00
1697.654,3198.00
1698.517,2703.00
1699.381,2431.00
1700.245,2346.00
1701.106,2947.00
1701.969,2585.00
1702.833,2826.00
1703.696,2587.00
1704.557,2636.00
1705.420,2534.00
1706.283,2695.00
1707.146,2817.00
1708.007,2466.00
1708.870,2472.00
1709.732,2368.00
1710.595,2603.00
1711.455,2479.00
1712.318,2613.00
1713.180,2956.00
1714.040,2736.00
1714.902,2863.00
1715.764,2702.00
1716.626,2478.00
1717.486,2689.00
1718.348,2952.00
1719.209,4003.00
1720.071,2333.00
1720.930,2432.00
1721.792,2514.00
1722.653,2517.00
1723.512,2570.00
1724.374,2607.00
1725.234,2729.00
1726.095,2697.00
1726.954,2678.00
1727.815,2813.00
1728.676,2639.00
1729.535,2879.00
1730.395,2650.00
1731.256,2580.00
1732.114,2743.00
1732.974,2178.00
1733.834,3014.00
1734.693,2868.00
1735.553,2705.00
1736.413,3086.00
1737.272,2557.00
1738.130,2564.00
1738.990,2820.00
1739.849,2574.00
1740.707,3660.00
1741.566,2722.00
1742.426,2737.00
1743.283,3073.00
1744.142,2584.00
1745.001,2364.00
1745.858,2845.00
1746.717,2750.00
1747.576,2766.00
1748.433,2828.00
1749.292,3264.00
1750.150,3322.00
1751.007,2840.00
1751.865,2857.00
1752.723,2689.00
1753.579,2608.00
1754.438,2904.00
1755.296,2904.00
1756.152,2275.00
1757.010,2374.00
1757.865,2889.00
1758.723,2305.00
1759.581,3017.00
1760.436,2658.00
1761.294,3024.00
1762.151,2650.00
1763.006,2583.00
1763.864,2358.00
1764.721,2860.00
1765.576,2700.00
1766.433,2853.00
1767.288,2590.00
1768.144,2725.00
1769.001,2628.00
1769.856,2781.00
1770.712,2870.00
1771.568,2489.00
1772.423,2602.00
1773.279,2596.00
1774.133,2607.00
1774.989,3081.00
1775.845,3043.00
1776.699,2884.00
1777.555,2637.00
1778.409,3194.00
1779.265,2614.00
1780.120,2655.00
1780.974,2672.00
1781.829,2339.00
1782.682,2752.00
1783.538,2493.00
1784.393,2747.00
1785.246,2601.00
1786.101,2754.00
1786.954,2820.00
1787.808,2903.00
1788.661,2407.00
1789.516,2574.00
1790.370,2624.00
1791.223,2945.00
1792.077,2663.00
1792.930,2818.00
1793.784,2540.00
1794.636,2736.00
1795.490,2630.00
1796.344,2678.00
1797.196,2684.00
1798.049,2837.00
1798.901,2612.00
1799.755,2925.00
1800.606,2500.00
1801.460,3180.00
1802.311,2986.00
1803.165,3064.00
1804.018,3027.00
1804.869,2784.00
1805.722,3152.00
1806.573,2709.00
1807.426,2513.00
1808.276,2699.00
1809.129,2621.00
1809.980,2901.00
1810.832,2962.00
1811.683,2618.00
1812.535,3007.00
1813.385,2650.00
1814.237,2987.00
1815.089,2712.00
1815.940,2961.00
1816.791,2650.00
1817.641,2569.00
1818.493,2798.00
1819.343,2760.00
1820.194,2550.00
1821.044,2816.00
1821.895,2911.00
1822.745,2433.00
1823.596,2549.00
1824.445,3120.00
1825.296,2765.00
1826.145,2642.00
1826.996,2891.00
1827.845,2723.00
1828.695,2788.00
1829.544,2663.00
1830.395,2705.00
1831.243,2594.00
1832.094,2446.00
1832.942,3300.00
1833.792,2790.00
1834.640,2727.00
1835.490,2696.00
1836.338,2757.00
1837.186,2565.00
1838.036,2541.00
1838.884,2715.00
1839.733,3048.00
1840.581,2902.00
1841.430,2830.00
1842.278,3047.00
1843.127,2622.00
1843.974,2368.00
1844.823,3141.00
1845.671,2857.00
1846.519,2726.00
1847.366,2800.00
1848.213,2357.00
1849.062,2554.00
1849.909,2455.00
1850.757,3337.00
1851.604,2804.00
1852.452,2610.00
1853.298,2876.00
1854.146,2763.00
1854.993,2771.00
1855.839,3228.00
1856.687,2804.00
1857.532,2813.00
1858.380,2694.00
1859.226,2782.00
1860.073,2765.00
1860.919,2549.00
1861.765,2603.00
1862.612,2944.00
1863.457,2925.00
1864.304,2630.00
1865.150,2787.00
1865.995,2699.00
1866.842,2840.00
1867.686,2954.00
1868.533,2792.00
1869.378,2790.00
1870.223,2707.00
1871.069,2624.00
1871.914,2732.00
1872.760,2688.00
1873.604,2509.00
1874.448,2831.00
1875.294,2864.00
1876.139,2577.00
1876.984,2820.00
1877.828,2343.00
1878.672,2235.00
1879.518,2609.00
1880.361,2898.00
1881.205,2849.00
1882.050,2487.00
1882.894,3202.00
1883.739,2574.00
1884.582,2485.00
1885.425,2559.00
1886.270,2946.00
1887.113,2493.00
1887.956,2776.00
1888.801,2763.00
1889.644,2538.00
1890.486,2333.00
1891.331,2639.00
1892.173,2753.00
1893.017,2778.00
1893.860,2984.00
1894.702,2991.00
1895.546,2706.00
1896.388,3383.00
1897.230,3017.00
1898.074,2609.00
1898.916,2503.00
1899.757,2493.00
1900.601,3399.00
1901.443,3018.00
1902.284,3023.00
1903.125,3143.00
1903.969,2883.00
1904.810,2938.00
1905.651,2825.00
1906.494,3035.00
1907.335,3155.00
1908.176,2811.00
1909.018,2860.00
1909.859,2699.00
1910.700,2614.00
1911.542,3210.00
1912.383,2783.00
1913.223,2344.00
1914.064,2827.00
1914.906,3008.00
1915.746,3064.00
1916.586,3154.00
1917.428,2700.00
1918.268,2758.00
1919.107,2640.00
1919.947,2468.00
1920.789,2636.00
1921.628,2948.00
1922.468,2705.00
1923.309,2536.00
1924.148,3008.00
1924.988,2781.00
1925.827,2705.00
1926.667,2594.00
1927.507,2753.00
1928.345,2545.00
1929.184,2910.00
1930.025,2546.00
1930.864,2965.00
1931.702,3019.00
1932.541,2643.00
1933.381,2849.00
1934.219,2868.00
1935.057,3027.00
1935.896,2394.00
1936.735,2695.00
1937.573,2638.00
1938.411,2509.00
1939.249,2882.00
1940.089,2597.00
1940.927,2986.00
1941.764,3017.00
1942.602,2642.00
1943.439,2596.00
1944.278,2734.00
1945.115,2693.00
1945.953,2462.00
1946.790,2796.00
1947.628,3052.00
1948.465,2868.00
1949.302,2882.00
1950.139,2849.00
1950.976,2645.00
1951.814,2872.00
1952.651,2753.00
1953.487,2521.00
1954.323,2986.00
1955.160,2710.00
1955.998,3109.00
1956.834,2695.00
1957.670,2810.00
1958.506,2952.00
1959.342,2845.00
1960.177,2755.00
1961.015,2882.00
1961.850,2776.00
1962.686,2745.00
1963.521,2759.00
1964.357,3023.00
1965.192,2480.00
1966.029,2925.00
1966.864,2678.00
1967.699,2935.00
1968.534,2766.00
1969.369,3005.00
1970.204,2690.00
1971.040,2764.00
1971.875,2675.00
1972.709,2761.00
1973.544,2562.00
1974.378,2645.00
1975.212,2872.00
1976.047,2627.00
1976.882,2623.00
1977.716,3056.00
1978.550,2450.00
1979.384,2660.00
1980.218,2694.00
1981.052,2682.00
1981.885,2789.00
1982.719,2777.00
1983.554,2852.00
1984.388,3017.00
1985.221,2849.00
1986.054,3007.00
1986.887,2851.00
1987.720,2556.00
1988.553,3031.00
1989.386,2846.00
1990.219,2846.00
1991.053,3030.00
1991.886,2617.00
1992.719,2938.00
1993.551,2276.00
1994.383,2876.00
1995.216,2652.00
1996.048,2467.00
1996.880,2908.00
1997.712,2616.00
1998.544,2756.00
1999.376,2821.00
2000.208,3027.00
2001.040,3193.00
2001.873,2564.00
2002.705,2545.00
2003.536,2803.00
2004.367,2787.00
2005.199,2775.00
2006.030,2645.00
2006.861,2499.00
2007.692,2723.00
2008.523,2590.00
2009.354,2759.00
2010.185,2550.00
2011.016,2895.00
2011.846,2922.00
2012.677,2684.00
2013.507,3090.00
2014.338,2953.00
2015.168,2699.00
2015.999,3269.00
2016.829,2677.00
2017.659,2956.00
2018.489,3246.00
2019.319,2566.00
2020.149,2902.00
2020.980,2746.00
2021.810,2556.00
2022.639,2645.00
2023.469,2648.00
2024.298,2468.00
2025.128,2357.00
2025.957,2368.00
2026.786,2210.00
2027.615,2373.00
2028.444,2600.00
2029.273,2787.00
2030.102,2377.00
2030.931,2581.00
2031.758,2863.00
2032.586,2504.00
2033.415,2606.00
2034.243,2234.00
2035.072,2010.00
2035.900,2478.00
2036.728,2324.00
2037.556,2348.00
2038.385,2385.00
2039.213,2169.00
2040.040,2157.00
2040.868,2180.00
2041.696,2204.00
2042.524,2198.00
2043.351,2402.00
2044.179,2219.00
2045.006,2025.00
