RamanScope Measure Spectrum Data V3.72

<< MEASURE CONDITION >>
Exposure Type,Aver
Exposure Time [sec],15
Exposure Count,30
Measure Time,2023/07/04 14:57:17
Data Name,""
Data Comment,""
Rayleigh Wave[nm],532.0

<< SAMPLE SPECTRUM >>
Wave[dcm-1],No256
146.591,664.03
147.626,812.33
148.664,1029.67
149.699,1167.83
150.737,1373.23
151.772,1571.23
152.809,1756.17
153.846,1910.17
154.881,2112.00
155.918,2296.33
156.953,2451.17
157.989,2564.27
159.026,2707.77
160.060,2811.83
161.096,2857.50
162.130,2937.20
163.167,2987.17
164.200,3058.73
165.236,3114.73
166.272,3155.00
167.305,3181.47
168.341,3241.47
169.374,3327.27
170.409,3360.47
171.445,3429.23
172.477,3530.97
173.512,3557.27
174.545,3612.77
175.580,3687.47
176.614,3699.70
177.647,3758.27
178.681,3743.37
179.713,3823.27
180.747,3774.20
181.781,3766.57
182.813,3690.57
183.847,3733.40
184.878,3709.80
185.912,3700.27
186.945,3715.17
187.976,3716.27
189.010,3718.90
190.043,3794.70
191.073,3850.53
192.106,3844.63
193.137,3826.50
194.170,3906.60
195.202,3994.57
196.232,4040.43
197.265,4074.77
198.297,4112.60
199.327,4207.17
200.359,4277.33
201.388,4359.67
202.420,4467.13
203.452,4515.80
204.481,4630.30
205.512,4798.73
206.544,4950.93
207.573,5063.07
208.604,5265.17
209.635,5458.87
210.663,5633.47
211.694,5887.43
212.725,6116.57
213.753,6324.20
214.783,6554.53
215.813,6808.93
216.841,6844.13
217.871,6952.17
218.899,6987.83
219.929,6989.13
220.959,6978.33
221.986,6797.20
223.016,6630.50
224.045,6419.93
225.072,6253.90
226.101,6076.90
227.130,5932.40
228.157,5752.90
229.185,5582.30
230.214,5413.83
231.241,5369.17
232.269,5287.03
233.297,5171.63
234.323,5084.13
235.351,5034.43
236.379,4980.70
237.407,4969.63
238.433,4897.67
239.460,4896.30
240.488,4924.03
241.513,4978.40
242.540,4946.57
243.568,4951.13
244.592,5002.37
245.619,5009.30
246.646,5065.60
247.671,5064.23
248.697,5068.60
249.724,5033.87
250.748,5008.73
251.774,4990.90
252.801,5028.13
253.827,5033.37
254.850,5000.87
255.876,5038.50
256.902,5059.67
257.925,5104.03
258.951,5131.73
259.976,5130.60
260.999,5233.27
262.024,5284.23
263.049,5301.77
264.074,5358.73
265.097,5423.73
266.122,5483.13
267.146,5544.87
268.168,5610.23
269.193,5685.07
270.217,5732.97
271.241,5799.93
272.263,5889.53
273.287,5955.67
274.311,5987.80
275.332,5968.53
276.356,6019.20
277.379,6035.77
278.402,6062.47
279.424,5985.37
280.447,5885.30
281.470,5877.37
282.492,5849.83
283.513,5710.33
284.536,5689.97
285.558,5540.97
286.581,5489.53
287.601,5419.53
288.623,5345.87
289.645,5200.53
290.665,5166.87
291.687,5083.73
292.709,5000.40
293.730,4862.50
294.750,4861.20
295.771,4754.97
296.792,4711.10
297.813,4639.07
298.832,4600.50
299.853,4473.03
300.874,4446.00
301.895,4355.70
302.913,4306.27
303.934,4259.93
304.954,4216.67
305.975,4135.10
306.993,4108.90
308.013,4071.70
309.033,4063.17
310.052,3993.67
311.072,3970.20
312.090,3927.90
313.109,3911.73
314.129,3918.47
315.148,3898.50
316.165,3807.73
317.184,3811.47
318.203,3802.83
319.222,3797.57
320.238,3719.53
321.257,3716.73
322.275,3710.07
323.294,3729.07
324.312,3693.30
325.328,3641.17
326.346,3642.87
327.364,3669.53
328.382,3641.30
329.397,3616.47
330.415,3648.13
331.432,3612.40
332.450,3547.43
333.467,3627.50
334.482,3604.43
335.499,3566.77
336.516,3569.30
337.533,3544.00
338.547,3559.70
339.564,3563.63
340.580,3565.83
341.597,3525.37
342.613,3505.57
343.627,3531.53
344.643,3562.27
345.659,3501.10
346.675,3508.33
347.690,3511.53
348.704,3497.97
349.719,3482.23
350.735,3500.57
351.750,3510.43
352.765,3468.77
353.778,3541.93
354.793,3522.37
355.808,3486.50
356.822,3502.47
357.837,3496.13
358.851,3511.80
359.864,3500.10
360.878,3510.10
361.892,3560.50
362.906,3483.43
363.920,3513.93
364.932,3543.53
365.945,3549.80
366.959,3587.57
367.972,3568.10
368.986,3602.93
369.999,3561.43
371.010,3611.60
372.023,3534.47
373.036,3549.43
374.049,3595.17
375.061,3664.03
376.072,3694.07
377.084,3614.07
378.097,3637.80
379.109,3656.47
380.121,3674.83
381.133,3676.03
382.143,3716.33
383.155,3632.63
384.166,3660.70
385.178,3631.10
386.189,3719.47
387.201,3664.00
388.212,3661.40
389.221,3632.13
390.232,3606.20
391.243,3642.33
392.254,3632.37
393.264,3596.37
394.275,3604.40
395.283,3595.40
396.294,3571.30
397.304,3519.40
398.314,3561.50
399.324,3522.27
400.334,3483.23
401.344,3498.83
402.351,3435.67
403.361,3456.83
404.370,3431.10
405.380,3411.77
406.389,3438.27
407.398,3360.23
408.407,3349.40
409.414,3403.57
410.423,3361.13
411.431,3322.47
412.440,3340.83
413.448,3307.27
414.457,3274.67
415.465,3248.70
416.471,3271.60
417.479,3255.37
418.487,3268.60
419.495,3210.20
420.503,3203.70
421.510,3192.23
422.518,3199.53
423.525,3201.07
424.530,3180.50
425.537,3165.83
426.544,3202.57
427.551,3156.23
428.558,3206.93
429.565,3092.13
430.571,3112.93
431.578,3128.93
432.582,3137.43
433.588,3164.53
434.595,3142.30
435.601,3119.30
436.607,3113.00
437.612,3109.47
438.618,3118.10
439.624,3089.00
440.627,3131.97
441.633,3122.63
442.638,3068.70
443.643,3109.37
444.648,3110.90
445.653,3113.33
446.658,3117.00
447.663,3113.23
448.667,3085.20
449.672,3103.10
450.674,3110.87
451.678,3135.97
452.682,3132.60
453.687,3123.80
454.690,3092.77
455.694,3135.73
456.698,3142.13
457.702,3198.07
458.705,3151.93
459.709,3119.30
460.710,3102.03
461.713,3158.13
462.716,3165.57
463.719,3181.20
464.722,3183.33
465.725,3139.47
466.727,3123.30
467.730,3164.37
468.732,3200.17
469.735,3140.53
470.737,3165.30
471.737,3176.23
472.739,3148.10
473.741,3166.23
474.742,3198.27
475.744,3195.83
476.746,3198.80
477.747,3158.87
478.748,3229.77
479.750,3174.03
480.751,3137.20
481.752,3200.43
482.753,3172.23
483.751,3183.47
484.752,3226.60
485.753,3210.33
486.753,3218.00
487.753,3199.83
488.754,3210.87
489.754,3206.53
490.754,3174.57
491.754,3226.10
492.754,3172.50
493.753,3219.07
494.753,3177.10
495.752,3215.33
496.752,3181.10
497.749,3200.07
498.748,3193.03
499.747,3186.97
500.746,3171.70
501.745,3134.03
502.744,3161.30
503.742,3139.67
504.741,3152.87
505.739,3117.37
506.737,3118.10
507.735,3138.17
508.734,3099.37
509.732,3129.97
510.729,3118.63
511.727,3068.77
512.725,3049.80
513.720,3061.30
514.718,3103.77
515.715,3057.83
516.712,3036.73
517.709,3070.60
518.706,3014.77
519.703,3031.30
520.700,3050.20
521.696,3050.87
522.693,3004.57
523.689,3027.83
524.686,3014.17
525.682,3087.47
526.678,3040.07
527.674,3019.00
528.670,3069.27
529.666,3029.93
530.661,3087.10
531.657,2929.37
532.652,3056.17
533.648,3043.00
534.641,3074.47
535.636,3060.20
536.631,3086.70
537.626,3075.67
538.621,3069.90
539.616,3115.47
540.610,3104.37
541.605,3076.43
542.599,3089.40
543.593,3084.27
544.587,3104.47
545.581,3074.87
546.575,3196.73
547.569,3115.97
548.563,3069.23
549.557,3119.70
550.550,3104.17
551.543,3133.90
552.537,3124.23
553.530,3115.63
554.523,3120.03
555.516,3128.47
556.509,3179.53
557.502,3132.33
558.494,3115.40
559.487,3127.87
560.479,3178.80
561.472,3164.83
562.464,3184.40
563.456,3190.57
564.448,3175.83
565.440,3195.90
566.432,3231.53
567.423,3177.30
568.415,3215.97
569.404,3182.80
570.396,3205.57
571.387,3218.30
572.378,3219.03
573.369,3248.40
574.360,3225.60
575.351,3276.93
576.341,3257.43
577.332,3221.57
578.323,3283.30
579.313,3244.00
580.303,3281.17
581.293,3310.23
582.283,3285.47
583.273,3292.37
584.263,3237.30
585.253,3313.33
586.243,3330.40
587.232,3315.77
588.222,3340.63
589.211,3283.30
590.200,3297.27
591.189,3351.77
592.178,3340.67
593.167,3332.10
594.156,3304.77
595.145,3274.43
596.133,3296.27
597.122,3316.80
598.110,3301.30
599.098,3360.73
600.086,3255.80
601.074,3269.87
602.062,3297.57
603.050,3290.57
604.038,3273.07
605.025,3260.60
606.013,3285.47
607.000,3302.07
607.987,3242.63
608.975,3295.10
609.962,3216.00
610.949,3247.17
611.936,3226.27
612.922,3208.43
613.909,3227.47
614.895,3177.53
615.882,3163.87
616.868,3100.07
617.854,3126.03
618.841,3155.10
619.826,3078.63
620.812,3071.03
621.798,3066.23
622.784,3055.47
623.769,3063.30
624.755,3035.10
625.740,2980.47
626.725,2955.33
627.711,2992.07
628.698,2955.80
629.683,2957.40
630.667,2899.13
631.652,2893.07
632.637,2886.70
633.621,2890.70
634.606,2853.33
635.590,2847.40
636.574,2843.77
637.558,2801.90
638.542,2773.07
639.526,2794.23
640.510,2748.70
641.493,2762.80
642.477,2735.93
643.460,2710.73
644.444,2733.90
645.427,2721.03
646.410,2680.50
647.393,2696.57
648.376,2642.40
649.359,2646.87
650.341,2627.77
651.324,2642.00
652.307,2604.93
653.289,2620.77
654.271,2635.27
655.253,2625.93
656.235,2590.83
657.217,2587.90
658.199,2576.77
659.181,2538.10
660.163,2595.43
661.144,2572.60
662.126,2521.47
663.107,2507.50
664.088,2540.83
665.069,2577.77
666.050,2524.83
667.033,2544.37
668.014,2503.83
668.995,2483.20
669.975,2513.60
670.956,2500.40
671.936,2488.90
672.916,2455.40
673.896,2448.07
674.876,2440.07
675.856,2469.40
676.836,2418.87
677.816,2393.97
678.795,2352.20
679.775,2353.73
680.754,2357.93
681.734,2382.23
682.713,2328.03
683.692,2302.97
684.671,2269.33
685.650,2276.50
686.629,2287.10
687.607,2280.43
688.586,2213.53
689.564,2242.40
690.543,2235.27
691.523,2184.57
692.501,2203.63
693.479,2196.27
694.457,2177.97
695.435,2197.50
696.413,2190.50
697.390,2167.57
698.368,2145.97
699.345,2137.43
700.322,2180.50
701.300,2135.10
702.277,2131.07
703.254,2138.70
704.231,2104.97
705.207,2106.73
706.184,2109.67
707.161,2089.80
708.137,2087.43
709.113,2067.00
710.090,2099.17
711.068,2085.60
712.044,2086.23
713.020,2068.30
713.996,2056.73
714.971,2035.70
715.947,2019.20
716.922,2022.97
717.898,2011.23
718.873,2044.43
719.848,2005.00
720.823,2020.20
721.798,2001.07
722.773,1991.43
723.748,1965.97
724.723,1992.37
725.697,1962.87
726.672,2014.10
727.646,1963.00
728.622,1990.90
729.596,1974.70
730.570,1944.33
731.544,1936.77
732.518,1905.20
733.492,1890.53
734.466,1921.00
735.439,1961.93
736.413,1897.17
737.386,1917.17
738.359,1946.47
739.332,1903.13
740.305,1920.30
741.278,1892.30
742.251,1900.03
743.224,1885.20
744.196,1884.57
745.171,1915.10
746.143,1860.13
747.115,1903.73
748.087,1871.47
749.059,1890.43
750.031,1850.80
751.003,1832.90
751.975,1834.03
752.947,1815.10
753.918,1845.73
754.890,1847.77
755.861,1806.93
756.832,1833.67
757.803,1825.17
758.774,1812.07
759.747,1831.73
760.718,1848.33
761.689,1771.23
762.659,1791.87
763.630,1789.53
764.600,1780.40
765.570,1816.10
766.540,1738.57
767.510,1777.20
768.480,1760.07
769.450,1745.80
770.420,1753.93
771.390,1772.80
772.359,1762.80
773.329,1757.83
774.300,1778.07
775.269,1737.03
776.238,1780.00
777.207,1708.30
778.176,1738.30
779.145,1769.70
780.114,1758.70
781.083,1710.43
782.051,1740.40
783.019,1710.50
783.988,1716.10
784.956,1703.00
785.924,1697.27
786.894,1674.97
787.862,1705.07
788.830,1720.20
789.797,1688.20
790.765,1684.23
791.732,1702.80
792.700,1685.33
793.667,1692.77
794.634,1694.20
795.601,1666.87
796.568,1652.03
797.535,1709.83
798.502,1627.67
799.468,1613.80
800.437,1636.97
801.403,1644.17
802.370,1688.77
803.336,1641.73
804.302,1602.00
805.268,1613.87
806.234,1617.93
807.200,1642.50
808.166,1591.77
809.131,1611.13
810.097,1612.30
811.062,1601.73
812.027,1639.53
812.994,1590.50
813.960,1583.00
814.925,1592.30
815.889,1587.03
816.854,1570.80
817.819,1632.40
818.783,1597.17
819.748,1550.07
820.712,1539.70
821.677,1561.33
822.641,1583.27
823.605,1578.10
824.571,1552.43
825.534,1588.23
826.498,1521.47
827.462,1559.77
828.425,1553.43
829.389,1538.53
830.352,1553.57
831.315,1515.20
832.279,1552.90
833.242,1564.97
834.204,1531.90
835.167,1550.63
836.132,1527.17
837.095,1565.93
838.057,1547.03
839.020,1546.13
839.982,1539.17
840.944,1562.50
841.906,1513.00
842.868,1538.00
843.830,1524.43
844.792,1484.90
845.753,1475.87
846.715,1482.37
847.679,1491.67
848.640,1549.77
849.601,1490.40
850.562,1464.53
851.523,1474.80
852.484,1451.37
853.445,1523.67
854.406,1491.43
855.367,1478.57
856.327,1527.50
857.288,1484.00
858.248,1456.80
859.210,1505.20
860.170,1480.70
861.130,1438.53
862.090,1463.10
863.050,1434.70
864.010,1435.50
864.969,1445.87
865.929,1435.83
866.888,1468.63
867.848,1478.03
868.807,1459.53
869.766,1471.30
870.727,1433.93
871.686,1438.73
872.645,1476.07
873.604,1455.33
874.562,1428.93
875.521,1471.93
876.479,1421.97
877.437,1440.47
878.396,1434.23
879.354,1428.47
880.312,1449.17
881.270,1469.50
882.229,1435.93
883.187,1463.70
884.145,1419.47
885.102,1455.67
886.059,1440.73
887.017,1450.63
887.974,1395.57
888.931,1452.47
889.888,1444.67
890.845,1480.73
891.802,1426.90
892.758,1438.07
893.717,1435.57
894.673,1484.57
895.630,1468.20
896.586,1442.57
897.542,1415.57
898.498,1398.93
899.454,1418.63
900.410,1434.80
901.366,1457.60
902.321,1405.60
903.277,1439.47
904.232,1434.23
905.189,1433.23
906.145,1440.20
907.100,1426.40
908.055,1415.50
909.010,1406.13
909.965,1415.20
910.919,1462.00
911.874,1443.43
912.828,1431.67
913.783,1444.07
914.737,1414.90
915.693,1427.57
916.648,1465.47
917.602,1432.60
918.555,1421.53
919.509,1419.80
920.463,1422.50
921.417,1405.57
922.370,1454.27
923.324,1407.33
924.277,1422.70
925.230,1398.20
926.183,1447.33
927.138,1446.50
928.091,1432.10
929.044,1389.57
929.996,1432.90
930.949,1436.03
931.902,1433.13
932.854,1433.77
933.806,1455.83
934.758,1416.93
935.711,1428.67
936.663,1462.23
937.614,1416.87
938.568,1445.77
939.520,1424.33
940.471,1424.33
941.423,1480.43
942.374,1459.47
943.326,1405.60
944.277,1448.47
945.228,1451.83
946.179,1438.07
947.130,1443.33
948.080,1403.53
949.031,1454.00
949.984,1420.20
950.934,1427.77
951.884,1447.83
952.835,1425.90
953.785,1428.47
954.735,1429.33
955.685,1412.77
956.635,1415.17
957.585,1419.43
958.534,1404.30
959.484,1416.37
960.433,1432.80
961.383,1421.10
962.334,1438.80
963.283,1428.13
964.232,1454.50
965.181,1416.77
966.130,1441.20
967.079,1400.30
968.027,1406.77
968.976,1430.43
969.924,1437.57
970.873,1428.83
971.821,1405.37
972.769,1441.83
973.719,1435.10
974.667,1411.27
975.615,1449.33
976.562,1420.27
977.510,1430.87
978.458,1386.00
979.405,1426.63
980.352,1429.03
981.300,1432.23
982.247,1474.80
983.194,1405.40
984.141,1420.03
985.088,1438.43
986.036,1446.20
986.983,1448.10
987.930,1396.80
988.876,1403.63
989.822,1437.50
990.769,1438.90
991.715,1411.67
992.661,1466.40
993.607,1429.40
994.553,1453.70
995.498,1409.77
996.444,1418.43
997.389,1417.13
998.337,1434.90
999.282,1441.63
1000.227,1404.27
1001.173,1454.23
1002.118,1449.17
1003.062,1413.43
1004.007,1402.13
1004.952,1389.60
1005.897,1429.10
1006.841,1462.20
1007.786,1430.10
1008.730,1414.47
1009.674,1402.27
1010.618,1457.33
1011.564,1433.60
1012.508,1427.43
1013.452,1423.03
1014.396,1418.83
1015.339,1461.97
1016.283,1436.63
1017.226,1432.50
1018.170,1427.67
1019.113,1440.20
1020.056,1404.27
1020.999,1445.53
1021.942,1458.17
1022.885,1452.90
1023.828,1421.33
1024.770,1442.47
1025.715,1462.27
1026.657,1457.50
1027.600,1442.93
1028.542,1470.93
1029.484,1455.07
1030.426,1443.20
1031.368,1458.77
1032.310,1454.07
1033.251,1464.67
1034.193,1453.90
1035.135,1446.53
1036.076,1481.63
1037.017,1465.20
1037.959,1511.90
1038.900,1456.33
1039.843,1469.30
1040.784,1448.13
1041.725,1499.27
1042.665,1502.23
1043.606,1478.80
1044.547,1490.80
1045.487,1504.53
1046.427,1494.97
1047.368,1458.53
1048.308,1501.00
1049.248,1475.97
1050.188,1491.70
1051.128,1500.80
1052.067,1470.77
1053.007,1527.17
1053.947,1497.80
1054.886,1519.60
1055.827,1536.10
1056.766,1493.60
1057.706,1536.17
1058.645,1542.57
1059.584,1516.90
1060.522,1557.50
1061.461,1576.67
1062.400,1517.97
1063.338,1515.33
1064.277,1572.67
1065.215,1568.70
1066.154,1534.23
1067.092,1568.40
1068.030,1554.43
1068.968,1537.50
1069.906,1581.50
1070.843,1529.57
1071.781,1550.43
1072.720,1574.20
1073.658,1573.27
1074.595,1582.43
1075.533,1561.43
1076.470,1571.30
1077.407,1587.50
1078.344,1569.70
1079.281,1589.67
1080.217,1598.57
1081.154,1593.53
1082.091,1590.17
1083.027,1593.87
1083.964,1591.77
1084.900,1611.43
1085.836,1615.30
1086.772,1594.70
1087.708,1586.83
1088.644,1627.93
1089.580,1631.93
1090.515,1648.17
1091.451,1613.30
1092.388,1602.83
1093.324,1585.93
1094.259,1603.80
1095.194,1635.13
1096.129,1632.60
1097.064,1613.93
1097.999,1598.37
1098.934,1613.97
1099.869,1577.37
1100.803,1579.40
1101.738,1569.73
1102.672,1601.43
1103.607,1560.10
1104.541,1567.47
1105.475,1573.60
1106.409,1580.17
1107.343,1573.83
1108.277,1542.23
1109.210,1550.07
1110.144,1542.13
1111.078,1522.07
1112.011,1541.60
1112.944,1520.47
1113.878,1533.77
1114.811,1522.50
1115.744,1509.83
1116.678,1561.83
1117.611,1509.17
1118.544,1518.63
1119.477,1518.97
1120.409,1515.43
1121.342,1517.33
1122.274,1502.13
1123.206,1508.73
1124.138,1487.60
1125.070,1453.73
1126.002,1461.10
1126.934,1468.97
1127.866,1503.60
1128.798,1466.37
1129.729,1456.67
1130.661,1474.50
1131.592,1414.47
1132.523,1417.87
1133.454,1437.17
1134.385,1441.60
1135.317,1433.73
1136.247,1434.70
1137.178,1442.43
1138.109,1429.63
1139.039,1400.07
1139.970,1425.00
1140.900,1404.73
1141.831,1412.83
1142.761,1429.57
1143.691,1444.43
1144.621,1403.03
1145.551,1406.83
1146.480,1402.70
1147.410,1400.10
1148.340,1363.70
1149.269,1407.80
1150.199,1369.67
1151.128,1395.10
1152.057,1403.50
1152.979,1353.40
1153.898,1381.07
1154.819,1351.97
1155.739,1382.33
1156.658,1364.83
1157.579,1365.10
1158.498,1358.20
1159.419,1381.07
1160.338,1404.60
1161.256,1370.10
1162.177,1361.47
1163.095,1333.40
1164.016,1330.50
1164.934,1363.03
1165.852,1337.03
1166.772,1305.73
1167.690,1360.33
1168.610,1314.00
1169.528,1354.83
1170.446,1343.43
1171.365,1336.97
1172.283,1337.57
1173.202,1366.97
1174.120,1362.33
1175.037,1346.60
1175.956,1335.63
1176.873,1323.80
1177.792,1327.50
1178.709,1375.57
1179.626,1342.77
1180.544,1305.40
1181.461,1299.43
1182.379,1309.70
1183.296,1297.80
1184.212,1329.07
1185.130,1287.57
1186.046,1352.67
1186.962,1333.30
1187.880,1304.53
1188.796,1345.43
1189.714,1302.23
1190.629,1335.40
1191.545,1317.10
1192.462,1291.87
1193.378,1320.77
1194.295,1311.07
1195.210,1313.57
1196.125,1340.40
1197.042,1370.53
1197.957,1328.97
1198.872,1338.83
1199.788,1318.47
1200.703,1370.40
1201.619,1325.80
1202.534,1329.70
1203.448,1349.87
1204.364,1378.57
1205.278,1280.40
1206.192,1321.20
1207.108,1313.43
1208.022,1357.03
1208.938,1337.33
1209.851,1333.13
1210.765,1311.63
1211.680,1326.77
1212.594,1315.30
1213.507,1358.97
1214.422,1354.13
1215.335,1341.10
1216.248,1297.33
1217.163,1332.60
1218.076,1311.73
1218.990,1324.53
1219.903,1327.73
1220.816,1329.83
1221.730,1333.63
1222.642,1328.60
1223.554,1343.10
1224.469,1312.77
1225.380,1361.70
1226.292,1346.57
1227.206,1355.20
1228.118,1359.70
1229.032,1356.57
1229.943,1344.90
1230.855,1322.20
1231.768,1361.97
1232.679,1336.57
1233.590,1389.50
1234.503,1356.87
1235.414,1347.47
1236.325,1359.87
1237.238,1331.93
1238.149,1395.70
1239.059,1353.93
1239.972,1387.20
1240.882,1343.10
1241.793,1350.33
1242.705,1361.20
1243.615,1339.53
1244.525,1370.50
1245.437,1360.93
1246.347,1371.57
1247.259,1321.20
1248.168,1316.70
1249.078,1368.40
1249.989,1373.07
1250.899,1380.87
1251.808,1389.63
1252.719,1343.57
1253.628,1330.60
1254.537,1398.00
1255.448,1364.47
1256.357,1389.30
1257.266,1373.67
1258.176,1367.93
1259.085,1372.70
1259.993,1405.87
1260.904,1408.17
1261.812,1347.23
1262.720,1389.80
1263.630,1383.60
1264.538,1395.50
1265.446,1372.67
1266.356,1397.93
1267.263,1335.60
1268.171,1365.33
1269.080,1381.43
1269.988,1382.60
1270.895,1400.10
1271.804,1379.17
1272.711,1369.07
1273.619,1375.23
1274.527,1386.20
1275.434,1392.57
1276.341,1362.17
1277.248,1330.40
1278.156,1385.23
1279.063,1333.07
1279.969,1386.73
1280.877,1359.03
1281.783,1364.30
1282.690,1349.20
1283.598,1344.33
1284.503,1330.00
1285.409,1345.87
1286.317,1331.13
1287.223,1387.10
1288.128,1381.80
1289.036,1316.80
1289.941,1346.10
1290.846,1352.07
1291.751,1304.37
1292.658,1316.63
1293.563,1314.10
1294.468,1318.80
1295.375,1338.70
1296.280,1314.13
1297.184,1364.07
1298.091,1277.40
1298.995,1307.23
1299.900,1307.67
1300.806,1288.50
1301.710,1276.83
1302.614,1334.20
1303.518,1317.80
1304.424,1308.80
1305.327,1266.60
1306.231,1281.67
1307.137,1274.47
1308.040,1296.33
1308.943,1273.47
1309.847,1321.70
1310.752,1297.13
1311.655,1247.60
1312.558,1263.07
1313.463,1250.47
1314.366,1227.03
1315.269,1252.10
1316.171,1243.37
1317.076,1223.63
1317.978,1251.40
1318.881,1254.37
1319.785,1228.10
1320.687,1223.47
1321.589,1245.13
1322.491,1242.43
1323.395,1219.23
1324.297,1235.83
1325.198,1170.63
1326.102,1221.43
1327.004,1182.97
1327.905,1225.77
1328.806,1203.63
1329.709,1224.57
1330.611,1179.63
1331.512,1222.37
1332.413,1171.80
1333.316,1213.03
1334.216,1157.97
1335.117,1180.93
1336.020,1212.63
1336.920,1160.47
1337.821,1162.50
1338.721,1206.87
1339.623,1155.77
1340.523,1151.43
1341.423,1123.83
1342.323,1164.40
1343.225,1159.70
1344.125,1168.90
1345.025,1104.63
1345.924,1174.93
1346.826,1149.53
1347.725,1147.67
1348.624,1160.97
1349.524,1129.50
1350.425,1146.50
1351.324,1131.67
1352.223,1121.13
1353.121,1127.80
1354.022,1086.70
1354.921,1138.13
1355.819,1107.50
1356.718,1134.40
1357.618,1059.13
1358.516,1127.07
1359.415,1131.20
1360.313,1106.10
1361.213,1111.33
1362.111,1116.23
1363.008,1078.40
1363.906,1083.50
1364.806,1119.97
1365.703,1084.97
1366.601,1080.40
1367.498,1099.00
1368.397,1092.10
1369.295,1091.07
1370.192,1094.80
1371.089,1088.53
1371.987,1066.17
1372.884,1080.17
1373.781,1096.60
1374.678,1041.70
1375.574,1100.83
1376.473,1068.37
1377.369,1068.97
1378.265,1088.47
1379.161,1083.17
1380.059,1040.43
1380.955,1055.67
1381.851,1033.03
1382.747,1060.20
1383.643,1049.53
1384.540,1072.07
1385.436,1012.40
1386.331,1072.97
1387.227,1048.43
1388.124,1067.03
1389.019,1004.97
1389.914,1034.50
1390.809,1025.13
1391.704,1013.17
1392.601,1018.70
1393.495,1016.13
1394.390,1017.47
1395.285,1004.07
1396.179,1016.00
1397.075,1002.23
1397.969,1033.90
1398.864,1019.30
1399.758,1015.40
1400.652,1035.97
1401.547,1034.67
1402.441,1009.63
1403.335,998.83
1404.229,984.70
1405.122,985.30
1406.017,996.10
1406.911,1023.17
1407.804,1017.97
1408.697,955.40
1409.590,1023.73
1410.485,972.67
1411.378,981.50
1412.271,958.17
1413.163,995.27
1414.056,1001.40
1414.949,991.20
1415.843,996.73
1416.735,1004.47
1417.627,991.47
1418.520,979.53
1419.412,988.10
1420.306,976.23
1421.197,972.17
1422.089,982.97
1422.981,1004.93
1423.873,942.57
1424.764,948.00
1425.657,972.30
1426.549,991.93
1427.440,974.50
1428.331,966.47
1429.222,961.10
1430.113,930.87
1431.006,956.73
1431.897,940.77
1432.787,976.87
1433.678,945.23
1434.568,942.33
1435.459,967.73
1436.351,936.23
1437.241,966.73
1438.131,958.07
1439.021,963.70
1439.911,931.87
1440.801,927.07
1441.693,933.13
1442.583,950.83
1443.472,922.17
1444.362,937.30
1445.251,937.57
1446.140,911.67
1447.030,911.30
1447.921,926.20
1448.810,939.80
1449.699,920.33
1450.588,921.80
1451.476,909.37
1452.365,938.07
1453.254,927.00
1454.144,946.27
1455.032,948.80
1455.921,925.50
1456.809,915.80
1457.697,925.40
1458.585,932.27
1459.473,896.27
1460.361,917.07
1461.251,948.17
1462.138,940.87
1463.026,916.80
1463.913,941.83
1464.801,919.50
1465.688,909.63
1466.575,915.07
1467.463,915.53
1468.351,888.97
1469.238,890.77
1470.125,910.20
1471.012,896.43
1471.899,895.43
1472.785,916.20
1473.672,886.93
1474.558,888.37
1475.446,896.20
1476.333,895.27
1477.219,930.10
1478.105,888.63
1478.991,853.20
1479.877,883.57
1480.762,873.83
1481.648,872.40
1482.534,911.97
1483.419,870.87
1484.307,877.33
1485.192,906.57
1486.077,918.97
1486.962,858.10
1487.847,867.33
1488.732,887.83
1489.617,903.57
1490.502,859.57
1491.387,904.80
1492.271,876.97
1493.156,904.73
1494.042,874.97
1494.927,884.37
1495.811,884.47
1496.695,890.47
1497.579,879.23
1498.463,849.40
1499.347,855.43
1500.231,874.07
1501.114,864.60
1501.998,851.27
1502.881,844.57
1503.765,825.07
1504.648,852.77
1505.533,876.97
1506.417,876.27
1507.300,852.60
1508.183,850.73
1509.066,844.70
1509.948,846.60
1510.831,862.10
1511.714,859.73
1512.596,868.30
1513.479,853.50
1514.361,869.77
1515.243,802.17
1516.125,848.33
1517.008,821.80
1517.890,830.63
1518.771,820.67
1519.655,811.90
1520.537,855.63
1521.419,837.90
1522.300,825.90
1523.182,872.77
1524.063,820.43
1524.944,821.80
1525.825,815.43
1526.707,831.20
1527.588,808.37
1528.468,827.30
1529.349,811.47
1530.230,834.10
1531.111,841.00
1531.991,843.40
1532.872,849.33
1533.752,816.00
1534.632,831.43
1535.513,798.50
1536.393,802.37
1537.273,803.67
1538.153,807.77
1539.032,821.17
1539.912,799.70
1540.792,817.57
1541.672,814.53
1542.551,820.73
1543.430,814.60
1544.310,792.50
1545.189,810.10
1546.068,835.70
1546.947,818.43
1547.826,849.73
1548.705,775.97
1549.584,815.47
1550.462,837.90
1551.341,811.90
1552.219,796.63
1553.098,774.77
1553.976,813.30
1554.854,832.17
1555.733,833.97
1556.611,813.93
1557.489,832.60
1558.367,788.00
1559.244,813.13
1560.122,805.30
1561.000,808.90
1561.877,825.57
1562.755,828.27
1563.632,809.17
1564.509,783.90
1565.386,792.60
1566.264,799.40
1567.141,803.73
1568.017,827.17
1568.894,796.63
1569.771,800.93
1570.648,801.40
1571.524,821.50
1572.401,805.83
1573.277,785.30
1574.153,766.00
1575.029,828.73
1575.906,834.20
1576.781,784.90
1577.657,799.37
1578.533,787.00
1579.409,800.77
1580.285,848.57
1581.160,787.87
1582.036,804.73
1582.911,767.00
1583.786,789.10
1584.662,793.00
1585.537,766.10
1586.412,769.87
1587.287,764.60
1588.160,776.83
1589.035,770.80
1589.909,770.83
1590.784,815.93
1591.658,782.20
1592.533,788.50
1593.407,786.30
1594.281,779.03
1595.155,804.40
1596.029,789.30
1596.903,774.63
1597.777,783.07
1598.651,754.67
1599.525,755.60
1600.398,789.07
1601.272,756.77
1602.144,818.90
1603.017,749.00
1603.890,800.30
1604.763,812.17
1605.636,759.83
1606.509,756.97
1607.382,773.87
1608.255,788.97
1609.128,759.83
1610.000,762.57
1610.873,763.17
1611.746,771.67
1612.616,779.30
1613.488,767.70
1614.361,761.43
1615.233,793.67
1616.105,755.13
1616.977,795.30
1617.849,732.77
1618.720,751.10
1619.592,797.30
1620.464,745.50
1621.333,761.63
1622.205,758.90
1623.076,762.27
1623.947,751.40
1624.818,768.03
1625.689,785.70
1626.560,744.43
1627.431,748.40
1628.302,735.07
1629.171,773.77
1630.042,738.37
1630.912,954.97
1631.782,754.53
1632.653,777.33
1633.523,757.43
1634.393,763.90
1635.263,769.30
1636.131,722.07
1637.001,745.83
1637.871,749.10
1638.741,754.97
1639.611,717.60
1640.480,745.00
1641.350,744.00
1642.219,739.70
1643.087,745.90
1643.956,739.17
1644.825,742.70
1645.694,780.43
1646.563,771.60
1647.432,759.20
1648.299,762.13
1649.167,726.47
1650.036,763.73
1650.904,747.70
1651.773,735.10
1652.641,778.57
1653.509,757.50
1654.376,744.30
1655.244,747.87
1656.112,767.67
1656.980,770.53
1657.847,743.47
1658.715,755.70
1659.581,737.37
1660.448,739.83
1661.316,724.03
1662.183,759.50
1663.051,739.23
1663.918,730.47
1664.783,702.60
1665.650,729.33
1666.517,718.57
1667.384,726.97
1668.251,750.73
1669.115,736.83
1669.982,747.63
1670.849,738.53
1671.715,745.03
1672.581,715.53
1673.446,770.90
1674.312,717.47
1675.178,762.03
1676.044,727.53
1676.910,754.60
1677.774,713.90
1678.639,732.93
1679.505,772.00
1680.370,720.00
1681.236,766.03
1682.099,704.70
1682.965,682.23
1683.830,753.93
1684.695,734.20
1685.560,714.37
1686.423,729.40
1687.288,717.13
1688.153,723.20
1689.017,699.63
1689.880,714.73
1690.745,718.37
1691.609,706.27
1692.473,783.27
1693.338,695.47
1694.200,718.67
1695.064,696.37
1695.928,743.87
1696.792,725.37
1697.654,727.43
1698.517,714.60
1699.381,711.67
1700.245,701.43
1701.106,725.20
1701.969,715.40
1702.833,691.47
1703.696,707.17
1704.557,697.97
1705.420,722.07
1706.283,711.77
1707.146,692.00
1708.007,730.27
1708.870,728.23
1709.732,710.40
1710.595,743.30
1711.455,731.97
1712.318,699.90
1713.180,722.97
1714.040,718.37
1714.902,714.03
1715.764,701.63
1716.626,687.07
1717.486,729.97
1718.348,770.00
1719.209,713.77
1720.071,737.50
1720.930,700.73
1721.792,709.73
1722.653,698.97
1723.512,701.47
1724.374,709.33
1725.234,730.93
1726.095,705.83
1726.954,779.40
1727.815,739.50
1728.676,728.30
1729.535,747.60
1730.395,665.80
1731.256,687.37
1732.114,734.17
1732.974,692.03
1733.834,733.13
1734.693,715.47
1735.553,720.67
1736.413,708.77
1737.272,716.30
1738.130,729.93
1738.990,724.27
1739.849,720.77
1740.707,709.83
1741.566,705.97
1742.426,715.30
1743.283,720.83
1744.142,731.33
1745.001,689.70
1745.858,700.17
1746.717,700.53
1747.576,730.60
1748.433,695.97
1749.292,725.97
1750.150,725.77
1751.007,735.97
1751.865,652.70
1752.723,703.80
1753.579,720.47
1754.438,711.20
1755.296,715.20
1756.152,711.33
1757.010,710.00
1757.865,731.70
1758.723,719.37
1759.581,709.07
1760.436,713.77
1761.294,721.73
1762.151,721.23
1763.006,701.20
1763.864,671.37
1764.721,685.93
1765.576,718.33
1766.433,698.87
1767.288,716.37
1768.144,690.73
1769.001,704.27
1769.856,730.60
1770.712,712.83
1771.568,720.70
1772.423,691.57
1773.279,692.07
1774.133,716.90
1774.989,718.10
1775.845,701.13
1776.699,702.70
1777.555,711.57
1778.409,743.07
1779.265,701.93
1780.120,681.87
1780.974,668.27
1781.829,699.30
1782.682,698.20
1783.538,701.43
1784.393,721.77
1785.246,708.37
1786.101,731.50
1786.954,718.17
1787.808,710.83
1788.661,721.60
1789.516,694.17
1790.370,682.50
1791.223,736.13
1792.077,705.40
1792.930,707.27
1793.784,705.30
1794.636,707.33
1795.490,731.10
1796.344,712.07
1797.196,700.20
1798.049,687.40
1798.901,710.50
1799.755,701.47
1800.606,649.13
1801.460,669.03
1802.311,682.60
1803.165,698.43
1804.018,643.70
1804.869,697.57
1805.722,704.93
1806.573,707.00
1807.426,695.00
1808.276,682.30
1809.129,704.10
1809.980,617.00
1810.832,683.07
1811.683,681.00
1812.535,672.87
1813.385,703.53
1814.237,696.47
1815.089,721.30
1815.940,652.73
1816.791,708.57
1817.641,682.63
1818.493,680.00
1819.343,717.97
1820.194,716.13
1821.044,708.33
1821.895,716.70
1822.745,668.50
1823.596,676.00
1824.445,693.53
1825.296,722.73
1826.145,682.63
1826.996,709.93
1827.845,690.47
1828.695,655.83
1829.544,672.63
1830.395,667.10
1831.243,696.50
1832.094,677.70
1832.942,725.90
1833.792,723.97
1834.640,708.43
1835.490,654.10
1836.338,686.87
1837.186,685.57
1838.036,702.80
1838.884,683.50
1839.733,646.57
1840.581,673.30
1841.430,682.23
1842.278,727.57
1843.127,668.00
1843.974,669.80
1844.823,661.50
1845.671,684.53
1846.519,697.73
1847.366,691.47
1848.213,670.33
1849.062,672.33
1849.909,659.03
1850.757,690.90
1851.604,716.10
1852.452,638.40
1853.298,714.07
1854.146,682.07
1854.993,671.30
1855.839,710.70
1856.687,680.17
1857.532,698.37
1858.380,681.53
1859.226,659.10
1860.073,681.67
1860.919,665.37
1861.765,687.53
1862.612,668.83
1863.457,683.20
1864.304,671.87
1865.150,706.83
1865.995,638.50
1866.842,656.07
1867.686,709.83
1868.533,707.43
1869.378,701.13
1870.223,646.43
1871.069,723.47
1871.914,650.37
1872.760,687.07
1873.604,677.07
1874.448,690.63
1875.294,725.93
1876.139,654.37
1876.984,654.47
1877.828,706.70
1878.672,661.47
1879.518,664.80
1880.361,668.20
1881.205,700.00
1882.050,696.30
1882.894,650.40
1883.739,637.70
1884.582,657.90
1885.425,674.73
1886.270,683.73
1887.113,651.73
1887.956,687.67
1888.801,644.50
1889.644,651.17
1890.486,654.47
1891.331,646.47
1892.173,689.30
1893.017,683.63
1893.860,682.47
1894.702,690.63
1895.546,658.20
1896.388,663.93
1897.230,682.53
1898.074,648.27
1898.916,671.30
1899.757,646.87
1900.601,726.67
1901.443,618.83
1902.284,670.27
1903.125,684.83
1903.969,652.97
1904.810,681.23
1905.651,701.93
1906.494,674.30
1907.335,644.10
1908.176,691.00
1909.018,633.10
1909.859,666.73
1910.700,660.03
1911.542,678.70
1912.383,671.00
1913.223,670.67
1914.064,662.27
1914.906,655.60
1915.746,619.17
1916.586,692.93
1917.428,679.93
1918.268,692.50
1919.107,676.67
1919.947,654.83
1920.789,673.97
1921.628,666.47
1922.468,642.67
1923.309,680.30
1924.148,670.23
1924.988,644.03
1925.827,700.93
1926.667,654.83
1927.507,682.80
1928.345,699.90
1929.184,630.50
1930.025,682.57
1930.864,685.57
1931.702,663.60
1932.541,681.00
1933.381,656.03
1934.219,637.80
1935.057,667.40
1935.896,660.77
1936.735,663.90
1937.573,680.40
1938.411,685.57
1939.249,653.53
1940.089,689.87
1940.927,669.93
1941.764,662.03
1942.602,632.07
1943.439,645.20
1944.278,622.33
1945.115,689.83
1945.953,654.37
1946.790,722.87
1947.628,666.40
1948.465,692.57
1949.302,652.03
1950.139,637.17
1950.976,676.13
1951.814,700.40
1952.651,673.17
1953.487,626.73
1954.323,675.50
1955.160,667.70
1955.998,715.60
1956.834,660.93
1957.670,631.40
1958.506,672.13
1959.342,635.97
1960.177,674.47
1961.015,643.33
1961.850,671.77
1962.686,625.03
1963.521,654.13
1964.357,703.17
1965.192,640.57
1966.029,672.57
1966.864,646.47
1967.699,650.90
1968.534,702.63
1969.369,677.90
1970.204,647.00
1971.040,681.93
1971.875,648.30
1972.709,653.87
1973.544,692.17
1974.378,658.50
1975.212,631.30
1976.047,683.93
1976.882,636.10
1977.716,644.57
1978.550,638.07
1979.384,659.43
1980.218,626.53
1981.052,631.13
1981.885,648.10
1982.719,672.63
1983.554,674.43
1984.388,652.30
1985.221,655.47
1986.054,643.27
1986.887,683.40
1987.720,652.33
1988.553,644.83
1989.386,652.57
1990.219,684.97
1991.053,659.37
1991.886,648.63
1992.719,658.60
1993.551,683.57
1994.383,643.40
1995.216,664.90
1996.048,676.67
1996.880,651.67
1997.712,676.27
1998.544,636.57
1999.376,662.07
2000.208,653.77
2000.208,653.77

Max Intensity Wave.,219.929
Max Intensity Data,6989.13
Min Intensity Wave.,1809.980
Min Intensity Data,617.00
FWHM Wave.,401.353
FWHM Value,0.03
Pressure Wave.,686.740
Pressure Value [GPa],-19.50536
G/D Ratio,0.71430
G/D Gband Wave.,1630.929
G/D Gband Intensity,955.05
G/D Dband Wave.,1302.865
G/D Dband Intensity,1337.04

<< BACKGROUND SPECTRUM >>
Wave[dcm-1],No256
146.591,2248.00
147.626,2097.00
148.664,2008.00
149.699,2511.00
150.737,2215.00
151.772,2369.00
152.809,2359.00
153.846,2313.00
154.881,2386.00
155.918,1951.00
156.953,2258.00
157.989,2578.00
159.026,2415.00
160.060,2580.00
161.096,2839.00
162.130,2469.00
163.167,2540.00
164.200,2422.00
165.236,2612.00
166.272,2642.00
167.305,2259.00
168.341,2521.00
169.374,2725.00
170.409,2757.00
171.445,2693.00
172.477,2462.00
173.512,2363.00
174.545,2650.00
175.580,2838.00
176.614,3039.00
177.647,2780.00
178.681,3042.00
179.713,3273.00
180.747,2809.00
181.781,2694.00
182.813,3000.00
183.847,3048.00
184.878,2706.00
185.912,2967.00
186.945,3104.00
187.976,3028.00
189.010,2704.00
190.043,2777.00
191.073,2847.00
192.106,2697.00
193.137,3185.00
194.170,2521.00
195.202,2867.00
196.232,2655.00
197.265,2947.00
198.297,3050.00
199.327,2735.00
200.359,2918.00
201.388,3291.00
202.420,2855.00
203.452,3101.00
204.481,2682.00
205.512,3281.00
206.544,3043.00
207.573,3031.00
208.604,3318.00
209.635,3464.00
210.663,2946.00
211.694,2934.00
212.725,2783.00
213.753,2745.00
214.783,3321.00
215.813,3161.00
216.841,3017.00
217.871,3135.00
218.899,2887.00
219.929,3115.00
220.959,2835.00
221.986,3131.00
223.016,2739.00
224.045,3130.00
225.072,3095.00
226.101,3162.00
227.130,3174.00
228.157,2767.00
229.185,2324.00
230.214,3191.00
231.241,2777.00
232.269,2424.00
233.297,2647.00
234.323,3192.00
235.351,2763.00
236.379,3074.00
237.407,2729.00
238.433,2919.00
239.460,3072.00
240.488,3079.00
241.513,3141.00
242.540,3090.00
243.568,3171.00
244.592,3185.00
245.619,3198.00
246.646,2911.00
247.671,2953.00
248.697,2770.00
249.724,3014.00
250.748,2997.00
251.774,3019.00
252.801,3263.00
253.827,3077.00
254.850,3052.00
255.876,2643.00
256.902,3099.00
257.925,2951.00
258.951,2699.00
259.976,2772.00
260.999,3035.00
262.024,2746.00
263.049,3614.00
264.074,3079.00
265.097,2977.00
266.122,3034.00
267.146,3033.00
268.168,3200.00
269.193,2822.00
270.217,3183.00
271.241,2697.00
272.263,2854.00
273.287,3133.00
274.311,2728.00
275.332,3299.00
276.356,2839.00
277.379,3088.00
278.402,3071.00
279.424,2921.00
280.447,2899.00
281.470,2687.00
282.492,3017.00
283.513,2903.00
284.536,3091.00
285.558,3126.00
286.581,3091.00
287.601,2814.00
288.623,2763.00
289.645,3079.00
290.665,3068.00
291.687,3086.00
292.709,3089.00
293.730,3423.00
294.750,2847.00
295.771,2729.00
296.792,3001.00
297.813,2894.00
298.832,2983.00
299.853,2750.00
300.874,2934.00
301.895,2935.00
302.913,2949.00
303.934,3238.00
304.954,2997.00
305.975,4217.00
306.993,2722.00
308.013,3095.00
309.033,2977.00
310.052,2890.00
311.072,2866.00
312.090,3025.00
313.109,3243.00
314.129,3354.00
315.148,2949.00
316.165,3048.00
317.184,3211.00
318.203,2731.00
319.222,2712.00
320.238,3115.00
321.257,2793.00
322.275,2670.00
323.294,2930.00
324.312,3121.00
325.328,3247.00
326.346,3251.00
327.364,3181.00
328.382,3141.00
329.397,3118.00
330.415,3179.00
331.432,3167.00
332.450,3251.00
333.467,3403.00
334.482,2549.00
335.499,3326.00
336.516,2850.00
337.533,2575.00
338.547,2818.00
339.564,2835.00
340.580,3057.00
341.597,2949.00
342.613,3403.00
343.627,2949.00
344.643,2958.00
345.659,3115.00
346.675,2959.00
347.690,2863.00
348.704,3066.00
349.719,2905.00
350.735,2743.00
351.750,3142.00
352.765,3011.00
353.778,2933.00
354.793,3123.00
355.808,2851.00
356.822,3165.00
357.837,2623.00
358.851,3227.00
359.864,2963.00
360.878,2730.00
361.892,2894.00
362.906,3175.00
363.920,2591.00
364.932,3090.00
365.945,3061.00
366.959,2941.00
367.972,2886.00
368.986,2683.00
369.999,3352.00
371.010,2810.00
372.023,3363.00
373.036,2964.00
374.049,3355.00
375.061,3025.00
376.072,2936.00
377.084,2870.00
378.097,2709.00
379.109,3162.00
380.121,2978.00
381.133,2657.00
382.143,3064.00
383.155,2714.00
384.166,2877.00
385.178,3104.00
386.189,3139.00
387.201,2696.00
388.212,2884.00
389.221,2903.00
390.232,3037.00
391.243,2898.00
392.254,2989.00
393.264,2816.00
394.275,3174.00
395.283,3142.00
396.294,3565.00
397.304,3470.00
398.314,3025.00
399.324,2985.00
400.334,2660.00
401.344,3126.00
402.351,2660.00
403.361,3174.00
404.370,2927.00
405.380,2881.00
406.389,3276.00
407.398,3120.00
408.407,3084.00
409.414,3134.00
410.423,3255.00
411.431,2748.00
412.440,2629.00
413.448,3276.00
414.457,2832.00
415.465,2807.00
416.471,2849.00
417.479,2974.00
418.487,2764.00
419.495,3276.00
420.503,3079.00
421.510,2618.00
422.518,3129.00
423.525,3137.00
424.530,3352.00
425.537,2870.00
426.544,3180.00
427.551,2851.00
428.558,3499.00
429.565,3432.00
430.571,2889.00
431.578,2892.00
432.582,2855.00
433.588,2898.00
434.595,2593.00
435.601,3251.00
436.607,3225.00
437.612,2767.00
438.618,3320.00
439.624,2934.00
440.627,2891.00
441.633,3094.00
442.638,3619.00
443.643,3084.00
444.648,2997.00
445.653,3147.00
446.658,2861.00
447.663,3003.00
448.667,2901.00
449.672,2894.00
450.674,2950.00
451.678,2694.00
452.682,2862.00
453.687,2826.00
454.690,3609.00
455.694,3244.00
456.698,2545.00
457.702,2601.00
458.705,2761.00
459.709,2803.00
460.710,2877.00
461.713,3003.00
462.716,3043.00
463.719,2966.00
464.722,3126.00
465.725,2955.00
466.727,2855.00
467.730,3022.00
468.732,2724.00
469.735,3281.00
470.737,2874.00
471.737,2862.00
472.739,2913.00
473.741,2816.00
474.742,3043.00
475.744,3056.00
476.746,3005.00
477.747,2966.00
478.748,3125.00
479.750,2935.00
480.751,3029.00
481.752,3667.00
482.753,3085.00
483.751,3551.00
484.752,2591.00
485.753,2927.00
486.753,2827.00
487.753,2967.00
488.754,3390.00
489.754,2686.00
490.754,3311.00
491.754,3054.00
492.754,2691.00
493.753,2980.00
494.753,2920.00
495.752,3282.00
496.752,3021.00
497.749,2926.00
498.748,2829.00
499.747,3369.00
500.746,3073.00
501.745,2767.00
502.744,2720.00
503.742,3295.00
504.741,2915.00
505.739,2490.00
506.737,2895.00
507.735,3077.00
508.734,3370.00
509.732,3107.00
510.729,3297.00
511.727,2882.00
512.725,2907.00
513.720,2772.00
514.718,3207.00
515.715,2671.00
516.712,2617.00
517.709,2951.00
518.706,2900.00
519.703,3042.00
520.700,3178.00
521.696,3318.00
522.693,2915.00
523.689,2832.00
524.686,3168.00
525.682,2757.00
526.678,3452.00
527.674,2927.00
528.670,2561.00
529.666,3508.00
530.661,3430.00
531.657,3449.00
532.652,3130.00
533.648,2999.00
534.641,3185.00
535.636,3036.00
536.631,3086.00
537.626,3145.00
538.621,2735.00
539.616,2558.00
540.610,2493.00
541.605,2993.00
542.599,3034.00
543.593,2970.00
544.587,3872.00
545.581,2863.00
546.575,2959.00
547.569,3032.00
548.563,2708.00
549.557,2636.00
550.550,2782.00
551.543,2711.00
552.537,3128.00
553.530,2756.00
554.523,2764.00
555.516,3117.00
556.509,2914.00
557.502,2637.00
558.494,3173.00
559.487,2900.00
560.479,3126.00
561.472,3220.00
562.464,3098.00
563.456,3234.00
564.448,2909.00
565.440,2944.00
566.432,3312.00
567.423,2884.00
568.415,2857.00
569.404,3107.00
570.396,2812.00
571.387,3113.00
572.378,3024.00
573.369,3907.00
574.360,3646.00
575.351,2909.00
576.341,2839.00
577.332,2893.00
578.323,2650.00
579.313,2888.00
580.303,3199.00
581.293,3087.00
582.283,2994.00
583.273,3097.00
584.263,3032.00
585.253,3055.00
586.243,3094.00
587.232,2649.00
588.222,2906.00
589.211,3184.00
590.200,3050.00
591.189,2889.00
592.178,2931.00
593.167,3396.00
594.156,3257.00
595.145,2912.00
596.133,3442.00
597.122,3110.00
598.110,3184.00
599.098,2995.00
600.086,3016.00
601.074,3180.00
602.062,2829.00
603.050,2737.00
604.038,3103.00
605.025,2789.00
606.013,3177.00
607.000,3322.00
607.987,3039.00
608.975,3014.00
609.962,2770.00
610.949,3070.00
611.936,3208.00
612.922,3143.00
613.909,2661.00
614.895,3321.00
615.882,2817.00
616.868,3021.00
617.854,2714.00
618.841,2971.00
619.826,3082.00
620.812,2959.00
621.798,2782.00
622.784,3153.00
623.769,3067.00
624.755,2689.00
625.740,3042.00
626.725,2705.00
627.711,2815.00
628.698,3058.00
629.683,2779.00
630.667,3157.00
631.652,2735.00
632.637,2923.00
633.621,3124.00
634.606,2894.00
635.590,3074.00
636.574,2895.00
637.558,3042.00
638.542,3044.00
639.526,2809.00
640.510,2656.00
641.493,3022.00
642.477,2964.00
643.460,2688.00
644.444,3203.00
645.427,3208.00
646.410,2661.00
647.393,2933.00
648.376,3072.00
649.359,2899.00
650.341,3096.00
651.324,3070.00
652.307,3031.00
653.289,2925.00
654.271,2842.00
655.253,2881.00
656.235,3113.00
657.217,3222.00
658.199,2622.00
659.181,2772.00
660.163,2975.00
661.144,2846.00
662.126,2905.00
663.107,2788.00
664.088,6164.00
665.069,3174.00
666.050,2805.00
667.033,2683.00
668.014,3033.00
668.995,2577.00
669.975,2964.00
670.956,2967.00
671.936,3107.00
672.916,2935.00
673.896,3059.00
674.876,2892.00
675.856,2806.00
676.836,2731.00
677.816,2294.00
678.795,2819.00
679.775,2673.00
680.754,3024.00
681.734,3118.00
682.713,3132.00
683.692,2763.00
684.671,2662.00
685.650,2753.00
686.629,2837.00
687.607,2713.00
688.586,2786.00
689.564,2820.00
690.543,3235.00
691.523,2422.00
692.501,2822.00
693.479,2929.00
694.457,2781.00
695.435,2826.00
696.413,2645.00
697.390,2505.00
698.368,2674.00
699.345,3078.00
700.322,2880.00
701.300,3054.00
702.277,3031.00
703.254,3208.00
704.231,2572.00
705.207,2944.00
706.184,2753.00
707.161,2659.00
708.137,2824.00
709.113,2804.00
710.090,2757.00
711.068,2546.00
712.044,2590.00
713.020,2860.00
713.996,2597.00
714.971,2782.00
715.947,2837.00
716.922,2804.00
717.898,2768.00
718.873,2847.00
719.848,2701.00
720.823,2654.00
721.798,2949.00
722.773,2760.00
723.748,2555.00
724.723,2990.00
725.697,2833.00
726.672,2703.00
727.646,2501.00
728.622,2938.00
729.596,2568.00
730.570,2723.00
731.544,3066.00
732.518,3279.00
733.492,2852.00
734.466,2884.00
735.439,2946.00
736.413,3113.00
737.386,2451.00
738.359,2376.00
739.332,2548.00
740.305,2813.00
741.278,3291.00
742.251,2903.00
743.224,2725.00
744.196,2549.00
745.171,3090.00
746.143,3027.00
747.115,2730.00
748.087,2694.00
749.059,3046.00
750.031,2904.00
751.003,3674.00
751.975,3236.00
752.947,2701.00
753.918,3073.00
754.890,2556.00
755.861,2776.00
756.832,2997.00
757.803,2807.00
758.774,2819.00
759.747,2596.00
760.718,3141.00
761.689,2763.00
762.659,2575.00
763.630,3122.00
764.600,2553.00
765.570,3003.00
766.540,3150.00
767.510,2931.00
768.480,3041.00
769.450,2723.00
770.420,2835.00
771.390,2624.00
772.359,2738.00
773.329,2650.00
774.300,2471.00
775.269,2743.00
776.238,2933.00
777.207,3165.00
778.176,2477.00
779.145,2746.00
780.114,2650.00
781.083,2579.00
782.051,2710.00
783.019,2666.00
783.988,3056.00
784.956,2856.00
785.924,2974.00
786.894,2872.00
787.862,2677.00
788.830,3100.00
789.797,2616.00
790.765,2592.00
791.732,2736.00
792.700,2634.00
793.667,2556.00
794.634,2712.00
795.601,2741.00
796.568,2793.00
797.535,2765.00
798.502,3433.00
799.468,2921.00
800.437,2399.00
801.403,2655.00
802.370,3195.00
803.336,2962.00
804.302,2874.00
805.268,2451.00
806.234,2551.00
807.200,2715.00
808.166,2792.00
809.131,2568.00
810.097,2962.00
811.062,3635.00
812.027,2978.00
812.994,2617.00
813.960,2612.00
814.925,2925.00
815.889,2506.00
816.854,3025.00
817.819,2598.00
818.783,2701.00
819.748,3103.00
820.712,2764.00
821.677,2679.00
822.641,2681.00
823.605,2694.00
824.571,3131.00
825.534,2697.00
826.498,2714.00
827.462,2798.00
828.425,2624.00
829.389,3058.00
830.352,2810.00
831.315,2908.00
832.279,2497.00
833.242,2729.00
834.204,2649.00
835.167,2629.00
836.132,3048.00
837.095,2483.00
838.057,2690.00
839.020,2802.00
839.982,2826.00
840.944,2636.00
841.906,2635.00
842.868,2924.00
843.830,2536.00
844.792,3068.00
845.753,2700.00
846.715,2458.00
847.679,2605.00
848.640,2568.00
849.601,2748.00
850.562,3260.00
851.523,2709.00
852.484,2495.00
853.445,2953.00
854.406,2700.00
855.367,2716.00
856.327,2991.00
857.288,2494.00
858.248,2694.00
859.210,2669.00
860.170,2517.00
861.130,3022.00
862.090,2424.00
863.050,2644.00
864.010,2715.00
864.969,2907.00
865.929,2608.00
866.888,2508.00
867.848,2808.00
868.807,2651.00
869.766,2831.00
870.727,2741.00
871.686,2977.00
872.645,2952.00
873.604,3274.00
874.562,2770.00
875.521,2770.00
876.479,3354.00
877.437,2584.00
878.396,2593.00
879.354,3189.00
880.312,2588.00
881.270,2628.00
882.229,3092.00
883.187,2590.00
884.145,2678.00
885.102,2917.00
886.059,2817.00
887.017,2869.00
887.974,2973.00
888.931,3041.00
889.888,2498.00
890.845,2382.00
891.802,2354.00
892.758,2622.00
893.717,2430.00
894.673,2512.00
895.630,2584.00
896.586,2885.00
897.542,2681.00
898.498,2541.00
899.454,2860.00
900.410,2668.00
901.366,2638.00
902.321,2634.00
903.277,2670.00
904.232,2737.00
905.189,2473.00
906.145,2653.00
907.100,2224.00
908.055,2716.00
909.010,2931.00
909.965,2350.00
910.919,2758.00
911.874,2553.00
912.828,2760.00
913.783,2759.00
914.737,2360.00
915.693,2757.00
916.648,2882.00
917.602,2945.00
918.555,2774.00
919.509,2841.00
920.463,2739.00
921.417,2780.00
922.370,2547.00
923.324,2704.00
924.277,2671.00
925.230,2782.00
926.183,2397.00
927.138,2666.00
928.091,2948.00
929.044,2839.00
929.996,2648.00
930.949,2635.00
931.902,2832.00
932.854,2836.00
933.806,2566.00
934.758,2981.00
935.711,2990.00
936.663,2761.00
937.614,2813.00
938.568,2733.00
939.520,2407.00
940.471,2716.00
941.423,2731.00
942.374,2874.00
943.326,2782.00
944.277,2583.00
945.228,2825.00
946.179,2710.00
947.130,3020.00
948.080,2701.00
949.031,2551.00
949.984,2702.00
950.934,2700.00
951.884,2460.00
952.835,2702.00
953.785,2759.00
954.735,2612.00
955.685,2365.00
956.635,2640.00
957.585,2645.00
958.534,2655.00
959.484,2757.00
960.433,2603.00
961.383,2469.00
962.334,2939.00
963.283,2767.00
964.232,2826.00
965.181,2731.00
966.130,2774.00
967.079,2639.00
968.027,2739.00
968.976,2728.00
969.924,2598.00
970.873,2796.00
971.821,2750.00
972.769,2906.00
973.719,2837.00
974.667,2497.00
975.615,2697.00
976.562,2712.00
977.510,2401.00
978.458,2638.00
979.405,2822.00
980.352,2770.00
981.300,2952.00
982.247,2742.00
983.194,2556.00
984.141,2636.00
985.088,2704.00
986.036,2764.00
986.983,2980.00
987.930,3153.00
988.876,2392.00
989.822,2937.00
990.769,2553.00
991.715,2624.00
992.661,2402.00
993.607,2772.00
994.553,3239.00
995.498,2615.00
996.444,2301.00
997.389,2789.00
998.337,2521.00
999.282,2851.00
1000.227,2678.00
1001.173,2691.00
1002.118,2426.00
1003.062,2923.00
1004.007,2706.00
1004.952,3021.00
1005.897,2930.00
1006.841,2657.00
1007.786,2454.00
1008.730,2449.00
1009.674,3182.00
1010.618,2621.00
1011.564,2515.00
1012.508,2401.00
1013.452,2947.00
1014.396,2737.00
1015.339,2586.00
1016.283,2686.00
1017.226,2758.00
1018.170,2718.00
1019.113,2890.00
1020.056,2756.00
1020.999,2708.00
1021.942,2596.00
1022.885,2860.00
1023.828,3017.00
1024.770,2504.00
1025.715,2725.00
1026.657,2673.00
1027.600,2753.00
1028.542,2907.00
1029.484,2732.00
1030.426,2863.00
1031.368,2770.00
1032.310,2582.00
1033.251,2530.00
1034.193,2700.00
1035.135,2506.00
1036.076,2612.00
1037.017,2532.00
1037.959,2792.00
1038.900,2797.00
1039.843,2805.00
1040.784,2773.00
1041.725,2780.00
1042.665,2608.00
1043.606,2774.00
1044.547,2739.00
1045.487,2351.00
1046.427,2665.00
1047.368,2797.00
1048.308,2248.00
1049.248,2535.00
1050.188,2715.00
1051.128,2598.00
1052.067,2683.00
1053.007,2388.00
1053.947,2410.00
1054.886,2570.00
1055.827,2473.00
1056.766,2907.00
1057.706,2441.00
1058.645,2652.00
1059.584,2768.00
1060.522,2942.00
1061.461,2403.00
1062.400,2502.00
1063.338,2668.00
1064.277,2481.00
1065.215,2493.00
1066.154,2419.00
1067.092,2572.00
1068.030,2629.00
1068.968,2879.00
1069.906,2974.00
1070.843,2995.00
1071.781,2764.00
1072.720,2806.00
1073.658,2827.00
1074.595,2601.00
1075.533,2590.00
1076.470,2588.00
1077.407,2972.00
1078.344,2783.00
1079.281,2802.00
1080.217,2320.00
1081.154,2677.00
1082.091,2733.00
1083.027,2459.00
1083.964,2920.00
1084.900,2549.00
1085.836,2602.00
1086.772,2883.00
1087.708,2475.00
1088.644,2796.00
1089.580,2651.00
1090.515,2716.00
1091.451,2598.00
1092.388,2703.00
1093.324,2461.00
1094.259,3222.00
1095.194,2740.00
1096.129,2588.00
1097.064,2554.00
1097.999,2810.00
1098.934,2525.00
1099.869,2561.00
1100.803,2729.00
1101.738,2725.00
1102.672,2368.00
1103.607,2822.00
1104.541,2543.00
1105.475,2534.00
1106.409,2414.00
1107.343,2592.00
1108.277,2448.00
1109.210,2703.00
1110.144,2680.00
1111.078,2688.00
1112.011,2444.00
1112.944,2792.00
1113.878,2735.00
1114.811,2197.00
1115.744,2592.00
1116.678,2277.00
1117.611,2576.00
1118.544,2595.00
1119.477,2722.00
1120.409,2541.00
1121.342,3094.00
1122.274,2732.00
1123.206,3039.00
1124.138,2668.00
1125.070,2994.00
1126.002,2848.00
1126.934,2301.00
1127.866,2538.00
1128.798,2317.00
1129.729,2380.00
1130.661,2633.00
1131.592,2590.00
1132.523,2772.00
1133.454,2774.00
1134.385,2293.00
1135.317,2643.00
1136.247,2565.00
1137.178,2845.00
1138.109,2369.00
1139.039,3034.00
1139.970,2819.00
1140.900,2578.00
1141.831,2338.00
1142.761,2210.00
1143.691,2732.00
1144.621,2651.00
1145.551,2685.00
1146.480,2688.00
1147.410,2840.00
1148.340,2328.00
1149.269,2355.00
1150.199,2602.00
1151.128,3029.00
1152.057,2417.00
1152.979,2593.00
1153.898,2623.00
1154.819,2748.00
1155.739,2634.00
1156.658,2562.00
1157.579,2674.00
1158.498,2638.00
1159.419,2184.00
1160.338,2652.00
1161.256,2696.00
1162.177,2489.00
1163.095,2644.00
1164.016,2729.00
1164.934,2892.00
1165.852,2841.00
1166.772,2662.00
1167.690,2636.00
1168.610,2731.00
1169.528,2641.00
1170.446,2207.00
1171.365,2576.00
1172.283,2521.00
1173.202,2610.00
1174.120,2650.00
1175.037,2487.00
1175.956,2460.00
1176.873,2522.00
1177.792,2536.00
1178.709,3061.00
1179.626,2531.00
1180.544,2885.00
1181.461,2548.00
1182.379,2748.00
1183.296,2646.00
1184.212,2279.00
1185.130,2530.00
1186.046,2941.00
1186.962,2625.00
1187.880,2921.00
1188.796,2651.00
1189.714,2460.00
1190.629,2762.00
1191.545,2699.00
1192.462,2586.00
1193.378,2622.00
1194.295,2360.00
1195.210,2660.00
1196.125,2763.00
1197.042,2665.00
1197.957,2628.00
1198.872,2496.00
1199.788,2536.00
1200.703,2911.00
1201.619,2650.00
1202.534,2492.00
1203.448,2685.00
1204.364,2505.00
1205.278,2331.00
1206.192,2680.00
1207.108,3137.00
1208.022,2966.00
1208.938,2470.00
1209.851,2767.00
1210.765,2872.00
1211.680,2526.00
1212.594,2428.00
1213.507,2549.00
1214.422,3014.00
1215.335,2741.00
1216.248,2600.00
1217.163,2657.00
1218.076,3242.00
1218.990,2764.00
1219.903,2403.00
1220.816,2461.00
1221.730,2603.00
1222.642,2520.00
1223.554,2537.00
1224.469,2730.00
1225.380,2559.00
1226.292,2291.00
1227.206,2744.00
1228.118,2931.00
1229.032,2248.00
1229.943,2514.00
1230.855,2606.00
1231.768,2361.00
1232.679,2734.00
1233.590,2565.00
1234.503,2844.00
1235.414,2493.00
1236.325,2503.00
1237.238,2713.00
1238.149,2679.00
1239.059,2460.00
1239.972,2779.00
1240.882,2454.00
1241.793,2767.00
1242.705,2983.00
1243.615,2608.00
1244.525,2711.00
1245.437,2216.00
1246.347,2674.00
1247.259,2818.00
1248.168,3112.00
1249.078,2878.00
1249.989,2881.00
1250.899,2424.00
1251.808,2481.00
1252.719,2588.00
1253.628,2529.00
1254.537,2975.00
1255.448,2469.00
1256.357,2443.00
1257.266,2628.00
1258.176,2375.00
1259.085,2355.00
1259.993,2418.00
1260.904,2431.00
1261.812,2468.00
1262.720,3214.00
1263.630,2778.00
1264.538,2440.00
1265.446,2718.00
1266.356,2593.00
1267.263,2936.00
1268.171,2425.00
1269.080,2688.00
1269.988,2793.00
1270.895,2514.00
1271.804,2573.00
1272.711,2791.00
1273.619,2761.00
1274.527,2415.00
1275.434,2720.00
1276.341,2427.00
1277.248,2679.00
1278.156,2890.00
1279.063,2519.00
1279.969,2700.00
1280.877,3510.00
1281.783,2831.00
1282.690,2693.00
1283.598,2598.00
1284.503,2504.00
1285.409,2464.00
1286.317,3015.00
1287.223,2979.00
1288.128,2649.00
1289.036,2541.00
1289.941,2556.00
1290.846,2619.00
1291.751,2490.00
1292.658,2546.00
1293.563,3070.00
1294.468,2648.00
1295.375,2762.00
1296.280,2872.00
1297.184,3300.00
1298.091,2757.00
1298.995,2788.00
1299.900,2992.00
1300.806,2544.00
1301.710,2420.00
1302.614,2179.00
1303.518,2845.00
1304.424,2560.00
1305.327,2837.00
1306.231,2624.00
1307.137,2783.00
1308.040,2674.00
1308.943,2664.00
1309.847,2807.00
1310.752,2792.00
1311.655,2318.00
1312.558,2420.00
1313.463,2568.00
1314.366,2539.00
1315.269,2677.00
1316.171,2617.00
1317.076,2536.00
1317.978,2412.00
1318.881,2226.00
1319.785,2495.00
1320.687,2506.00
1321.589,2225.00
1322.491,2452.00
1323.395,2709.00
1324.297,3170.00
1325.198,2796.00
1326.102,2431.00
1327.004,2485.00
1327.905,3002.00
1328.806,2608.00
1329.709,2673.00
1330.611,2579.00
1331.512,2419.00
1332.413,3101.00
1333.316,2656.00
1334.216,2822.00
1335.117,2366.00
1336.020,2627.00
1336.920,2646.00
1337.821,2516.00
1338.721,2857.00
1339.623,2701.00
1340.523,2607.00
1341.423,2544.00
1342.323,2893.00
1343.225,2706.00
1344.125,2446.00
1345.025,2550.00
1345.924,2280.00
1346.826,2959.00
1347.725,3025.00
1348.624,2836.00
1349.524,2497.00
1350.425,2560.00
1351.324,2711.00
1352.223,2803.00
1353.121,2604.00
1354.022,2843.00
1354.921,2997.00
1355.819,2751.00
1356.718,2654.00
1357.618,2432.00
1358.516,2711.00
1359.415,2987.00
1360.313,2719.00
1361.213,2573.00
1362.111,2877.00
1363.008,3271.00
1363.906,2606.00
1364.806,2607.00
1365.703,2714.00
1366.601,2467.00
1367.498,2434.00
1368.397,2801.00
1369.295,2679.00
1370.192,2440.00
1371.089,2690.00
1371.987,2625.00
1372.884,2859.00
1373.781,2402.00
1374.678,2649.00
1375.574,2416.00
1376.473,2738.00
1377.369,2839.00
1378.265,2436.00
1379.161,2555.00
1380.059,2352.00
1380.955,2736.00
1381.851,2415.00
1382.747,2504.00
1383.643,2554.00
1384.540,2405.00
1385.436,2540.00
1386.331,2651.00
1387.227,2765.00
1388.124,2697.00
1389.019,2459.00
1389.914,2592.00
1390.809,2275.00
1391.704,3055.00
1392.601,2547.00
1393.495,2910.00
1394.390,2785.00
1395.285,2883.00
1396.179,2699.00
1397.075,2587.00
1397.969,2672.00
1398.864,2322.00
1399.758,2567.00
1400.652,2627.00
1401.547,2426.00
1402.441,2400.00
1403.335,2964.00
1404.229,2674.00
1405.122,2719.00
1406.017,2621.00
1406.911,2744.00
1407.804,3012.00
1408.697,2641.00
1409.590,2430.00
1410.485,2830.00
1411.378,2693.00
1412.271,2361.00
1413.163,2678.00
1414.056,2765.00
1414.949,2993.00
1415.843,2651.00
1416.735,2575.00
1417.627,2629.00
1418.520,2603.00
1419.412,2827.00
1420.306,2794.00
1421.197,2906.00
1422.089,2823.00
1422.981,3046.00
1423.873,2835.00
1424.764,2756.00
1425.657,2653.00
1426.549,2750.00
1427.440,2820.00
1428.331,2539.00
1429.222,2329.00
1430.113,2703.00
1431.006,2813.00
1431.897,2556.00
1432.787,2634.00
1433.678,2575.00
1434.568,2470.00
1435.459,2839.00
1436.351,2829.00
1437.241,2752.00
1438.131,2779.00
1439.021,2373.00
1439.911,2626.00
1440.801,2707.00
1441.693,2865.00
1442.583,2643.00
1443.472,2658.00
1444.362,2753.00
1445.251,2590.00
1446.140,2586.00
1447.030,2846.00
1447.921,2848.00
1448.810,2463.00
1449.699,2997.00
1450.588,2680.00
1451.476,2569.00
1452.365,2741.00
1453.254,2538.00
1454.144,2498.00
1455.032,2756.00
1455.921,2370.00
1456.809,2927.00
1457.697,2428.00
1458.585,2568.00
1459.473,2608.00
1460.361,2476.00
1461.251,2670.00
1462.138,2677.00
1463.026,2604.00
1463.913,2836.00
1464.801,2541.00
1465.688,2725.00
1466.575,2646.00
1467.463,3080.00
1468.351,2520.00
1469.238,2623.00
1470.125,2247.00
1471.012,2680.00
1471.899,2721.00
1472.785,2444.00
1473.672,2646.00
1474.558,2867.00
1475.446,2781.00
1476.333,2787.00
1477.219,2416.00
1478.105,2616.00
1478.991,2635.00
1479.877,2939.00
1480.762,2647.00
1481.648,2524.00
1482.534,2748.00
1483.419,2706.00
1484.307,2758.00
1485.192,2583.00
1486.077,2441.00
1486.962,2524.00
1487.847,2401.00
1488.732,2484.00
1489.617,2623.00
1490.502,2914.00
1491.387,2744.00
1492.271,2471.00
1493.156,2449.00
1494.042,2446.00
1494.927,2816.00
1495.811,2524.00
1496.695,2750.00
1497.579,2902.00
1498.463,2656.00
1499.347,2689.00
1500.231,2665.00
1501.114,2700.00
1501.998,2909.00
1502.881,2697.00
1503.765,2959.00
1504.648,3034.00
1505.533,2728.00
1506.417,2638.00
1507.300,2610.00
1508.183,2718.00
1509.066,2141.00
1509.948,2880.00
1510.831,2969.00
1511.714,2425.00
1512.596,2757.00
1513.479,2870.00
1514.361,2825.00
1515.243,2711.00
1516.125,2807.00
1517.008,2914.00
1517.890,2604.00
1518.771,2694.00
1519.655,2887.00
1520.537,2583.00
1521.419,2488.00
1522.300,2701.00
1523.182,2740.00
1524.063,2786.00
1524.944,2931.00
1525.825,2848.00
1526.707,2467.00
1527.588,2452.00
1528.468,2721.00
1529.349,2338.00
1530.230,2573.00
1531.111,2807.00
1531.991,2681.00
1532.872,2335.00
1533.752,2625.00
1534.632,2503.00
1535.513,2542.00
1536.393,2807.00
1537.273,2951.00
1538.153,3294.00
1539.032,2394.00
1539.912,2648.00
1540.792,2659.00
1541.672,2642.00
1542.551,2752.00
1543.430,3232.00
1544.310,2688.00
1545.189,2543.00
1546.068,3037.00
1546.947,2760.00
1547.826,2920.00
1548.705,2689.00
1549.584,2867.00
1550.462,2586.00
1551.341,2808.00
1552.219,2721.00
1553.098,2822.00
1553.976,2850.00
1554.854,3021.00
1555.733,2820.00
1556.611,2578.00
1557.489,2416.00
1558.367,2668.00
1559.244,2798.00
1560.122,2645.00
1561.000,2713.00
1561.877,2917.00
1562.755,2505.00
1563.632,2616.00
1564.509,2930.00
1565.386,3022.00
1566.264,2399.00
1567.141,2282.00
1568.017,2768.00
1568.894,2648.00
1569.771,2693.00
1570.648,2762.00
1571.524,2652.00
1572.401,2400.00
1573.277,2441.00
1574.153,2722.00
1575.029,2489.00
1575.906,3320.00
1576.781,2824.00
1577.657,2586.00
1578.533,2885.00
1579.409,2283.00
1580.285,2561.00
1581.160,3060.00
1582.036,2793.00
1582.911,2495.00
1583.786,2982.00
1584.662,2451.00
1585.537,2632.00
1586.412,2695.00
1587.287,2506.00
1588.160,2820.00
1589.035,2318.00
1589.909,2685.00
1590.784,2587.00
1591.658,2460.00
1592.533,2700.00
1593.407,2668.00
1594.281,2551.00
1595.155,3022.00
1596.029,2557.00
1596.903,2605.00
1597.777,2569.00
1598.651,2922.00
1599.525,2388.00
1600.398,2663.00
1601.272,2634.00
1602.144,3126.00
1603.017,2624.00
1603.890,2860.00
1604.763,2718.00
1605.636,2825.00
1606.509,2384.00
1607.382,2485.00
1608.255,2705.00
1609.128,2881.00
1610.000,2626.00
1610.873,2364.00
1611.746,2551.00
1612.616,2586.00
1613.488,2239.00
1614.361,2660.00
1615.233,2577.00
1616.105,2867.00
1616.977,2545.00
1617.849,2531.00
1618.720,2969.00
1619.592,2927.00
1620.464,2750.00
1621.333,3102.00
1622.205,2659.00
1623.076,2635.00
1623.947,2643.00
1624.818,2888.00
1625.689,2752.00
1626.560,2578.00
1627.431,2710.00
1628.302,3051.00
1629.171,2768.00
1630.042,2988.00
1630.912,3305.00
1631.782,3229.00
1632.653,2447.00
1633.523,2809.00
1634.393,2876.00
1635.263,2523.00
1636.131,2658.00
1637.001,2578.00
1637.871,2295.00
1638.741,2304.00
1639.611,2442.00
1640.480,2785.00
1641.350,2536.00
1642.219,2507.00
1643.087,2176.00
1643.956,3080.00
1644.825,2911.00
1645.694,2824.00
1646.563,2799.00
1647.432,2692.00
1648.299,2665.00
1649.167,2806.00
1650.036,2456.00
1650.904,2782.00
1651.773,2881.00
1652.641,2654.00
1653.509,2840.00
1654.376,2525.00
1655.244,2700.00
1656.112,2683.00
1656.980,2645.00
1657.847,2521.00
1658.715,2814.00
1659.581,2565.00
1660.448,2886.00
1661.316,2203.00
1662.183,2675.00
1663.051,2713.00
1663.918,2687.00
1664.783,2708.00
1665.650,2750.00
1666.517,2839.00
1667.384,2691.00
1668.251,2690.00
1669.115,2864.00
1669.982,2609.00
1670.849,2935.00
1671.715,2623.00
1672.581,2816.00
1673.446,2733.00
1674.312,2694.00
1675.178,3019.00
1676.044,2751.00
1676.910,2721.00
1677.774,2715.00
1678.639,2329.00
1679.505,2623.00
1680.370,2806.00
1681.236,3271.00
1682.099,2626.00
1682.965,2730.00
1683.830,2243.00
1684.695,2484.00
1685.560,2602.00
1686.423,2808.00
1687.288,2805.00
1688.153,2718.00
1689.017,2620.00
1689.880,2752.00
1690.745,2821.00
1691.609,2526.00
1692.473,2760.00
1693.338,2913.00
1694.200,2925.00
1695.064,2694.00
1695.928,2548.00
1696.792,2673.00
1697.654,3162.00
1698.517,2702.00
1699.381,2433.00
1700.245,2352.00
1701.106,2950.00
1701.969,2568.00
1702.833,2836.00
1703.696,2587.00
1704.557,2645.00
1705.420,2520.00
1706.283,2688.00
1707.146,2832.00
1708.007,2463.00
1708.870,2458.00
1709.732,2369.00
1710.595,2532.00
1711.455,2421.00
1712.318,2599.00
1713.180,2925.00
1714.040,2714.00
1714.902,2837.00
1715.764,2691.00
1716.626,2479.00
1717.486,2606.00
1718.348,2869.00
1719.209,4110.00
1720.071,2307.00
1720.930,2431.00
1721.792,2521.00
1722.653,2530.00
1723.512,2568.00
1724.374,2622.00
1725.234,2698.00
1726.095,2694.00
1726.954,2597.00
1727.815,2757.00
1728.676,2641.00
1729.535,2853.00
1730.395,2680.00
1731.256,2603.00
1732.114,2702.00
1732.974,2170.00
1733.834,2991.00
1734.693,2828.00
1735.553,2679.00
1736.413,3077.00
1737.272,2552.00
1738.130,2587.00
1738.990,2736.00
1739.849,2554.00
1740.707,3638.00
1741.566,2708.00
1742.426,2706.00
1743.283,3044.00
1744.142,2529.00
1745.001,2361.00
1745.858,2845.00
1746.717,2740.00
1747.576,2740.00
1748.433,2823.00
1749.292,3218.00
1750.150,3258.00
1751.007,2837.00
1751.865,2925.00
1752.723,2686.00
1753.579,2580.00
1754.438,2876.00
1755.296,2866.00
1756.152,2243.00
1757.010,2352.00
1757.865,2848.00
1758.723,2320.00
1759.581,2976.00
1760.436,2619.00
1761.294,3009.00
1762.151,2637.00
1763.006,2596.00
1763.864,2348.00
1764.721,2878.00
1765.576,2674.00
1766.433,2822.00
1767.288,2564.00
1768.144,2725.00
1769.001,2629.00
1769.856,2724.00
1770.712,2876.00
1771.568,2444.00
1772.423,2578.00
1773.279,2590.00
1774.133,2561.00
1774.989,3041.00
1775.845,3041.00
1776.699,2904.00
1777.555,2641.00
1778.409,3158.00
1779.265,2631.00
1780.120,2646.00
1780.974,2685.00
1781.829,2287.00
1782.682,2728.00
1783.538,2491.00
1784.393,2696.00
1785.246,2555.00
1786.101,2742.00
1786.954,2765.00
1787.808,2874.00
1788.661,2385.00
1789.516,2595.00
1790.370,2628.00
1791.223,2814.00
1792.077,2656.00
1792.930,2739.00
1793.784,2539.00
1794.636,2677.00
1795.490,2605.00
1796.344,2677.00
1797.196,2659.00
1798.049,2846.00
1798.901,2547.00
1799.755,2878.00
1800.606,2510.00
1801.460,3198.00
1802.311,2976.00
1803.165,3054.00
1804.018,3069.00
1804.869,2756.00
1805.722,3113.00
1806.573,2701.00
1807.426,2501.00
1808.276,2683.00
1809.129,2572.00
1809.980,2939.00
1810.832,2967.00
1811.683,2603.00
1812.535,3018.00
1813.385,2604.00
1814.237,2943.00
1815.089,2682.00
1815.940,2982.00
1816.791,2601.00
1817.641,2552.00
1818.493,2830.00
1819.343,2724.00
1820.194,2524.00
1821.044,2763.00
1821.895,2865.00
1822.745,2425.00
1823.596,2576.00
1824.445,3064.00
1825.296,2755.00
1826.145,2651.00
1826.996,2846.00
1827.845,2721.00
1828.695,2769.00
1829.544,2670.00
1830.395,2742.00
1831.243,2581.00
1832.094,2434.00
1832.942,3234.00
1833.792,2760.00
1834.640,2725.00
1835.490,2722.00
1836.338,2745.00
1837.186,2576.00
1838.036,2524.00
1838.884,2678.00
1839.733,3029.00
1840.581,2867.00
1841.430,2805.00
1842.278,2973.00
1843.127,2585.00
1843.974,2383.00
1844.823,3126.00
1845.671,2826.00
1846.519,2675.00
1847.366,2742.00
1848.213,2343.00
1849.062,2521.00
1849.909,2440.00
1850.757,3298.00
1851.604,2752.00
1852.452,2650.00
1853.298,2831.00
1854.146,2733.00
1854.993,2733.00
1855.839,3149.00
1856.687,2804.00
1857.532,2795.00
1858.380,2702.00
1859.226,2763.00
1860.073,2798.00
1860.919,2540.00
1861.765,2571.00
1862.612,2940.00
1863.457,2898.00
1864.304,2645.00
1865.150,2776.00
1865.995,2703.00
1866.842,2816.00
1867.686,2884.00
1868.533,2734.00
1869.378,2720.00
1870.223,2746.00
1871.069,2533.00
1871.914,2729.00
1872.760,2661.00
1873.604,2480.00
1874.448,2817.00
1875.294,2823.00
1876.139,2582.00
1876.984,2819.00
1877.828,2328.00
1878.672,2226.00
1879.518,2582.00
1880.361,2880.00
1881.205,2819.00
1882.050,2481.00
1882.894,3204.00
1883.739,2596.00
1884.582,2480.00
1885.425,2518.00
1886.270,2923.00
1887.113,2472.00
1887.956,2765.00
1888.801,2776.00
1889.644,2521.00
1890.486,2318.00
1891.331,2645.00
1892.173,2723.00
1893.017,2748.00
1893.860,2959.00
1894.702,2964.00
1895.546,2714.00
1896.388,3379.00
1897.230,3029.00
1898.074,2622.00
1898.916,2484.00
1899.757,2548.00
1900.601,3303.00
1901.443,3015.00
1902.284,2980.00
1903.125,3145.00
1903.969,2896.00
1904.810,2907.00
1905.651,2746.00
1906.494,2997.00
1907.335,3159.00
1908.176,2797.00
1909.018,2815.00
1909.859,2660.00
1910.700,2579.00
1911.542,3206.00
1912.383,2762.00
1913.223,2335.00
1914.064,2837.00
1914.906,2962.00
1915.746,3076.00
1916.586,3128.00
1917.428,2678.00
1918.268,2718.00
1919.107,2597.00
1919.947,2489.00
1920.789,2617.00
1921.628,2921.00
1922.468,2709.00
1923.309,2538.00
1924.148,3007.00
1924.988,2798.00
1925.827,2650.00
1926.667,2606.00
1927.507,2736.00
1928.345,2498.00
1929.184,2888.00
1930.025,2524.00
1930.864,2933.00
1931.702,3012.00
1932.541,2601.00
1933.381,2844.00
1934.219,2884.00
1935.057,2979.00
1935.896,2413.00
1936.735,2659.00
1937.573,2600.00
1938.411,2484.00
1939.249,2874.00
1940.089,2570.00
1940.927,2942.00
1941.764,2976.00
1942.602,2660.00
1943.439,2608.00
1944.278,2705.00
1945.115,2600.00
1945.953,2461.00
1946.790,2720.00
1947.628,3033.00
1948.465,2778.00
1949.302,2861.00
1950.139,2870.00
1950.976,2573.00
1951.814,2831.00
1952.651,2765.00
1953.487,2555.00
1954.323,2940.00
1955.160,2686.00
1955.998,3011.00
1956.834,2690.00
1957.670,2802.00
1958.506,2916.00
1959.342,2829.00
1960.177,2739.00
1961.015,2865.00
1961.850,2736.00
1962.686,2792.00
1963.521,2758.00
1964.357,2947.00
1965.192,2510.00
1966.029,2833.00
1966.864,2641.00
1967.699,2941.00
1968.534,2699.00
1969.369,2956.00
1970.204,2691.00
1971.040,2726.00
1971.875,2666.00
1972.709,2751.00
1973.544,2524.00
1974.378,2606.00
1975.212,2836.00
1976.047,2581.00
1976.882,2598.00
1977.716,3109.00
1978.550,2448.00
1979.384,2669.00
1980.218,2707.00
1981.052,2676.00
1981.885,2747.00
1982.719,2700.00
1983.554,2843.00
1984.388,3010.00
1985.221,2792.00
1986.054,2970.00
1986.887,2732.00
1987.720,2570.00
1988.553,3032.00
1989.386,2796.00
1990.219,2825.00
1991.053,3020.00
1991.886,2609.00
1992.719,2904.00
1993.551,2220.00
1994.383,2878.00
1995.216,2637.00
1996.048,2435.00
1996.880,2888.00
1997.712,2580.00
1998.544,2741.00
1999.376,2783.00
2000.208,3006.00
