RamanScope Measure Spectrum Data V3.72

<< MEASURE CONDITION >>
Exposure Type,Aver
Exposure Time [sec],15
Exposure Count,30
Measure Time,2023/07/04 16:35:26
Data Name,""
Data Comment,""
Rayleigh Wave[nm],532.0

<< SAMPLE SPECTRUM >>
Wave[dcm-1],No286
146.591,327.73
147.626,389.80
148.664,430.70
149.699,539.20
150.737,637.80
151.772,734.60
152.809,838.63
153.846,914.87
154.881,991.90
155.918,1046.57
156.953,1134.20
157.989,1214.50
159.026,1268.90
160.060,1300.43
161.096,1365.93
162.130,1394.80
163.167,1380.90
164.200,1390.90
165.236,1447.70
166.272,1474.77
167.305,1472.50
168.341,1530.23
169.374,1577.67
170.409,1587.30
171.445,1554.50
172.477,1632.53
173.512,1652.37
174.545,1711.33
175.580,1714.40
176.614,1739.37
177.647,1794.87
178.681,1763.77
179.713,1808.03
180.747,1864.37
181.781,1781.93
182.813,1780.63
183.847,1795.53
184.878,1830.77
185.912,1814.80
186.945,1824.53
187.976,1873.90
189.010,1844.43
190.043,1875.23
191.073,1930.93
192.106,1901.07
193.137,1924.40
194.170,1995.30
195.202,2004.87
196.232,2038.97
197.265,2113.93
198.297,2099.87
199.327,2161.07
200.359,2207.87
201.388,2284.00
202.420,2315.63
203.452,2368.27
204.481,2446.30
205.512,2554.67
206.544,2662.57
207.573,2722.23
208.604,2850.77
209.635,3077.03
210.663,3191.27
211.694,3380.43
212.725,3527.23
213.753,3781.10
214.783,3987.93
215.813,4228.07
216.841,4509.03
217.871,4727.27
218.899,4946.27
219.929,5154.07
220.959,5283.40
221.986,5308.43
223.016,5311.27
224.045,5212.67
225.072,5087.23
226.101,4850.00
227.130,4615.00
228.157,4331.27
229.185,4116.73
230.214,3903.23
231.241,3701.47
232.269,3521.83
233.297,3357.93
234.323,3276.23
235.351,3138.13
236.379,3049.73
237.407,3021.93
238.433,2888.37
239.460,2804.37
240.488,2810.53
241.513,2772.30
242.540,2761.73
243.568,2724.73
244.592,2710.03
245.619,2711.40
246.646,2723.73
247.671,2733.87
248.697,2727.07
249.724,2746.13
250.748,2738.77
251.774,2766.20
252.801,2790.40
253.827,2768.97
254.850,2791.67
255.876,2842.70
256.902,2828.50
257.925,2879.23
258.951,2896.97
259.976,2995.47
260.999,3064.57
262.024,3037.90
263.049,3122.73
264.074,3122.47
265.097,3261.40
266.122,3300.80
267.146,3402.10
268.168,3508.87
269.193,3529.47
270.217,3631.27
271.241,3729.53
272.263,3801.87
273.287,3882.60
274.311,3991.33
275.332,4031.40
276.356,4099.03
277.379,4159.47
278.402,4245.93
279.424,4251.27
280.447,4224.00
281.470,4246.37
282.492,4258.43
283.513,4190.17
284.536,4155.93
285.558,4074.23
286.581,4033.80
287.601,3949.90
288.623,3853.17
289.645,3786.00
290.665,3679.63
291.687,3594.23
292.709,3566.83
293.730,3434.17
294.750,3306.83
295.771,3239.70
296.792,3161.50
297.813,3065.63
298.832,2994.83
299.853,2914.77
300.874,2821.37
301.895,2761.53
302.913,2673.10
303.934,2617.10
304.954,2551.47
305.975,3082.83
306.993,2448.27
308.013,2388.77
309.033,2338.33
310.052,2270.07
311.072,2233.27
312.090,2180.33
313.109,2173.17
314.129,2144.70
315.148,2112.67
316.165,2035.60
317.184,2063.73
318.203,2066.57
319.222,1983.23
320.238,1998.17
321.257,1946.13
322.275,1940.73
323.294,1914.93
324.312,1926.63
325.328,1899.57
326.346,1926.70
327.364,1848.57
328.382,1866.07
329.397,1887.20
330.415,1795.17
331.432,1856.30
332.450,1799.27
333.467,1814.27
334.482,1793.90
335.499,1797.53
336.516,1816.60
337.533,1787.30
338.547,1804.30
339.564,1812.23
340.580,1823.90
341.597,1771.97
342.613,1760.77
343.627,1768.13
344.643,1802.00
345.659,1779.07
346.675,1764.80
347.690,1796.53
348.704,1752.87
349.719,1790.37
350.735,1803.30
351.750,1768.97
352.765,1782.80
353.778,1735.37
354.793,1823.43
355.808,1816.43
356.822,1804.80
357.837,1799.43
358.851,1837.03
359.864,1845.83
360.878,1838.37
361.892,1860.77
362.906,1819.27
363.920,1838.00
364.932,1912.60
365.945,1889.97
366.959,1890.50
367.972,1896.77
368.986,1914.23
369.999,1940.63
371.010,1998.97
372.023,1921.50
373.036,1951.97
374.049,1967.17
375.061,2017.80
376.072,2008.53
377.084,2013.40
378.097,2016.00
379.109,2114.23
380.121,2105.30
381.133,2116.30
382.143,2065.17
383.155,2106.13
384.166,2099.87
385.178,2122.67
386.189,2144.43
387.201,2181.97
388.212,2130.20
389.221,2164.63
390.232,2171.77
391.243,2128.10
392.254,2097.33
393.264,2147.73
394.275,2099.27
395.283,2124.43
396.294,2146.17
397.304,2088.97
398.314,2077.27
399.324,2053.20
400.334,2058.30
401.344,2024.07
402.351,1968.73
403.361,1983.50
404.370,1913.43
405.380,1953.23
406.389,1909.00
407.398,1871.87
408.407,1865.10
409.414,1839.07
410.423,1843.53
411.431,1835.67
412.440,1811.50
413.448,1776.13
414.457,1784.03
415.465,1719.60
416.471,1728.63
417.479,1735.83
418.487,1707.87
419.495,1697.57
420.503,1650.13
421.510,1673.30
422.518,1691.27
423.525,1637.47
424.530,1638.23
425.537,1591.97
426.544,1588.53
427.551,1621.23
428.558,1624.60
429.565,1626.90
430.571,1601.67
431.578,1587.80
432.582,1580.30
433.588,1577.10
434.595,1541.27
435.601,1528.43
436.607,1567.77
437.612,1574.97
438.618,1562.43
439.624,1564.13
440.627,1552.63
441.633,1566.33
442.638,1553.90
443.643,1563.17
444.648,1554.70
445.653,1551.10
446.658,1549.67
447.663,1540.10
448.667,1512.23
449.672,1524.10
450.674,1514.27
451.678,1567.50
452.682,1527.73
453.687,1538.00
454.690,1511.60
455.694,1490.87
456.698,1526.93
457.702,1569.23
458.705,1575.30
459.709,1531.40
460.710,1564.53
461.713,1577.80
462.716,1562.03
463.719,1581.43
464.722,1539.60
465.725,1570.87
466.727,1595.57
467.730,1601.97
468.732,1590.17
469.735,1579.13
470.737,1595.53
471.737,1617.03
472.739,1602.03
473.741,1628.23
474.742,1654.20
475.744,1625.83
476.746,1620.40
477.747,1633.33
478.748,1631.23
479.750,1617.53
480.751,1651.20
481.752,1630.43
482.753,1637.83
483.751,1624.23
484.752,1614.43
485.753,1632.97
486.753,1624.30
487.753,1623.60
488.754,1665.40
489.754,1673.03
490.754,1599.40
491.754,1589.17
492.754,1593.13
493.753,1596.03
494.753,1617.37
495.752,1578.13
496.752,1619.80
497.749,1585.87
498.748,1592.57
499.747,1559.13
500.746,1557.50
501.745,1588.57
502.744,1601.67
503.742,1551.80
504.741,1549.37
505.739,1577.47
506.737,1551.90
507.735,1555.87
508.734,1597.50
509.732,1549.80
510.729,1566.57
511.727,1552.27
512.725,1531.93
513.720,1554.57
514.718,1532.43
515.715,1550.87
516.712,1514.33
517.709,1532.30
518.706,1504.37
519.703,1533.57
520.700,1539.90
521.696,1508.77
522.693,1505.90
523.689,1574.80
524.686,1513.37
525.682,1503.93
526.678,1494.17
527.674,1524.90
528.670,1502.67
529.666,1524.27
530.661,1530.23
531.657,1511.43
532.652,1530.60
533.648,1542.67
534.641,1514.43
535.636,1568.30
536.631,1532.07
537.626,1530.83
538.621,1508.67
539.616,1507.90
540.610,1556.37
541.605,1542.60
542.599,1556.27
543.593,1541.20
544.587,1546.23
545.581,1539.37
546.575,1548.70
547.569,1560.73
548.563,1558.23
549.557,1545.87
550.550,1574.13
551.543,1547.67
552.537,1572.77
553.530,1522.27
554.523,1590.67
555.516,1608.07
556.509,1593.30
557.502,1623.07
558.494,1564.80
559.487,1631.80
560.479,1582.83
561.472,1615.93
562.464,1562.50
563.456,1606.17
564.448,1634.90
565.440,1647.00
566.432,1619.17
567.423,1683.23
568.415,1692.67
569.404,1679.47
570.396,1678.20
571.387,1694.17
572.378,1696.20
573.369,1704.97
574.360,1672.83
575.351,1726.13
576.341,1714.37
577.332,1724.80
578.323,1706.27
579.313,1699.17
580.303,1690.87
581.293,1743.23
582.283,1762.17
583.273,1752.27
584.263,1756.30
585.253,1746.73
586.243,1734.53
587.232,1805.60
588.222,1787.23
589.211,1773.23
590.200,1738.33
591.189,1734.00
592.178,1784.47
593.167,1721.40
594.156,1703.13
595.145,1703.13
596.133,1706.43
597.122,1716.67
598.110,1746.77
599.098,1676.33
600.086,1644.47
601.074,1699.00
602.062,1683.27
603.050,1679.47
604.038,1634.97
605.025,1640.13
606.013,1605.90
607.000,1603.67
607.987,1625.87
608.975,1601.53
609.962,1583.60
610.949,1567.33
611.936,1572.20
612.922,1489.43
613.909,1550.90
614.895,1540.20
615.882,1545.70
616.868,1530.43
617.854,1528.93
618.841,1514.57
619.826,1506.90
620.812,1460.90
621.798,1481.30
622.784,1510.87
623.769,1486.23
624.755,1500.97
625.740,1460.87
626.725,1476.50
627.711,1454.17
628.698,1475.43
629.683,1445.70
630.667,1437.87
631.652,1443.30
632.637,1430.43
633.621,1435.80
634.606,1441.43
635.590,1427.23
636.574,1428.00
637.558,1373.47
638.542,1418.53
639.526,1407.20
640.510,1402.70
641.493,1385.63
642.477,1323.07
643.460,1365.93
644.444,1392.00
645.427,1385.43
646.410,1314.03
647.393,1322.20
648.376,1344.73
649.359,1300.27
650.341,1351.47
651.324,1298.97
652.307,1310.57
653.289,1297.83
654.271,1296.07
655.253,1333.10
656.235,1261.20
657.217,1296.37
658.199,1265.70
659.181,1272.70
660.163,1274.93
661.144,1266.57
662.126,1282.03
663.107,1264.33
664.088,1249.63
665.069,1216.53
666.050,1265.03
667.033,1230.97
668.014,1221.27
668.995,1216.43
669.975,1260.73
670.956,1210.63
671.936,1197.30
672.916,1198.40
673.896,1220.57
674.876,1229.70
675.856,1244.63
676.836,1215.73
677.816,1190.53
678.795,1181.03
679.775,1208.37
680.754,1179.33
681.734,1224.27
682.713,1155.13
683.692,1180.03
684.671,1138.00
685.650,1146.10
686.629,1169.40
687.607,1143.80
688.586,1114.27
689.564,1094.00
690.543,1132.03
691.523,1111.77
692.501,1142.53
693.479,1144.20
694.457,1112.23
695.435,1156.37
696.413,1113.57
697.390,1122.63
698.368,1101.00
699.345,1121.67
700.322,1104.93
701.300,1096.67
702.277,1084.47
703.254,1080.10
704.231,1142.43
705.207,1071.47
706.184,1102.30
707.161,1095.77
708.137,1098.90
709.113,1058.17
710.090,1061.07
711.068,1066.30
712.044,1090.03
713.020,1084.13
713.996,1069.97
714.971,1073.73
715.947,1065.30
716.922,1063.83
717.898,1059.53
718.873,1065.47
719.848,1056.67
720.823,1055.63
721.798,1065.30
722.773,1068.40
723.748,1049.43
724.723,1045.63
725.697,1059.73
726.672,1033.57
727.646,1068.73
728.622,1039.63
729.596,1018.37
730.570,1029.30
731.544,994.13
732.518,1052.47
733.492,1026.93
734.466,1044.07
735.439,998.97
736.413,987.43
737.386,1021.47
738.359,1040.00
739.332,1004.17
740.305,1024.90
741.278,994.30
742.251,1004.70
743.224,1034.17
744.196,967.90
745.171,965.67
746.143,1009.07
747.115,1002.90
748.087,1019.03
749.059,994.57
750.031,1029.97
751.003,1014.80
751.975,977.17
752.947,981.73
753.918,1000.03
754.890,999.53
755.861,985.73
756.832,1016.83
757.803,982.00
758.774,968.40
759.747,973.13
760.718,974.63
761.689,980.87
762.659,970.87
763.630,974.47
764.600,984.43
765.570,1006.23
766.540,978.77
767.510,1029.93
768.480,937.53
769.450,981.23
770.420,989.60
771.390,968.77
772.359,956.20
773.329,958.37
774.300,950.47
775.269,960.87
776.238,928.00
777.207,943.80
778.176,975.83
779.145,944.53
780.114,995.73
781.083,954.47
782.051,975.67
783.019,940.80
783.988,934.40
784.956,934.97
785.924,971.20
786.894,920.33
787.862,905.03
788.830,935.43
789.797,974.97
790.765,956.20
791.732,915.77
792.700,937.57
793.667,947.77
794.634,912.23
795.601,998.80
796.568,931.97
797.535,915.60
798.502,941.80
799.468,918.23
800.437,919.40
801.403,928.87
802.370,942.00
803.336,885.27
804.302,901.60
805.268,893.80
806.234,940.87
807.200,933.07
808.166,907.07
809.131,888.77
810.097,893.13
811.062,904.33
812.027,972.53
812.994,921.97
813.960,890.70
814.925,873.67
815.889,875.20
816.854,876.40
817.819,895.70
818.783,889.83
819.748,877.87
820.712,854.27
821.677,891.43
822.641,889.20
823.605,876.63
824.571,899.50
825.534,871.60
826.498,852.63
827.462,870.37
828.425,902.87
829.389,896.37
830.352,869.30
831.315,902.47
832.279,869.63
833.242,870.87
834.204,864.33
835.167,874.30
836.132,838.87
837.095,878.23
838.057,869.20
839.020,879.53
839.982,866.83
840.944,944.20
841.906,895.83
842.868,846.87
843.830,884.73
844.792,864.97
845.753,829.97
846.715,845.73
847.679,836.53
848.640,898.07
849.601,831.13
850.562,868.37
851.523,813.63
852.484,863.33
853.445,843.00
854.406,875.60
855.367,862.47
856.327,854.30
857.288,846.13
858.248,831.87
859.210,854.20
860.170,851.80
861.130,870.17
862.090,835.73
863.050,842.60
864.010,885.40
864.969,846.60
865.929,858.63
866.888,823.07
867.848,841.07
868.807,806.00
869.766,847.37
870.727,854.67
871.686,813.07
872.645,842.70
873.604,827.73
874.562,835.90
875.521,813.67
876.479,882.60
877.437,892.17
878.396,832.07
879.354,861.13
880.312,862.33
881.270,843.87
882.229,860.60
883.187,845.33
884.145,824.33
885.102,843.30
886.059,831.93
887.017,805.40
887.974,845.70
888.931,815.47
889.888,828.43
890.845,863.50
891.802,837.47
892.758,827.23
893.717,834.47
894.673,813.47
895.630,821.03
896.586,826.03
897.542,819.87
898.498,864.87
899.454,842.17
900.410,834.87
901.366,802.23
902.321,836.50
903.277,819.53
904.232,857.37
905.189,850.83
906.145,827.60
907.100,828.97
908.055,855.97
909.010,798.83
909.965,809.23
910.919,815.90
911.874,821.80
912.828,839.10
913.783,768.67
914.737,818.97
915.693,825.43
916.648,801.57
917.602,831.77
918.555,805.63
919.509,788.53
920.463,860.60
921.417,807.10
922.370,831.33
923.324,835.23
924.277,794.57
925.230,785.30
926.183,806.00
927.138,832.10
928.091,774.20
929.044,812.23
929.996,809.57
930.949,797.10
931.902,802.67
932.854,840.27
933.806,803.80
934.758,806.23
935.711,767.73
936.663,782.97
937.614,783.97
938.568,828.17
939.520,834.80
940.471,811.07
941.423,813.80
942.374,817.03
943.326,862.07
944.277,834.13
945.228,831.27
946.179,832.53
947.130,793.57
948.080,789.03
949.031,795.90
949.984,811.97
950.934,797.33
951.884,803.70
952.835,806.40
953.785,801.23
954.735,838.93
955.685,820.27
956.635,786.10
957.585,785.53
958.534,821.37
959.484,823.23
960.433,827.10
961.383,811.80
962.334,783.33
963.283,818.83
964.232,788.00
965.181,811.60
966.130,840.07
967.079,803.67
968.027,781.80
968.976,796.80
969.924,812.53
970.873,792.97
971.821,821.37
972.769,765.57
973.719,816.40
974.667,810.23
975.615,810.60
976.562,789.33
977.510,788.67
978.458,825.33
979.405,759.00
980.352,836.70
981.300,806.47
982.247,812.70
983.194,808.13
984.141,800.77
985.088,812.17
986.036,827.53
986.983,777.80
987.930,788.90
988.876,812.67
989.822,816.67
990.769,817.77
991.715,816.07
992.661,826.80
993.607,870.57
994.553,779.10
995.498,801.10
996.444,817.73
997.389,804.63
998.337,770.80
999.282,784.80
1000.227,829.50
1001.173,840.40
1002.118,811.87
1003.062,785.10
1004.007,793.90
1004.952,844.73
1005.897,822.60
1006.841,801.77
1007.786,818.90
1008.730,783.37
1009.674,784.30
1010.618,845.90
1011.564,822.00
1012.508,829.30
1013.452,857.77
1014.396,818.83
1015.339,797.43
1016.283,826.50
1017.226,833.87
1018.170,836.13
1019.113,839.53
1020.056,826.73
1020.999,801.57
1021.942,828.13
1022.885,832.60
1023.828,840.27
1024.770,865.40
1025.715,802.13
1026.657,818.77
1027.600,827.03
1028.542,806.40
1029.484,804.37
1030.426,815.60
1031.368,824.90
1032.310,820.67
1033.251,860.37
1034.193,799.13
1035.135,827.13
1036.076,770.87
1037.017,809.57
1037.959,842.17
1038.900,809.63
1039.843,808.93
1040.784,803.23
1041.725,832.23
1042.665,823.20
1043.606,837.30
1044.547,865.13
1045.487,826.40
1046.427,839.70
1047.368,882.07
1048.308,817.53
1049.248,830.23
1050.188,781.30
1051.128,848.23
1052.067,837.97
1053.007,837.33
1053.947,820.83
1054.886,859.07
1055.827,843.53
1056.766,829.67
1057.706,837.40
1058.645,849.20
1059.584,835.27
1060.522,798.37
1061.461,816.43
1062.400,875.23
1063.338,869.03
1064.277,853.73
1065.215,839.13
1066.154,870.03
1067.092,836.30
1068.030,828.53
1068.968,875.70
1069.906,874.00
1070.843,861.20
1071.781,838.77
1072.720,910.57
1073.658,860.63
1074.595,893.20
1075.533,862.87
1076.470,833.43
1077.407,863.30
1078.344,879.20
1079.281,832.30
1080.217,860.17
1081.154,845.53
1082.091,856.23
1083.027,846.90
1083.964,879.57
1084.900,871.07
1085.836,844.67
1086.772,833.80
1087.708,870.87
1088.644,897.00
1089.580,829.90
1090.515,913.90
1091.451,881.93
1092.388,855.00
1093.324,860.50
1094.259,853.93
1095.194,895.90
1096.129,867.80
1097.064,920.50
1097.999,926.83
1098.934,894.00
1099.869,879.73
1100.803,874.07
1101.738,896.40
1102.672,872.63
1103.607,872.57
1104.541,880.00
1105.475,883.93
1106.409,882.13
1107.343,875.57
1108.277,862.33
1109.210,864.53
1110.144,845.30
1111.078,885.27
1112.011,885.80
1112.944,843.07
1113.878,879.97
1114.811,840.80
1115.744,851.33
1116.678,863.33
1117.611,809.67
1118.544,838.17
1119.477,873.40
1120.409,850.17
1121.342,863.07
1122.274,869.87
1123.206,826.63
1124.138,834.13
1125.070,837.73
1126.002,852.53
1126.934,817.43
1127.866,848.87
1128.798,852.33
1129.729,845.50
1130.661,858.63
1131.592,824.00
1132.523,820.63
1133.454,866.13
1134.385,810.53
1135.317,858.97
1136.247,859.93
1137.178,844.97
1138.109,829.50
1139.039,849.53
1139.970,860.03
1140.900,821.57
1141.831,831.97
1142.761,832.57
1143.691,835.87
1144.621,859.43
1145.551,819.70
1146.480,805.77
1147.410,836.90
1148.340,848.57
1149.269,861.10
1150.199,849.93
1151.128,868.50
1152.057,825.30
1152.979,872.57
1153.898,877.47
1154.819,850.77
1155.739,849.60
1156.658,838.80
1157.579,868.23
1158.498,835.90
1159.419,806.40
1160.338,856.53
1161.256,857.47
1162.177,859.13
1163.095,804.77
1164.016,836.57
1164.934,837.77
1165.852,830.33
1166.772,824.03
1167.690,847.27
1168.610,842.90
1169.528,871.67
1170.446,849.97
1171.365,834.80
1172.283,881.97
1173.202,851.03
1174.120,825.10
1175.037,858.80
1175.956,839.33
1176.873,846.43
1177.792,838.37
1178.709,841.87
1179.626,859.83
1180.544,862.87
1181.461,857.50
1182.379,838.10
1183.296,861.93
1184.212,851.57
1185.130,875.83
1186.046,848.23
1186.962,857.27
1187.880,870.13
1188.796,857.37
1189.714,858.97
1190.629,850.60
1191.545,873.00
1192.462,856.30
1193.378,864.30
1194.295,855.13
1195.210,824.00
1196.125,847.00
1197.042,857.10
1197.957,871.47
1198.872,847.60
1199.788,869.33
1200.703,887.50
1201.619,860.47
1202.534,862.83
1203.448,890.23
1204.364,901.37
1205.278,883.07
1206.192,899.77
1207.108,908.53
1208.022,906.23
1208.938,871.40
1209.851,867.67
1210.765,906.57
1211.680,931.30
1212.594,921.43
1213.507,914.50
1214.422,927.63
1215.335,916.60
1216.248,920.73
1217.163,912.17
1218.076,930.00
1218.990,895.47
1219.903,909.53
1220.816,890.93
1221.730,888.67
1222.642,920.93
1223.554,903.17
1224.469,946.00
1225.380,938.70
1226.292,924.07
1227.206,924.83
1228.118,989.63
1229.032,929.03
1229.943,962.17
1230.855,923.80
1231.768,927.70
1232.679,941.10
1233.590,925.90
1234.503,963.60
1235.414,917.27
1236.325,932.00
1237.238,984.43
1238.149,964.60
1239.059,974.73
1239.972,962.00
1240.882,956.07
1241.793,943.33
1242.705,991.53
1243.615,959.67
1244.525,983.13
1245.437,974.00
1246.347,990.37
1247.259,978.13
1248.168,972.57
1249.078,991.03
1249.989,1029.37
1250.899,984.73
1251.808,1020.53
1252.719,998.33
1253.628,1005.40
1254.537,978.57
1255.448,1024.70
1256.357,983.57
1257.266,975.83
1258.176,993.43
1259.085,1005.90
1259.993,989.27
1260.904,957.30
1261.812,957.57
1262.720,1033.93
1263.630,1029.17
1264.538,1004.83
1265.446,975.13
1266.356,1046.50
1267.263,1002.23
1268.171,1004.07
1269.080,994.13
1269.988,1010.43
1270.895,1001.70
1271.804,978.17
1272.711,992.20
1273.619,1015.43
1274.527,980.23
1275.434,1003.67
1276.341,1007.70
1277.248,1000.60
1278.156,992.83
1279.063,1022.47
1279.969,1051.37
1280.877,997.07
1281.783,1006.50
1282.690,1015.70
1283.598,985.70
1284.503,964.60
1285.409,1010.70
1286.317,993.07
1287.223,980.10
1288.128,967.17
1289.036,960.17
1289.941,978.47
1290.846,985.17
1291.751,997.50
1292.658,969.83
1293.563,928.60
1294.468,926.20
1295.375,982.97
1296.280,962.97
1297.184,1001.10
1298.091,969.03
1298.995,946.47
1299.900,902.83
1300.806,939.13
1301.710,933.40
1302.614,922.87
1303.518,961.27
1304.424,948.37
1305.327,963.70
1306.231,917.23
1307.137,927.70
1308.040,932.60
1308.943,922.90
1309.847,910.47
1310.752,946.57
1311.655,926.00
1312.558,925.87
1313.463,907.87
1314.366,898.57
1315.269,869.43
1316.171,901.20
1317.076,891.37
1317.978,855.47
1318.881,864.43
1319.785,871.87
1320.687,925.37
1321.589,873.23
1322.491,866.57
1323.395,875.17
1324.297,882.90
1325.198,833.83
1326.102,864.63
1327.004,874.60
1327.905,827.20
1328.806,833.60
1329.709,817.50
1330.611,833.40
1331.512,823.63
1332.413,826.43
1333.316,883.83
1334.216,830.23
1335.117,793.30
1336.020,845.77
1336.920,826.00
1337.821,839.47
1338.721,801.03
1339.623,786.70
1340.523,787.27
1341.423,808.33
1342.323,762.83
1343.225,765.03
1344.125,803.50
1345.025,813.20
1345.924,780.60
1346.826,753.00
1347.725,769.10
1348.624,744.23
1349.524,742.33
1350.425,803.17
1351.324,739.43
1352.223,794.90
1353.121,770.83
1354.022,759.67
1354.921,771.27
1355.819,767.67
1356.718,730.63
1357.618,736.83
1358.516,776.37
1359.415,719.37
1360.313,730.37
1361.213,718.20
1362.111,758.53
1363.008,729.03
1363.906,683.27
1364.806,720.37
1365.703,719.00
1366.601,708.43
1367.498,694.77
1368.397,717.33
1369.295,734.70
1370.192,702.27
1371.089,682.17
1371.987,695.17
1372.884,676.83
1373.781,686.80
1374.678,705.07
1375.574,681.27
1376.473,705.07
1377.369,695.93
1378.265,662.53
1379.161,682.17
1380.059,695.77
1380.955,682.50
1381.851,652.67
1382.747,698.20
1383.643,698.97
1384.540,678.67
1385.436,665.83
1386.331,660.97
1387.227,647.30
1388.124,655.63
1389.019,684.00
1389.914,664.20
1390.809,664.10
1391.704,689.37
1392.601,663.20
1393.495,648.67
1394.390,628.47
1395.285,612.43
1396.179,649.13
1397.075,645.47
1397.969,673.10
1398.864,645.40
1399.758,652.47
1400.652,619.30
1401.547,637.57
1402.441,640.17
1403.335,633.67
1404.229,619.03
1405.122,622.77
1406.017,619.43
1406.911,622.70
1407.804,632.40
1408.697,633.87
1409.590,603.20
1410.485,629.97
1411.378,623.27
1412.271,639.40
1413.163,599.40
1414.056,631.30
1414.949,635.40
1415.843,576.20
1416.735,621.97
1417.627,609.03
1418.520,630.53
1419.412,599.37
1420.306,599.93
1421.197,615.80
1422.089,614.37
1422.981,617.17
1423.873,592.70
1424.764,616.67
1425.657,602.83
1426.549,606.73
1427.440,608.43
1428.331,612.33
1429.222,615.17
1430.113,561.83
1431.006,609.00
1431.897,575.90
1432.787,621.13
1433.678,591.60
1434.568,616.23
1435.459,577.53
1436.351,612.57
1437.241,631.50
1438.131,603.67
1439.021,563.27
1439.911,578.33
1440.801,562.47
1441.693,585.17
1442.583,595.40
1443.472,572.80
1444.362,586.80
1445.251,556.57
1446.140,603.30
1447.030,555.07
1447.921,540.13
1448.810,595.83
1449.699,582.63
1450.588,619.73
1451.476,568.73
1452.365,582.20
1453.254,582.13
1454.144,585.70
1455.032,535.40
1455.921,562.73
1456.809,567.33
1457.697,547.87
1458.585,558.70
1459.473,575.37
1460.361,548.67
1461.251,571.57
1462.138,544.17
1463.026,574.47
1463.913,588.93
1464.801,571.97
1465.688,551.53
1466.575,545.60
1467.463,605.60
1468.351,565.77
1469.238,549.07
1470.125,543.60
1471.012,578.47
1471.899,554.30
1472.785,558.93
1473.672,594.33
1474.558,523.97
1475.446,523.73
1476.333,537.97
1477.219,548.57
1478.105,558.33
1478.991,548.77
1479.877,549.17
1480.762,536.03
1481.648,548.60
1482.534,533.50
1483.419,551.53
1484.307,562.70
1485.192,534.97
1486.077,545.20
1486.962,587.53
1487.847,532.17
1488.732,556.60
1489.617,525.07
1490.502,576.47
1491.387,525.80
1492.271,547.87
1493.156,527.87
1494.042,538.70
1494.927,493.93
1495.811,534.93
1496.695,541.00
1497.579,521.93
1498.463,516.43
1499.347,534.43
1500.231,563.87
1501.114,522.13
1501.998,555.67
1502.881,548.37
1503.765,510.93
1504.648,542.30
1505.533,519.03
1506.417,553.17
1507.300,511.40
1508.183,512.10
1509.066,526.03
1509.948,517.43
1510.831,547.03
1511.714,529.50
1512.596,522.43
1513.479,533.10
1514.361,517.30
1515.243,522.10
1516.125,509.87
1517.008,517.57
1517.890,533.50
1518.771,532.87
1519.655,475.37
1520.537,535.87
1521.419,478.50
1522.300,524.83
1523.182,466.93
1524.063,529.37
1524.944,509.47
1525.825,491.33
1526.707,510.53
1527.588,520.03
1528.468,488.50
1529.349,521.20
1530.230,555.73
1531.111,516.80
1531.991,532.37
1532.872,481.50
1533.752,511.90
1534.632,513.20
1535.513,511.27
1536.393,494.40
1537.273,483.97
1538.153,543.40
1539.032,536.10
1539.912,492.67
1540.792,514.67
1541.672,500.33
1542.551,513.47
1543.430,501.97
1544.310,474.50
1545.189,513.53
1546.068,511.00
1546.947,508.50
1547.826,496.33
1548.705,491.40
1549.584,539.60
1550.462,520.97
1551.341,513.60
1552.219,499.67
1553.098,519.30
1553.976,559.50
1554.854,491.43
1555.733,506.67
1556.611,504.63
1557.489,487.50
1558.367,501.93
1559.244,499.40
1560.122,499.90
1561.000,478.97
1561.877,509.93
1562.755,516.43
1563.632,527.90
1564.509,518.87
1565.386,504.20
1566.264,540.73
1567.141,468.07
1568.017,490.13
1568.894,482.63
1569.771,495.80
1570.648,521.27
1571.524,474.37
1572.401,457.90
1573.277,492.53
1574.153,481.17
1575.029,500.60
1575.906,442.77
1576.781,478.33
1577.657,524.93
1578.533,483.00
1579.409,484.70
1580.285,458.80
1581.160,486.87
1582.036,474.07
1582.911,446.97
1583.786,514.27
1584.662,495.63
1585.537,471.07
1586.412,487.27
1587.287,461.43
1588.160,462.80
1589.035,480.20
1589.909,471.30
1590.784,449.70
1591.658,476.60
1592.533,491.30
1593.407,474.93
1594.281,511.83
1595.155,515.83
1596.029,462.77
1596.903,475.70
1597.777,510.73
1598.651,484.90
1599.525,423.97
1600.398,506.53
1601.272,462.40
1602.144,423.50
1603.017,477.07
1603.890,479.27
1604.763,489.73
1605.636,463.87
1606.509,474.37
1607.382,507.60
1608.255,466.27
1609.128,484.80
1610.000,488.53
1610.873,458.60
1611.746,447.70
1612.616,482.03
1613.488,508.80
1614.361,488.80
1615.233,468.77
1616.105,457.90
1616.977,502.30
1617.849,469.60
1618.720,453.47
1619.592,470.10
1620.464,498.03
1621.333,456.30
1622.205,492.57
1623.076,459.50
1623.947,501.27
1624.818,452.30
1625.689,485.10
1626.560,454.47
1627.431,499.03
1628.302,457.00
1629.171,429.53
1630.042,498.17
1630.912,441.40
1631.782,471.53
1632.653,468.23
1633.523,500.83
1634.393,462.83
1635.263,484.70
1636.131,464.43
1637.001,463.60
1637.871,478.13
1638.741,445.93
1639.611,479.00
1640.480,443.60
1641.350,505.10
1642.219,472.37
1643.087,473.10
1643.956,462.73
1644.825,428.40
1645.694,479.83
1646.563,472.43
1647.432,461.10
1648.299,463.97
1649.167,457.73
1650.036,459.90
1650.904,486.50
1651.773,496.77
1652.641,455.43
1653.509,455.30
1654.376,465.07
1655.244,461.20
1656.112,469.47
1656.980,464.90
1657.847,433.70
1658.715,483.87
1659.581,460.03
1660.448,431.30
1661.316,462.00
1662.183,465.37
1663.051,449.87
1663.918,482.37
1664.783,443.53
1665.650,450.53
1666.517,450.97
1667.384,426.57
1668.251,454.63
1669.115,442.20
1669.982,436.60
1670.849,463.83
1671.715,435.10
1672.581,436.30
1673.446,445.60
1674.312,464.47
1675.178,452.00
1676.044,468.00
1676.910,440.67
1677.774,417.40
1678.639,430.90
1679.505,476.97
1680.370,462.67
1681.236,477.47
1682.099,481.73
1682.965,430.00
1683.830,471.70
1684.695,444.53
1685.560,447.90
1686.423,420.70
1687.288,453.40
1688.153,465.20
1689.017,424.40
1689.880,429.03
1690.745,453.53
1691.609,451.13
1692.473,443.13
1693.338,463.23
1694.200,438.57
1695.064,474.33
1695.928,432.23
1696.792,451.77
1697.654,439.27
1698.517,465.10
1699.381,440.23
1700.245,430.97
1701.106,447.53
1701.969,471.83
1702.833,462.77
1703.696,460.80
1704.557,485.43
1705.420,414.67
1706.283,431.47
1707.146,466.27
1708.007,448.43
1708.870,419.80
1709.732,429.40
1710.595,432.83
1711.455,406.57
1712.318,460.67
1713.180,440.97
1714.040,439.97
1714.902,411.43
1715.764,455.27
1716.626,422.23
1717.486,470.73
1718.348,487.77
1719.209,471.17
1720.071,451.10
1720.930,439.27
1721.792,444.20
1722.653,441.30
1723.512,474.50
1724.374,449.83
1725.234,452.17
1726.095,472.53
1726.954,460.03
1727.815,460.57
1728.676,441.87
1729.535,430.40
1730.395,453.03
1731.256,454.13
1732.114,428.30
1732.974,434.00
1733.834,440.40
1734.693,448.80
1735.553,425.90
1736.413,422.43
1737.272,401.67
1738.130,459.27
1738.990,463.50
1739.849,449.17
1740.707,445.03
1741.566,436.80
1742.426,418.50
1743.283,431.57
1744.142,452.97
1745.001,432.60
1745.858,430.07
1746.717,404.40
1747.576,468.20
1748.433,444.77
1749.292,424.90
1750.150,441.07
1751.007,457.17
1751.865,468.00
1752.723,442.00
1753.579,430.13
1754.438,448.00
1755.296,414.80
1756.152,454.40
1757.010,452.10
1757.865,413.23
1758.723,449.60
1759.581,409.50
1760.436,447.33
1761.294,490.97
1762.151,439.13
1763.006,432.20
1763.864,425.73
1764.721,437.57
1765.576,431.57
1766.433,412.53
1767.288,472.70
1768.144,446.37
1769.001,404.20
1769.856,446.73
1770.712,410.33
1771.568,481.20
1772.423,414.83
1773.279,462.47
1774.133,438.80
1774.989,421.97
1775.845,422.73
1776.699,466.53
1777.555,461.57
1778.409,445.10
1779.265,462.97
1780.120,423.30
1780.974,431.20
1781.829,423.77
1782.682,442.60
1783.538,431.40
1784.393,414.63
1785.246,442.73
1786.101,406.50
1786.954,447.73
1787.808,457.07
1788.661,491.87
1789.516,462.43
1790.370,433.20
1791.223,421.07
1792.077,489.97
1792.930,437.33
1793.784,459.10
1794.636,462.43
1795.490,444.73
1796.344,451.13
1797.196,453.70
1798.049,439.07
1798.901,434.03
1799.755,434.53
1800.606,437.70
1801.460,463.00
1802.311,455.27
1803.165,434.67
1804.018,419.13
1804.869,441.33
1805.722,448.03
1806.573,411.73
1807.426,441.37
1808.276,429.90
1809.129,426.53
1809.980,464.50
1810.832,451.07
1811.683,454.40
1812.535,424.17
1813.385,468.57
1814.237,437.13
1815.089,432.13
1815.940,448.40
1816.791,435.00
1817.641,470.80
1818.493,458.10
1819.343,414.93
1820.194,442.83
1821.044,450.23
1821.895,469.83
1822.745,448.10
1823.596,415.77
1824.445,449.77
1825.296,435.30
1826.145,443.10
1826.996,441.40
1827.845,443.37
1828.695,444.53
1829.544,437.43
1830.395,461.37
1831.243,459.90
1832.094,446.77
1832.942,387.77
1833.792,461.13
1834.640,445.93
1835.490,437.37
1836.338,462.07
1837.186,412.93
1838.036,436.50
1838.884,429.07
1839.733,445.10
1840.581,413.77
1841.430,395.57
1842.278,449.20
1843.127,409.47
1843.974,406.60
1844.823,436.70
1845.671,414.37
1846.519,399.17
1847.366,438.27
1848.213,448.83
1849.062,423.87
1849.909,414.00
1850.757,447.00
1851.604,420.10
1852.452,422.50
1853.298,373.70
1854.146,404.13
1854.993,467.03
1855.839,442.23
1856.687,418.50
1857.532,468.03
1858.380,413.77
1859.226,430.07
1860.073,449.63
1860.919,437.40
1861.765,412.30
1862.612,431.07
1863.457,420.13
1864.304,419.77
1865.150,436.07
1865.995,454.57
1866.842,446.47
1867.686,409.63
1868.533,406.43
1869.378,452.70
1870.223,415.30
1871.069,427.37
1871.914,437.83
1872.760,414.27
1873.604,433.73
1874.448,450.87
1875.294,429.60
1876.139,410.30
1876.984,400.57
1877.828,437.63
1878.672,435.87
1879.518,419.87
1880.361,443.37
1881.205,433.70
1882.050,427.40
1882.894,435.33
1883.739,436.83
1884.582,393.53
1885.425,420.30
1886.270,411.83
1887.113,413.43
1887.956,397.17
1888.801,441.53
1889.644,430.13
1890.486,444.67
1891.331,456.90
1892.173,440.83
1893.017,431.77
1893.860,421.70
1894.702,431.10
1895.546,414.03
1896.388,428.23
1897.230,463.53
1898.074,436.47
1898.916,468.60
1899.757,397.53
1900.601,430.33
1901.443,461.70
1902.284,441.43
1903.125,438.80
1903.969,398.97
1904.810,440.13
1905.651,418.53
1906.494,384.73
1907.335,429.43
1908.176,453.70
1909.018,432.37
1909.859,382.57
1910.700,409.90
1911.542,448.97
1912.383,439.27
1913.223,432.53
1914.064,403.07
1914.906,441.50
1915.746,421.57
1916.586,460.83
1917.428,436.47
1918.268,396.43
1919.107,441.83
1919.947,393.93
1920.789,423.03
1921.628,382.03
1922.468,432.63
1923.309,425.20
1924.148,447.30
1924.988,436.40
1925.827,417.93
1926.667,434.70
1927.507,444.40
1928.345,437.10
1929.184,413.80
1930.025,413.23
1930.864,404.53
1931.702,414.37
1932.541,436.73
1933.381,427.53
1934.219,451.03
1935.057,464.07
1935.896,419.43
1936.735,458.00
1937.573,414.97
1938.411,427.43
1939.249,407.03
1940.089,404.07
1940.927,448.37
1941.764,402.27
1942.602,456.37
1943.439,419.80
1944.278,388.73
1945.115,437.93
1945.953,407.33
1946.790,419.00
1947.628,441.17
1948.465,420.20
1949.302,432.17
1950.139,416.83
1950.976,448.03
1951.814,383.03
1952.651,443.27
1953.487,420.37
1954.323,415.50
1955.160,460.50
1955.998,449.23
1956.834,482.40
1957.670,426.70
1958.506,439.33
1959.342,444.37
1960.177,401.93
1961.015,412.47
1961.850,425.33
1962.686,427.07
1963.521,459.10
1964.357,419.73
1965.192,433.27
1966.029,446.70
1966.864,419.80
1967.699,382.67
1968.534,424.60
1969.369,435.27
1970.204,424.37
1971.040,441.97
1971.875,430.90
1972.709,409.07
1973.544,409.17
1974.378,440.47
1975.212,448.23
1976.047,432.27
1976.882,424.03
1977.716,422.97
1978.550,427.17
1979.384,422.83
1980.218,423.60
1981.052,446.17
1981.885,421.37
1982.719,438.40
1983.554,414.23
1984.388,401.13
1985.221,456.73
1986.054,422.17
1986.887,434.23
1987.720,413.60
1988.553,438.83
1989.386,440.57
1990.219,408.13
1991.053,393.40
1991.886,434.47
1992.719,429.90
1993.551,415.07
1994.383,410.70
1995.216,446.90
1996.048,439.43
1996.880,449.37
1997.712,423.73
1998.544,421.40
1999.376,456.60
2000.208,413.70
2001.040,449.47
2001.873,370.50
2002.705,418.47
2003.536,396.07
2004.367,434.60
2005.199,473.27
2006.030,445.00
2006.861,429.77
2007.692,402.03
2008.523,456.13
2009.354,473.00
2010.185,427.13
2011.016,435.20
2011.846,427.13
2012.677,449.60
2013.507,432.43
2014.338,440.87
2015.168,441.10
2015.999,451.67
2016.829,441.10
2017.659,407.33
2018.489,451.27
2019.319,415.10
2020.149,447.87
2020.980,428.30
2021.810,453.03
2022.639,437.77
2023.469,439.17
2024.298,463.57
2025.128,453.63
2025.957,433.63
2026.786,432.10
2027.615,444.27
2028.444,438.07
2029.273,431.30
2030.102,444.07
2030.931,432.80
2031.758,433.83
2032.586,404.07
2033.415,434.07
2034.243,434.33
2035.072,427.67
2035.900,469.43
2036.728,435.60
2037.556,417.30
2038.385,463.37
2039.213,450.13
2040.040,424.60
2040.868,438.70
2041.696,464.90
2042.524,433.97
2043.351,421.27
2044.179,474.27
2045.006,468.93
2045.006,468.93

Max Intensity Wave.,223.016
Max Intensity Data,5311.27
Min Intensity Wave.,146.591
Min Intensity Data,327.73
FWHM Wave.,389.581
FWHM Value,22.42
Pressure Wave.,686.606
Pressure Value [GPa],-19.85898
G/D Ratio,0.58033
G/D Gband Wave.,1553.863
G/D Gband Intensity,560.40
G/D Dband Wave.,1305.100
G/D Dband Intensity,965.66

<< BACKGROUND SPECTRUM >>
Wave[dcm-1],No286
146.591,2235.00
147.626,2085.00
148.664,2081.00
149.699,2508.00
150.737,2224.00
151.772,2367.00
152.809,2338.00
153.846,2259.00
154.881,2364.00
155.918,1973.00
156.953,2263.00
157.989,2557.00
159.026,2410.00
160.060,2609.00
161.096,2803.00
162.130,2447.00
163.167,2562.00
164.200,2472.00
165.236,2635.00
166.272,2663.00
167.305,2286.00
168.341,2516.00
169.374,2724.00
170.409,2751.00
171.445,2735.00
172.477,2492.00
173.512,2369.00
174.545,2621.00
175.580,2823.00
176.614,2998.00
177.647,2745.00
178.681,3022.00
179.713,3290.00
180.747,2730.00
181.781,2724.00
182.813,2990.00
183.847,3072.00
184.878,2677.00
185.912,2960.00
186.945,3096.00
187.976,2981.00
189.010,2701.00
190.043,2807.00
191.073,2865.00
192.106,2733.00
193.137,3174.00
194.170,2506.00
195.202,2898.00
196.232,2690.00
197.265,2930.00
198.297,3057.00
199.327,2752.00
200.359,2936.00
201.388,3285.00
202.420,2889.00
203.452,3082.00
204.481,2688.00
205.512,3280.00
206.544,3035.00
207.573,3055.00
208.604,3369.00
209.635,3420.00
210.663,2901.00
211.694,2918.00
212.725,2827.00
213.753,2747.00
214.783,3364.00
215.813,3235.00
216.841,2961.00
217.871,3130.00
218.899,2882.00
219.929,3104.00
220.959,2879.00
221.986,3139.00
223.016,2733.00
224.045,3101.00
225.072,3064.00
226.101,3166.00
227.130,3203.00
228.157,2814.00
229.185,2319.00
230.214,3128.00
231.241,2805.00
232.269,2447.00
233.297,2680.00
234.323,3155.00
235.351,2784.00
236.379,3082.00
237.407,2706.00
238.433,2924.00
239.460,3122.00
240.488,3073.00
241.513,3184.00
242.540,3080.00
243.568,3164.00
244.592,3201.00
245.619,3175.00
246.646,2896.00
247.671,2917.00
248.697,2773.00
249.724,2962.00
250.748,2978.00
251.774,2968.00
252.801,3242.00
253.827,3103.00
254.850,3044.00
255.876,2621.00
256.902,3121.00
257.925,2964.00
258.951,2722.00
259.976,2721.00
260.999,3031.00
262.024,2803.00
263.049,3612.00
264.074,3140.00
265.097,2978.00
266.122,3058.00
267.146,3015.00
268.168,3161.00
269.193,2837.00
270.217,3185.00
271.241,2681.00
272.263,2870.00
273.287,3159.00
274.311,2747.00
275.332,3275.00
276.356,2846.00
277.379,3096.00
278.402,3086.00
279.424,2922.00
280.447,2891.00
281.470,2700.00
282.492,3040.00
283.513,2896.00
284.536,3125.00
285.558,3138.00
286.581,3096.00
287.601,2825.00
288.623,2805.00
289.645,3043.00
290.665,3104.00
291.687,3116.00
292.709,3047.00
293.730,3346.00
294.750,2894.00
295.771,2725.00
296.792,3024.00
297.813,2915.00
298.832,3017.00
299.853,2712.00
300.874,2963.00
301.895,2912.00
302.913,2963.00
303.934,3230.00
304.954,3005.00
305.975,3191.00
306.993,2705.00
308.013,3074.00
309.033,2988.00
310.052,2899.00
311.072,2875.00
312.090,3031.00
313.109,3225.00
314.129,3377.00
315.148,2975.00
316.165,3054.00
317.184,3194.00
318.203,2695.00
319.222,2763.00
320.238,3075.00
321.257,2801.00
322.275,2676.00
323.294,2963.00
324.312,3095.00
325.328,3227.00
326.346,3219.00
327.364,3224.00
328.382,3143.00
329.397,3066.00
330.415,3254.00
331.432,3159.00
332.450,3252.00
333.467,3431.00
334.482,2584.00
335.499,3324.00
336.516,2831.00
337.533,2564.00
338.547,2802.00
339.564,2821.00
340.580,3028.00
341.597,2943.00
342.613,3396.00
343.627,2964.00
344.643,2975.00
345.659,3088.00
346.675,2966.00
347.690,2844.00
348.704,3084.00
349.719,2862.00
350.735,2724.00
351.750,3176.00
352.765,2993.00
353.778,3016.00
354.793,3125.00
355.808,2808.00
356.822,3164.00
357.837,2634.00
358.851,3204.00
359.864,2927.00
360.878,2717.00
361.892,2912.00
362.906,3176.00
363.920,2600.00
364.932,3026.00
365.945,3059.00
366.959,2984.00
367.972,2905.00
368.986,2708.00
369.999,3332.00
371.010,2762.00
372.023,3337.00
373.036,2927.00
374.049,3365.00
375.061,3044.00
376.072,3000.00
377.084,2854.00
378.097,2714.00
379.109,3107.00
380.121,2948.00
381.133,2625.00
382.143,3136.00
383.155,2693.00
384.166,2878.00
385.178,3080.00
386.189,3167.00
387.201,2669.00
388.212,2895.00
389.221,2884.00
390.232,2964.00
391.243,2915.00
392.254,3027.00
393.264,2794.00
394.275,3208.00
395.283,3128.00
396.294,3531.00
397.304,3454.00
398.314,3064.00
399.324,3001.00
400.334,2617.00
401.344,3123.00
402.351,2664.00
403.361,3172.00
404.370,2975.00
405.380,2867.00
406.389,3306.00
407.398,3112.00
408.407,3089.00
409.414,3147.00
410.423,3283.00
411.431,2737.00
412.440,2641.00
413.448,3299.00
414.457,2814.00
415.465,2810.00
416.471,2863.00
417.479,2978.00
418.487,2803.00
419.495,3272.00
420.503,3109.00
421.510,2595.00
422.518,3097.00
423.525,3158.00
424.530,3357.00
425.537,2895.00
426.544,3234.00
427.551,2834.00
428.558,3520.00
429.565,3350.00
430.571,2838.00
431.578,2873.00
432.582,2853.00
433.588,2932.00
434.595,2625.00
435.601,3297.00
436.607,3210.00
437.612,2723.00
438.618,3297.00
439.624,2903.00
440.627,2906.00
441.633,3077.00
442.638,3558.00
443.643,3062.00
444.648,2982.00
445.653,3140.00
446.658,2862.00
447.663,2996.00
448.667,2889.00
449.672,2896.00
450.674,2976.00
451.678,2672.00
452.682,2873.00
453.687,2827.00
454.690,3593.00
455.694,3284.00
456.698,2577.00
457.702,2643.00
458.705,2759.00
459.709,2819.00
460.710,2845.00
461.713,3010.00
462.716,3063.00
463.719,2983.00
464.722,3186.00
465.725,2946.00
466.727,2813.00
467.730,3007.00
468.732,2767.00
469.735,3276.00
470.737,2884.00
471.737,2858.00
472.739,2887.00
473.741,2774.00
474.742,3013.00
475.744,3056.00
476.746,3005.00
477.747,2935.00
478.748,3152.00
479.750,2915.00
480.751,2956.00
481.752,3678.00
482.753,3043.00
483.751,3524.00
484.752,2626.00
485.753,2929.00
486.753,2853.00
487.753,2962.00
488.754,3369.00
489.754,2640.00
490.754,3295.00
491.754,3123.00
492.754,2680.00
493.753,3011.00
494.753,2880.00
495.752,3331.00
496.752,2994.00
497.749,2960.00
498.748,2850.00
499.747,3392.00
500.746,3087.00
501.745,2740.00
502.744,2708.00
503.742,3316.00
504.741,2948.00
505.739,2471.00
506.737,2901.00
507.735,3104.00
508.734,3312.00
509.732,3136.00
510.729,3294.00
511.727,2862.00
512.725,2901.00
513.720,2748.00
514.718,3241.00
515.715,2657.00
516.712,2628.00
517.709,2974.00
518.706,2901.00
519.703,3027.00
520.700,3158.00
521.696,3332.00
522.693,2896.00
523.689,2775.00
524.686,3147.00
525.682,2800.00
526.678,3464.00
527.674,2884.00
528.670,2595.00
529.666,3471.00
530.661,3440.00
531.657,3645.00
532.652,3124.00
533.648,2951.00
534.641,3202.00
535.636,2981.00
536.631,3078.00
537.626,3136.00
538.621,2754.00
539.616,2612.00
540.610,2474.00
541.605,2993.00
542.599,3013.00
543.593,2964.00
544.587,3877.00
545.581,2840.00
546.575,3027.00
547.569,3010.00
548.563,2660.00
549.557,2655.00
550.550,2757.00
551.543,2743.00
552.537,3128.00
553.530,2789.00
554.523,2755.00
555.516,3075.00
556.509,2947.00
557.502,2588.00
558.494,3187.00
559.487,2874.00
560.479,3170.00
561.472,3226.00
562.464,3169.00
563.456,3279.00
564.448,2913.00
565.440,2960.00
566.432,3381.00
567.423,2831.00
568.415,2835.00
569.404,3071.00
570.396,2784.00
571.387,3091.00
572.378,2990.00
573.369,3911.00
574.360,3663.00
575.351,2900.00
576.341,2839.00
577.332,2848.00
578.323,2678.00
579.313,2887.00
580.303,3244.00
581.293,3106.00
582.283,2956.00
583.273,3100.00
584.263,2971.00
585.253,3065.00
586.243,3141.00
587.232,2593.00
588.222,2901.00
589.211,3131.00
590.200,3038.00
591.189,2919.00
592.178,2895.00
593.167,3406.00
594.156,3259.00
595.145,2896.00
596.133,3422.00
597.122,3090.00
598.110,3124.00
599.098,3054.00
600.086,3009.00
601.074,3124.00
602.062,2785.00
603.050,2688.00
604.038,3088.00
605.025,2770.00
606.013,3197.00
607.000,3363.00
607.987,2985.00
608.975,3049.00
609.962,2765.00
610.949,3111.00
611.936,3215.00
612.922,3215.00
613.909,2699.00
614.895,3330.00
615.882,2815.00
616.868,2983.00
617.854,2715.00
618.841,3011.00
619.826,3092.00
620.812,3010.00
621.798,2794.00
622.784,3135.00
623.769,3075.00
624.755,2676.00
625.740,3040.00
626.725,2685.00
627.711,2835.00
628.698,3035.00
629.683,2784.00
630.667,3145.00
631.652,2723.00
632.637,2914.00
633.621,3131.00
634.606,2881.00
635.590,3066.00
636.574,2891.00
637.558,3065.00
638.542,2982.00
639.526,2802.00
640.510,2609.00
641.493,3006.00
642.477,2998.00
643.460,2677.00
644.444,3173.00
645.427,3183.00
646.410,2684.00
647.393,2957.00
648.376,3023.00
649.359,2919.00
650.341,3026.00
651.324,3081.00
652.307,3003.00
653.289,2926.00
654.271,2866.00
655.253,2849.00
656.235,3126.00
657.217,3203.00
658.199,2633.00
659.181,2744.00
660.163,2998.00
661.144,2849.00
662.126,2846.00
663.107,2755.00
664.088,6192.00
665.069,3240.00
666.050,2774.00
667.033,2729.00
668.014,3046.00
668.995,2576.00
669.975,2941.00
670.956,2977.00
671.936,3142.00
672.916,2953.00
673.896,3061.00
674.876,2879.00
675.856,2823.00
676.836,2721.00
677.816,2302.00
678.795,2802.00
679.775,2643.00
680.754,3011.00
681.734,3086.00
682.713,3145.00
683.692,2744.00
684.671,2651.00
685.650,2747.00
686.629,2841.00
687.607,2743.00
688.586,2780.00
689.564,2874.00
690.543,3234.00
691.523,2394.00
692.501,2811.00
693.479,2909.00
694.457,2784.00
695.435,2809.00
696.413,2660.00
697.390,2506.00
698.368,2675.00
699.345,3064.00
700.322,2910.00
701.300,3045.00
702.277,3045.00
703.254,3247.00
704.231,2505.00
705.207,2965.00
706.184,2746.00
707.161,2643.00
708.137,2806.00
709.113,2810.00
710.090,2795.00
711.068,2580.00
712.044,2586.00
713.020,2864.00
713.996,2609.00
714.971,2783.00
715.947,2829.00
716.922,2797.00
717.898,2745.00
718.873,2866.00
719.848,2703.00
720.823,2682.00
721.798,2951.00
722.773,2739.00
723.748,2533.00
724.723,3006.00
725.697,2789.00
726.672,2743.00
727.646,2478.00
728.622,2963.00
729.596,2597.00
730.570,2719.00
731.544,3091.00
732.518,3228.00
733.492,2810.00
734.466,2855.00
735.439,3027.00
736.413,3123.00
737.386,2448.00
738.359,2393.00
739.332,2543.00
740.305,2830.00
741.278,3295.00
742.251,2901.00
743.224,2703.00
744.196,2579.00
745.171,3156.00
746.143,3007.00
747.115,2767.00
748.087,2678.00
749.059,3074.00
750.031,2857.00
751.003,3642.00
751.975,3251.00
752.947,2697.00
753.918,3076.00
754.890,2559.00
755.861,2765.00
756.832,2979.00
757.803,2830.00
758.774,2841.00
759.747,2615.00
760.718,3198.00
761.689,2730.00
762.659,2589.00
763.630,3130.00
764.600,2547.00
765.570,3013.00
766.540,3112.00
767.510,2867.00
768.480,3069.00
769.450,2683.00
770.420,2799.00
771.390,2645.00
772.359,2754.00
773.329,2658.00
774.300,2519.00
775.269,2743.00
776.238,3014.00
777.207,3149.00
778.176,2476.00
779.145,2798.00
780.114,2631.00
781.083,2576.00
782.051,2719.00
783.019,2685.00
783.988,3076.00
784.956,2866.00
785.924,2948.00
786.894,2882.00
787.862,2723.00
788.830,3128.00
789.797,2584.00
790.765,2588.00
791.732,2788.00
792.700,2650.00
793.667,2576.00
794.634,2756.00
795.601,2672.00
796.568,2777.00
797.535,2841.00
798.502,3408.00
799.468,2901.00
800.437,2380.00
801.403,2650.00
802.370,3234.00
803.336,3009.00
804.302,2870.00
805.268,2457.00
806.234,2525.00
807.200,2708.00
808.166,2778.00
809.131,2584.00
810.097,2971.00
811.062,3643.00
812.027,2944.00
812.994,2584.00
813.960,2604.00
814.925,2951.00
815.889,2539.00
816.854,3029.00
817.819,2636.00
818.783,2732.00
819.748,3098.00
820.712,2758.00
821.677,2666.00
822.641,2705.00
823.605,2708.00
824.571,3105.00
825.534,2732.00
826.498,2709.00
827.462,2819.00
828.425,2601.00
829.389,3039.00
830.352,2829.00
831.315,2858.00
832.279,2518.00
833.242,2750.00
834.204,2666.00
835.167,2650.00
836.132,3081.00
837.095,2513.00
838.057,2701.00
839.020,2805.00
839.982,2837.00
840.944,2607.00
841.906,2602.00
842.868,2970.00
843.830,2518.00
844.792,3039.00
845.753,2703.00
846.715,2452.00
847.679,2616.00
848.640,2581.00
849.601,2767.00
850.562,3214.00
851.523,2745.00
852.484,2465.00
853.445,2990.00
854.406,2695.00
855.367,2712.00
856.327,3031.00
857.288,2510.00
858.248,2693.00
859.210,2690.00
860.170,2524.00
861.130,2983.00
862.090,2432.00
863.050,2626.00
864.010,2641.00
864.969,2904.00
865.929,2579.00
866.888,2536.00
867.848,2825.00
868.807,2687.00
869.766,2840.00
870.727,2706.00
871.686,3008.00
872.645,2982.00
873.604,3294.00
874.562,2753.00
875.521,2816.00
876.479,3304.00
877.437,2516.00
878.396,2588.00
879.354,3155.00
880.312,2568.00
881.270,2657.00
882.229,3069.00
883.187,2601.00
884.145,2670.00
885.102,2925.00
886.059,2830.00
887.017,2919.00
887.974,2927.00
888.931,3077.00
889.888,2511.00
890.845,2404.00
891.802,2343.00
892.758,2627.00
893.717,2423.00
894.673,2582.00
895.630,2632.00
896.586,2898.00
897.542,2675.00
898.498,2482.00
899.454,2833.00
900.410,2660.00
901.366,2685.00
902.321,2594.00
903.277,2688.00
904.232,2710.00
905.189,2448.00
906.145,2654.00
907.100,2212.00
908.055,2669.00
909.010,2940.00
909.965,2341.00
910.919,2801.00
911.874,2568.00
912.828,2747.00
913.783,2809.00
914.737,2351.00
915.693,2739.00
916.648,2937.00
917.602,2923.00
918.555,2778.00
919.509,2854.00
920.463,2698.00
921.417,2758.00
922.370,2555.00
923.324,2660.00
924.277,2677.00
925.230,2781.00
926.183,2409.00
927.138,2662.00
928.091,2972.00
929.044,2802.00
929.996,2639.00
930.949,2655.00
931.902,2828.00
932.854,2808.00
933.806,2585.00
934.758,2962.00
935.711,3019.00
936.663,2805.00
937.614,2820.00
938.568,2719.00
939.520,2361.00
940.471,2702.00
941.423,2775.00
942.374,2880.00
943.326,2699.00
944.277,2570.00
945.228,2813.00
946.179,2679.00
947.130,3045.00
948.080,2679.00
949.031,2573.00
949.984,2671.00
950.934,2714.00
951.884,2470.00
952.835,2698.00
953.785,2754.00
954.735,2578.00
955.685,2329.00
956.635,2641.00
957.585,2656.00
958.534,2624.00
959.484,2725.00
960.433,2590.00
961.383,2451.00
962.334,2973.00
963.283,2760.00
964.232,2870.00
965.181,2705.00
966.130,2755.00
967.079,2618.00
968.027,2732.00
968.976,2741.00
969.924,2602.00
970.873,2806.00
971.821,2721.00
972.769,2960.00
973.719,2838.00
974.667,2472.00
975.615,2713.00
976.562,2727.00
977.510,2413.00
978.458,2584.00
979.405,2877.00
980.352,2731.00
981.300,2955.00
982.247,2786.00
983.194,2537.00
984.141,2630.00
985.088,2718.00
986.036,2759.00
986.983,3029.00
987.930,3143.00
988.876,2357.00
989.822,2933.00
990.769,2538.00
991.715,2606.00
992.661,2415.00
993.607,2715.00
994.553,3295.00
995.498,2605.00
996.444,2280.00
997.389,2786.00
998.337,2562.00
999.282,2882.00
1000.227,2642.00
1001.173,2692.00
1002.118,2453.00
1003.062,2928.00
1004.007,2704.00
1004.952,2953.00
1005.897,2933.00
1006.841,2698.00
1007.786,2460.00
1008.730,2464.00
1009.674,3194.00
1010.618,2626.00
1011.564,2508.00
1012.508,2380.00
1013.452,2900.00
1014.396,2725.00
1015.339,2641.00
1016.283,2684.00
1017.226,2725.00
1018.170,2689.00
1019.113,2870.00
1020.056,2722.00
1020.999,2724.00
1021.942,2591.00
1022.885,2847.00
1023.828,2973.00
1024.770,2460.00
1025.715,2761.00
1026.657,2678.00
1027.600,2747.00
1028.542,2935.00
1029.484,2756.00
1030.426,2850.00
1031.368,2764.00
1032.310,2583.00
1033.251,2503.00
1034.193,2717.00
1035.135,2496.00
1036.076,2684.00
1037.017,2546.00
1037.959,2822.00
1038.900,2790.00
1039.843,2821.00
1040.784,2776.00
1041.725,2804.00
1042.665,2632.00
1043.606,2761.00
1044.547,2723.00
1045.487,2380.00
1046.427,2673.00
1047.368,2717.00
1048.308,2251.00
1049.248,2519.00
1050.188,2752.00
1051.128,2591.00
1052.067,2659.00
1053.007,2403.00
1053.947,2410.00
1054.886,2556.00
1055.827,2479.00
1056.766,2910.00
1057.706,2462.00
1058.645,2668.00
1059.584,2769.00
1060.522,3019.00
1061.461,2473.00
1062.400,2448.00
1063.338,2629.00
1064.277,2498.00
1065.215,2523.00
1066.154,2382.00
1067.092,2600.00
1068.030,2655.00
1068.968,2837.00
1069.906,2990.00
1070.843,2953.00
1071.781,2761.00
1072.720,2750.00
1073.658,2810.00
1074.595,2573.00
1075.533,2562.00
1076.470,2606.00
1077.407,2968.00
1078.344,2749.00
1079.281,2830.00
1080.217,2313.00
1081.154,2688.00
1082.091,2737.00
1083.027,2463.00
1083.964,2904.00
1084.900,2547.00
1085.836,2628.00
1086.772,2914.00
1087.708,2458.00
1088.644,2792.00
1089.580,2719.00
1090.515,2713.00
1091.451,2596.00
1092.388,2729.00
1093.324,2456.00
1094.259,3242.00
1095.194,2739.00
1096.129,2621.00
1097.064,2523.00
1097.999,2765.00
1098.934,2516.00
1099.869,2534.00
1100.803,2710.00
1101.738,2678.00
1102.672,2383.00
1103.607,2800.00
1104.541,2533.00
1105.475,2525.00
1106.409,2408.00
1107.343,2590.00
1108.277,2433.00
1109.210,2699.00
1110.144,2687.00
1111.078,2644.00
1112.011,2424.00
1112.944,2791.00
1113.878,2706.00
1114.811,2199.00
1115.744,2585.00
1116.678,2313.00
1117.611,2610.00
1118.544,2625.00
1119.477,2727.00
1120.409,2554.00
1121.342,3111.00
1122.274,2724.00
1123.206,4251.00
1124.138,2698.00
1125.070,2993.00
1126.002,2839.00
1126.934,2317.00
1127.866,2563.00
1128.798,2321.00
1129.729,2386.00
1130.661,2646.00
1131.592,2579.00
1132.523,2762.00
1133.454,2734.00
1134.385,2320.00
1135.317,2645.00
1136.247,2554.00
1137.178,2861.00
1138.109,2381.00
1139.039,3000.00
1139.970,2811.00
1140.900,2592.00
1141.831,2342.00
1142.761,2243.00
1143.691,2769.00
1144.621,2630.00
1145.551,2716.00
1146.480,2721.00
1147.410,2843.00
1148.340,2294.00
1149.269,2349.00
1150.199,2577.00
1151.128,3006.00
1152.057,2455.00
1152.979,2544.00
1153.898,2587.00
1154.819,2727.00
1155.739,2625.00
1156.658,2554.00
1157.579,2644.00
1158.498,2639.00
1159.419,2219.00
1160.338,2662.00
1161.256,2673.00
1162.177,2472.00
1163.095,2650.00
1164.016,2714.00
1164.934,2905.00
1165.852,2838.00
1166.772,2632.00
1167.690,2640.00
1168.610,2705.00
1169.528,2618.00
1170.446,2200.00
1171.365,2568.00
1172.283,2472.00
1173.202,2630.00
1174.120,2697.00
1175.037,2480.00
1175.956,2469.00
1176.873,2513.00
1177.792,2544.00
1178.709,3115.00
1179.626,2528.00
1180.544,2847.00
1181.461,2507.00
1182.379,2736.00
1183.296,2622.00
1184.212,2277.00
1185.130,2463.00
1186.046,2971.00
1186.962,2640.00
1187.880,2897.00
1188.796,2678.00
1189.714,2439.00
1190.629,2778.00
1191.545,2676.00
1192.462,2574.00
1193.378,2617.00
1194.295,2355.00
1195.210,2697.00
1196.125,2800.00
1197.042,2725.00
1197.957,2634.00
1198.872,2534.00
1199.788,2555.00
1200.703,2945.00
1201.619,2670.00
1202.534,2512.00
1203.448,2693.00
1204.364,2546.00
1205.278,2299.00
1206.192,2664.00
1207.108,3108.00
1208.022,2983.00
1208.938,2500.00
1209.851,2807.00
1210.765,2849.00
1211.680,2501.00
1212.594,2395.00
1213.507,2552.00
1214.422,2998.00
1215.335,2742.00
1216.248,2550.00
1217.163,2646.00
1218.076,3192.00
1218.990,2765.00
1219.903,2396.00
1220.816,2477.00
1221.730,2632.00
1222.642,2508.00
1223.554,2567.00
1224.469,2681.00
1225.380,2559.00
1226.292,2297.00
1227.206,2768.00
1228.118,2887.00
1229.032,2254.00
1229.943,2491.00
1230.855,2587.00
1231.768,2385.00
1232.679,2715.00
1233.590,2621.00
1234.503,2835.00
1235.414,2519.00
1236.325,2522.00
1237.238,2662.00
1238.149,2730.00
1239.059,2439.00
1239.972,2803.00
1240.882,2449.00
1241.793,2773.00
1242.705,2972.00
1243.615,2599.00
1244.525,2706.00
1245.437,2207.00
1246.347,2671.00
1247.259,2772.00
1248.168,3067.00
1249.078,2881.00
1249.989,2851.00
1250.899,2435.00
1251.808,2460.00
1252.719,2555.00
1253.628,2471.00
1254.537,3010.00
1255.448,2431.00
1256.357,2473.00
1257.266,2654.00
1258.176,2375.00
1259.085,2340.00
1259.993,2447.00
1260.904,2510.00
1261.812,2492.00
1262.720,3195.00
1263.630,2772.00
1264.538,2462.00
1265.446,2756.00
1266.356,2576.00
1267.263,2895.00
1268.171,2428.00
1269.080,2708.00
1269.988,2792.00
1270.895,2552.00
1271.804,2622.00
1272.711,2808.00
1273.619,2768.00
1274.527,2469.00
1275.434,2740.00
1276.341,2428.00
1277.248,2660.00
1278.156,2924.00
1279.063,2478.00
1279.969,2673.00
1280.877,3512.00
1281.783,2837.00
1282.690,2669.00
1283.598,2605.00
1284.503,2514.00
1285.409,2445.00
1286.317,2986.00
1287.223,3023.00
1288.128,2706.00
1289.036,2545.00
1289.941,2583.00
1290.846,2633.00
1291.751,2442.00
1292.658,2544.00
1293.563,3102.00
1294.468,2687.00
1295.375,2775.00
1296.280,2865.00
1297.184,3317.00
1298.091,2720.00
1298.995,2798.00
1299.900,3050.00
1300.806,2555.00
1301.710,2407.00
1302.614,2228.00
1303.518,2856.00
1304.424,2565.00
1305.327,2790.00
1306.231,2630.00
1307.137,2776.00
1308.040,2676.00
1308.943,2663.00
1309.847,2860.00
1310.752,2797.00
1311.655,2281.00
1312.558,2396.00
1313.463,2563.00
1314.366,2520.00
1315.269,2711.00
1316.171,2614.00
1317.076,2520.00
1317.978,2451.00
1318.881,2252.00
1319.785,2490.00
1320.687,2456.00
1321.589,2249.00
1322.491,2471.00
1323.395,2696.00
1324.297,3161.00
1325.198,2776.00
1326.102,2435.00
1327.004,2431.00
1327.905,3033.00
1328.806,2614.00
1329.709,2708.00
1330.611,2562.00
1331.512,2450.00
1332.413,3091.00
1333.316,2624.00
1334.216,2788.00
1335.117,2388.00
1336.020,2632.00
1336.920,2619.00
1337.821,2472.00
1338.721,2893.00
1339.623,2704.00
1340.523,2600.00
1341.423,2494.00
1342.323,2925.00
1343.225,2739.00
1344.125,2444.00
1345.025,2477.00
1345.924,2304.00
1346.826,2986.00
1347.725,3042.00
1348.624,2888.00
1349.524,2522.00
1350.425,2540.00
1351.324,2741.00
1352.223,2761.00
1353.121,2601.00
1354.022,2808.00
1354.921,2993.00
1355.819,2734.00
1356.718,2695.00
1357.618,2378.00
1358.516,2705.00
1359.415,3023.00
1360.313,2721.00
1361.213,2591.00
1362.111,2880.00
1363.008,3258.00
1363.906,2638.00
1364.806,2638.00
1365.703,2714.00
1366.601,2465.00
1367.498,2472.00
1368.397,2809.00
1369.295,2668.00
1370.192,2461.00
1371.089,2734.00
1371.987,2617.00
1372.884,2898.00
1373.781,2436.00
1374.678,2619.00
1375.574,2468.00
1376.473,2727.00
1377.369,2841.00
1378.265,2493.00
1379.161,2583.00
1380.059,2332.00
1380.955,2747.00
1381.851,2419.00
1382.747,2490.00
1383.643,2535.00
1384.540,2424.00
1385.436,2519.00
1386.331,2694.00
1387.227,2789.00
1388.124,2754.00
1389.019,2416.00
1389.914,2594.00
1390.809,2268.00
1391.704,3003.00
1392.601,2528.00
1393.495,2909.00
1394.390,2809.00
1395.285,2917.00
1396.179,2694.00
1397.075,2589.00
1397.969,2662.00
1398.864,2318.00
1399.758,2567.00
1400.652,2664.00
1401.547,2458.00
1402.441,2404.00
1403.335,2960.00
1404.229,2678.00
1405.122,2721.00
1406.017,2624.00
1406.911,2777.00
1407.804,3033.00
1408.697,2605.00
1409.590,2487.00
1410.485,2796.00
1411.378,2678.00
1412.271,2322.00
1413.163,2715.00
1414.056,2770.00
1414.949,2981.00
1415.843,2705.00
1416.735,2588.00
1417.627,2651.00
1418.520,2588.00
1419.412,2862.00
1420.306,2806.00
1421.197,2893.00
1422.089,2830.00
1422.981,3073.00
1423.873,2816.00
1424.764,2733.00
1425.657,2650.00
1426.549,2769.00
1427.440,2823.00
1428.331,2529.00
1429.222,2311.00
1430.113,2705.00
1431.006,2799.00
1431.897,2563.00
1432.787,2634.00
1433.678,2566.00
1434.568,2426.00
1435.459,2866.00
1436.351,2779.00
1437.241,2728.00
1438.131,2780.00
1439.021,2408.00
1439.911,2616.00
1440.801,2707.00
1441.693,2853.00
1442.583,2641.00
1443.472,2641.00
1444.362,2748.00
1445.251,2607.00
1446.140,2530.00
1447.030,2854.00
1447.921,2870.00
1448.810,2452.00
1449.699,2990.00
1450.588,2628.00
1451.476,2548.00
1452.365,2736.00
1453.254,2536.00
1454.144,2504.00
1455.032,2809.00
1455.921,2369.00
1456.809,2925.00
1457.697,2456.00
1458.585,2585.00
1459.473,2570.00
1460.361,2491.00
1461.251,2698.00
1462.138,2725.00
1463.026,2591.00
1463.913,2844.00
1464.801,2531.00
1465.688,2729.00
1466.575,2667.00
1467.463,3043.00
1468.351,2496.00
1469.238,2614.00
1470.125,2266.00
1471.012,2663.00
1471.899,2715.00
1472.785,2453.00
1473.672,2596.00
1474.558,2876.00
1475.446,2798.00
1476.333,2803.00
1477.219,2454.00
1478.105,2608.00
1478.991,2597.00
1479.877,2925.00
1480.762,2650.00
1481.648,2512.00
1482.534,2777.00
1483.419,2683.00
1484.307,2730.00
1485.192,2625.00
1486.077,2484.00
1486.962,2462.00
1487.847,2399.00
1488.732,2468.00
1489.617,2654.00
1490.502,2864.00
1491.387,2777.00
1492.271,2471.00
1493.156,2488.00
1494.042,2441.00
1494.927,2865.00
1495.811,2535.00
1496.695,2770.00
1497.579,2920.00
1498.463,2651.00
1499.347,2679.00
1500.231,2635.00
1501.114,2705.00
1501.998,2869.00
1502.881,2654.00
1503.765,2946.00
1504.648,3015.00
1505.533,2750.00
1506.417,2635.00
1507.300,2621.00
1508.183,2721.00
1509.066,2134.00
1509.948,2893.00
1510.831,2958.00
1511.714,2427.00
1512.596,2770.00
1513.479,2860.00
1514.361,2851.00
1515.243,2669.00
1516.125,2802.00
1517.008,2901.00
1517.890,2585.00
1518.771,2659.00
1519.655,2910.00
1520.537,2573.00
1521.419,2519.00
1522.300,2678.00
1523.182,2819.00
1524.063,2757.00
1524.944,2923.00
1525.825,2850.00
1526.707,2465.00
1527.588,2430.00
1528.468,2746.00
1529.349,2315.00
1530.230,2536.00
1531.111,2819.00
1531.991,2665.00
1532.872,2393.00
1533.752,2611.00
1534.632,2504.00
1535.513,2526.00
1536.393,2807.00
1537.273,2962.00
1538.153,3255.00
1539.032,2365.00
1539.912,2644.00
1540.792,2643.00
1541.672,2644.00
1542.551,2742.00
1543.430,3231.00
1544.310,2701.00
1545.189,2518.00
1546.068,3053.00
1546.947,2757.00
1547.826,2967.00
1548.705,2663.00
1549.584,2828.00
1550.462,2582.00
1551.341,2787.00
1552.219,2703.00
1553.098,2782.00
1553.976,2797.00
1554.854,3049.00
1555.733,2838.00
1556.611,2570.00
1557.489,2460.00
1558.367,2650.00
1559.244,2807.00
1560.122,2632.00
1561.000,2740.00
1561.877,2940.00
1562.755,2504.00
1563.632,2583.00
1564.509,2877.00
1565.386,3004.00
1566.264,2361.00
1567.141,2324.00
1568.017,2798.00
1568.894,2655.00
1569.771,2696.00
1570.648,2726.00
1571.524,2680.00
1572.401,2441.00
1573.277,2430.00
1574.153,2704.00
1575.029,2512.00
1575.906,3400.00
1576.781,2834.00
1577.657,2557.00
1578.533,2877.00
1579.409,2309.00
1580.285,2644.00
1581.160,3057.00
1582.036,2822.00
1582.911,2511.00
1583.786,2962.00
1584.662,2453.00
1585.537,2627.00
1586.412,2688.00
1587.287,2514.00
1588.160,2849.00
1589.035,2315.00
1589.909,2687.00
1590.784,2653.00
1591.658,2456.00
1592.533,2690.00
1593.407,2670.00
1594.281,2518.00
1595.155,3015.00
1596.029,2589.00
1596.903,2605.00
1597.777,2544.00
1598.651,2896.00
1599.525,2419.00
1600.398,2654.00
1601.272,2634.00
1602.144,3236.00
1603.017,2604.00
1603.890,2891.00
1604.763,2736.00
1605.636,2821.00
1606.509,2365.00
1607.382,2460.00
1608.255,2734.00
1609.128,2864.00
1610.000,2598.00
1610.873,2378.00
1611.746,2588.00
1612.616,2580.00
1613.488,2209.00
1614.361,2637.00
1615.233,2605.00
1616.105,2876.00
1616.977,2549.00
1617.849,2495.00
1618.720,2978.00
1619.592,2970.00
1620.464,2716.00
1621.333,3114.00
1622.205,2635.00
1623.076,2649.00
1623.947,2609.00
1624.818,2908.00
1625.689,2753.00
1626.560,2586.00
1627.431,2678.00
1628.302,3043.00
1629.171,2821.00
1630.042,2947.00
1630.912,3312.00
1631.782,3220.00
1632.653,2470.00
1633.523,2783.00
1634.393,2883.00
1635.263,2524.00
1636.131,2633.00
1637.001,2581.00
1637.871,2283.00
1638.741,2323.00
1639.611,2401.00
1640.480,2794.00
1641.350,2490.00
1642.219,2490.00
1643.087,2163.00
1643.956,3078.00
1644.825,2928.00
1645.694,2837.00
1646.563,2805.00
1647.432,2698.00
1648.299,2680.00
1649.167,2792.00
1650.036,2474.00
1650.904,2766.00
1651.773,2844.00
1652.641,2697.00
1653.509,2865.00
1654.376,2529.00
1655.244,2697.00
1656.112,2701.00
1656.980,2666.00
1657.847,2551.00
1658.715,2807.00
1659.581,2574.00
1660.448,2907.00
1661.316,2181.00
1662.183,2687.00
1663.051,2714.00
1663.918,2660.00
1664.783,2695.00
1665.650,2743.00
1666.517,2819.00
1667.384,2709.00
1668.251,2709.00
1669.115,2886.00
1669.982,2642.00
1670.849,2926.00
1671.715,2655.00
1672.581,2819.00
1673.446,2773.00
1674.312,2669.00
1675.178,3049.00
1676.044,2723.00
1676.910,2755.00
1677.774,2739.00
1678.639,2354.00
1679.505,2639.00
1680.370,2779.00
1681.236,3275.00
1682.099,2579.00
1682.965,2709.00
1683.830,2255.00
1684.695,2494.00
1685.560,2602.00
1686.423,2835.00
1687.288,2790.00
1688.153,2694.00
1689.017,2621.00
1689.880,2772.00
1690.745,2803.00
1691.609,2508.00
1692.473,2821.00
1693.338,2871.00
1694.200,2936.00
1695.064,2643.00
1695.928,2593.00
1696.792,2670.00
1697.654,3175.00
1698.517,2681.00
1699.381,2430.00
1700.245,2350.00
1701.106,2953.00
1701.969,2538.00
1702.833,2790.00
1703.696,2561.00
1704.557,2588.00
1705.420,2562.00
1706.283,2696.00
1707.146,2785.00
1708.007,2478.00
1708.870,2497.00
1709.732,2372.00
1710.595,2568.00
1711.455,2474.00
1712.318,2568.00
1713.180,2939.00
1714.040,2716.00
1714.902,2868.00
1715.764,2668.00
1716.626,2480.00
1717.486,2590.00
1718.348,2885.00
1719.209,4880.00
1720.071,2328.00
1720.930,2424.00
1721.792,2509.00
1722.653,2534.00
1723.512,2525.00
1724.374,2612.00
1725.234,2712.00
1726.095,2662.00
1726.954,2645.00
1727.815,2779.00
1728.676,2664.00
1729.535,2888.00
1730.395,2633.00
1731.256,2575.00
1732.114,2731.00
1732.974,2160.00
1733.834,3024.00
1734.693,2831.00
1735.553,2699.00
1736.413,3099.00
1737.272,2596.00
1738.130,2584.00
1738.990,2726.00
1739.849,2562.00
1740.707,3639.00
1741.566,2705.00
1742.426,2737.00
1743.283,3073.00
1744.142,2552.00
1745.001,2355.00
1745.858,2842.00
1746.717,2779.00
1747.576,2738.00
1748.433,2816.00
1749.292,3243.00
1750.150,3281.00
1751.007,2843.00
1751.865,2845.00
1752.723,2689.00
1753.579,2611.00
1754.438,2874.00
1755.296,2906.00
1756.152,2235.00
1757.010,2350.00
1757.865,2886.00
1758.723,2324.00
1759.581,3001.00
1760.436,2639.00
1761.294,2985.00
1762.151,2657.00
1763.006,2609.00
1763.864,2335.00
1764.721,2859.00
1765.576,2702.00
1766.433,2839.00
1767.288,2546.00
1768.144,2702.00
1769.001,2662.00
1769.856,2745.00
1770.712,2922.00
1771.568,2428.00
1772.423,2589.00
1773.279,2560.00
1774.133,2582.00
1774.989,3069.00
1775.845,3065.00
1776.699,2891.00
1777.555,2633.00
1778.409,3200.00
1779.265,2602.00
1780.120,2638.00
1780.974,2666.00
1781.829,2306.00
1782.682,2720.00
1783.538,2504.00
1784.393,2740.00
1785.246,2568.00
1786.101,2800.00
1786.954,2793.00
1787.808,2868.00
1788.661,2345.00
1789.516,2572.00
1790.370,2617.00
1791.223,2875.00
1792.077,2629.00
1792.930,2754.00
1793.784,2533.00
1794.636,2670.00
1795.490,2631.00
1796.344,2675.00
1797.196,2648.00
1798.049,2835.00
1798.901,2569.00
1799.755,2903.00
1800.606,2466.00
1801.460,3156.00
1802.311,2946.00
1803.165,3071.00
1804.018,3035.00
1804.869,2753.00
1805.722,3120.00
1806.573,2736.00
1807.426,2502.00
1808.276,2670.00
1809.129,2591.00
1809.980,2844.00
1810.832,2945.00
1811.683,2573.00
1812.535,3016.00
1813.385,2583.00
1814.237,2948.00
1815.089,2714.00
1815.940,2930.00
1816.791,2616.00
1817.641,2502.00
1818.493,2801.00
1819.343,2772.00
1820.194,2544.00
1821.044,2769.00
1821.895,2853.00
1822.745,2399.00
1823.596,2592.00
1824.445,3057.00
1825.296,2771.00
1826.145,2638.00
1826.996,2850.00
1827.845,2716.00
1828.695,2735.00
1829.544,2651.00
1830.395,2692.00
1831.243,2568.00
1832.094,2413.00
1832.942,3322.00
1833.792,2767.00
1834.640,2721.00
1835.490,2685.00
1836.338,2714.00
1837.186,2596.00
1838.036,2546.00
1838.884,2679.00
1839.733,2990.00
1840.581,2873.00
1841.430,2836.00
1842.278,3000.00
1843.127,2607.00
1843.974,2396.00
1844.823,3103.00
1845.671,2845.00
1846.519,2724.00
1847.366,2738.00
1848.213,2320.00
1849.062,2519.00
1849.909,2442.00
1850.757,3304.00
1851.604,2804.00
1852.452,2621.00
1853.298,2914.00
1854.146,2769.00
1854.993,2693.00
1855.839,3164.00
1856.687,2819.00
1857.532,2760.00
1858.380,2711.00
1859.226,2746.00
1860.073,2780.00
1860.919,2514.00
1861.765,2596.00
1862.612,2923.00
1863.457,2901.00
1864.304,2656.00
1865.150,2804.00
1865.995,2637.00
1866.842,2786.00
1867.686,2935.00
1868.533,2784.00
1869.378,2721.00
1870.223,2731.00
1871.069,2585.00
1871.914,2694.00
1872.760,2688.00
1873.604,2483.00
1874.448,2807.00
1875.294,2862.00
1876.139,2577.00
1876.984,2836.00
1877.828,2350.00
1878.672,2222.00
1879.518,2580.00
1880.361,2847.00
1881.205,2845.00
1882.050,2513.00
1882.894,3172.00
1883.739,2557.00
1884.582,2503.00
1885.425,2523.00
1886.270,2946.00
1887.113,2465.00
1887.956,2818.00
1888.801,2734.00
1889.644,2506.00
1890.486,2284.00
1891.331,2598.00
1892.173,2728.00
1893.017,2749.00
1893.860,2977.00
1894.702,2984.00
1895.546,2717.00
1896.388,3380.00
1897.230,2998.00
1898.074,2598.00
1898.916,2453.00
1899.757,2555.00
1900.601,3353.00
1901.443,2933.00
1902.284,2965.00
1903.125,3151.00
1903.969,2906.00
1904.810,2915.00
1905.651,2791.00
1906.494,3050.00
1907.335,3134.00
1908.176,2793.00
1909.018,2779.00
1909.859,2707.00
1910.700,2588.00
1911.542,3208.00
1912.383,2758.00
1913.223,2335.00
1914.064,2858.00
1914.906,2944.00
1915.746,3028.00
1916.586,3124.00
1917.428,2679.00
1918.268,2765.00
1919.107,2593.00
1919.947,2505.00
1920.789,2633.00
1921.628,2971.00
1922.468,2683.00
1923.309,2555.00
1924.148,2995.00
1924.988,2770.00
1925.827,2691.00
1926.667,2583.00
1927.507,2731.00
1928.345,2526.00
1929.184,2865.00
1930.025,2543.00
1930.864,2974.00
1931.702,3026.00
1932.541,2600.00
1933.381,2827.00
1934.219,2838.00
1935.057,2945.00
1935.896,2428.00
1936.735,2633.00
1937.573,2630.00
1938.411,2508.00
1939.249,2879.00
1940.089,2616.00
1940.927,2930.00
1941.764,3001.00
1942.602,2592.00
1943.439,2602.00
1944.278,2713.00
1945.115,2624.00
1945.953,2471.00
1946.790,2785.00
1947.628,3036.00
1948.465,2811.00
1949.302,2836.00
1950.139,2850.00
1950.976,2563.00
1951.814,2901.00
1952.651,2759.00
1953.487,2516.00
1954.323,2965.00
1955.160,2662.00
1955.998,3038.00
1956.834,2642.00
1957.670,2768.00
1958.506,2919.00
1959.342,2789.00
1960.177,2772.00
1961.015,2852.00
1961.850,2752.00
1962.686,2750.00
1963.521,2719.00
1964.357,2997.00
1965.192,2480.00
1966.029,2824.00
1966.864,2645.00
1967.699,2974.00
1968.534,2751.00
1969.369,2969.00
1970.204,2677.00
1971.040,2726.00
1971.875,2649.00
1972.709,2771.00
1973.544,2578.00
1974.378,2602.00
1975.212,2781.00
1976.047,2595.00
1976.882,2583.00
1977.716,3100.00
1978.550,2424.00
1979.384,2671.00
1980.218,2678.00
1981.052,2631.00
1981.885,2744.00
1982.719,2701.00
1983.554,2874.00
1984.388,3036.00
1985.221,2763.00
1986.054,2961.00
1986.887,2755.00
1987.720,2577.00
1988.553,3000.00
1989.386,2783.00
1990.219,2867.00
1991.053,3058.00
1991.886,2594.00
1992.719,2905.00
1993.551,2262.00
1994.383,2879.00
1995.216,2624.00
1996.048,2440.00
1996.880,2855.00
1997.712,2612.00
1998.544,2731.00
1999.376,2752.00
2000.208,3016.00
2001.040,3122.00
2001.873,2600.00
2002.705,2547.00
2003.536,2796.00
2004.367,2753.00
2005.199,2712.00
2006.030,2572.00
2006.861,2519.00
2007.692,2760.00
2008.523,2558.00
2009.354,2708.00
2010.185,2536.00
2011.016,2850.00
2011.846,2921.00
2012.677,2645.00
2013.507,3052.00
2014.338,2932.00
2015.168,2629.00
2015.999,3211.00
2016.829,2655.00
2017.659,2961.00
2018.489,3204.00
2019.319,2559.00
2020.149,2866.00
2020.980,2747.00
2021.810,2534.00
2022.639,2613.00
2023.469,2603.00
2024.298,2397.00
2025.128,2343.00
2025.957,2372.00
2026.786,2186.00
2027.615,2375.00
2028.444,2579.00
2029.273,2751.00
2030.102,2328.00
2030.931,2576.00
2031.758,2846.00
2032.586,2542.00
2033.415,2586.00
2034.243,2213.00
2035.072,2029.00
2035.900,2456.00
2036.728,2309.00
2037.556,2361.00
2038.385,2338.00
2039.213,2162.00
2040.040,2177.00
2040.868,2139.00
2041.696,2162.00
2042.524,2212.00
2043.351,2417.00
2044.179,2154.00
2045.006,1958.00
