RamanScope Measure Spectrum Data V3.72

<< MEASURE CONDITION >>
Exposure Type,Aver
Exposure Time [sec],15
Exposure Count,4
Measure Time,2023/07/15 15:52:25
Data Name,""
Data Comment,""
Rayleigh Wave[nm],532.0

<< SAMPLE SPECTRUM >>
Wave[dcm-1],No156
146.591,900.50
147.626,1092.00
148.664,1227.75
149.699,1403.75
150.737,1560.50
151.772,1781.75
152.809,1846.50
153.846,2047.00
154.881,2149.00
155.918,2287.75
156.953,2336.25
157.989,2451.25
159.026,2512.75
160.060,2514.50
161.096,2611.00
162.130,2687.50
163.167,2689.00
164.200,2731.25
165.236,2809.25
166.272,2855.75
167.305,2909.50
168.341,2937.50
169.374,2979.50
170.409,3016.75
171.445,3113.00
172.477,3183.00
173.512,3205.25
174.545,3169.25
175.580,3262.75
176.614,3258.25
177.647,3191.50
178.681,3290.75
179.713,3238.75
180.747,3151.00
181.781,3173.00
182.813,3176.00
183.847,3198.75
184.878,3140.75
185.912,3216.50
186.945,3155.75
187.976,3202.75
189.010,3281.00
190.043,3268.00
191.073,3253.50
192.106,3254.75
193.137,3378.50
194.170,3377.00
195.202,3390.75
196.232,3422.25
197.265,3456.00
198.297,3497.75
199.327,3591.50
200.359,3631.25
201.388,3635.00
202.420,3745.75
203.452,3814.25
204.481,3954.75
205.512,4022.50
206.544,4066.25
207.573,4192.25
208.604,4317.50
209.635,4478.00
210.663,4583.50
211.694,4652.00
212.725,4817.75
213.753,4975.25
214.783,4995.50
215.813,5075.75
216.841,5068.25
217.871,5148.25
218.899,5136.25
219.929,5188.75
220.959,5007.00
221.986,4904.00
223.016,4799.75
224.045,4760.25
225.072,4645.00
226.101,4480.50
227.130,4369.25
228.157,4306.25
229.185,4239.25
230.214,4208.50
231.241,4089.25
232.269,4012.00
233.297,3999.25
234.323,4035.75
235.351,3935.50
236.379,3921.25
237.407,3884.75
238.433,3876.75
239.460,3936.00
240.488,3915.25
241.513,3984.50
242.540,3992.25
243.568,4018.50
244.592,4039.25
245.619,4058.00
246.646,4051.50
247.671,4021.25
248.697,4000.25
249.724,4035.75
250.748,3996.75
251.774,3974.75
252.801,3985.50
253.827,3982.00
254.850,4065.00
255.876,3963.00
256.902,4040.75
257.925,4073.00
258.951,4104.75
259.976,4103.50
260.999,4164.50
262.024,4126.00
263.049,4194.25
264.074,4191.25
265.097,4268.00
266.122,4304.50
267.146,4314.25
268.168,4384.75
269.193,4449.00
270.217,4473.50
271.241,4502.25
272.263,4602.00
273.287,4581.25
274.311,4593.00
275.332,4623.25
276.356,4600.00
277.379,4621.75
278.402,4566.75
279.424,4582.50
280.447,4588.25
281.470,4501.25
282.492,4470.25
283.513,4385.75
284.536,4308.50
285.558,4360.75
286.581,4276.75
287.601,4126.00
288.623,4101.50
289.645,4079.50
290.665,4056.00
291.687,3938.00
292.709,3905.75
293.730,3840.75
294.750,3825.00
295.771,3804.25
296.792,3787.50
297.813,3722.00
298.832,3630.00
299.853,3595.50
300.874,3557.25
301.895,3528.50
302.913,3482.75
303.934,3478.50
304.954,3401.00
305.975,3377.00
306.993,3355.25
308.013,3304.25
309.033,3319.25
310.052,3236.25
311.072,3302.50
312.090,3240.00
313.109,3224.75
314.129,3166.00
315.148,3229.50
316.165,3155.75
317.184,3111.50
318.203,3143.75
319.222,3164.00
320.238,3067.50
321.257,3094.00
322.275,3083.50
323.294,3081.00
324.312,3015.50
325.328,3010.00
326.346,3082.75
327.364,3010.50
328.382,2994.75
329.397,3030.75
330.415,2989.50
331.432,3016.25
332.450,3012.00
333.467,3013.25
334.482,2980.00
335.499,2989.75
336.516,2966.75
337.533,2965.50
338.547,2948.00
339.564,2916.75
340.580,2894.00
341.597,2970.75
342.613,2944.75
343.627,2926.25
344.643,2880.75
345.659,2929.25
346.675,2879.75
347.690,2991.75
348.704,2884.25
349.719,2903.25
350.735,2950.75
351.750,2933.00
352.765,2896.25
353.778,2880.50
354.793,2875.25
355.808,2951.25
356.822,2855.25
357.837,2936.75
358.851,2895.00
359.864,2923.25
360.878,2906.00
361.892,2883.75
362.906,2962.25
363.920,2925.50
364.932,2906.00
365.945,2926.25
366.959,2947.75
367.972,2961.25
368.986,3001.50
369.999,2985.50
371.010,2940.00
372.023,2946.25
373.036,2960.75
374.049,3014.25
375.061,3005.00
376.072,2986.50
377.084,2991.25
378.097,3026.25
379.109,3033.00
380.121,3037.50
381.133,2962.50
382.143,3017.75
383.155,3070.75
384.166,3084.50
385.178,2983.50
386.189,3021.75
387.201,3057.75
388.212,3048.25
389.221,3070.75
390.232,3043.75
391.243,3017.00
392.254,3011.00
393.264,3005.00
394.275,3028.50
395.283,3018.50
396.294,2954.50
397.304,3003.25
398.314,2941.75
399.324,2968.75
400.334,2938.25
401.344,2870.75
402.351,2896.50
403.361,2902.00
404.370,2924.75
405.380,2881.00
406.389,2859.50
407.398,2858.50
408.407,2842.25
409.414,2837.00
410.423,2839.50
411.431,2832.00
412.440,2795.75
413.448,2834.25
414.457,2803.25
415.465,2772.00
416.471,2741.75
417.479,2768.25
418.487,2691.00
419.495,2752.75
420.503,2765.25
421.510,2725.00
422.518,2684.50
423.525,2744.50
424.530,2738.25
425.537,2744.75
426.544,2711.25
427.551,2741.75
428.558,2667.75
429.565,2708.50
430.571,2727.25
431.578,2663.75
432.582,2687.00
433.588,2713.00
434.595,2678.75
435.601,2763.00
436.607,2664.00
437.612,2661.50
438.618,2671.25
439.624,2700.25
440.627,2652.50
441.633,2684.50
442.638,2671.50
443.643,2634.00
444.648,2681.25
445.653,2751.25
446.658,2718.00
447.663,2699.75
448.667,2686.25
449.672,2752.75
450.674,2694.00
451.678,2700.50
452.682,2695.50
453.687,2705.25
454.690,2737.00
455.694,2694.25
456.698,2671.50
457.702,2705.50
458.705,2733.25
459.709,2722.75
460.710,2721.00
461.713,2711.75
462.716,2720.25
463.719,2759.25
464.722,2745.00
465.725,2706.75
466.727,2753.25
467.730,2778.00
468.732,2746.75
469.735,2674.50
470.737,2732.25
471.737,2735.25
472.739,2755.75
473.741,2748.00
474.742,2749.50
475.744,2782.25
476.746,2754.50
477.747,2770.00
478.748,2772.50
479.750,2746.50
480.751,2736.75
481.752,2743.00
482.753,2730.50
483.751,2759.00
484.752,2797.25
485.753,2769.50
486.753,2798.25
487.753,2819.50
488.754,2766.25
489.754,2774.75
490.754,2720.75
491.754,2752.00
492.754,2768.75
493.753,2740.00
494.753,2743.00
495.752,2749.50
496.752,2759.25
497.749,2791.25
498.748,2737.50
499.747,2764.25
500.746,2702.50
501.745,2711.00
502.744,2769.25
503.742,2765.50
504.741,2683.50
505.739,2727.50
506.737,2681.50
507.735,2699.00
508.734,2646.50
509.732,2683.25
510.729,2673.50
511.727,2652.75
512.725,2652.75
513.720,2643.25
514.718,2652.00
515.715,2623.50
516.712,2627.75
517.709,2627.75
518.706,2643.00
519.703,2646.25
520.700,2660.25
521.696,2602.75
522.693,2671.00
523.689,2659.25
524.686,2668.00
525.682,2663.00
526.678,2627.25
527.674,2610.25
528.670,2664.00
529.666,2647.25
530.661,2609.25
531.657,2654.00
532.652,2669.75
533.648,2722.75
534.641,2679.75
535.636,2663.25
536.631,2687.50
537.626,2723.00
538.621,2705.00
539.616,2676.00
540.610,2701.50
541.605,2690.25
542.599,2699.75
543.593,2723.50
544.587,2641.50
545.581,2702.50
546.575,2682.25
547.569,2669.00
548.563,2701.25
549.557,2695.25
550.550,2712.50
551.543,2678.00
552.537,2720.00
553.530,2649.00
554.523,2686.25
555.516,2676.25
556.509,2653.00
557.502,2674.00
558.494,2697.50
559.487,2688.25
560.479,2699.75
561.472,2670.00
562.464,2698.25
563.456,2634.75
564.448,2637.00
565.440,2674.25
566.432,2639.50
567.423,2712.25
568.415,2714.25
569.404,2695.50
570.396,2679.75
571.387,2707.50
572.378,2738.50
573.369,2691.00
574.360,2681.25
575.351,2735.00
576.341,2748.50
577.332,2731.25
578.323,2760.50
579.313,2793.25
580.303,2771.50
581.293,2701.50
582.283,2723.75
583.273,2760.50
584.263,2748.25
585.253,2758.50
586.243,2804.50
587.232,2777.00
588.222,2745.75
589.211,2745.50
590.200,2773.25
591.189,2815.75
592.178,2772.75
593.167,2760.00
594.156,2745.75
595.145,2782.00
596.133,2858.00
597.122,2774.75
598.110,2770.50
599.098,2762.25
600.086,2730.25
601.074,2768.50
602.062,2778.00
603.050,2790.75
604.038,2790.75
605.025,2723.00
606.013,2740.75
607.000,2760.50
607.987,2759.50
608.975,2735.50
609.962,2712.00
610.949,2715.00
611.936,2682.50
612.922,2706.75
613.909,2662.50
614.895,2608.75
615.882,2704.50
616.868,2680.25
617.854,2632.25
618.841,2616.25
619.826,2606.25
620.812,2535.25
621.798,2552.00
622.784,2533.75
623.769,2513.50
624.755,2501.75
625.740,2514.75
626.725,2508.50
627.711,2481.00
628.698,2448.50
629.683,2423.00
630.667,2427.25
631.652,2387.50
632.637,2372.50
633.621,2402.75
634.606,2367.50
635.590,2373.00
636.574,2338.25
637.558,2321.25
638.542,2316.00
639.526,2258.50
640.510,2299.25
641.493,2246.25
642.477,2268.25
643.460,2285.50
644.444,2230.50
645.427,2192.00
646.410,2176.00
647.393,2216.25
648.376,2208.50
649.359,2193.25
650.341,2176.00
651.324,2165.50
652.307,2125.25
653.289,2160.50
654.271,2120.00
655.253,2133.50
656.235,2145.50
657.217,2087.00
658.199,2156.75
659.181,2119.50
660.163,2076.50
661.144,2124.50
662.126,2062.25
663.107,2055.50
664.088,2057.50
665.069,2061.50
666.050,2035.75
667.033,2065.25
668.014,2041.00
668.995,2045.75
669.975,2010.75
670.956,2040.00
671.936,1997.00
672.916,1971.25
673.896,2011.75
674.876,1990.00
675.856,1968.75
676.836,1924.00
677.816,1961.50
678.795,1933.25
679.775,1926.50
680.754,1922.00
681.734,1879.25
682.713,1856.25
683.692,1868.00
684.671,1912.75
685.650,1856.25
686.629,1793.75
687.607,1822.25
688.586,1838.75
689.564,1823.25
690.543,1767.50
691.523,1803.00
692.501,1759.25
693.479,1779.25
694.457,1734.75
695.435,1707.25
696.413,1783.75
697.390,1753.00
698.368,1696.00
699.345,1759.75
700.322,1719.75
701.300,1721.00
702.277,1716.25
703.254,1752.00
704.231,1709.00
705.207,1726.25
706.184,1650.75
707.161,1717.75
708.137,1655.75
709.113,1670.50
710.090,1621.00
711.068,1666.50
712.044,1623.25
713.020,1642.25
713.996,1620.25
714.971,1660.75
715.947,1641.25
716.922,1609.50
717.898,1568.00
718.873,1621.50
719.848,1620.25
720.823,1601.25
721.798,1640.50
722.773,1599.75
723.748,1589.00
724.723,1568.25
725.697,1562.75
726.672,1585.75
727.646,1592.75
728.622,1550.25
729.596,1594.00
730.570,1548.00
731.544,1527.00
732.518,1516.75
733.492,1543.50
734.466,1553.50
735.439,1519.75
736.413,1529.25
737.386,1499.25
738.359,1527.00
739.332,1536.00
740.305,1535.00
741.278,1518.50
742.251,1487.00
743.224,1495.50
744.196,1475.75
745.171,1503.25
746.143,1475.00
747.115,1456.50
748.087,1443.75
749.059,1464.75
750.031,1505.75
751.003,1470.50
751.975,1481.00
752.947,1410.00
753.918,1436.00
754.890,1444.00
755.861,1428.50
756.832,1415.75
757.803,1437.50
758.774,1438.00
759.747,1431.50
760.718,1405.25
761.689,1414.75
762.659,1414.50
763.630,1418.75
764.600,1414.75
765.570,1374.00
766.540,1415.25
767.510,1357.25
768.480,1398.25
769.450,1416.00
770.420,1409.75
771.390,1428.25
772.359,1393.75
773.329,1375.00
774.300,1363.50
775.269,1307.25
776.238,1393.00
777.207,1350.00
778.176,1344.75
779.145,1373.50
780.114,1355.00
781.083,1298.50
782.051,1360.50
783.019,1305.00
783.988,1320.50
784.956,1338.25
785.924,1353.25
786.894,1348.50
787.862,1272.50
788.830,1323.00
789.797,1349.00
790.765,1293.75
791.732,1330.75
792.700,1306.75
793.667,1318.25
794.634,1251.00
795.601,1282.00
796.568,1309.00
797.535,1301.00
798.502,1303.00
799.468,1298.25
800.437,1301.00
801.403,1284.50
802.370,1255.00
803.336,1238.50
804.302,1289.00
805.268,1264.50
806.234,1271.50
807.200,1198.50
808.166,1245.50
809.131,1235.75
810.097,1225.75
811.062,1246.50
812.027,1254.75
812.994,1255.25
813.960,1264.50
814.925,1243.00
815.889,1246.50
816.854,1233.25
817.819,1226.75
818.783,1240.50
819.748,1213.75
820.712,1238.25
821.677,1241.50
822.641,1229.25
823.605,1193.50
824.571,1212.50
825.534,1220.75
826.498,1240.50
827.462,1214.00
828.425,1201.75
829.389,1234.00
830.352,1191.00
831.315,1217.25
832.279,1208.50
833.242,1184.75
834.204,1208.50
835.167,1250.50
836.132,1225.50
837.095,1254.75
838.057,1226.00
839.020,1211.50
839.982,1262.75
840.944,1218.75
841.906,1213.25
842.868,1232.75
843.830,1173.00
844.792,1211.50
845.753,1196.25
846.715,1196.25
847.679,1215.00
848.640,1209.75
849.601,1188.50
850.562,1177.50
851.523,1191.25
852.484,1200.75
853.445,1218.50
854.406,1202.75
855.367,1197.00
856.327,1214.00
857.288,1175.00
858.248,1241.50
859.210,1190.00
860.170,1228.50
861.130,1223.75
862.090,1234.50
863.050,1194.00
864.010,1221.50
864.969,1195.75
865.929,1217.25
866.888,1225.25
867.848,1244.75
868.807,1209.25
869.766,1212.00
870.727,1203.00
871.686,1184.25
872.645,1165.75
873.604,1217.00
874.562,1176.75
875.521,1260.00
876.479,1179.75
877.437,1162.25
878.396,1222.25
879.354,1208.25
880.312,1204.75
881.270,1228.25
882.229,1221.75
883.187,1259.75
884.145,1257.25
885.102,1233.00
886.059,1229.25
887.017,1191.25
887.974,1219.50
888.931,1201.00
889.888,1229.50
890.845,1195.25
891.802,1222.25
892.758,1181.25
893.717,1211.25
894.673,1271.25
895.630,1205.00
896.586,1191.00
897.542,1242.75
898.498,1195.75
899.454,1250.00
900.410,1193.50
901.366,1224.50
902.321,1218.75
903.277,1215.25
904.232,1221.25
905.189,1229.50
906.145,1252.00
907.100,1235.00
908.055,1230.25
909.010,1213.00
909.965,1227.25
910.919,1206.50
911.874,1216.50
912.828,1244.25
913.783,1249.50
914.737,1229.25
915.693,1227.50
916.648,1287.75
917.602,1266.50
918.555,1226.75
919.509,1235.75
920.463,1242.50
921.417,1250.00
922.370,1228.00
923.324,1238.50
924.277,1244.00
925.230,1211.50
926.183,1279.25
927.138,1247.75
928.091,1242.75
929.044,1224.75
929.996,1263.25
930.949,1255.75
931.902,1208.00
932.854,1281.75
933.806,1207.00
934.758,1276.00
935.711,1263.25
936.663,1220.25
937.614,1236.50
938.568,1242.50
939.520,1219.75
940.471,1240.75
941.423,1266.00
942.374,1246.50
943.326,1254.50
944.277,1203.00
945.228,1218.00
946.179,1239.50
947.130,1201.50
948.080,1224.00
949.031,1210.00
949.984,1240.75
950.934,1233.25
951.884,1244.25
952.835,1222.00
953.785,1187.00
954.735,1234.00
955.685,1224.00
956.635,1219.75
957.585,1205.00
958.534,1210.50
959.484,1177.50
960.433,1177.25
961.383,1212.00
962.334,1182.50
963.283,1187.50
964.232,1184.25
965.181,1195.00
966.130,1175.00
967.079,1134.75
968.027,1217.50
968.976,1133.00
969.924,1213.25
970.873,1173.50
971.821,1189.00
972.769,1147.75
973.719,1200.25
974.667,1195.25
975.615,1183.50
976.562,1194.25
977.510,1182.25
978.458,1181.00
979.405,1148.75
980.352,1170.00
981.300,1205.00
982.247,1203.25
983.194,1200.50
984.141,1207.75
985.088,1170.75
986.036,1179.50
986.983,1216.25
987.930,1187.50
988.876,1184.00
989.822,1149.75
990.769,1187.75
991.715,1165.00
992.661,1188.75
993.607,1174.50
994.553,1155.50
995.498,1178.25
996.444,1153.25
997.389,1165.75
998.337,1170.50
999.282,1150.75
1000.227,1139.50
1001.173,1166.25
1002.118,1170.75
1003.062,1153.25
1004.007,1192.75
1004.952,1158.75
1005.897,1116.00
1006.841,1175.25
1007.786,1167.00
1008.730,1212.75
1009.674,1132.25
1010.618,1169.75
1011.564,1191.25
1012.508,1171.25
1013.452,1148.00
1014.396,1174.00
1015.339,1177.25
1016.283,1174.75
1017.226,1162.00
1018.170,1190.75
1019.113,1197.00
1020.056,1178.75
1020.999,1158.50
1021.942,1141.50
1022.885,1152.00
1023.828,1176.00
1024.770,1213.75
1025.715,1204.75
1026.657,1171.75
1027.600,1187.50
1028.542,1133.00
1029.484,1199.75
1030.426,1195.75
1031.368,1214.00
1032.310,1147.00
1033.251,1181.50
1034.193,1205.25
1035.135,1201.25
1036.076,1214.25
1037.017,1205.25
1037.959,1254.75
1038.900,1244.50
1039.843,1239.00
1040.784,1189.25
1041.725,1212.75
1042.665,1207.00
1043.606,1182.00
1044.547,1149.75
1045.487,1228.00
1046.427,1188.00
1047.368,1226.25
1048.308,1197.25
1049.248,1240.25
1050.188,1196.50
1051.128,1188.75
1052.067,1235.25
1053.007,1183.75
1053.947,1237.50
1054.886,1233.75
1055.827,1221.75
1056.766,1233.00
1057.706,1239.50
1058.645,1224.50
1059.584,1257.25
1060.522,1233.75
1061.461,1232.25
1062.400,1230.25
1063.338,1269.25
1064.277,1235.00
1065.215,1220.00
1066.154,1264.25
1067.092,1234.00
1068.030,1280.25
1068.968,1266.75
1069.906,1295.50
1070.843,1274.00
1071.781,1283.50
1072.720,1251.75
1073.658,1227.50
1074.595,1249.75
1075.533,1220.50
1076.470,1246.25
1077.407,1323.75
1078.344,1318.75
1079.281,1309.50
1080.217,1320.75
1081.154,1261.25
1082.091,1261.00
1083.027,1293.00
1083.964,1266.50
1084.900,1280.25
1085.836,1289.75
1086.772,1278.25
1087.708,1255.75
1088.644,1293.25
1089.580,1310.00
1090.515,1298.75
1091.451,1263.50
1092.388,1245.25
1093.324,1266.25
1094.259,1270.50
1095.194,1296.25
1096.129,1292.50
1097.064,1283.00
1097.999,1212.00
1098.934,1231.00
1099.869,1257.25
1100.803,1251.25
1101.738,1193.75
1102.672,1281.75
1103.607,1217.50
1104.541,1221.50
1105.475,1238.25
1106.409,1248.00
1107.343,1197.00
1108.277,1147.50
1109.210,1174.25
1110.144,1152.75
1111.078,1183.25
1112.011,1183.50
1112.944,1165.25
1113.878,1210.00
1114.811,1207.00
1115.744,1177.00
1116.678,1157.25
1117.611,1175.00
1118.544,1159.75
1119.477,1155.25
1120.409,1122.50
1121.342,1135.75
1122.274,1131.25
1123.206,1152.75
1124.138,1138.00
1125.070,1119.50
1126.002,1139.00
1126.934,1101.00
1127.866,1125.00
1128.798,1100.75
1129.729,1045.00
1130.661,1098.50
1131.592,1089.75
1132.523,1075.75
1133.454,1092.75
1134.385,1075.50
1135.317,1065.75
1136.247,1054.00
1137.178,1089.00
1138.109,1063.75
1139.039,1029.50
1139.970,1030.75
1140.900,1070.75
1141.831,1091.25
1142.761,1033.50
1143.691,1102.75
1144.621,1034.00
1145.551,1039.75
1146.480,1033.00
1147.410,1026.50
1148.340,1051.25
1149.269,1081.50
1150.199,1013.50
1151.128,1067.25
1152.057,1014.75
1152.979,1011.50
1153.898,1042.25
1154.819,1031.50
1155.739,1011.75
1156.658,1018.50
1157.579,1028.50
1158.498,1036.00
1159.419,980.50
1160.338,995.50
1161.256,1050.75
1162.177,985.50
1163.095,994.75
1164.016,995.50
1164.934,976.75
1165.852,953.25
1166.772,983.25
1167.690,1019.25
1168.610,942.00
1169.528,968.75
1170.446,980.25
1171.365,999.75
1172.283,985.25
1173.202,1012.75
1174.120,1011.00
1175.037,994.00
1175.956,987.75
1176.873,1000.25
1177.792,989.00
1178.709,999.50
1179.626,967.75
1180.544,985.00
1181.461,938.00
1182.379,957.25
1183.296,967.50
1184.212,982.75
1185.130,976.75
1186.046,997.25
1186.962,976.25
1187.880,952.00
1188.796,930.00
1189.714,957.50
1190.629,996.25
1191.545,997.00
1192.462,954.75
1193.378,935.50
1194.295,965.75
1195.210,971.00
1196.125,953.75
1197.042,947.75
1197.957,937.50
1198.872,951.00
1199.788,988.00
1200.703,956.00
1201.619,974.00
1202.534,964.25
1203.448,927.50
1204.364,936.50
1205.278,948.50
1206.192,971.50
1207.108,968.75
1208.022,944.25
1208.938,934.25
1209.851,1012.00
1210.765,967.25
1211.680,981.75
1212.594,976.50
1213.507,958.00
1214.422,963.75
1215.335,939.25
1216.248,983.00
1217.163,925.00
1218.076,1009.75
1218.990,981.25
1219.903,920.75
1220.816,990.25
1221.730,959.75
1222.642,957.25
1223.554,942.25
1224.469,980.25
1225.380,971.50
1226.292,961.75
1227.206,966.25
1228.118,954.00
1229.032,959.25
1229.943,965.00
1230.855,945.75
1231.768,965.00
1232.679,953.00
1233.590,1000.00
1234.503,979.75
1235.414,975.50
1236.325,951.50
1237.238,988.00
1238.149,959.75
1239.059,986.50
1239.972,958.00
1240.882,958.50
1241.793,953.25
1242.705,1019.75
1243.615,968.75
1244.525,969.50
1245.437,1015.00
1246.347,988.00
1247.259,964.25
1248.168,993.50
1249.078,949.75
1249.989,989.50
1250.899,973.50
1251.808,1002.00
1252.719,982.50
1253.628,1004.75
1254.537,955.50
1255.448,1010.50
1256.357,942.25
1257.266,986.25
1258.176,1003.00
1259.085,1006.75
1259.993,1008.25
1260.904,987.25
1261.812,978.75
1262.720,995.25
1263.630,972.75
1264.538,984.00
1265.446,985.50
1266.356,997.50
1267.263,1001.00
1268.171,1034.50
1269.080,1027.50
1269.988,1003.25
1270.895,982.00
1271.804,1008.75
1272.711,1003.75
1273.619,1010.50
1274.527,975.75
1275.434,1032.75
1276.341,1019.25
1277.248,955.25
1278.156,966.75
1279.063,974.50
1279.969,1030.50
1280.877,977.25
1281.783,998.75
1282.690,998.25
1283.598,1020.50
1284.503,961.00
1285.409,973.50
1286.317,972.25
1287.223,985.00
1288.128,969.00
1289.036,970.25
1289.941,947.50
1290.846,1011.50
1291.751,962.25
1292.658,931.75
1293.563,951.50
1294.468,1002.50
1295.375,954.50
1296.280,968.00
1297.184,987.75
1298.091,926.25
1298.995,949.75
1299.900,956.50
1300.806,977.50
1301.710,916.75
1302.614,925.00
1303.518,949.25
1304.424,956.50
1305.327,949.75
1306.231,928.75
1307.137,919.50
1308.040,944.75
1308.943,896.00
1309.847,914.00
1310.752,927.25
1311.655,893.75
1312.558,915.50
1313.463,897.75
1314.366,913.50
1315.269,910.75
1316.171,936.75
1317.076,927.00
1317.978,864.75
1318.881,905.25
1319.785,914.75
1320.687,836.00
1321.589,849.00
1322.491,855.25
1323.395,855.50
1324.297,905.25
1325.198,905.75
1326.102,908.25
1327.004,847.25
1327.905,864.00
1328.806,873.00
1329.709,858.25
1330.611,847.75
1331.512,891.00
1332.413,840.75
1333.316,826.00
1334.216,893.75
1335.117,874.75
1336.020,851.25
1336.920,837.75
1337.821,824.00
1338.721,878.50
1339.623,831.75
1340.523,860.75
1341.423,814.75
1342.323,864.50
1343.225,831.25
1344.125,821.25
1345.025,790.75
1345.924,854.25
1346.826,840.00
1347.725,795.00
1348.624,820.00
1349.524,789.25
1350.425,801.00
1351.324,813.00
1352.223,812.50
1353.121,768.75
1354.022,791.00
1354.921,780.25
1355.819,762.25
1356.718,816.25
1357.618,768.00
1358.516,762.50
1359.415,745.00
1360.313,776.00
1361.213,810.00
1362.111,775.25
1363.008,794.25
1363.906,785.75
1364.806,740.75
1365.703,773.50
1366.601,761.00
1367.498,740.00
1368.397,746.25
1369.295,783.00
1370.192,745.50
1371.089,769.25
1371.987,726.25
1372.884,792.00
1373.781,743.75
1374.678,787.75
1375.574,744.75
1376.473,719.25
1377.369,735.00
1378.265,742.00
1379.161,768.00
1380.059,749.00
1380.955,759.00
1381.851,752.50
1382.747,733.00
1383.643,720.50
1384.540,731.25
1385.436,731.75
1386.331,735.75
1387.227,717.00
1388.124,674.75
1389.019,732.75
1389.914,714.00
1390.809,725.00
1391.704,724.75
1392.601,690.00
1393.495,713.75
1394.390,734.50
1395.285,714.50
1396.179,658.00
1397.075,646.75
1397.969,734.25
1398.864,739.25
1399.758,706.25
1400.652,712.25
1401.547,697.25
1402.441,722.75
1403.335,678.25
1404.229,683.75
1405.122,670.25
1406.017,670.25
1406.911,698.00
1407.804,704.00
1408.697,679.00
1409.590,674.00
1410.485,681.25
1411.378,730.75
1412.271,728.50
1413.163,658.75
1414.056,696.50
1414.949,694.00
1415.843,678.00
1416.735,657.50
1417.627,671.00
1418.520,707.00
1419.412,655.25
1420.306,650.25
1421.197,683.25
1422.089,662.50
1422.981,654.50
1423.873,699.00
1424.764,669.25
1425.657,661.25
1426.549,677.25
1427.440,697.50
1428.331,647.50
1429.222,689.75
1430.113,661.00
1431.006,670.00
1431.897,658.75
1432.787,644.75
1433.678,638.25
1434.568,678.75
1435.459,644.50
1436.351,660.25
1437.241,687.75
1438.131,683.00
1439.021,667.75
1439.911,632.25
1440.801,667.00
1441.693,644.50
1442.583,618.50
1443.472,662.75
1444.362,637.00
1445.251,669.50
1446.140,633.25
1447.030,666.25
1447.921,618.25
1448.810,654.00
1449.699,609.25
1450.588,633.25
1451.476,638.75
1452.365,630.75
1453.254,617.75
1454.144,658.00
1455.032,587.00
1455.921,658.50
1456.809,642.25
1457.697,620.00
1458.585,615.75
1459.473,591.50
1460.361,574.50
1461.251,645.00
1462.138,636.25
1463.026,657.00
1463.913,623.50
1464.801,625.75
1465.688,624.25
1466.575,646.50
1467.463,636.75
1468.351,620.00
1469.238,600.25
1470.125,639.50
1471.012,616.00
1471.899,604.00
1472.785,606.75
1473.672,643.75
1474.558,617.25
1475.446,580.50
1476.333,600.75
1477.219,626.75
1478.105,593.00
1478.991,571.00
1479.877,597.75
1480.762,586.25
1481.648,549.00
1482.534,580.25
1483.419,589.75
1484.307,576.75
1485.192,591.75
1486.077,592.75
1486.962,622.00
1487.847,544.50
1488.732,600.75
1489.617,614.25
1490.502,549.50
1491.387,633.00
1492.271,602.75
1493.156,597.50
1494.042,557.00
1494.927,606.50
1495.811,573.25
1496.695,573.25
1497.579,597.50
1498.463,563.50
1499.347,595.50
1500.231,664.00
1501.114,550.00
1501.998,592.25
1502.881,596.25
1503.765,595.50
1504.648,627.50
1505.533,571.00
1506.417,591.75
1507.300,559.25
1508.183,594.25
1509.066,538.25
1509.948,535.75
1510.831,563.50
1511.714,513.50
1512.596,563.25
1513.479,579.50
1514.361,594.75
1515.243,547.75
1516.125,532.50
1517.008,544.75
1517.890,577.50
1518.771,536.25
1519.655,572.25
1520.537,549.50
1521.419,570.25
1522.300,598.25
1523.182,533.50
1524.063,545.00
1524.944,522.50
1525.825,539.00
1526.707,566.00
1527.588,560.50
1528.468,530.25
1529.349,521.75
1530.230,540.75
1531.111,564.50
1531.991,518.50
1532.872,561.25
1533.752,561.00
1534.632,534.25
1535.513,550.25
1536.393,594.75
1537.273,537.00
1538.153,558.75
1539.032,587.00
1539.912,580.00
1540.792,563.00
1541.672,533.75
1542.551,541.50
1543.430,533.25
1544.310,557.50
1545.189,524.00
1546.068,563.75
1546.947,575.50
1547.826,524.00
1548.705,523.75
1549.584,532.50
1550.462,532.75
1551.341,553.50
1552.219,526.25
1553.098,522.25
1553.976,519.50
1554.854,521.00
1555.733,526.75
1556.611,501.75
1557.489,564.25
1558.367,558.50
1559.244,544.75
1560.122,547.00
1561.000,548.00
1561.877,585.25
1562.755,499.00
1563.632,510.25
1564.509,553.75
1565.386,555.25
1566.264,509.75
1567.141,533.75
1568.017,555.00
1568.894,516.25
1569.771,522.75
1570.648,498.75
1571.524,493.75
1572.401,535.50
1573.277,537.75
1574.153,525.50
1575.029,488.25
1575.906,517.75
1576.781,534.50
1577.657,508.50
1578.533,513.50
1579.409,521.75
1580.285,525.00
1581.160,572.25
1582.036,500.75
1582.911,503.50
1583.786,532.00
1584.662,485.75
1585.537,466.75
1586.412,507.75
1587.287,493.00
1588.160,492.50
1589.035,527.00
1589.909,519.00
1590.784,520.75
1591.658,508.25
1592.533,481.25
1593.407,512.50
1594.281,533.25
1595.155,524.50
1596.029,513.00
1596.903,506.00
1597.777,507.25
1598.651,513.00
1599.525,494.50
1600.398,547.25
1601.272,529.75
1602.144,493.00
1603.017,485.50
1603.890,492.50
1604.763,488.50
1605.636,511.00
1606.509,487.75
1607.382,540.25
1608.255,539.25
1609.128,476.25
1610.000,478.25
1610.873,507.75
1611.746,503.75
1612.616,487.00
1613.488,483.00
1614.361,473.50
1615.233,533.00
1616.105,471.75
1616.977,496.00
1617.849,544.50
1618.720,493.75
1619.592,538.25
1620.464,493.00
1621.333,471.25
1622.205,503.50
1623.076,489.25
1623.947,506.75
1624.818,495.50
1625.689,466.75
1626.560,483.25
1627.431,502.00
1628.302,505.00
1629.171,493.50
1630.042,542.75
1630.912,429.25
1631.782,492.25
1632.653,517.50
1633.523,451.00
1634.393,494.25
1635.263,462.00
1636.131,458.50
1637.001,510.25
1637.871,475.25
1638.741,494.50
1639.611,485.25
1640.480,500.50
1641.350,468.25
1642.219,492.25
1643.087,470.25
1643.956,488.25
1644.825,552.50
1645.694,536.00
1646.563,479.75
1647.432,485.75
1648.299,513.75
1649.167,503.25
1650.036,503.25
1650.904,518.25
1651.773,459.50
1652.641,495.00
1653.509,468.00
1654.376,493.00
1655.244,494.00
1656.112,452.25
1656.980,479.50
1657.847,485.50
1658.715,506.50
1659.581,486.75
1660.448,447.00
1661.316,451.75
1662.183,493.75
1663.051,493.75
1663.918,460.50
1664.783,480.50
1665.650,454.00
1666.517,459.00
1667.384,486.00
1668.251,477.25
1669.115,484.25
1669.982,494.25
1670.849,468.50
1671.715,436.50
1672.581,510.00
1673.446,484.00
1674.312,445.50
1675.178,474.00
1676.044,494.00
1676.910,486.50
1677.774,477.25
1678.639,421.50
1679.505,467.00
1680.370,505.25
1681.236,492.25
1682.099,414.00
1682.965,518.50
1683.830,490.50
1684.695,447.25
1685.560,460.00
1686.423,459.50
1687.288,453.25
1688.153,466.50
1689.017,456.00
1689.880,472.50
1690.745,443.25
1691.609,452.75
1692.473,446.50
1693.338,456.25
1694.200,487.25
1695.064,450.00
1695.928,483.25
1696.792,459.25
1697.654,452.00
1698.517,503.75
1699.381,469.50
1700.245,445.00
1701.106,440.75
1701.969,465.25
1702.833,515.25
1703.696,439.25
1704.557,418.25
1705.420,487.25
1706.283,452.00
1707.146,469.75
1708.007,458.25
1708.870,471.75
1709.732,418.25
1710.595,498.75
1711.455,458.75
1712.318,423.00
1713.180,489.00
1714.040,448.75
1714.902,459.75
1715.764,502.75
1716.626,430.75
1717.486,411.50
1718.348,419.00
1719.209,490.75
1720.071,447.75
1720.930,478.00
1721.792,448.75
1722.653,444.50
1723.512,444.75
1724.374,445.50
1725.234,452.75
1726.095,481.00
1726.954,460.75
1727.815,447.25
1728.676,485.75
1729.535,436.00
1730.395,463.50
1731.256,472.50
1732.114,427.75
1732.974,475.25
1733.834,462.50
1734.693,461.25
1735.553,430.50
1736.413,442.75
1737.272,420.00
1738.130,447.75
1738.990,447.25
1739.849,448.00
1740.707,450.00
1741.566,440.50
1742.426,466.00
1743.283,453.25
1744.142,462.50
1745.001,458.25
1745.858,499.75
1746.717,388.25
1747.576,444.25
1748.433,446.50
1749.292,437.00
1750.150,447.50
1751.007,453.00
1751.865,467.00
1752.723,436.00
1753.579,431.25
1754.438,469.75
1755.296,446.50
1756.152,433.50
1757.010,404.25
1757.865,470.75
1758.723,406.00
1759.581,385.50
1760.436,419.00
1761.294,440.00
1762.151,413.00
1763.006,448.50
1763.864,430.50
1764.721,492.25
1765.576,441.50
1766.433,445.25
1767.288,443.50
1768.144,437.75
1769.001,428.00
1769.856,416.00
1770.712,383.75
1771.568,488.50
1772.423,452.00
1773.279,466.25
1774.133,481.50
1774.989,483.25
1775.845,404.50
1776.699,483.00
1777.555,433.75
1778.409,411.75
1779.265,434.75
1780.120,434.75
1780.974,412.75
1781.829,436.25
1782.682,444.75
1783.538,407.75
1784.393,446.25
1785.246,440.75
1786.101,469.50
1786.954,450.75
1787.808,429.50
1788.661,426.00
1789.516,430.00
1790.370,410.50
1791.223,448.00
1792.077,417.75
1792.930,460.00
1793.784,446.50
1794.636,446.50
1795.490,399.50
1796.344,421.25
1797.196,449.50
1798.049,416.50
1798.901,452.00
1799.755,440.75
1800.606,387.75
1801.460,446.25
1802.311,403.50
1803.165,457.50
1804.018,433.00
1804.869,423.75
1805.722,419.25
1806.573,481.75
1807.426,408.25
1808.276,426.00
1809.129,437.25
1809.980,393.25
1810.832,435.00
1811.683,433.25
1812.535,413.75
1813.385,454.25
1814.237,437.25
1815.089,421.75
1815.940,437.25
1816.791,431.25
1817.641,391.50
1818.493,454.75
1819.343,399.25
1820.194,405.50
1821.044,380.00
1821.895,408.50
1822.745,440.25
1823.596,416.00
1824.445,454.00
1825.296,460.75
1826.145,412.75
1826.996,456.25
1827.845,423.50
1828.695,403.50
1829.544,438.75
1830.395,406.25
1831.243,439.25
1832.094,420.25
1832.942,432.00
1833.792,349.00
1834.640,449.00
1835.490,413.25
1836.338,409.75
1837.186,394.75
1838.036,464.50
1838.884,427.25
1839.733,384.50
1840.581,391.25
1841.430,442.25
1842.278,380.50
1843.127,427.75
1843.974,360.00
1844.823,441.00
1845.671,425.75
1846.519,417.75
1847.366,463.25
1848.213,435.50
1849.062,429.75
1849.909,431.25
1850.757,401.25
1851.604,435.00
1852.452,396.50
1853.298,429.00
1854.146,461.00
1854.993,389.00
1855.839,420.50
1856.687,365.75
1857.532,405.25
1858.380,397.75
1859.226,402.75
1860.073,396.50
1860.919,413.75
1861.765,430.00
1862.612,442.25
1863.457,407.25
1864.304,409.25
1865.150,399.25
1865.995,428.25
1866.842,359.00
1867.686,413.00
1868.533,449.00
1869.378,428.00
1870.223,432.25
1871.069,420.25
1871.914,398.75
1872.760,383.75
1873.604,391.25
1874.448,417.75
1875.294,400.25
1876.139,415.75
1876.984,401.75
1877.828,437.00
1878.672,385.50
1879.518,383.50
1880.361,395.25
1881.205,380.00
1882.050,449.75
1882.894,409.75
1883.739,374.75
1884.582,431.00
1885.425,374.50
1886.270,437.00
1887.113,388.25
1887.956,387.50
1888.801,381.50
1889.644,415.75
1890.486,395.50
1891.331,385.25
1892.173,376.50
1893.017,433.25
1893.860,450.00
1894.702,409.25
1895.546,396.50
1896.388,397.25
1897.230,401.00
1898.074,419.25
1898.916,377.25
1899.757,389.50
1900.601,442.25
1901.443,370.50
1902.284,392.00
1903.125,367.50
1903.969,391.25
1904.810,406.25
1905.651,399.50
1906.494,433.25
1907.335,415.25
1908.176,420.75
1909.018,410.25
1909.859,412.75
1910.700,357.00
1911.542,399.75
1912.383,430.00
1913.223,398.00
1914.064,430.50
1914.906,475.00
1915.746,372.25
1916.586,386.00
1917.428,438.25
1918.268,367.75
1919.107,350.25
1919.947,414.00
1920.789,428.75
1921.628,395.50
1922.468,418.00
1923.309,401.75
1924.148,408.00
1924.988,363.25
1925.827,392.50
1926.667,410.50
1927.507,411.00
1928.345,381.75
1929.184,390.75
1930.025,386.25
1930.864,380.50
1931.702,432.25
1932.541,372.00
1933.381,400.00
1934.219,380.75
1935.057,387.50
1935.896,425.00
1936.735,386.50
1937.573,406.50
1938.411,417.25
1939.249,397.75
1940.089,407.75
1940.927,398.75
1941.764,421.50
1942.602,431.75
1943.439,388.25
1944.278,416.75
1945.115,405.25
1945.953,368.50
1946.790,386.75
1947.628,399.25
1948.465,405.50
1949.302,418.00
1950.139,441.00
1950.976,394.25
1951.814,423.00
1952.651,331.75
1953.487,416.75
1954.323,377.50
1955.160,391.00
1955.998,384.75
1956.834,436.00
1957.670,379.00
1958.506,393.75
1959.342,370.25
1960.177,438.25
1961.015,398.50
1961.850,379.50
1962.686,427.25
1963.521,366.75
1964.357,388.75
1965.192,385.50
1966.029,418.50
1966.864,421.25
1967.699,378.75
1968.534,376.75
1969.369,414.25
1970.204,382.75
1971.040,360.25
1971.875,401.00
1972.709,363.75
1973.544,377.00
1974.378,374.25
1975.212,402.25
1976.047,410.00
1976.882,410.00
1977.716,372.75
1978.550,367.00
1979.384,359.75
1980.218,403.50
1981.052,416.25
1981.885,376.25
1982.719,414.50
1983.554,418.50
1984.388,363.50
1985.221,385.75
1986.054,395.00
1986.887,430.50
1987.720,396.00
1988.553,433.75
1989.386,344.75
1990.219,397.75
1991.053,408.00
1991.886,397.50
1992.719,363.75
1993.551,353.75
1994.383,374.00
1995.216,386.50
1996.048,367.50
1996.880,338.00
1997.712,384.50
1998.544,356.75
1999.376,427.00
2000.208,376.75
2001.040,378.25
2001.873,370.75
2002.705,388.00
2003.536,373.25
2004.367,386.75
2005.199,382.00
2006.030,371.00
2006.861,359.25
2007.692,379.50
2008.523,427.00
2009.354,371.50
2010.185,421.25
2011.016,321.75
2011.846,383.50
2012.677,362.75
2013.507,343.50
2014.338,440.25
2015.168,374.25
2015.999,482.50
2016.829,417.25
2017.659,381.25
2018.489,402.00
2019.319,397.00
2020.149,370.75
2020.980,390.75
2021.810,358.75
2022.639,383.50
2023.469,401.25
2024.298,362.00
2025.128,396.75
2025.957,419.25
2026.786,379.50
2027.615,395.00
2028.444,357.75
2029.273,400.00
2030.102,412.50
2030.931,404.50
2031.758,391.75
2032.586,395.00
2033.415,389.75
2034.243,374.25
2035.072,389.75
2035.900,382.00
2036.728,401.25
2037.556,403.00
2038.385,389.25
2039.213,401.25
2040.040,426.50
2040.868,382.00
2041.696,412.50
2042.524,420.75
2043.351,408.00
2044.179,392.75
2045.006,376.75
2045.006,376.75

Max Intensity Wave.,219.929
Max Intensity Data,5188.75
Min Intensity Wave.,2011.016
Min Intensity Data,321.75
FWHM Wave.,383.395
FWHM Value,33.93
Pressure Wave.,684.671
Pressure Value [GPa],-24.91530
G/D Ratio,0.60121
G/D Gband Wave.,1561.703
G/D Gband Intensity,587.68
G/D Dband Wave.,1300.806
G/D Dband Intensity,977.50

<< BACKGROUND SPECTRUM >>
Wave[dcm-1],No156
146.591,2294.00
147.626,2105.00
148.664,2075.00
149.699,2585.00
150.737,2287.00
151.772,2400.00
152.809,2458.00
153.846,2338.00
154.881,2458.00
155.918,1951.00
156.953,2337.00
157.989,2636.00
159.026,2500.00
160.060,2709.00
161.096,2891.00
162.130,2527.00
163.167,2629.00
164.200,2477.00
165.236,2650.00
166.272,2687.00
167.305,2315.00
168.341,2579.00
169.374,2807.00
170.409,2852.00
171.445,2759.00
172.477,2550.00
173.512,2430.00
174.545,2743.00
175.580,2872.00
176.614,3054.00
177.647,2880.00
178.681,3053.00
179.713,3395.00
180.747,2873.00
181.781,2753.00
182.813,3061.00
183.847,3126.00
184.878,2794.00
185.912,2983.00
186.945,3222.00
187.976,3122.00
189.010,2717.00
190.043,2856.00
191.073,2983.00
192.106,2789.00
193.137,3220.00
194.170,2615.00
195.202,2961.00
196.232,2719.00
197.265,3027.00
198.297,3120.00
199.327,2806.00
200.359,2983.00
201.388,3403.00
202.420,2955.00
203.452,3184.00
204.481,2717.00
205.512,3351.00
206.544,3138.00
207.573,3095.00
208.604,3453.00
209.635,3555.00
210.663,2966.00
211.694,3053.00
212.725,2838.00
213.753,2795.00
214.783,3459.00
215.813,3289.00
216.841,3051.00
217.871,3197.00
218.899,2962.00
219.929,3119.00
220.959,2927.00
221.986,3194.00
223.016,2819.00
224.045,3168.00
225.072,3135.00
226.101,3255.00
227.130,3296.00
228.157,2875.00
229.185,2368.00
230.214,3218.00
231.241,2871.00
232.269,2481.00
233.297,2722.00
234.323,3209.00
235.351,2857.00
236.379,3131.00
237.407,2811.00
238.433,2992.00
239.460,3139.00
240.488,3163.00
241.513,3222.00
242.540,3123.00
243.568,3261.00
244.592,3275.00
245.619,3235.00
246.646,2961.00
247.671,2990.00
248.697,2843.00
249.724,3030.00
250.748,3026.00
251.774,3031.00
252.801,3341.00
253.827,3174.00
254.850,3076.00
255.876,2776.00
256.902,3162.00
257.925,3022.00
258.951,2733.00
259.976,2816.00
260.999,3124.00
262.024,2853.00
263.049,3672.00
264.074,3187.00
265.097,3077.00
266.122,3148.00
267.146,3082.00
268.168,3261.00
269.193,2898.00
270.217,3278.00
271.241,2757.00
272.263,2872.00
273.287,3207.00
274.311,2829.00
275.332,3337.00
276.356,2922.00
277.379,3125.00
278.402,3187.00
279.424,3007.00
280.447,2926.00
281.470,2760.00
282.492,3126.00
283.513,2959.00
284.536,3230.00
285.558,3177.00
286.581,3152.00
287.601,2904.00
288.623,2838.00
289.645,3124.00
290.665,3134.00
291.687,3209.00
292.709,3157.00
293.730,3432.00
294.750,2924.00
295.771,2772.00
296.792,3090.00
297.813,2919.00
298.832,3060.00
299.853,2764.00
300.874,2997.00
301.895,3013.00
302.913,3014.00
303.934,3293.00
304.954,3081.00
305.975,3223.00
306.993,2770.00
308.013,3136.00
309.033,3019.00
310.052,2987.00
311.072,2922.00
312.090,3116.00
313.109,3300.00
314.129,3483.00
315.148,3019.00
316.165,3117.00
317.184,3301.00
318.203,2793.00
319.222,2786.00
320.238,3210.00
321.257,2862.00
322.275,2723.00
323.294,3022.00
324.312,3193.00
325.328,3360.00
326.346,3304.00
327.364,3299.00
328.382,3217.00
329.397,3158.00
330.415,3301.00
331.432,3237.00
332.450,3291.00
333.467,3482.00
334.482,2601.00
335.499,3391.00
336.516,2943.00
337.533,2594.00
338.547,2888.00
339.564,2879.00
340.580,3174.00
341.597,2994.00
342.613,3505.00
343.627,3044.00
344.643,3083.00
345.659,3148.00
346.675,3045.00
347.690,2907.00
348.704,3137.00
349.719,2915.00
350.735,2776.00
351.750,3198.00
352.765,3035.00
353.778,3050.00
354.793,3191.00
355.808,2861.00
356.822,3240.00
357.837,2683.00
358.851,3316.00
359.864,3002.00
360.878,2779.00
361.892,3000.00
362.906,3211.00
363.920,2632.00
364.932,3140.00
365.945,3150.00
366.959,3041.00
367.972,2982.00
368.986,2717.00
369.999,3397.00
371.010,2905.00
372.023,3419.00
373.036,3017.00
374.049,3455.00
375.061,3135.00
376.072,3054.00
377.084,2930.00
378.097,2715.00
379.109,3235.00
380.121,3034.00
381.133,2757.00
382.143,3208.00
383.155,2738.00
384.166,2910.00
385.178,3185.00
386.189,3262.00
387.201,2749.00
388.212,2965.00
389.221,2945.00
390.232,3038.00
391.243,2956.00
392.254,3075.00
393.264,2871.00
394.275,3266.00
395.283,3217.00
396.294,3689.00
397.304,3498.00
398.314,3159.00
399.324,3089.00
400.334,2686.00
401.344,3206.00
402.351,2704.00
403.361,3254.00
404.370,2986.00
405.380,2961.00
406.389,3400.00
407.398,3173.00
408.407,3156.00
409.414,3197.00
410.423,3359.00
411.431,2817.00
412.440,2707.00
413.448,3349.00
414.457,2919.00
415.465,2854.00
416.471,2910.00
417.479,3051.00
418.487,2886.00
419.495,3319.00
420.503,3109.00
421.510,2668.00
422.518,3218.00
423.525,3221.00
424.530,3430.00
425.537,2919.00
426.544,3268.00
427.551,2861.00
428.558,3630.00
429.565,3473.00
430.571,2899.00
431.578,2977.00
432.582,2923.00
433.588,2968.00
434.595,2651.00
435.601,3319.00
436.607,3310.00
437.612,2799.00
438.618,3389.00
439.624,2978.00
440.627,3010.00
441.633,3188.00
442.638,3654.00
443.643,3175.00
444.648,3080.00
445.653,3188.00
446.658,2908.00
447.663,3049.00
448.667,2910.00
449.672,2937.00
450.674,3009.00
451.678,2741.00
452.682,2915.00
453.687,2864.00
454.690,3659.00
455.694,3319.00
456.698,2618.00
457.702,2715.00
458.705,2824.00
459.709,2838.00
460.710,2923.00
461.713,3077.00
462.716,3082.00
463.719,3029.00
464.722,3224.00
465.725,3039.00
466.727,2882.00
467.730,3049.00
468.732,2807.00
469.735,3361.00
470.737,2946.00
471.737,2928.00
472.739,2943.00
473.741,2867.00
474.742,3130.00
475.744,3125.00
476.746,3097.00
477.747,2982.00
478.748,3166.00
479.750,2993.00
480.751,3074.00
481.752,3799.00
482.753,3161.00
483.751,3581.00
484.752,2630.00
485.753,3033.00
486.753,2883.00
487.753,3023.00
488.754,3463.00
489.754,2732.00
490.754,3387.00
491.754,3174.00
492.754,2706.00
493.753,3075.00
494.753,2948.00
495.752,3383.00
496.752,3072.00
497.749,3000.00
498.748,2887.00
499.747,3413.00
500.746,3146.00
501.745,2813.00
502.744,2780.00
503.742,3347.00
504.741,3003.00
505.739,2513.00
506.737,2935.00
507.735,3209.00
508.734,3447.00
509.732,3174.00
510.729,3383.00
511.727,2951.00
512.725,2954.00
513.720,2831.00
514.718,3300.00
515.715,2722.00
516.712,2670.00
517.709,3045.00
518.706,2942.00
519.703,3061.00
520.700,3237.00
521.696,3445.00
522.693,2950.00
523.689,2885.00
524.686,3211.00
525.682,2803.00
526.678,3531.00
527.674,2996.00
528.670,2643.00
529.666,3559.00
530.661,3530.00
531.657,3195.00
532.652,3221.00
533.648,3018.00
534.641,3270.00
535.636,3121.00
536.631,3142.00
537.626,3179.00
538.621,2781.00
539.616,2633.00
540.610,2562.00
541.605,3036.00
542.599,3111.00
543.593,3027.00
544.587,4006.00
545.581,2873.00
546.575,3069.00
547.569,3075.00
548.563,2703.00
549.557,2689.00
550.550,2771.00
551.543,2763.00
552.537,3166.00
553.530,2815.00
554.523,2787.00
555.516,3171.00
556.509,2987.00
557.502,2669.00
558.494,3218.00
559.487,2978.00
560.479,3203.00
561.472,3283.00
562.464,3142.00
563.456,3349.00
564.448,3005.00
565.440,3071.00
566.432,3442.00
567.423,2897.00
568.415,2919.00
569.404,3151.00
570.396,2847.00
571.387,3125.00
572.378,3003.00
573.369,4015.00
574.360,3751.00
575.351,3015.00
576.341,2847.00
577.332,2902.00
578.323,2683.00
579.313,2907.00
580.303,3262.00
581.293,3195.00
582.283,3013.00
583.273,3147.00
584.263,3050.00
585.253,3149.00
586.243,3167.00
587.232,2675.00
588.222,3007.00
589.211,3209.00
590.200,3099.00
591.189,2950.00
592.178,2999.00
593.167,3451.00
594.156,3330.00
595.145,2903.00
596.133,3437.00
597.122,3134.00
598.110,3235.00
599.098,3101.00
600.086,3058.00
601.074,3231.00
602.062,2872.00
603.050,2766.00
604.038,3123.00
605.025,2861.00
606.013,3254.00
607.000,3433.00
607.987,3057.00
608.975,3103.00
609.962,2807.00
610.949,3189.00
611.936,3303.00
612.922,3179.00
613.909,2763.00
614.895,3431.00
615.882,2846.00
616.868,3023.00
617.854,2787.00
618.841,3055.00
619.826,3135.00
620.812,3049.00
621.798,2842.00
622.784,3211.00
623.769,3143.00
624.755,2751.00
625.740,3079.00
626.725,2716.00
627.711,2878.00
628.698,3107.00
629.683,2854.00
630.667,3191.00
631.652,2785.00
632.637,3016.00
633.621,3171.00
634.606,2957.00
635.590,3138.00
636.574,2955.00
637.558,3097.00
638.542,3074.00
639.526,2883.00
640.510,2636.00
641.493,3082.00
642.477,3023.00
643.460,2684.00
644.444,3254.00
645.427,3313.00
646.410,2713.00
647.393,3002.00
648.376,3085.00
649.359,2909.00
650.341,3114.00
651.324,3118.00
652.307,3108.00
653.289,2970.00
654.271,2923.00
655.253,2936.00
656.235,3140.00
657.217,3320.00
658.199,2656.00
659.181,2778.00
660.163,3053.00
661.144,2868.00
662.126,2944.00
663.107,2848.00
664.088,4780.00
665.069,3291.00
666.050,2857.00
667.033,2708.00
668.014,3064.00
668.995,2600.00
669.975,3042.00
670.956,3022.00
671.936,3197.00
672.916,3008.00
673.896,3116.00
674.876,2952.00
675.856,2869.00
676.836,2783.00
677.816,2333.00
678.795,2853.00
679.775,2712.00
680.754,3038.00
681.734,3194.00
682.713,3211.00
683.692,2803.00
684.671,2648.00
685.650,2776.00
686.629,2932.00
687.607,2787.00
688.586,2803.00
689.564,2860.00
690.543,3309.00
691.523,2384.00
692.501,2851.00
693.479,2954.00
694.457,2833.00
695.435,2922.00
696.413,2680.00
697.390,2510.00
698.368,2729.00
699.345,3091.00
700.322,2960.00
701.300,3113.00
702.277,3073.00
703.254,3258.00
704.231,2598.00
705.207,2964.00
706.184,2835.00
707.161,2666.00
708.137,2900.00
709.113,2812.00
710.090,2853.00
711.068,2599.00
712.044,2656.00
713.020,2905.00
713.996,2652.00
714.971,2794.00
715.947,2842.00
716.922,2856.00
717.898,2787.00
718.873,2924.00
719.848,2725.00
720.823,2712.00
721.798,2961.00
722.773,2783.00
723.748,2532.00
724.723,3026.00
725.697,2861.00
726.672,2782.00
727.646,2503.00
728.622,3020.00
729.596,2609.00
730.570,2783.00
731.544,3101.00
732.518,3302.00
733.492,2832.00
734.466,2895.00
735.439,3046.00
736.413,3159.00
737.386,2517.00
738.359,2437.00
739.332,2562.00
740.305,2848.00
741.278,3334.00
742.251,2970.00
743.224,2763.00
744.196,2576.00
745.171,3149.00
746.143,3097.00
747.115,2824.00
748.087,2774.00
749.059,3112.00
750.031,2882.00
751.003,3739.00
751.975,3264.00
752.947,2757.00
753.918,3133.00
754.890,2604.00
755.861,2787.00
756.832,3076.00
757.803,2867.00
758.774,2855.00
759.747,2625.00
760.718,3239.00
761.689,2757.00
762.659,2619.00
763.630,3174.00
764.600,2566.00
765.570,3098.00
766.540,3139.00
767.510,3010.00
768.480,3053.00
769.450,2721.00
770.420,2824.00
771.390,2646.00
772.359,2768.00
773.329,2671.00
774.300,2543.00
775.269,2800.00
776.238,3004.00
777.207,3209.00
778.176,2538.00
779.145,2807.00
780.114,2693.00
781.083,2621.00
782.051,2759.00
783.019,2725.00
783.988,3115.00
784.956,2867.00
785.924,2987.00
786.894,2879.00
787.862,2746.00
788.830,3138.00
789.797,2630.00
790.765,2650.00
791.732,2767.00
792.700,2676.00
793.667,2616.00
794.634,2824.00
795.601,2773.00
796.568,2787.00
797.535,2844.00
798.502,3473.00
799.468,2912.00
800.437,2411.00
801.403,2679.00
802.370,3325.00
803.336,3031.00
804.302,2869.00
805.268,2487.00
806.234,2583.00
807.200,2807.00
808.166,2799.00
809.131,2591.00
810.097,3031.00
811.062,3691.00
812.027,3030.00
812.994,2610.00
813.960,2614.00
814.925,2951.00
815.889,2522.00
816.854,3041.00
817.819,2692.00
818.783,2741.00
819.748,3131.00
820.712,2744.00
821.677,2630.00
822.641,2725.00
823.605,2767.00
824.571,3174.00
825.534,2781.00
826.498,2693.00
827.462,2838.00
828.425,2663.00
829.389,3045.00
830.352,2870.00
831.315,2935.00
832.279,2533.00
833.242,2810.00
834.204,2667.00
835.167,2657.00
836.132,3075.00
837.095,2514.00
838.057,2704.00
839.020,2835.00
839.982,2831.00
840.944,2666.00
841.906,2648.00
842.868,2961.00
843.830,2586.00
844.792,3087.00
845.753,2708.00
846.715,2476.00
847.679,2623.00
848.640,2661.00
849.601,2774.00
850.562,3309.00
851.523,2756.00
852.484,2506.00
853.445,2995.00
854.406,2737.00
855.367,2766.00
856.327,3061.00
857.288,2528.00
858.248,2662.00
859.210,2723.00
860.170,2520.00
861.130,3027.00
862.090,2424.00
863.050,2628.00
864.010,2703.00
864.969,2933.00
865.929,2607.00
866.888,2533.00
867.848,2804.00
868.807,2667.00
869.766,2882.00
870.727,2747.00
871.686,3035.00
872.645,3060.00
873.604,3306.00
874.562,2793.00
875.521,2791.00
876.479,3403.00
877.437,2665.00
878.396,2585.00
879.354,3186.00
880.312,2615.00
881.270,2682.00
882.229,3151.00
883.187,2607.00
884.145,2665.00
885.102,2931.00
886.059,2852.00
887.017,2918.00
887.974,2971.00
888.931,3110.00
889.888,2530.00
890.845,2457.00
891.802,2361.00
892.758,2690.00
893.717,2464.00
894.673,2545.00
895.630,2662.00
896.586,2935.00
897.542,2696.00
898.498,2544.00
899.454,2847.00
900.410,2732.00
901.366,2666.00
902.321,2717.00
903.277,2705.00
904.232,2766.00
905.189,2504.00
906.145,2657.00
907.100,2242.00
908.055,2738.00
909.010,2953.00
909.965,2353.00
910.919,2843.00
911.874,2605.00
912.828,2784.00
913.783,2798.00
914.737,2395.00
915.693,2790.00
916.648,2875.00
917.602,2960.00
918.555,2828.00
919.509,2850.00
920.463,2792.00
921.417,2783.00
922.370,2581.00
923.324,2692.00
924.277,2704.00
925.230,2800.00
926.183,2402.00
927.138,2694.00
928.091,2965.00
929.044,2853.00
929.996,2648.00
930.949,2656.00
931.902,2872.00
932.854,2810.00
933.806,2626.00
934.758,2944.00
935.711,2988.00
936.663,2797.00
937.614,2801.00
938.568,2748.00
939.520,2412.00
940.471,2717.00
941.423,2771.00
942.374,2907.00
943.326,2760.00
944.277,2632.00
945.228,2863.00
946.179,2698.00
947.130,3083.00
948.080,2684.00
949.031,2593.00
949.984,2678.00
950.934,2713.00
951.884,2471.00
952.835,2728.00
953.785,2782.00
954.735,2596.00
955.685,2347.00
956.635,2611.00
957.585,2653.00
958.534,2640.00
959.484,2760.00
960.433,2659.00
961.383,2442.00
962.334,2995.00
963.283,2808.00
964.232,2876.00
965.181,2743.00
966.130,2800.00
967.079,2691.00
968.027,2708.00
968.976,2788.00
969.924,2618.00
970.873,2844.00
971.821,2755.00
972.769,2980.00
973.719,2861.00
974.667,2501.00
975.615,2736.00
976.562,2734.00
977.510,2448.00
978.458,2627.00
979.405,2862.00
980.352,2788.00
981.300,2965.00
982.247,2809.00
983.194,2547.00
984.141,2637.00
985.088,2744.00
986.036,2787.00
986.983,2978.00
987.930,3123.00
988.876,2387.00
989.822,2985.00
990.769,2579.00
991.715,2624.00
992.661,2434.00
993.607,2822.00
994.553,3307.00
995.498,2590.00
996.444,2321.00
997.389,2805.00
998.337,2568.00
999.282,2906.00
1000.227,2696.00
1001.173,2715.00
1002.118,2442.00
1003.062,2937.00
1004.007,2672.00
1004.952,3000.00
1005.897,2987.00
1006.841,2712.00
1007.786,2482.00
1008.730,2408.00
1009.674,3200.00
1010.618,2647.00
1011.564,2508.00
1012.508,2420.00
1013.452,2965.00
1014.396,2748.00
1015.339,2627.00
1016.283,2712.00
1017.226,2777.00
1018.170,2695.00
1019.113,2893.00
1020.056,2739.00
1020.999,2729.00
1021.942,2638.00
1022.885,2890.00
1023.828,3014.00
1024.770,2494.00
1025.715,2751.00
1026.657,2704.00
1027.600,2765.00
1028.542,2980.00
1029.484,2780.00
1030.426,2838.00
1031.368,2765.00
1032.310,2623.00
1033.251,2553.00
1034.193,2705.00
1035.135,2516.00
1036.076,2622.00
1037.017,2527.00
1037.959,2811.00
1038.900,2742.00
1039.843,2780.00
1040.784,2773.00
1041.725,2818.00
1042.665,2630.00
1043.606,2797.00
1044.547,2804.00
1045.487,2359.00
1046.427,2708.00
1047.368,2777.00
1048.308,2270.00
1049.248,2528.00
1050.188,2746.00
1051.128,2644.00
1052.067,2671.00
1053.007,2457.00
1053.947,2397.00
1054.886,2565.00
1055.827,2521.00
1056.766,2971.00
1057.706,2463.00
1058.645,2682.00
1059.584,2742.00
1060.522,2999.00
1061.461,2498.00
1062.400,2495.00
1063.338,2648.00
1064.277,2528.00
1065.215,2566.00
1066.154,2409.00
1067.092,2626.00
1068.030,2625.00
1068.968,2881.00
1069.906,2993.00
1070.843,2959.00
1071.781,2764.00
1072.720,2858.00
1073.658,2882.00
1074.595,2635.00
1075.533,2602.00
1076.470,2636.00
1077.407,2961.00
1078.344,2752.00
1079.281,2802.00
1080.217,2289.00
1081.154,2716.00
1082.091,2751.00
1083.027,2456.00
1083.964,2936.00
1084.900,2594.00
1085.836,2624.00
1086.772,2887.00
1087.708,2501.00
1088.644,2833.00
1089.580,2673.00
1090.515,2740.00
1091.451,2619.00
1092.388,2751.00
1093.324,2466.00
1094.259,3267.00
1095.194,2736.00
1096.129,2579.00
1097.064,2582.00
1097.999,2864.00
1098.934,2554.00
1099.869,2545.00
1100.803,2722.00
1101.738,2761.00
1102.672,2388.00
1103.607,2844.00
1104.541,2578.00
1105.475,2532.00
1106.409,2411.00
1107.343,2629.00
1108.277,2497.00
1109.210,2736.00
1110.144,2733.00
1111.078,2695.00
1112.011,2498.00
1112.944,2779.00
1113.878,2716.00
1114.811,2166.00
1115.744,2591.00
1116.678,2333.00
1117.611,2594.00
1118.544,2604.00
1119.477,2773.00
1120.409,2591.00
1121.342,3135.00
1122.274,2776.00
1123.206,2997.00
1124.138,2674.00
1125.070,2994.00
1126.002,2834.00
1126.934,2305.00
1127.866,2579.00
1128.798,2373.00
1129.729,2421.00
1130.661,2661.00
1131.592,2591.00
1132.523,2758.00
1133.454,2771.00
1134.385,2311.00
1135.317,2651.00
1136.247,2623.00
1137.178,2888.00
1138.109,2382.00
1139.039,3015.00
1139.970,2854.00
1140.900,2575.00
1141.831,2336.00
1142.761,2252.00
1143.691,2735.00
1144.621,2660.00
1145.551,2715.00
1146.480,2717.00
1147.410,2873.00
1148.340,2314.00
1149.269,2368.00
1150.199,2619.00
1151.128,3046.00
1152.057,2458.00
1152.979,2601.00
1153.898,2624.00
1154.819,2726.00
1155.739,2632.00
1156.658,2568.00
1157.579,2686.00
1158.498,2628.00
1159.419,2220.00
1160.338,2689.00
1161.256,2673.00
1162.177,2504.00
1163.095,2656.00
1164.016,2729.00
1164.934,2927.00
1165.852,2867.00
1166.772,2629.00
1167.690,2692.00
1168.610,2755.00
1169.528,2683.00
1170.446,2218.00
1171.365,2578.00
1172.283,2536.00
1173.202,2614.00
1174.120,2647.00
1175.037,2505.00
1175.956,2464.00
1176.873,2488.00
1177.792,2532.00
1178.709,3111.00
1179.626,2555.00
1180.544,2865.00
1181.461,2544.00
1182.379,2752.00
1183.296,2651.00
1184.212,2290.00
1185.130,2491.00
1186.046,2952.00
1186.962,2636.00
1187.880,2939.00
1188.796,2708.00
1189.714,2466.00
1190.629,2776.00
1191.545,2692.00
1192.462,2578.00
1193.378,2641.00
1194.295,2353.00
1195.210,2661.00
1196.125,2780.00
1197.042,2721.00
1197.957,2647.00
1198.872,2527.00
1199.788,2530.00
1200.703,2972.00
1201.619,2667.00
1202.534,2502.00
1203.448,2746.00
1204.364,2624.00
1205.278,2325.00
1206.192,2694.00
1207.108,3153.00
1208.022,3021.00
1208.938,2509.00
1209.851,2750.00
1210.765,2869.00
1211.680,2546.00
1212.594,2435.00
1213.507,2606.00
1214.422,3033.00
1215.335,2778.00
1216.248,2556.00
1217.163,2691.00
1218.076,3188.00
1218.990,2755.00
1219.903,2453.00
1220.816,2464.00
1221.730,2615.00
1222.642,2520.00
1223.554,2563.00
1224.469,2715.00
1225.380,2589.00
1226.292,2302.00
1227.206,2776.00
1228.118,2979.00
1229.032,2291.00
1229.943,2514.00
1230.855,2601.00
1231.768,2397.00
1232.679,2747.00
1233.590,2607.00
1234.503,2856.00
1235.414,2511.00
1236.325,2538.00
1237.238,2694.00
1238.149,2766.00
1239.059,2461.00
1239.972,2838.00
1240.882,2481.00
1241.793,2785.00
1242.705,2968.00
1243.615,2610.00
1244.525,2741.00
1245.437,2195.00
1246.347,2698.00
1247.259,2837.00
1248.168,3049.00
1249.078,2907.00
1249.989,2922.00
1250.899,2461.00
1251.808,2515.00
1252.719,2567.00
1253.628,2499.00
1254.537,3037.00
1255.448,2467.00
1256.357,2519.00
1257.266,2634.00
1258.176,2379.00
1259.085,2362.00
1259.993,2443.00
1260.904,2494.00
1261.812,2472.00
1262.720,3162.00
1263.630,2828.00
1264.538,2478.00
1265.446,2765.00
1266.356,2613.00
1267.263,2900.00
1268.171,2413.00
1269.080,2708.00
1269.988,2802.00
1270.895,2567.00
1271.804,2580.00
1272.711,2819.00
1273.619,2769.00
1274.527,2464.00
1275.434,2739.00
1276.341,2409.00
1277.248,2710.00
1278.156,2939.00
1279.063,2521.00
1279.969,2715.00
1280.877,3555.00
1281.783,2816.00
1282.690,2719.00
1283.598,2582.00
1284.503,2519.00
1285.409,2470.00
1286.317,3029.00
1287.223,3022.00
1288.128,2696.00
1289.036,2547.00
1289.941,2569.00
1290.846,2634.00
1291.751,2488.00
1292.658,2620.00
1293.563,3078.00
1294.468,2627.00
1295.375,2800.00
1296.280,2876.00
1297.184,3344.00
1298.091,2748.00
1298.995,2794.00
1299.900,3029.00
1300.806,2516.00
1301.710,2408.00
1302.614,2241.00
1303.518,2884.00
1304.424,2579.00
1305.327,2817.00
1306.231,2637.00
1307.137,2791.00
1308.040,2688.00
1308.943,2675.00
1309.847,2866.00
1310.752,2831.00
1311.655,2319.00
1312.558,2424.00
1313.463,2594.00
1314.366,2532.00
1315.269,2699.00
1316.171,2591.00
1317.076,2508.00
1317.978,2464.00
1318.881,2248.00
1319.785,2487.00
1320.687,2535.00
1321.589,2281.00
1322.491,2501.00
1323.395,2740.00
1324.297,3178.00
1325.198,2739.00
1326.102,2423.00
1327.004,2478.00
1327.905,3049.00
1328.806,2609.00
1329.709,2702.00
1330.611,2578.00
1331.512,2449.00
1332.413,3119.00
1333.316,2726.00
1334.216,2797.00
1335.117,2376.00
1336.020,2663.00
1336.920,2662.00
1337.821,2524.00
1338.721,2867.00
1339.623,2689.00
1340.523,2587.00
1341.423,2532.00
1342.323,2901.00
1343.225,2699.00
1344.125,2478.00
1345.025,2543.00
1345.924,2272.00
1346.826,2971.00
1347.725,3063.00
1348.624,2848.00
1349.524,2526.00
1350.425,2601.00
1351.324,2718.00
1352.223,2807.00
1353.121,2636.00
1354.022,2856.00
1354.921,3075.00
1355.819,2793.00
1356.718,2670.00
1357.618,2424.00
1358.516,2781.00
1359.415,3051.00
1360.313,2747.00
1361.213,2565.00
1362.111,2949.00
1363.008,3283.00
1363.906,2606.00
1364.806,2683.00
1365.703,2723.00
1366.601,2487.00
1367.498,2483.00
1368.397,2836.00
1369.295,2683.00
1370.192,2495.00
1371.089,2711.00
1371.987,2638.00
1372.884,2857.00
1373.781,2462.00
1374.678,2618.00
1375.574,2482.00
1376.473,2797.00
1377.369,2878.00
1378.265,2500.00
1379.161,2584.00
1380.059,2345.00
1380.955,2750.00
1381.851,2384.00
1382.747,2521.00
1383.643,2576.00
1384.540,2422.00
1385.436,2529.00
1386.331,2689.00
1387.227,2806.00
1388.124,2789.00
1389.019,2445.00
1389.914,2634.00
1390.809,2290.00
1391.704,3057.00
1392.601,2578.00
1393.495,2914.00
1394.390,2792.00
1395.285,2888.00
1396.179,2775.00
1397.075,2653.00
1397.969,2685.00
1398.864,2309.00
1399.758,2596.00
1400.652,2674.00
1401.547,2462.00
1402.441,2422.00
1403.335,3007.00
1404.229,2809.00
1405.122,2764.00
1406.017,2648.00
1406.911,2772.00
1407.804,3046.00
1408.697,2638.00
1409.590,2493.00
1410.485,2808.00
1411.378,2684.00
1412.271,2316.00
1413.163,2721.00
1414.056,2806.00
1414.949,3009.00
1415.843,2680.00
1416.735,2621.00
1417.627,2658.00
1418.520,2604.00
1419.412,2879.00
1420.306,2824.00
1421.197,2910.00
1422.089,2888.00
1422.981,3129.00
1423.873,2795.00
1424.764,2781.00
1425.657,2693.00
1426.549,2773.00
1427.440,2846.00
1428.331,2550.00
1429.222,2322.00
1430.113,2715.00
1431.006,2831.00
1431.897,2572.00
1432.787,2676.00
1433.678,2600.00
1434.568,2451.00
1435.459,2882.00
1436.351,2817.00
1437.241,2765.00
1438.131,2801.00
1439.021,2399.00
1439.911,2632.00
1440.801,2706.00
1441.693,2891.00
1442.583,2727.00
1443.472,2639.00
1444.362,2784.00
1445.251,2585.00
1446.140,2599.00
1447.030,2826.00
1447.921,2871.00
1448.810,2469.00
1449.699,3031.00
1450.588,2698.00
1451.476,2576.00
1452.365,2755.00
1453.254,2578.00
1454.144,2527.00
1455.032,2840.00
1455.921,2385.00
1456.809,2927.00
1457.697,2489.00
1458.585,2611.00
1459.473,2629.00
1460.361,2531.00
1461.251,2731.00
1462.138,2730.00
1463.026,2610.00
1463.913,2903.00
1464.801,2574.00
1465.688,2758.00
1466.575,2672.00
1467.463,3096.00
1468.351,2498.00
1469.238,2649.00
1470.125,2260.00
1471.012,2708.00
1471.899,2761.00
1472.785,2501.00
1473.672,2631.00
1474.558,2885.00
1475.446,2852.00
1476.333,2847.00
1477.219,2474.00
1478.105,2658.00
1478.991,2647.00
1479.877,2960.00
1480.762,2658.00
1481.648,2585.00
1482.534,2820.00
1483.419,2734.00
1484.307,2804.00
1485.192,2653.00
1486.077,2522.00
1486.962,2513.00
1487.847,2448.00
1488.732,2517.00
1489.617,2658.00
1490.502,2945.00
1491.387,2779.00
1492.271,2485.00
1493.156,2514.00
1494.042,2521.00
1494.927,2879.00
1495.811,2590.00
1496.695,2823.00
1497.579,2944.00
1498.463,2686.00
1499.347,2722.00
1500.231,2653.00
1501.114,2766.00
1501.998,2937.00
1502.881,2704.00
1503.765,2940.00
1504.648,3042.00
1505.533,2781.00
1506.417,2663.00
1507.300,2656.00
1508.183,2740.00
1509.066,2189.00
1509.948,2947.00
1510.831,3030.00
1511.714,2512.00
1512.596,2793.00
1513.479,2910.00
1514.361,2854.00
1515.243,2700.00
1516.125,2864.00
1517.008,2962.00
1517.890,2637.00
1518.771,2736.00
1519.655,2905.00
1520.537,2632.00
1521.419,2521.00
1522.300,2687.00
1523.182,2837.00
1524.063,2827.00
1524.944,2976.00
1525.825,2890.00
1526.707,2494.00
1527.588,2466.00
1528.468,2778.00
1529.349,2373.00
1530.230,2613.00
1531.111,2836.00
1531.991,2749.00
1532.872,2404.00
1533.752,2639.00
1534.632,2563.00
1535.513,2537.00
1536.393,2794.00
1537.273,2996.00
1538.153,3306.00
1539.032,2391.00
1539.912,2618.00
1540.792,2689.00
1541.672,2721.00
1542.551,2805.00
1543.430,3295.00
1544.310,2721.00
1545.189,2595.00
1546.068,3099.00
1546.947,2762.00
1547.826,3014.00
1548.705,2690.00
1549.584,2919.00
1550.462,2651.00
1551.341,2844.00
1552.219,2769.00
1553.098,2824.00
1553.976,2886.00
1554.854,3098.00
1555.733,2904.00
1556.611,2634.00
1557.489,2472.00
1558.367,2657.00
1559.244,2853.00
1560.122,2665.00
1561.000,2713.00
1561.877,2948.00
1562.755,2595.00
1563.632,2655.00
1564.509,2938.00
1565.386,3035.00
1566.264,2481.00
1567.141,2314.00
1568.017,2815.00
1568.894,2696.00
1569.771,2747.00
1570.648,2838.00
1571.524,2724.00
1572.401,2431.00
1573.277,2477.00
1574.153,2750.00
1575.029,2588.00
1575.906,3396.00
1576.781,2835.00
1577.657,2631.00
1578.533,2937.00
1579.409,2308.00
1580.285,2653.00
1581.160,3067.00
1582.036,2874.00
1582.911,2535.00
1583.786,3024.00
1584.662,2506.00
1585.537,2683.00
1586.412,2741.00
1587.287,2542.00
1588.160,2901.00
1589.035,2348.00
1589.909,2702.00
1590.784,2646.00
1591.658,2480.00
1592.533,2779.00
1593.407,2713.00
1594.281,2556.00
1595.155,3089.00
1596.029,2596.00
1596.903,2635.00
1597.777,2606.00
1598.651,2948.00
1599.525,2403.00
1600.398,2696.00
1601.272,2631.00
1602.144,3233.00
1603.017,2652.00
1603.890,2966.00
1604.763,2785.00
1605.636,2819.00
1606.509,2403.00
1607.382,2501.00
1608.255,2733.00
1609.128,2930.00
1610.000,2667.00
1610.873,2410.00
1611.746,2595.00
1612.616,2650.00
1613.488,2309.00
1614.361,2707.00
1615.233,2624.00
1616.105,2906.00
1616.977,2601.00
1617.849,2495.00
1618.720,3014.00
1619.592,2952.00
1620.464,2776.00
1621.333,3182.00
1622.205,2671.00
1623.076,2672.00
1623.947,2676.00
1624.818,2952.00
1625.689,2841.00
1626.560,2622.00
1627.431,2736.00
1628.302,3105.00
1629.171,2816.00
1630.042,2990.00
1630.912,3396.00
1631.782,3284.00
1632.653,2487.00
1633.523,2908.00
1634.393,2953.00
1635.263,2585.00
1636.131,2716.00
1637.001,2602.00
1637.871,2328.00
1638.741,2342.00
1639.611,2442.00
1640.480,2789.00
1641.350,2577.00
1642.219,2525.00
1643.087,2204.00
1643.956,3133.00
1644.825,2890.00
1645.694,2871.00
1646.563,2886.00
1647.432,2760.00
1648.299,2710.00
1649.167,2813.00
1650.036,2502.00
1650.904,2901.00
1651.773,2936.00
1652.641,2705.00
1653.509,2914.00
1654.376,2568.00
1655.244,2702.00
1656.112,2764.00
1656.980,2722.00
1657.847,2565.00
1658.715,2861.00
1659.581,2601.00
1660.448,2952.00
1661.316,2252.00
1662.183,2711.00
1663.051,2734.00
1663.918,2746.00
1664.783,2700.00
1665.650,2816.00
1666.517,2879.00
1667.384,2708.00
1668.251,2761.00
1669.115,2928.00
1669.982,2657.00
1670.849,2995.00
1671.715,2709.00
1672.581,2819.00
1673.446,2824.00
1674.312,2759.00
1675.178,3114.00
1676.044,2791.00
1676.910,2778.00
1677.774,2729.00
1678.639,2410.00
1679.505,2704.00
1680.370,2807.00
1681.236,3356.00
1682.099,2703.00
1682.965,2692.00
1683.830,2292.00
1684.695,2542.00
1685.560,2645.00
1686.423,2855.00
1687.288,2837.00
1688.153,2753.00
1689.017,2644.00
1689.880,2783.00
1690.745,2870.00
1691.609,2550.00
1692.473,2867.00
1693.338,2944.00
1694.200,2966.00
1695.064,2728.00
1695.928,2608.00
1696.792,2759.00
1697.654,3252.00
1698.517,2709.00
1699.381,2449.00
1700.245,2401.00
1701.106,3018.00
1701.969,2581.00
1702.833,2822.00
1703.696,2642.00
1704.557,2710.00
1705.420,2573.00
1706.283,2731.00
1707.146,2848.00
1708.007,2509.00
1708.870,2497.00
1709.732,2418.00
1710.595,2570.00
1711.455,2481.00
1712.318,2667.00
1713.180,2955.00
1714.040,2785.00
1714.902,2904.00
1715.764,2694.00
1716.626,2518.00
1717.486,2703.00
1718.348,2978.00
1719.209,4061.00
1720.071,2389.00
1720.930,2444.00
1721.792,2571.00
1722.653,2556.00
1723.512,2634.00
1724.374,2654.00
1725.234,2789.00
1726.095,2731.00
1726.954,2704.00
1727.815,2841.00
1728.676,2644.00
1729.535,2962.00
1730.395,2679.00
1731.256,2625.00
1732.114,2783.00
1732.974,2169.00
1733.834,3069.00
1734.693,2891.00
1735.553,2743.00
1736.413,3146.00
1737.272,2638.00
1738.130,2650.00
1738.990,2798.00
1739.849,2599.00
1740.707,3720.00
1741.566,2764.00
1742.426,2760.00
1743.283,3116.00
1744.142,2603.00
1745.001,2377.00
1745.858,2841.00
1746.717,2849.00
1747.576,2841.00
1748.433,2858.00
1749.292,3319.00
1750.150,3354.00
1751.007,2915.00
1751.865,2895.00
1752.723,2740.00
1753.579,2667.00
1754.438,2929.00
1755.296,2946.00
1756.152,2267.00
1757.010,2441.00
1757.865,2883.00
1758.723,2410.00
1759.581,3104.00
1760.436,2718.00
1761.294,3090.00
1762.151,2719.00
1763.006,2661.00
1763.864,2393.00
1764.721,2900.00
1765.576,2745.00
1766.433,2871.00
1767.288,2634.00
1768.144,2767.00
1769.001,2677.00
1769.856,2819.00
1770.712,2975.00
1771.568,2456.00
1772.423,2639.00
1773.279,2595.00
1774.133,2587.00
1774.989,3091.00
1775.845,3149.00
1776.699,2934.00
1777.555,2723.00
1778.409,3275.00
1779.265,2678.00
1780.120,2670.00
1780.974,2712.00
1781.829,2327.00
1782.682,2795.00
1783.538,2576.00
1784.393,2777.00
1785.246,2601.00
1786.101,2791.00
1786.954,2855.00
1787.808,2941.00
1788.661,2470.00
1789.516,2647.00
1790.370,2687.00
1791.223,2914.00
1792.077,2739.00
1792.930,2780.00
1793.784,2586.00
1794.636,2739.00
1795.490,2728.00
1796.344,2758.00
1797.196,2693.00
1798.049,2893.00
1798.901,2582.00
1799.755,2965.00
1800.606,2532.00
1801.460,3235.00
1802.311,3042.00
1803.165,3108.00
1804.018,3083.00
1804.869,2817.00
1805.722,3182.00
1806.573,2721.00
1807.426,2581.00
1808.276,2722.00
1809.129,2599.00
1809.980,2960.00
1810.832,2986.00
1811.683,2651.00
1812.535,3049.00
1813.385,2642.00
1814.237,3000.00
1815.089,2780.00
1815.940,2978.00
1816.791,2687.00
1817.641,2633.00
1818.493,2864.00
1819.343,2801.00
1820.194,2612.00
1821.044,2878.00
1821.895,2954.00
1822.745,2440.00
1823.596,2639.00
1824.445,3117.00
1825.296,2820.00
1826.145,2689.00
1826.996,2920.00
1827.845,2794.00
1828.695,2819.00
1829.544,2725.00
1830.395,2786.00
1831.243,2652.00
1832.094,2480.00
1832.942,3322.00
1833.792,2894.00
1834.640,2777.00
1835.490,2753.00
1836.338,2793.00
1837.186,2640.00
1838.036,2569.00
1838.884,2727.00
1839.733,3103.00
1840.581,2943.00
1841.430,2860.00
1842.278,3118.00
1843.127,2626.00
1843.974,2483.00
1844.823,3146.00
1845.671,2908.00
1846.519,2756.00
1847.366,2768.00
1848.213,2383.00
1849.062,2533.00
1849.909,2480.00
1850.757,3405.00
1851.604,2820.00
1852.452,2671.00
1853.298,2922.00
1854.146,2765.00
1854.993,2798.00
1855.839,3260.00
1856.687,2891.00
1857.532,2868.00
1858.380,2739.00
1859.226,2825.00
1860.073,2880.00
1860.919,2563.00
1861.765,2633.00
1862.612,2971.00
1863.457,2962.00
1864.304,2692.00
1865.150,2867.00
1865.995,2687.00
1866.842,2907.00
1867.686,2972.00
1868.533,2752.00
1869.378,2787.00
1870.223,2758.00
1871.069,2635.00
1871.914,2781.00
1872.760,2749.00
1873.604,2531.00
1874.448,2880.00
1875.294,2915.00
1876.139,2614.00
1876.984,2859.00
1877.828,2375.00
1878.672,2281.00
1879.518,2619.00
1880.361,2913.00
1881.205,2946.00
1882.050,2531.00
1882.894,3247.00
1883.739,2634.00
1884.582,2478.00
1885.425,2596.00
1886.270,2986.00
1887.113,2518.00
1887.956,2860.00
1888.801,2833.00
1889.644,2561.00
1890.486,2364.00
1891.331,2696.00
1892.173,2825.00
1893.017,2794.00
1893.860,3002.00
1894.702,3049.00
1895.546,2761.00
1896.388,3458.00
1897.230,3116.00
1898.074,2625.00
1898.916,2566.00
1899.757,2598.00
1900.601,3381.00
1901.443,3064.00
1902.284,3087.00
1903.125,3257.00
1903.969,2964.00
1904.810,2998.00
1905.651,2836.00
1906.494,3039.00
1907.335,3179.00
1908.176,2861.00
1909.018,2840.00
1909.859,2717.00
1910.700,2631.00
1911.542,3283.00
1912.383,2818.00
1913.223,2393.00
1914.064,2866.00
1914.906,2967.00
1915.746,3123.00
1916.586,3256.00
1917.428,2718.00
1918.268,2820.00
1919.107,2694.00
1919.947,2507.00
1920.789,2641.00
1921.628,3008.00
1922.468,2748.00
1923.309,2617.00
1924.148,3050.00
1924.988,2855.00
1925.827,2756.00
1926.667,2629.00
1927.507,2791.00
1928.345,2612.00
1929.184,2923.00
1930.025,2608.00
1930.864,3018.00
1931.702,3039.00
1932.541,2696.00
1933.381,2899.00
1934.219,2905.00
1935.057,3077.00
1935.896,2459.00
1936.735,2733.00
1937.573,2634.00
1938.411,2554.00
1939.249,2918.00
1940.089,2663.00
1940.927,3014.00
1941.764,3036.00
1942.602,2648.00
1943.439,2669.00
1944.278,2730.00
1945.115,2697.00
1945.953,2521.00
1946.790,2853.00
1947.628,3103.00
1948.465,2877.00
1949.302,2890.00
1950.139,2859.00
1950.976,2642.00
1951.814,2919.00
1952.651,2879.00
1953.487,2545.00
1954.323,3043.00
1955.160,2753.00
1955.998,3143.00
1956.834,2727.00
1957.670,2863.00
1958.506,3010.00
1959.342,2874.00
1960.177,2802.00
1961.015,2902.00
1961.850,2827.00
1962.686,2789.00
1963.521,2837.00
1964.357,3037.00
1965.192,2556.00
1966.029,2895.00
1966.864,2683.00
1967.699,3018.00
1968.534,2831.00
1969.369,3045.00
1970.204,2751.00
1971.040,2847.00
1971.875,2696.00
1972.709,2815.00
1973.544,2623.00
1974.378,2682.00
1975.212,2867.00
1976.047,2633.00
1976.882,2630.00
1977.716,3183.00
1978.550,2509.00
1979.384,2743.00
1980.218,2714.00
1981.052,2696.00
1981.885,2826.00
1982.719,2762.00
1983.554,2894.00
1984.388,3112.00
1985.221,2848.00
1986.054,3009.00
1986.887,2812.00
1987.720,2608.00
1988.553,3048.00
1989.386,2896.00
1990.219,2906.00
1991.053,3072.00
1991.886,2644.00
1992.719,2985.00
1993.551,2328.00
1994.383,2940.00
1995.216,2708.00
1996.048,2512.00
1996.880,3006.00
1997.712,2669.00
1998.544,2796.00
1999.376,2824.00
2000.208,3089.00
2001.040,3241.00
2001.873,2623.00
2002.705,2608.00
2003.536,2852.00
2004.367,2822.00
2005.199,2819.00
2006.030,2687.00
2006.861,2612.00
2007.692,2780.00
2008.523,2596.00
2009.354,2843.00
2010.185,2567.00
2011.016,2989.00
2011.846,2996.00
2012.677,2764.00
2013.507,3163.00
2014.338,2975.00
2015.168,2727.00
2015.999,3240.00
2016.829,2700.00
2017.659,3014.00
2018.489,3286.00
2019.319,2603.00
2020.149,2961.00
2020.980,2816.00
2021.810,2613.00
2022.639,2673.00
2023.469,2659.00
2024.298,2494.00
2025.128,2412.00
2025.957,2375.00
2026.786,2254.00
2027.615,2419.00
2028.444,2684.00
2029.273,2813.00
2030.102,2383.00
2030.931,2612.00
2031.758,2911.00
2032.586,2580.00
2033.415,2655.00
2034.243,2275.00
2035.072,2044.00
2035.900,2539.00
2036.728,2352.00
2037.556,2375.00
2038.385,2414.00
2039.213,2217.00
2040.040,2195.00
2040.868,2188.00
2041.696,2238.00
2042.524,2225.00
2043.351,2446.00
2044.179,2234.00
2045.006,2032.00
