RamanScope Measure Spectrum Data V3.72

<< MEASURE CONDITION >>
Exposure Type,Aver
Exposure Time [sec],15
Exposure Count,30
Measure Time,2023/07/14 22:05:27
Data Name,""
Data Comment,""
Rayleigh Wave[nm],532.0

<< SAMPLE SPECTRUM >>
Wave[dcm-1],No109
146.591,711.93
147.626,829.30
148.664,1006.17
149.699,1189.57
150.737,1349.87
151.772,1550.73
152.809,1691.07
153.846,1871.10
154.881,2040.70
155.918,2177.03
156.953,2302.60
157.989,2427.57
159.026,2525.27
160.060,2599.53
161.096,2666.13
162.130,2697.23
163.167,2734.80
164.200,2826.10
165.236,2849.27
166.272,2913.83
167.305,2922.93
168.341,2964.53
169.374,3081.20
170.409,3062.13
171.445,3171.03
172.477,3221.40
173.512,3276.17
174.545,3338.80
175.580,3356.70
176.614,3415.17
177.647,3441.73
178.681,3459.90
179.713,3460.87
180.747,3426.50
181.781,3409.40
182.813,3374.67
183.847,3410.80
184.878,3411.47
185.912,3311.93
186.945,3406.00
187.976,3408.50
189.010,3408.13
190.043,3456.83
191.073,3467.03
192.106,3481.10
193.137,3585.57
194.170,3542.83
195.202,3586.17
196.232,3631.43
197.265,3623.27
198.297,3706.03
199.327,3787.13
200.359,3864.47
201.388,3950.07
202.420,4026.63
203.452,4094.07
204.481,4165.83
205.512,4293.43
206.544,4394.50
207.573,4505.23
208.604,4648.57
209.635,4811.70
210.663,4971.63
211.694,5150.10
212.725,5275.50
213.753,5441.13
214.783,5634.83
215.813,5742.07
216.841,5835.83
217.871,5922.20
218.899,5892.63
219.929,5973.80
220.959,5900.50
221.986,5796.53
223.016,5653.73
224.045,5509.13
225.072,5364.20
226.101,5316.67
227.130,5122.80
228.157,4969.17
229.185,4825.33
230.214,4763.43
231.241,4651.67
232.269,4550.23
233.297,4506.20
234.323,4498.97
235.351,4375.93
236.379,4362.37
237.407,4354.00
238.433,4316.90
239.460,4344.10
240.488,4335.30
241.513,4393.50
242.540,4365.40
243.568,4447.63
244.592,4429.93
245.619,4532.93
246.646,4558.47
247.671,4549.87
248.697,4523.73
249.724,4523.53
250.748,4470.93
251.774,4464.07
252.801,4458.00
253.827,4460.57
254.850,4430.73
255.876,4430.57
256.902,4506.17
257.925,4483.70
258.951,4521.37
259.976,4503.67
260.999,4616.37
262.024,4623.20
263.049,4674.40
264.074,4692.40
265.097,4740.90
266.122,4790.63
267.146,4867.03
268.168,4897.83
269.193,4967.87
270.217,5039.23
271.241,5053.90
272.263,5040.47
273.287,5152.70
274.311,5177.77
275.332,5280.40
276.356,5292.70
277.379,5357.97
278.402,5316.87
279.424,5278.47
280.447,5235.77
281.470,5184.17
282.492,5214.37
283.513,5080.40
284.536,5082.73
285.558,4971.97
286.581,4938.23
287.601,4814.20
288.623,4804.70
289.645,4686.30
290.665,4614.23
291.687,4539.47
292.709,4478.13
293.730,4416.33
294.750,4348.13
295.771,4249.90
296.792,4256.37
297.813,4167.73
298.832,4138.13
299.853,4078.80
300.874,3986.73
301.895,3974.63
302.913,3853.23
303.934,3863.00
304.954,3819.70
305.975,3759.07
306.993,3689.43
308.013,3639.67
309.033,3639.13
310.052,3601.83
311.072,3594.23
312.090,3539.43
313.109,3529.37
314.129,3469.20
315.148,3450.20
316.165,3438.13
317.184,3392.13
318.203,3394.07
319.222,3350.13
320.238,3319.73
321.257,3321.77
322.275,3292.50
323.294,3293.33
324.312,3288.77
325.328,3283.77
326.346,3259.47
327.364,3274.33
328.382,3245.60
329.397,3263.73
330.415,3215.77
331.432,3218.53
332.450,3204.03
333.467,3217.90
334.482,3193.40
335.499,3175.93
336.516,3144.47
337.533,3160.30
338.547,3171.57
339.564,3122.40
340.580,3166.83
341.597,3122.90
342.613,3125.40
343.627,3165.77
344.643,3129.03
345.659,3153.80
346.675,3123.33
347.690,3076.67
348.704,3102.07
349.719,3072.10
350.735,3062.57
351.750,3093.47
352.765,3030.43
353.778,3074.63
354.793,3073.00
355.808,3060.47
356.822,3093.83
357.837,3085.10
358.851,3087.57
359.864,3115.43
360.878,3082.37
361.892,3124.77
362.906,3107.33
363.920,3112.27
364.932,3062.90
365.945,3112.43
366.959,3109.23
367.972,3151.30
368.986,3121.87
369.999,3128.27
371.010,3170.90
372.023,3153.47
373.036,3120.53
374.049,3171.23
375.061,3222.10
376.072,3160.43
377.084,3230.10
378.097,3203.87
379.109,3239.13
380.121,3252.97
381.133,3218.93
382.143,3244.30
383.155,3211.80
384.166,3237.43
385.178,3211.47
386.189,3247.90
387.201,3243.80
388.212,3216.07
389.221,3237.10
390.232,3238.97
391.243,3207.70
392.254,3214.87
393.264,3186.73
394.275,3199.17
395.283,3221.13
396.294,3213.83
397.304,3216.43
398.314,3160.00
399.324,3154.60
400.334,3165.73
401.344,3140.63
402.351,3061.43
403.361,3123.53
404.370,3061.83
405.380,3100.73
406.389,3088.67
407.398,3047.87
408.407,3057.60
409.414,2999.63
410.423,3064.60
411.431,2989.37
412.440,2995.63
413.448,2962.60
414.457,2929.93
415.465,2884.33
416.471,2923.37
417.479,2898.27
418.487,2906.53
419.495,2919.20
420.503,2911.33
421.510,2891.90
422.518,2934.57
423.525,2920.93
424.530,2859.30
425.537,2874.57
426.544,2909.37
427.551,2858.60
428.558,2885.77
429.565,2861.60
430.571,2865.73
431.578,2839.97
432.582,2897.07
433.588,2809.13
434.595,2861.80
435.601,2860.87
436.607,2862.77
437.612,2833.03
438.618,2848.87
439.624,2820.43
440.627,2842.70
441.633,2850.70
442.638,2842.23
443.643,2836.70
444.648,2798.23
445.653,2831.43
446.658,2844.67
447.663,2836.00
448.667,2823.97
449.672,2832.30
450.674,2829.03
451.678,2837.53
452.682,2847.63
453.687,2874.33
454.690,2910.40
455.694,2850.77
456.698,2866.43
457.702,2871.27
458.705,2859.90
459.709,2847.50
460.710,2865.93
461.713,2899.67
462.716,2843.47
463.719,2883.33
464.722,2875.37
465.725,2823.70
466.727,2891.97
467.730,2897.73
468.732,2887.67
469.735,2871.93
470.737,2902.57
471.737,2867.20
472.739,2868.87
473.741,2907.13
474.742,2952.63
475.744,2922.10
476.746,2876.67
477.747,2943.87
478.748,2903.43
479.750,2914.53
480.751,2929.70
481.752,2944.73
482.753,2889.93
483.751,2907.73
484.752,2915.70
485.753,2943.60
486.753,2907.47
487.753,2907.57
488.754,2947.80
489.754,2882.43
490.754,2939.80
491.754,2929.17
492.754,2892.30
493.753,2912.47
494.753,2968.17
495.752,2909.00
496.752,2893.80
497.749,2929.43
498.748,2888.40
499.747,2897.97
500.746,2905.73
501.745,2858.60
502.744,2842.10
503.742,2847.90
504.741,2891.80
505.739,2852.13
506.737,2853.10
507.735,2852.60
508.734,2854.20
509.732,2865.33
510.729,2836.20
511.727,2769.47
512.725,2797.17
513.720,2764.00
514.718,2863.03
515.715,2810.63
516.712,2736.23
517.709,2752.80
518.706,2750.17
519.703,2781.67
520.700,2776.00
521.696,2775.30
522.693,2787.50
523.689,2774.27
524.686,2773.20
525.682,2817.50
526.678,2763.53
527.674,2767.50
528.670,2771.47
529.666,2829.27
530.661,2820.03
531.657,2295.43
532.652,2790.00
533.648,2771.77
534.641,2828.90
535.636,2800.00
536.631,2835.37
537.626,2803.47
538.621,2802.33
539.616,2776.00
540.610,2816.57
541.605,2815.23
542.599,2828.53
543.593,2799.00
544.587,2834.77
545.581,2797.00
546.575,2822.97
547.569,2843.33
548.563,2816.67
549.557,2813.43
550.550,2819.70
551.543,2819.53
552.537,2803.93
553.530,2775.77
554.523,2818.93
555.516,2836.30
556.509,2851.60
557.502,2799.60
558.494,2866.87
559.487,2827.63
560.479,2878.00
561.472,2913.37
562.464,2860.03
563.456,2824.60
564.448,2855.77
565.440,2830.20
566.432,2855.57
567.423,2882.03
568.415,2896.27
569.404,2870.93
570.396,2881.70
571.387,2864.70
572.378,2931.27
573.369,2907.30
574.360,2920.07
575.351,2921.43
576.341,2916.03
577.332,2968.07
578.323,2929.40
579.313,2939.23
580.303,2910.83
581.293,2921.80
582.283,2947.70
583.273,3005.97
584.263,2979.77
585.253,2950.30
586.243,3003.13
587.232,3017.27
588.222,2998.30
589.211,3003.77
590.200,2970.07
591.189,3007.73
592.178,2974.47
593.167,3032.13
594.156,3036.67
595.145,3011.50
596.133,2983.23
597.122,3000.47
598.110,3004.60
599.098,3007.03
600.086,2969.63
601.074,3004.43
602.062,2951.37
603.050,3000.97
604.038,3014.93
605.025,2946.40
606.013,2971.97
607.000,2968.70
607.987,2971.63
608.975,2952.00
609.962,2903.20
610.949,2868.57
611.936,2892.87
612.922,2925.70
613.909,2910.47
614.895,2887.27
615.882,2847.17
616.868,2831.27
617.854,2802.93
618.841,2857.43
619.826,2807.50
620.812,2784.30
621.798,2777.37
622.784,2765.30
623.769,2747.40
624.755,2736.20
625.740,2710.53
626.725,2674.70
627.711,2655.50
628.698,2665.67
629.683,2642.37
630.667,2612.47
631.652,2562.90
632.637,2547.07
633.621,2590.73
634.606,2548.17
635.590,2525.83
636.574,2496.47
637.558,2497.40
638.542,2502.70
639.526,2496.07
640.510,2454.63
641.493,2450.03
642.477,2454.60
643.460,2399.53
644.444,2462.47
645.427,2414.90
646.410,2395.03
647.393,2382.77
648.376,2381.23
649.359,2390.90
650.341,2355.97
651.324,2372.87
652.307,2335.07
653.289,2333.30
654.271,2356.50
655.253,2354.33
656.235,2264.53
657.217,2301.30
658.199,2325.60
659.181,2300.37
660.163,2295.93
661.144,2282.67
662.126,2281.43
663.107,2236.70
664.088,2349.87
665.069,2258.53
666.050,2280.33
667.033,2261.40
668.014,2232.87
668.995,2211.07
669.975,2282.57
670.956,2223.70
671.936,2235.23
672.916,2193.67
673.896,2206.93
674.876,2198.13
675.856,2145.73
676.836,2147.13
677.816,2121.30
678.795,2130.17
679.775,2088.87
680.754,2134.50
681.734,2150.87
682.713,2086.67
683.692,2104.60
684.671,2059.20
685.650,2045.33
686.629,2032.50
687.607,2000.37
688.586,1995.53
689.564,2044.17
690.543,2025.17
691.523,1964.07
692.501,2030.77
693.479,2011.83
694.457,1910.50
695.435,1941.40
696.413,1954.20
697.390,1967.83
698.368,1922.47
699.345,1930.60
700.322,1916.23
701.300,1919.07
702.277,1920.23
703.254,1935.53
704.231,1864.87
705.207,1877.13
706.184,1884.60
707.161,1847.27
708.137,1878.80
709.113,1839.60
710.090,1845.27
711.068,1870.43
712.044,1845.50
713.020,1863.00
713.996,1830.73
714.971,1824.60
715.947,1790.93
716.922,1828.03
717.898,1820.17
718.873,1831.17
719.848,1781.37
720.823,1783.50
721.798,1749.60
722.773,1825.23
723.748,1798.70
724.723,1782.17
725.697,1800.70
726.672,1753.20
727.646,1769.10
728.622,1720.17
729.596,1765.00
730.570,1753.43
731.544,1751.17
732.518,1750.40
733.492,1732.50
734.466,1758.37
735.439,1723.63
736.413,1746.00
737.386,1712.90
738.359,1725.83
739.332,1741.67
740.305,1718.03
741.278,1723.40
742.251,1715.43
743.224,1678.47
744.196,1703.70
745.171,1742.80
746.143,1672.60
747.115,1679.60
748.087,1698.70
749.059,1704.90
750.031,1693.17
751.003,1720.17
751.975,1742.20
752.947,1665.20
753.918,1670.03
754.890,1661.03
755.861,1658.37
756.832,1617.97
757.803,1640.53
758.774,1684.13
759.747,1629.60
760.718,1638.47
761.689,1620.50
762.659,1575.63
763.630,1599.53
764.600,1596.73
765.570,1624.10
766.540,1561.37
767.510,1598.60
768.480,1613.00
769.450,1554.50
770.420,1582.67
771.390,1560.67
772.359,1548.47
773.329,1594.77
774.300,1562.17
775.269,1575.37
776.238,1591.37
777.207,1556.63
778.176,1573.60
779.145,1574.07
780.114,1560.73
781.083,1521.90
782.051,1525.33
783.019,1535.00
783.988,1567.70
784.956,1550.07
785.924,1559.63
786.894,1551.07
787.862,1466.67
788.830,1517.63
789.797,1501.57
790.765,1507.37
791.732,1521.63
792.700,1479.90
793.667,1514.80
794.634,1511.63
795.601,1511.03
796.568,1522.20
797.535,1514.73
798.502,1529.40
799.468,1462.23
800.437,1454.97
801.403,1522.03
802.370,1494.17
803.336,1480.10
804.302,1471.30
805.268,1477.13
806.234,1479.10
807.200,1450.30
808.166,1445.90
809.131,1420.23
810.097,1435.53
811.062,1471.03
812.027,1444.70
812.994,1411.77
813.960,1418.13
814.925,1378.13
815.889,1391.27
816.854,1418.63
817.819,1445.20
818.783,1387.90
819.748,1445.47
820.712,1403.40
821.677,1395.37
822.641,1412.47
823.605,1397.43
824.571,1403.13
825.534,1386.57
826.498,1388.07
827.462,1430.10
828.425,1423.60
829.389,1415.13
830.352,1378.20
831.315,1340.30
832.279,1397.37
833.242,1394.70
834.204,1400.63
835.167,1320.27
836.132,1385.07
837.095,1410.47
838.057,1375.20
839.020,1362.33
839.982,1392.13
840.944,1340.77
841.906,1365.40
842.868,1366.63
843.830,1377.43
844.792,1348.47
845.753,1348.67
846.715,1356.23
847.679,1340.57
848.640,1379.80
849.601,1362.87
850.562,1367.70
851.523,1334.17
852.484,1339.53
853.445,1316.30
854.406,1385.70
855.367,1360.37
856.327,1343.07
857.288,1351.20
858.248,1322.73
859.210,1318.80
860.170,1313.20
861.130,1296.93
862.090,1300.00
863.050,1310.67
864.010,1299.07
864.969,1358.70
865.929,1318.93
866.888,1339.70
867.848,1330.73
868.807,1306.07
869.766,1347.70
870.727,1307.63
871.686,1327.10
872.645,1308.17
873.604,1311.10
874.562,1325.07
875.521,1315.00
876.479,1367.23
877.437,1329.50
878.396,1321.10
879.354,1372.07
880.312,1310.10
881.270,1298.43
882.229,1329.47
883.187,1310.10
884.145,1322.63
885.102,1316.80
886.059,1322.83
887.017,1279.03
887.974,1272.40
888.931,1300.07
889.888,1343.10
890.845,1260.97
891.802,1313.47
892.758,1316.70
893.717,1313.13
894.673,1290.57
895.630,1312.80
896.586,1306.97
897.542,1307.93
898.498,1307.00
899.454,1325.63
900.410,1321.37
901.366,1323.83
902.321,1327.33
903.277,1300.90
904.232,1288.93
905.189,1296.83
906.145,1272.37
907.100,1293.10
908.055,1315.07
909.010,1301.30
909.965,1307.00
910.919,1338.23
911.874,1281.83
912.828,1328.00
913.783,1296.60
914.737,1320.60
915.693,1302.60
916.648,1289.03
917.602,1369.40
918.555,1313.90
919.509,1321.83
920.463,1294.57
921.417,1323.37
922.370,1273.30
923.324,1312.00
924.277,1353.53
925.230,1330.20
926.183,1276.27
927.138,1344.50
928.091,1326.53
929.044,1298.23
929.996,1305.20
930.949,1295.10
931.902,1322.23
932.854,1339.50
933.806,1323.10
934.758,1313.47
935.711,1330.60
936.663,1297.37
937.614,1343.93
938.568,1333.47
939.520,1297.57
940.471,1314.90
941.423,1334.93
942.374,1327.27
943.326,1314.93
944.277,1292.43
945.228,1326.70
946.179,1309.50
947.130,1298.77
948.080,1344.37
949.031,1289.03
949.984,1314.30
950.934,1273.47
951.884,1308.10
952.835,1318.67
953.785,1330.07
954.735,1292.80
955.685,1299.30
956.635,1272.37
957.585,1319.10
958.534,1319.63
959.484,1270.37
960.433,1299.40
961.383,1332.90
962.334,1308.23
963.283,1300.77
964.232,1298.13
965.181,1275.77
966.130,1311.17
967.079,1287.73
968.027,1268.33
968.976,1280.47
969.924,1306.63
970.873,1295.70
971.821,1276.03
972.769,1283.67
973.719,1278.27
974.667,1302.63
975.615,1253.17
976.562,1308.60
977.510,1299.23
978.458,1266.37
979.405,1279.03
980.352,1241.13
981.300,1274.47
982.247,1297.07
983.194,1266.23
984.141,1302.47
985.088,1325.17
986.036,1293.33
986.983,1262.63
987.930,1283.50
988.876,1292.23
989.822,1284.67
990.769,1303.50
991.715,1259.83
992.661,1280.67
993.607,1271.53
994.553,1284.80
995.498,1297.10
996.444,1288.53
997.389,1296.33
998.337,1259.73
999.282,1276.50
1000.227,1278.87
1001.173,1299.23
1002.118,1278.13
1003.062,1272.70
1004.007,1292.57
1004.952,1300.20
1005.897,1307.50
1006.841,1293.13
1007.786,1306.60
1008.730,1237.60
1009.674,1304.20
1010.618,1239.97
1011.564,1290.50
1012.508,1283.17
1013.452,1266.03
1014.396,1279.07
1015.339,1276.80
1016.283,1300.50
1017.226,1281.67
1018.170,1272.53
1019.113,1265.47
1020.056,1280.27
1020.999,1292.67
1021.942,1268.13
1022.885,1314.50
1023.828,1331.27
1024.770,1290.37
1025.715,1256.10
1026.657,1295.57
1027.600,1316.47
1028.542,1294.90
1029.484,1283.73
1030.426,1330.20
1031.368,1288.57
1032.310,1323.13
1033.251,1312.67
1034.193,1272.20
1035.135,1274.30
1036.076,1281.83
1037.017,1297.57
1037.959,1331.37
1038.900,1332.10
1039.843,1312.87
1040.784,1299.37
1041.725,1336.23
1042.665,1341.20
1043.606,1334.50
1044.547,1312.37
1045.487,1290.47
1046.427,1322.80
1047.368,1317.03
1048.308,1332.90
1049.248,1316.10
1050.188,1338.07
1051.128,1283.83
1052.067,1305.13
1053.007,1327.73
1053.947,1342.83
1054.886,1360.23
1055.827,1325.33
1056.766,1368.43
1057.706,1350.50
1058.645,1351.90
1059.584,1364.00
1060.522,1333.67
1061.461,1323.33
1062.400,1350.37
1063.338,1357.33
1064.277,1355.23
1065.215,1392.40
1066.154,1354.53
1067.092,1338.33
1068.030,1369.37
1068.968,1377.93
1069.906,1354.47
1070.843,1363.27
1071.781,1409.57
1072.720,1394.10
1073.658,1395.53
1074.595,1399.60
1075.533,1372.17
1076.470,1431.20
1077.407,1403.57
1078.344,1409.27
1079.281,1396.53
1080.217,1400.33
1081.154,1394.03
1082.091,1395.97
1083.027,1368.53
1083.964,1393.37
1084.900,1396.43
1085.836,1404.03
1086.772,1396.43
1087.708,1406.20
1088.644,1386.03
1089.580,1401.37
1090.515,1406.67
1091.451,1427.27
1092.388,1395.77
1093.324,1411.73
1094.259,1429.07
1095.194,1418.20
1096.129,1383.37
1097.064,1385.00
1097.999,1397.00
1098.934,1414.07
1099.869,1351.13
1100.803,1415.50
1101.738,1404.93
1102.672,1338.40
1103.607,1400.77
1104.541,1342.83
1105.475,1358.43
1106.409,1353.90
1107.343,1363.20
1108.277,1387.87
1109.210,1337.13
1110.144,1364.90
1111.078,1349.33
1112.011,1323.57
1112.944,1313.33
1113.878,1321.80
1114.811,1310.63
1115.744,1323.90
1116.678,1306.60
1117.611,1346.03
1118.544,1297.90
1119.477,1264.57
1120.409,1291.03
1121.342,1331.17
1122.274,1300.50
1123.206,95.30
1124.138,1235.07
1125.070,1288.83
1126.002,1332.63
1126.934,1230.23
1127.866,1268.07
1128.798,1267.87
1129.729,1240.93
1130.661,1260.80
1131.592,1248.40
1132.523,1209.67
1133.454,1275.43
1134.385,1211.73
1135.317,1197.30
1136.247,1227.37
1137.178,1233.60
1138.109,1238.47
1139.039,1217.40
1139.970,1220.33
1140.900,1198.10
1141.831,1240.17
1142.761,1181.63
1143.691,1683.47
1144.621,1186.87
1145.551,1209.87
1146.480,1198.03
1147.410,1238.40
1148.340,1169.17
1149.269,1187.00
1150.199,1152.37
1151.128,1156.17
1152.057,1179.93
1152.979,1148.77
1153.898,1166.43
1154.819,1190.73
1155.739,1195.30
1156.658,1156.53
1157.579,1155.33
1158.498,1163.13
1159.419,1147.30
1160.338,1129.40
1161.256,1144.93
1162.177,1153.63
1163.095,1140.07
1164.016,1176.43
1164.934,1184.13
1165.852,1149.63
1166.772,1134.37
1167.690,1134.60
1168.610,1171.23
1169.528,1183.20
1170.446,1149.33
1171.365,1130.27
1172.283,1158.87
1173.202,1114.90
1174.120,1172.23
1175.037,1125.07
1175.956,1103.40
1176.873,1125.33
1177.792,1118.40
1178.709,1139.30
1179.626,1141.00
1180.544,1145.47
1181.461,1138.90
1182.379,1117.63
1183.296,1144.80
1184.212,1099.77
1185.130,1103.47
1186.046,1126.53
1186.962,1153.67
1187.880,1136.07
1188.796,1095.30
1189.714,1099.70
1190.629,1113.87
1191.545,1122.20
1192.462,1104.37
1193.378,1103.67
1194.295,1090.00
1195.210,1132.17
1196.125,1156.90
1197.042,1090.77
1197.957,1113.77
1198.872,1088.43
1199.788,1130.10
1200.703,1131.97
1201.619,1100.67
1202.534,1128.03
1203.448,1119.43
1204.364,1080.97
1205.278,1094.87
1206.192,1117.30
1207.108,1118.93
1208.022,1146.87
1208.938,1112.90
1209.851,1096.60
1210.765,1125.80
1211.680,1084.00
1212.594,1086.77
1213.507,1096.33
1214.422,1103.13
1215.335,1149.47
1216.248,1110.00
1217.163,1140.13
1218.076,1103.17
1218.990,1149.37
1219.903,1130.43
1220.816,1062.13
1221.730,1086.13
1222.642,1100.93
1223.554,1124.70
1224.469,1147.67
1225.380,1114.50
1226.292,1074.33
1227.206,1149.43
1228.118,1124.83
1229.032,1101.97
1229.943,1147.90
1230.855,1091.37
1231.768,1112.33
1232.679,1130.63
1233.590,1111.43
1234.503,1149.67
1235.414,1127.73
1236.325,1117.57
1237.238,1130.40
1238.149,1151.33
1239.059,1123.43
1239.972,1092.40
1240.882,1130.97
1241.793,1140.47
1242.705,1142.50
1243.615,1149.17
1244.525,1127.93
1245.437,1125.30
1246.347,1153.47
1247.259,1147.80
1248.168,1126.27
1249.078,1160.33
1249.989,1153.43
1250.899,1146.37
1251.808,1178.57
1252.719,1105.20
1253.628,1140.87
1254.537,1127.10
1255.448,1131.70
1256.357,1115.30
1257.266,1145.10
1258.176,1133.43
1259.085,1129.93
1259.993,1104.97
1260.904,1144.30
1261.812,1121.90
1262.720,1133.70
1263.630,1124.13
1264.538,1141.83
1265.446,1157.00
1266.356,1136.83
1267.263,1151.57
1268.171,1144.50
1269.080,1109.63
1269.988,1167.77
1270.895,1115.23
1271.804,1139.83
1272.711,1165.60
1273.619,1128.40
1274.527,1160.47
1275.434,1148.47
1276.341,1140.47
1277.248,1123.57
1278.156,1130.37
1279.063,1123.23
1279.969,1135.00
1280.877,1189.27
1281.783,1140.23
1282.690,1136.03
1283.598,1132.70
1284.503,1108.07
1285.409,1103.87
1286.317,1142.77
1287.223,1130.77
1288.128,1123.27
1289.036,1164.67
1289.941,1119.00
1290.846,1113.03
1291.751,1105.70
1292.658,1106.57
1293.563,1123.93
1294.468,1148.93
1295.375,1103.63
1296.280,1135.00
1297.184,1151.80
1298.091,1103.50
1298.995,1105.53
1299.900,1132.03
1300.806,1125.93
1301.710,1082.03
1302.614,1098.30
1303.518,1111.53
1304.424,1093.27
1305.327,1085.33
1306.231,1115.10
1307.137,1107.73
1308.040,1089.27
1308.943,1101.27
1309.847,1072.17
1310.752,1089.20
1311.655,1072.33
1312.558,1069.03
1313.463,1078.97
1314.366,1071.63
1315.269,1064.93
1316.171,1058.50
1317.076,1039.70
1317.978,1047.77
1318.881,1040.90
1319.785,1053.37
1320.687,1027.67
1321.589,1036.90
1322.491,1025.20
1323.395,1068.87
1324.297,1075.80
1325.198,1039.37
1326.102,1043.80
1327.004,1054.60
1327.905,1034.70
1328.806,1056.97
1329.709,1041.13
1330.611,1016.57
1331.512,1025.10
1332.413,1045.50
1333.316,1017.63
1334.216,1026.43
1335.117,981.93
1336.020,1041.73
1336.920,1015.27
1337.821,962.00
1338.721,1020.03
1339.623,1013.10
1340.523,989.77
1341.423,984.80
1342.323,1014.13
1343.225,1001.10
1344.125,974.03
1345.025,1001.60
1345.924,978.10
1346.826,974.23
1347.725,942.37
1348.624,995.03
1349.524,977.63
1350.425,983.00
1351.324,1006.00
1352.223,1000.97
1353.121,949.43
1354.022,964.30
1354.921,984.47
1355.819,987.07
1356.718,975.27
1357.618,944.00
1358.516,931.13
1359.415,1000.33
1360.313,956.60
1361.213,950.50
1362.111,968.83
1363.008,950.83
1363.906,932.30
1364.806,936.23
1365.703,913.87
1366.601,893.47
1367.498,908.37
1368.397,925.30
1369.295,935.63
1370.192,918.27
1371.089,934.20
1371.987,925.47
1372.884,936.47
1373.781,925.47
1374.678,911.23
1375.574,897.50
1376.473,927.37
1377.369,971.17
1378.265,898.37
1379.161,921.90
1380.059,867.70
1380.955,926.23
1381.851,884.03
1382.747,869.30
1383.643,875.00
1384.540,921.53
1385.436,885.80
1386.331,890.77
1387.227,882.17
1388.124,901.40
1389.019,874.97
1389.914,890.53
1390.809,852.70
1391.704,878.60
1392.601,876.80
1393.495,886.90
1394.390,887.60
1395.285,899.13
1396.179,877.30
1397.075,864.23
1397.969,853.43
1398.864,857.87
1399.758,875.67
1400.652,833.93
1401.547,873.77
1402.441,904.57
1403.335,889.90
1404.229,852.73
1405.122,856.67
1406.017,839.97
1406.911,873.80
1407.804,854.00
1408.697,843.47
1409.590,832.17
1410.485,866.07
1411.378,836.43
1412.271,822.50
1413.163,827.57
1414.056,863.50
1414.949,883.17
1415.843,865.80
1416.735,839.10
1417.627,827.30
1418.520,877.03
1419.412,858.27
1420.306,855.20
1421.197,843.90
1422.089,873.73
1422.981,839.60
1423.873,866.13
1424.764,806.10
1425.657,825.57
1426.549,864.20
1427.440,884.70
1428.331,787.40
1429.222,841.87
1430.113,851.30
1431.006,793.73
1431.897,842.17
1432.787,831.77
1433.678,808.17
1434.568,837.07
1435.459,828.07
1436.351,848.80
1437.241,843.43
1438.131,821.73
1439.021,852.43
1439.911,821.80
1440.801,821.37
1441.693,786.83
1442.583,807.93
1443.472,823.93
1444.362,810.10
1445.251,847.53
1446.140,787.80
1447.030,793.53
1447.921,792.77
1448.810,782.13
1449.699,825.83
1450.588,785.83
1451.476,807.33
1452.365,825.80
1453.254,838.83
1454.144,780.97
1455.032,826.97
1455.921,787.27
1456.809,827.10
1457.697,791.30
1458.585,819.73
1459.473,793.47
1460.361,773.77
1461.251,798.17
1462.138,794.13
1463.026,841.20
1463.913,779.40
1464.801,773.93
1465.688,829.60
1466.575,780.57
1467.463,793.60
1468.351,790.73
1469.238,795.50
1470.125,769.97
1471.012,742.87
1471.899,766.33
1472.785,776.60
1473.672,742.73
1474.558,788.40
1475.446,756.03
1476.333,800.57
1477.219,755.83
1478.105,788.43
1478.991,771.00
1479.877,772.60
1480.762,788.43
1481.648,728.60
1482.534,767.17
1483.419,748.93
1484.307,785.20
1485.192,779.90
1486.077,708.27
1486.962,752.80
1487.847,745.97
1488.732,782.03
1489.617,779.20
1490.502,811.30
1491.387,758.13
1492.271,752.43
1493.156,763.83
1494.042,752.67
1494.927,784.43
1495.811,768.90
1496.695,730.60
1497.579,802.53
1498.463,722.60
1499.347,766.30
1500.231,725.83
1501.114,724.40
1501.998,788.43
1502.881,753.80
1503.765,799.73
1504.648,727.80
1505.533,729.07
1506.417,743.73
1507.300,762.10
1508.183,736.13
1509.066,709.80
1509.948,719.80
1510.831,724.10
1511.714,737.27
1512.596,756.23
1513.479,740.03
1514.361,743.57
1515.243,754.13
1516.125,770.10
1517.008,765.40
1517.890,774.77
1518.771,727.10
1519.655,771.53
1520.537,709.57
1521.419,720.27
1522.300,715.17
1523.182,716.23
1524.063,748.77
1524.944,755.70
1525.825,735.70
1526.707,728.63
1527.588,720.37
1528.468,720.50
1529.349,671.67
1530.230,758.63
1531.111,728.43
1531.991,761.73
1532.872,667.33
1533.752,751.70
1534.632,733.97
1535.513,705.50
1536.393,698.27
1537.273,764.63
1538.153,689.40
1539.032,664.87
1539.912,701.80
1540.792,745.30
1541.672,706.20
1542.551,756.17
1543.430,760.10
1544.310,717.57
1545.189,707.73
1546.068,718.33
1546.947,700.87
1547.826,702.83
1548.705,746.63
1549.584,715.90
1550.462,721.87
1551.341,709.23
1552.219,712.87
1553.098,707.43
1553.976,726.43
1554.854,755.27
1555.733,727.60
1556.611,749.60
1557.489,685.90
1558.367,677.73
1559.244,682.57
1560.122,694.63
1561.000,725.20
1561.877,727.63
1562.755,688.00
1563.632,697.40
1564.509,728.73
1565.386,704.70
1566.264,657.30
1567.141,685.87
1568.017,701.90
1568.894,703.50
1569.771,710.23
1570.648,698.40
1571.524,699.80
1572.401,674.10
1573.277,688.77
1574.153,693.40
1575.029,666.40
1575.906,687.67
1576.781,704.07
1577.657,697.07
1578.533,699.73
1579.409,670.50
1580.285,709.80
1581.160,683.17
1582.036,713.33
1582.911,713.33
1583.786,708.93
1584.662,675.67
1585.537,661.67
1586.412,664.60
1587.287,649.70
1588.160,712.30
1589.035,659.20
1589.909,711.00
1590.784,678.07
1591.658,682.17
1592.533,689.53
1593.407,687.53
1594.281,649.40
1595.155,663.83
1596.029,639.87
1596.903,680.27
1597.777,690.70
1598.651,686.87
1599.525,667.60
1600.398,653.23
1601.272,687.23
1602.144,712.73
1603.017,643.00
1603.890,689.03
1604.763,683.53
1605.636,703.93
1606.509,631.17
1607.382,682.73
1608.255,689.53
1609.128,666.27
1610.000,678.57
1610.873,656.40
1611.746,675.67
1612.616,676.10
1613.488,643.50
1614.361,681.87
1615.233,673.10
1616.105,672.97
1616.977,680.90
1617.849,678.23
1618.720,692.97
1619.592,680.33
1620.464,697.70
1621.333,643.10
1622.205,675.70
1623.076,644.07
1623.947,660.57
1624.818,675.57
1625.689,670.03
1626.560,686.03
1627.431,673.17
1628.302,691.27
1629.171,699.70
1630.042,649.70
1630.912,677.67
1631.782,713.73
1632.653,647.97
1633.523,661.13
1634.393,668.37
1635.263,630.27
1636.131,662.40
1637.001,659.80
1637.871,655.70
1638.741,643.43
1639.611,664.30
1640.480,682.07
1641.350,682.43
1642.219,652.47
1643.087,632.10
1643.956,686.67
1644.825,676.73
1645.694,665.87
1646.563,654.97
1647.432,663.63
1648.299,688.37
1649.167,649.27
1650.036,622.97
1650.904,620.73
1651.773,663.77
1652.641,676.83
1653.509,638.20
1654.376,622.33
1655.244,652.90
1656.112,621.17
1656.980,636.93
1657.847,658.97
1658.715,638.77
1659.581,684.90
1660.448,664.13
1661.316,624.33
1662.183,632.03
1663.051,653.03
1663.918,666.33
1664.783,656.27
1665.650,663.50
1666.517,656.13
1667.384,617.07
1668.251,628.07
1669.115,660.30
1669.982,626.10
1670.849,669.40
1671.715,639.93
1672.581,629.57
1673.446,619.63
1674.312,619.90
1675.178,640.03
1676.044,631.03
1676.910,637.13
1677.774,657.33
1678.639,608.57
1679.505,619.57
1680.370,665.97
1681.236,662.67
1682.099,636.63
1682.965,632.43
1683.830,630.30
1684.695,614.33
1685.560,607.10
1686.423,630.90
1687.288,620.30
1688.153,637.30
1689.017,637.37
1689.880,623.23
1690.745,636.13
1691.609,635.13
1692.473,623.03
1693.338,640.60
1694.200,642.30
1695.064,636.73
1695.928,651.97
1696.792,623.27
1697.654,651.50
1698.517,626.03
1699.381,612.60
1700.245,638.33
1701.106,640.13
1701.969,663.83
1702.833,599.07
1703.696,614.70
1704.557,658.27
1705.420,629.77
1706.283,615.23
1707.146,610.37
1708.007,608.73
1708.870,608.40
1709.732,641.07
1710.595,620.43
1711.455,622.37
1712.318,648.20
1713.180,644.10
1714.040,617.87
1714.902,666.07
1715.764,645.27
1716.626,597.67
1717.486,666.83
1718.348,661.07
1719.209,296.50
1720.071,617.73
1720.930,599.53
1721.792,597.30
1722.653,632.07
1723.512,606.77
1724.374,642.63
1725.234,614.90
1726.095,655.03
1726.954,615.53
1727.815,584.40
1728.676,647.20
1729.535,622.47
1730.395,620.07
1731.256,626.53
1732.114,634.17
1732.974,591.77
1733.834,641.27
1734.693,605.00
1735.553,622.50
1736.413,606.93
1737.272,641.13
1738.130,619.17
1738.990,609.90
1739.849,596.00
1740.707,634.20
1741.566,614.70
1742.426,574.53
1743.283,619.90
1744.142,598.10
1745.001,610.03
1745.858,598.33
1746.717,628.53
1747.576,639.00
1748.433,653.27
1749.292,631.20
1750.150,636.67
1751.007,640.87
1751.865,624.87
1752.723,616.20
1753.579,635.70
1754.438,648.03
1755.296,603.67
1756.152,624.83
1757.010,580.07
1757.865,641.80
1758.723,595.03
1759.581,657.63
1760.436,606.97
1761.294,645.30
1762.151,593.23
1763.006,602.07
1763.864,627.17
1764.721,645.93
1765.576,622.70
1766.433,635.07
1767.288,635.67
1768.144,637.23
1769.001,613.20
1769.856,593.40
1770.712,622.90
1771.568,625.20
1772.423,610.53
1773.279,629.03
1774.133,577.60
1774.989,604.83
1775.845,623.33
1776.699,644.67
1777.555,612.73
1778.409,688.73
1779.265,601.93
1780.120,630.30
1780.974,615.90
1781.829,630.43
1782.682,583.80
1783.538,602.87
1784.393,619.90
1785.246,607.50
1786.101,623.33
1786.954,637.07
1787.808,554.03
1788.661,586.40
1789.516,609.30
1790.370,618.70
1791.223,644.87
1792.077,605.60
1792.930,635.57
1793.784,577.20
1794.636,641.97
1795.490,615.70
1796.344,614.23
1797.196,596.90
1798.049,587.97
1798.901,571.77
1799.755,640.10
1800.606,602.77
1801.460,589.73
1802.311,618.40
1803.165,620.67
1804.018,626.27
1804.869,604.40
1805.722,624.70
1806.573,585.17
1807.426,603.53
1808.276,582.90
1809.129,595.87
1809.980,619.07
1810.832,568.60
1811.683,637.63
1812.535,716.93
1813.385,561.47
1814.237,645.27
1815.089,642.73
1815.940,591.63
1816.791,570.43
1817.641,612.03
1818.493,630.00
1819.343,600.93
1820.194,592.13
1821.044,643.97
1821.895,617.43
1822.745,589.73
1823.596,586.90
1824.445,606.97
1825.296,619.07
1826.145,608.10
1826.996,604.27
1827.845,604.50
1828.695,558.03
1829.544,612.17
1830.395,618.30
1831.243,637.83
1832.094,582.90
1832.942,620.20
1833.792,647.83
1834.640,608.83
1835.490,599.47
1836.338,638.10
1837.186,593.07
1838.036,592.70
1838.884,552.60
1839.733,641.27
1840.581,583.17
1841.430,593.13
1842.278,573.50
1843.127,588.13
1843.974,581.93
1844.823,591.07
1845.671,634.63
1846.519,585.47
1847.366,612.03
1848.213,602.83
1849.062,597.23
1849.909,591.67
1850.757,628.13
1851.604,628.00
1852.452,584.97
1853.298,633.03
1854.146,612.47
1854.993,595.73
1855.839,610.67
1856.687,563.53
1857.532,606.50
1858.380,569.60
1859.226,578.70
1860.073,595.23
1860.919,551.60
1861.765,553.87
1862.612,625.90
1863.457,602.70
1864.304,588.53
1865.150,614.63
1865.995,566.70
1866.842,595.37
1867.686,601.57
1868.533,585.47
1869.378,605.33
1870.223,576.67
1871.069,628.67
1871.914,583.33
1872.760,569.87
1873.604,613.30
1874.448,602.97
1875.294,641.73
1876.139,555.37
1876.984,622.63
1877.828,580.60
1878.672,588.27
1879.518,568.50
1880.361,589.43
1881.205,619.23
1882.050,588.43
1882.894,596.77
1883.739,583.60
1884.582,600.87
1885.425,571.10
1886.270,559.10
1887.113,562.90
1887.956,574.33
1888.801,604.60
1889.644,564.63
1890.486,586.40
1891.331,599.00
1892.173,616.10
1893.017,583.00
1893.860,568.67
1894.702,595.20
1895.546,587.43
1896.388,600.13
1897.230,619.70
1898.074,594.07
1898.916,580.00
1899.757,553.90
1900.601,614.83
1901.443,625.57
1902.284,599.93
1903.125,563.00
1903.969,571.60
1904.810,568.60
1905.651,587.93
1906.494,596.43
1907.335,596.57
1908.176,597.30
1909.018,558.23
1909.859,647.57
1910.700,594.80
1911.542,605.43
1912.383,608.97
1913.223,571.63
1914.064,600.50
1914.906,590.70
1915.746,583.23
1916.586,534.40
1917.428,587.77
1918.268,595.73
1919.107,560.53
1919.947,565.63
1920.789,568.37
1921.628,585.50
1922.468,586.20
1923.309,620.30
1924.148,608.63
1924.988,565.80
1925.827,563.10
1926.667,552.77
1927.507,575.50
1928.345,558.40
1929.184,626.47
1930.025,615.73
1930.864,563.23
1931.702,573.13
1932.541,556.97
1933.381,626.00
1934.219,617.03
1935.057,574.93
1935.896,561.83
1936.735,584.80
1937.573,549.87
1938.411,575.60
1939.249,589.40
1940.089,548.20
1940.927,606.77
1941.764,591.83
1942.602,574.10
1943.439,588.70
1944.278,577.13
1945.115,586.47
1945.953,592.83
1946.790,599.03
1947.628,602.97
1948.465,599.47
1949.302,553.30
1950.139,600.37
1950.976,584.60
1951.814,589.67
1952.651,552.90
1953.487,579.57
1954.323,577.13
1955.160,589.00
1955.998,621.17
1956.834,590.03
1957.670,609.27
1958.506,566.17
1959.342,533.03
1960.177,597.00
1961.015,525.30
1961.850,612.67
1962.686,595.70
1963.521,560.33
1964.357,624.77
1965.192,574.77
1966.029,571.47
1966.864,608.67
1967.699,599.53
1968.534,602.30
1969.369,612.73
1970.204,588.57
1971.040,576.60
1971.875,554.73
1972.709,607.57
1973.544,577.97
1974.378,582.70
1975.212,568.97
1976.047,573.03
1976.882,580.87
1977.716,607.20
1978.550,564.17
1979.384,588.43
1980.218,582.03
1981.052,564.50
1981.885,587.47
1982.719,528.30
1983.554,560.40
1984.388,579.07
1985.221,574.80
1986.054,584.30
1986.887,585.60
1987.720,543.07
1988.553,586.37
1989.386,571.70
1990.219,614.47
1991.053,606.73
1991.886,569.97
1992.719,575.33
1993.551,543.97
1994.383,580.67
1995.216,560.77
1996.048,573.87
1996.880,593.10
1997.712,568.90
1998.544,590.47
1999.376,618.20
2000.208,619.53
2001.040,620.97
2001.873,569.30
2002.705,551.27
2003.536,568.67
2004.367,578.83
2005.199,595.73
2006.030,568.33
2006.861,575.60
2007.692,601.27
2008.523,547.20
2009.354,545.50
2010.185,569.30
2011.016,580.07
2011.846,649.83
2012.677,593.40
2013.507,553.93
2014.338,651.33
2015.168,586.27
2015.999,608.70
2016.829,557.93
2017.659,602.50
2018.489,559.00
2019.319,594.27
2020.149,561.30
2020.980,567.53
2021.810,557.03
2022.639,564.60
2023.469,555.53
2024.298,555.70
2025.128,544.17
2025.957,568.80
2026.786,538.30
2027.615,570.17
2028.444,617.73
2029.273,608.37
2030.102,559.67
2030.931,561.10
2031.758,595.57
2032.586,619.90
2033.415,597.97
2034.243,557.30
2035.072,554.03
2035.900,544.03
2036.728,583.80
2037.556,549.43
2038.385,569.60
2039.213,597.60
2040.040,576.83
2040.868,556.57
2041.696,594.40
2042.524,537.07
2043.351,546.10
2044.179,550.73
2045.006,535.63
2045.006,535.63

Max Intensity Wave.,219.929
Max Intensity Data,5973.80
Min Intensity Wave.,1123.206
Min Intensity Data,95.30
FWHM Wave.,387.253
FWHM Value,27.09
Pressure Wave.,684.671
Pressure Value [GPa],-24.91530
G/D Ratio,0.67865
G/D Gband Wave.,1543.065
G/D Gband Intensity,764.11
G/D Dband Wave.,1300.806
G/D Dband Intensity,1125.93

<< BACKGROUND SPECTRUM >>
Wave[dcm-1],No109
146.591,2261.00
147.626,2124.00
148.664,2062.00
149.699,2542.00
150.737,2276.00
151.772,2390.00
152.809,2416.00
153.846,2316.00
154.881,2404.00
155.918,1961.00
156.953,2276.00
157.989,2612.00
159.026,2436.00
160.060,2636.00
161.096,2867.00
162.130,2505.00
163.167,2596.00
164.200,2449.00
165.236,2665.00
166.272,2683.00
167.305,2282.00
168.341,2580.00
169.374,2763.00
170.409,2838.00
171.445,2727.00
172.477,2513.00
173.512,2373.00
174.545,2682.00
175.580,2888.00
176.614,3038.00
177.647,2787.00
178.681,3043.00
179.713,3341.00
180.747,2828.00
181.781,2717.00
182.813,3014.00
183.847,3079.00
184.878,2706.00
185.912,3049.00
186.945,3139.00
187.976,3068.00
189.010,2722.00
190.043,2841.00
191.073,2938.00
192.106,2726.00
193.137,3136.00
194.170,2557.00
195.202,2926.00
196.232,2705.00
197.265,3065.00
198.297,3108.00
199.327,2787.00
200.359,2964.00
201.388,3347.00
202.420,2890.00
203.452,3112.00
204.481,2699.00
205.512,3340.00
206.544,3103.00
207.573,3069.00
208.604,3409.00
209.635,3555.00
210.663,2968.00
211.694,2975.00
212.725,2851.00
213.753,2815.00
214.783,3378.00
215.813,3277.00
216.841,3014.00
217.871,3143.00
218.899,2926.00
219.929,3120.00
220.959,2878.00
221.986,3168.00
223.016,2790.00
224.045,3185.00
225.072,3184.00
226.101,3173.00
227.130,3241.00
228.157,2841.00
229.185,2354.00
230.214,3193.00
231.241,2842.00
232.269,2462.00
233.297,2687.00
234.323,3192.00
235.351,2842.00
236.379,3120.00
237.407,2748.00
238.433,2922.00
239.460,3096.00
240.488,3145.00
241.513,3212.00
242.540,3137.00
243.568,3185.00
244.592,3269.00
245.619,3198.00
246.646,2912.00
247.671,2946.00
248.697,2795.00
249.724,3018.00
250.748,3033.00
251.774,3021.00
252.801,3312.00
253.827,3107.00
254.850,3088.00
255.876,2698.00
256.902,3122.00
257.925,3005.00
258.951,2722.00
259.976,2797.00
260.999,3076.00
262.024,2797.00
263.049,3666.00
264.074,3105.00
265.097,3026.00
266.122,3116.00
267.146,3030.00
268.168,3216.00
269.193,2842.00
270.217,3204.00
271.241,2725.00
272.263,2961.00
273.287,3185.00
274.311,2801.00
275.332,3264.00
276.356,2843.00
277.379,3063.00
278.402,3123.00
279.424,2939.00
280.447,2912.00
281.470,2738.00
282.492,3074.00
283.513,2946.00
284.536,3163.00
285.558,3160.00
286.581,3125.00
287.601,2889.00
288.623,2785.00
289.645,3099.00
290.665,3124.00
291.687,3162.00
292.709,3146.00
293.730,3427.00
294.750,2915.00
295.771,2797.00
296.792,3065.00
297.813,2941.00
298.832,3055.00
299.853,2715.00
300.874,2998.00
301.895,2951.00
302.913,3031.00
303.934,3278.00
304.954,3015.00
305.975,3176.00
306.993,2763.00
308.013,3166.00
309.033,3029.00
310.052,2927.00
311.072,2873.00
312.090,3047.00
313.109,3293.00
314.129,3451.00
315.148,3015.00
316.165,3082.00
317.184,3262.00
318.203,2766.00
319.222,2778.00
320.238,3170.00
321.257,2832.00
322.275,2724.00
323.294,2992.00
324.312,3168.00
325.328,3276.00
326.346,3289.00
327.364,3224.00
328.382,3184.00
329.397,3120.00
330.415,3256.00
331.432,3215.00
332.450,3260.00
333.467,3469.00
334.482,2581.00
335.499,3380.00
336.516,2895.00
337.533,2577.00
338.547,2838.00
339.564,2887.00
340.580,3085.00
341.597,2971.00
342.613,3482.00
343.627,2956.00
344.643,3030.00
345.659,3087.00
346.675,2983.00
347.690,2937.00
348.704,3096.00
349.719,2920.00
350.735,2790.00
351.750,3202.00
352.765,3063.00
353.778,3009.00
354.793,3185.00
355.808,2864.00
356.822,3169.00
357.837,2634.00
358.851,3278.00
359.864,2963.00
360.878,2757.00
361.892,2946.00
362.906,3165.00
363.920,2608.00
364.932,3174.00
365.945,3103.00
366.959,3012.00
367.972,2911.00
368.986,2704.00
369.999,3401.00
371.010,2827.00
372.023,3364.00
373.036,2995.00
374.049,3404.00
375.061,3071.00
376.072,3026.00
377.084,2845.00
378.097,2699.00
379.109,3188.00
380.121,2975.00
381.133,2692.00
382.143,3146.00
383.155,2726.00
384.166,2897.00
385.178,3146.00
386.189,3224.00
387.201,2712.00
388.212,2940.00
389.221,2935.00
390.232,3025.00
391.243,2960.00
392.254,3044.00
393.264,2857.00
394.275,3231.00
395.283,3174.00
396.294,3629.00
397.304,3468.00
398.314,3126.00
399.324,3046.00
400.334,2644.00
401.344,3151.00
402.351,2724.00
403.361,3196.00
404.370,2980.00
405.380,2900.00
406.389,3355.00
407.398,3149.00
408.407,3069.00
409.414,3181.00
410.423,3272.00
411.431,2798.00
412.440,2678.00
413.448,3355.00
414.457,2902.00
415.465,2880.00
416.471,2904.00
417.479,3061.00
418.487,2834.00
419.495,3300.00
420.503,3124.00
421.510,2636.00
422.518,3135.00
423.525,3165.00
424.530,3433.00
425.537,2904.00
426.544,3221.00
427.551,2874.00
428.558,3591.00
429.565,3450.00
430.571,2873.00
431.578,2915.00
432.582,2848.00
433.588,2995.00
434.595,2589.00
435.601,3295.00
436.607,3238.00
437.612,2772.00
438.618,3327.00
439.624,2943.00
440.627,2923.00
441.633,3112.00
442.638,3625.00
443.643,3110.00
444.648,3055.00
445.653,3198.00
446.658,2877.00
447.663,3043.00
448.667,2888.00
449.672,2903.00
450.674,2984.00
451.678,2706.00
452.682,2890.00
453.687,2820.00
454.690,3579.00
455.694,3272.00
456.698,2540.00
457.702,2660.00
458.705,2808.00
459.709,2818.00
460.710,2876.00
461.713,3009.00
462.716,3117.00
463.719,2996.00
464.722,3205.00
465.725,2993.00
466.727,2839.00
467.730,3055.00
468.732,2784.00
469.735,3327.00
470.737,2902.00
471.737,2914.00
472.739,2923.00
473.741,2829.00
474.742,3038.00
475.744,3080.00
476.746,3064.00
477.747,2931.00
478.748,3187.00
479.750,2944.00
480.751,2988.00
481.752,3744.00
482.753,3123.00
483.751,3575.00
484.752,2617.00
485.753,2952.00
486.753,2865.00
487.753,3011.00
488.754,3431.00
489.754,2739.00
490.754,3297.00
491.754,3111.00
492.754,2715.00
493.753,3018.00
494.753,2879.00
495.752,3346.00
496.752,3043.00
497.749,2983.00
498.748,2864.00
499.747,3418.00
500.746,3096.00
501.745,2779.00
502.744,2794.00
503.742,3372.00
504.741,2920.00
505.739,2473.00
506.737,2895.00
507.735,3160.00
508.734,3369.00
509.732,3129.00
510.729,3335.00
511.727,2935.00
512.725,2905.00
513.720,2799.00
514.718,3211.00
515.715,2655.00
516.712,2655.00
517.709,3011.00
518.706,2906.00
519.703,3055.00
520.700,3202.00
521.696,3366.00
522.693,2903.00
523.689,2837.00
524.686,3183.00
525.682,2768.00
526.678,3509.00
527.674,2934.00
528.670,2591.00
529.666,3486.00
530.661,3456.00
531.657,3659.00
532.652,3161.00
533.648,3034.00
534.641,3205.00
535.636,3077.00
536.631,3086.00
537.626,3171.00
538.621,2753.00
539.616,2638.00
540.610,2519.00
541.605,3025.00
542.599,3074.00
543.593,3026.00
544.587,3929.00
545.581,2875.00
546.575,3059.00
547.569,3025.00
548.563,2689.00
549.557,2659.00
550.550,2778.00
551.543,2759.00
552.537,3186.00
553.530,2810.00
554.523,2782.00
555.516,3121.00
556.509,2958.00
557.502,2672.00
558.494,3164.00
559.487,2940.00
560.479,3154.00
561.472,3205.00
562.464,3144.00
563.456,3328.00
564.448,2944.00
565.440,3052.00
566.432,3406.00
567.423,2893.00
568.415,2873.00
569.404,3124.00
570.396,2817.00
571.387,3165.00
572.378,3006.00
573.369,3999.00
574.360,3689.00
575.351,2959.00
576.341,2855.00
577.332,2848.00
578.323,2690.00
579.313,2890.00
580.303,3294.00
581.293,3167.00
582.283,3021.00
583.273,3089.00
584.263,2996.00
585.253,3124.00
586.243,3155.00
587.232,2623.00
588.222,2955.00
589.211,3164.00
590.200,3076.00
591.189,2938.00
592.178,2990.00
593.167,3398.00
594.156,3233.00
595.145,2868.00
596.133,3472.00
597.122,3108.00
598.110,3216.00
599.098,3054.00
600.086,3008.00
601.074,3168.00
602.062,2861.00
603.050,2733.00
604.038,3093.00
605.025,2824.00
606.013,3201.00
607.000,3395.00
607.987,3026.00
608.975,3070.00
609.962,2796.00
610.949,3190.00
611.936,3290.00
612.922,3164.00
613.909,2705.00
614.895,3369.00
615.882,2833.00
616.868,3008.00
617.854,2788.00
618.841,2991.00
619.826,3095.00
620.812,2967.00
621.798,2764.00
622.784,3160.00
623.769,3090.00
624.755,2695.00
625.740,3035.00
626.725,2696.00
627.711,2857.00
628.698,3065.00
629.683,2807.00
630.667,3179.00
631.652,2781.00
632.637,2982.00
633.621,3166.00
634.606,2942.00
635.590,3139.00
636.574,2967.00
637.558,3089.00
638.542,3061.00
639.526,2845.00
640.510,2623.00
641.493,3050.00
642.477,2966.00
643.460,2731.00
644.444,3234.00
645.427,3286.00
646.410,2668.00
647.393,2969.00
648.376,3079.00
649.359,2892.00
650.341,3105.00
651.324,3084.00
652.307,3054.00
653.289,2947.00
654.271,2848.00
655.253,2886.00
656.235,3189.00
657.217,3257.00
658.199,2607.00
659.181,2748.00
660.163,3017.00
661.144,2899.00
662.126,2886.00
663.107,2823.00
664.088,4665.00
665.069,3262.00
666.050,2810.00
667.033,2712.00
668.014,3030.00
668.995,2591.00
669.975,2953.00
670.956,3001.00
671.936,3145.00
672.916,2977.00
673.896,3118.00
674.876,2923.00
675.856,2898.00
676.836,2759.00
677.816,2327.00
678.795,2817.00
679.775,2714.00
680.754,3017.00
681.734,3131.00
682.713,3174.00
683.692,2754.00
684.671,2641.00
685.650,2766.00
686.629,2883.00
687.607,2777.00
688.586,2788.00
689.564,2830.00
690.543,3244.00
691.523,2403.00
692.501,2787.00
693.479,2908.00
694.457,2837.00
695.435,2885.00
696.413,2670.00
697.390,2487.00
698.368,2700.00
699.345,3098.00
700.322,2942.00
701.300,3076.00
702.277,3054.00
703.254,3256.00
704.231,2593.00
705.207,2972.00
706.184,2784.00
707.161,2692.00
708.137,2845.00
709.113,2826.00
710.090,2809.00
711.068,2565.00
712.044,2616.00
713.020,2866.00
713.996,2612.00
714.971,2803.00
715.947,2862.00
716.922,2812.00
717.898,2736.00
718.873,2864.00
719.848,2734.00
720.823,2697.00
721.798,3024.00
722.773,2713.00
723.748,2512.00
724.723,3009.00
725.697,2802.00
726.672,2765.00
727.646,2498.00
728.622,3052.00
729.596,2606.00
730.570,2733.00
731.544,3071.00
732.518,3276.00
733.492,2836.00
734.466,2849.00
735.439,3018.00
736.413,3091.00
737.386,2464.00
738.359,2413.00
739.332,2519.00
740.305,2845.00
741.278,3302.00
742.251,2912.00
743.224,2750.00
744.196,2547.00
745.171,3106.00
746.143,3041.00
747.115,2761.00
748.087,2697.00
749.059,3091.00
750.031,2892.00
751.003,3667.00
751.975,3194.00
752.947,2695.00
753.918,3102.00
754.890,2572.00
755.861,2759.00
756.832,3069.00
757.803,2839.00
758.774,2801.00
759.747,2608.00
760.718,3211.00
761.689,2742.00
762.659,2630.00
763.630,3171.00
764.600,2572.00
765.570,3051.00
766.540,3172.00
767.510,2945.00
768.480,3027.00
769.450,2757.00
770.420,2831.00
771.390,2677.00
772.359,2791.00
773.329,2639.00
774.300,2518.00
775.269,2763.00
776.238,2982.00
777.207,3166.00
778.176,2486.00
779.145,2789.00
780.114,2682.00
781.083,2576.00
782.051,2769.00
783.019,2680.00
783.988,3063.00
784.956,2837.00
785.924,2961.00
786.894,2866.00
787.862,2753.00
788.830,3142.00
789.797,2634.00
790.765,2606.00
791.732,2760.00
792.700,2666.00
793.667,2568.00
794.634,2748.00
795.601,2720.00
796.568,2772.00
797.535,2800.00
798.502,3401.00
799.468,2924.00
800.437,2409.00
801.403,2608.00
802.370,3281.00
803.336,2971.00
804.302,2865.00
805.268,2430.00
806.234,2529.00
807.200,2738.00
808.166,2774.00
809.131,2583.00
810.097,2992.00
811.062,3647.00
812.027,3009.00
812.994,2613.00
813.960,2622.00
814.925,2988.00
815.889,2530.00
816.854,3047.00
817.819,2627.00
818.783,2757.00
819.748,3060.00
820.712,2740.00
821.677,2634.00
822.641,2702.00
823.605,2723.00
824.571,3148.00
825.534,2757.00
826.498,2681.00
827.462,2784.00
828.425,2603.00
829.389,3044.00
830.352,2830.00
831.315,2962.00
832.279,2489.00
833.242,2766.00
834.204,2641.00
835.167,2705.00
836.132,3056.00
837.095,2491.00
838.057,2700.00
839.020,2839.00
839.982,2830.00
840.944,2684.00
841.906,2623.00
842.868,2972.00
843.830,2527.00
844.792,3076.00
845.753,2693.00
846.715,2434.00
847.679,2592.00
848.640,2594.00
849.601,2732.00
850.562,3246.00
851.523,2721.00
852.484,2476.00
853.445,3029.00
854.406,2676.00
855.367,2705.00
856.327,3047.00
857.288,2485.00
858.248,2703.00
859.210,2717.00
860.170,2558.00
861.130,3059.00
862.090,2446.00
863.050,2626.00
864.010,2710.00
864.969,2881.00
865.929,2598.00
866.888,2505.00
867.848,2813.00
868.807,2669.00
869.766,2843.00
870.727,2712.00
871.686,2998.00
872.645,3014.00
873.604,3311.00
874.562,2767.00
875.521,2796.00
876.479,3328.00
877.437,2581.00
878.396,2571.00
879.354,3134.00
880.312,2613.00
881.270,2677.00
882.229,3102.00
883.187,2607.00
884.145,2664.00
885.102,2930.00
886.059,2838.00
887.017,2933.00
887.974,2987.00
888.931,3084.00
889.888,2488.00
890.845,2481.00
891.802,2326.00
892.758,2634.00
893.717,2425.00
894.673,2569.00
895.630,2623.00
896.586,2912.00
897.542,2685.00
898.498,2523.00
899.454,2835.00
900.410,2670.00
901.366,2661.00
902.321,3759.00
903.277,2699.00
904.232,2771.00
905.189,2501.00
906.145,2686.00
907.100,2231.00
908.055,2714.00
909.010,2935.00
909.965,2326.00
910.919,2772.00
911.874,2595.00
912.828,2777.00
913.783,2803.00
914.737,2341.00
915.693,2776.00
916.648,2926.00
917.602,2911.00
918.555,2798.00
919.509,2838.00
920.463,2780.00
921.417,2772.00
922.370,2594.00
923.324,2692.00
924.277,2645.00
925.230,2756.00
926.183,2440.00
927.138,2677.00
928.091,2952.00
929.044,2846.00
929.996,2672.00
930.949,2684.00
931.902,2843.00
932.854,2840.00
933.806,2605.00
934.758,2996.00
935.711,2996.00
936.663,2819.00
937.614,2784.00
938.568,2738.00
939.520,2412.00
940.471,2721.00
941.423,2778.00
942.374,2893.00
943.326,2760.00
944.277,2625.00
945.228,2830.00
946.179,2713.00
947.130,3078.00
948.080,2628.00
949.031,2598.00
949.984,2689.00
950.934,2738.00
951.884,2465.00
952.835,2708.00
953.785,2729.00
954.735,2626.00
955.685,2364.00
956.635,2654.00
957.585,2620.00
958.534,2627.00
959.484,2769.00
960.433,2604.00
961.383,2424.00
962.334,2956.00
963.283,2775.00
964.232,2858.00
965.181,2741.00
966.130,2773.00
967.079,2625.00
968.027,2739.00
968.976,2732.00
969.924,2595.00
970.873,2810.00
971.821,2747.00
972.769,2938.00
973.719,2864.00
974.667,2470.00
975.615,2756.00
976.562,2703.00
977.510,2404.00
978.458,2629.00
979.405,2840.00
980.352,2813.00
981.300,2998.00
982.247,2792.00
983.194,2559.00
984.141,2609.00
985.088,2683.00
986.036,2760.00
986.983,3029.00
987.930,3134.00
988.876,2366.00
989.822,2955.00
990.769,2528.00
991.715,2626.00
992.661,2436.00
993.607,2800.00
994.553,3275.00
995.498,2568.00
996.444,2273.00
997.389,2768.00
998.337,2557.00
999.282,2862.00
1000.227,2660.00
1001.173,2674.00
1002.118,2436.00
1003.062,2911.00
1004.007,2660.00
1004.952,2969.00
1005.897,2916.00
1006.841,2692.00
1007.786,2427.00
1008.730,2464.00
1009.674,3147.00
1010.618,2685.00
1011.564,2485.00
1012.508,2386.00
1013.452,2949.00
1014.396,2722.00
1015.339,2619.00
1016.283,2682.00
1017.226,2753.00
1018.170,2711.00
1019.113,2921.00
1020.056,2723.00
1020.999,2712.00
1021.942,2623.00
1022.885,2834.00
1023.828,2975.00
1024.770,2498.00
1025.715,2781.00
1026.657,2691.00
1027.600,2729.00
1028.542,2927.00
1029.484,2760.00
1030.426,2810.00
1031.368,2803.00
1032.310,2547.00
1033.251,2518.00
1034.193,2721.00
1035.135,2513.00
1036.076,2643.00
1037.017,2527.00
1037.959,2808.00
1038.900,2755.00
1039.843,2806.00
1040.784,2750.00
1041.725,2767.00
1042.665,2596.00
1043.606,2750.00
1044.547,2752.00
1045.487,2380.00
1046.427,2667.00
1047.368,2784.00
1048.308,2225.00
1049.248,2533.00
1050.188,2688.00
1051.128,2643.00
1052.067,2697.00
1053.007,2415.00
1053.947,2390.00
1054.886,2557.00
1055.827,2507.00
1056.766,2943.00
1057.706,2443.00
1058.645,2665.00
1059.584,2719.00
1060.522,3003.00
1061.461,2478.00
1062.400,2483.00
1063.338,2650.00
1064.277,2527.00
1065.215,2491.00
1066.154,2409.00
1067.092,2614.00
1068.030,2632.00
1068.968,2866.00
1069.906,3042.00
1070.843,2995.00
1071.781,2716.00
1072.720,2816.00
1073.658,2820.00
1074.595,2604.00
1075.533,2590.00
1076.470,2552.00
1077.407,2989.00
1078.344,2756.00
1079.281,2816.00
1080.217,2305.00
1081.154,2672.00
1082.091,2742.00
1083.027,2481.00
1083.964,2932.00
1084.900,2575.00
1085.836,2609.00
1086.772,2897.00
1087.708,2459.00
1088.644,2841.00
1089.580,2691.00
1090.515,2742.00
1091.451,2590.00
1092.388,2726.00
1093.324,2435.00
1094.259,3238.00
1095.194,2729.00
1096.129,2620.00
1097.064,2581.00
1097.999,2814.00
1098.934,2513.00
1099.869,2574.00
1100.803,2696.00
1101.738,2694.00
1102.672,2421.00
1103.607,2786.00
1104.541,2573.00
1105.475,2548.00
1106.409,2432.00
1107.343,2602.00
1108.277,2400.00
1109.210,2714.00
1110.144,2652.00
1111.078,2660.00
1112.011,2476.00
1112.944,2780.00
1113.878,2729.00
1114.811,2185.00
1115.744,2577.00
1116.678,2309.00
1117.611,2548.00
1118.544,2615.00
1119.477,2798.00
1120.409,2554.00
1121.342,3114.00
1122.274,2728.00
1123.206,4235.00
1124.138,2721.00
1125.070,2985.00
1126.002,2789.00
1126.934,2316.00
1127.866,2571.00
1128.798,2318.00
1129.729,2371.00
1130.661,2634.00
1131.592,2565.00
1132.523,2782.00
1133.454,2733.00
1134.385,2306.00
1135.317,2669.00
1136.247,2586.00
1137.178,2864.00
1138.109,2343.00
1139.039,3004.00
1139.970,2834.00
1140.900,2584.00
1141.831,2312.00
1142.761,2251.00
1143.691,2737.00
1144.621,2657.00
1145.551,2692.00
1146.480,2693.00
1147.410,2807.00
1148.340,2318.00
1149.269,2371.00
1150.199,2604.00
1151.128,3082.00
1152.057,2426.00
1152.979,2604.00
1153.898,2635.00
1154.819,2716.00
1155.739,2609.00
1156.658,2557.00
1157.579,2689.00
1158.498,2643.00
1159.419,2188.00
1160.338,2702.00
1161.256,2715.00
1162.177,2491.00
1163.095,2631.00
1164.016,2688.00
1164.934,2868.00
1165.852,2831.00
1166.772,2626.00
1167.690,2658.00
1168.610,2672.00
1169.528,2616.00
1170.446,2178.00
1171.365,2553.00
1172.283,2488.00
1173.202,2641.00
1174.120,2640.00
1175.037,2485.00
1175.956,2486.00
1176.873,2496.00
1177.792,2530.00
1178.709,3104.00
1179.626,2510.00
1180.544,2836.00
1181.461,2488.00
1182.379,2737.00
1183.296,2589.00
1184.212,2284.00
1185.130,2481.00
1186.046,2973.00
1186.962,2599.00
1187.880,2886.00
1188.796,2701.00
1189.714,2446.00
1190.629,2763.00
1191.545,2698.00
1192.462,2577.00
1193.378,2602.00
1194.295,2356.00
1195.210,2638.00
1196.125,2728.00
1197.042,2727.00
1197.957,2636.00
1198.872,2529.00
1199.788,2512.00
1200.703,2949.00
1201.619,2658.00
1202.534,2473.00
1203.448,2706.00
1204.364,2605.00
1205.278,2307.00
1206.192,2660.00
1207.108,3138.00
1208.022,2969.00
1208.938,2462.00
1209.851,2786.00
1210.765,2840.00
1211.680,2568.00
1212.594,2431.00
1213.507,2588.00
1214.422,3033.00
1215.335,2713.00
1216.248,2557.00
1217.163,2618.00
1218.076,3248.00
1218.990,2710.00
1219.903,2402.00
1220.816,2499.00
1221.730,2616.00
1222.642,2521.00
1223.554,2533.00
1224.469,2677.00
1225.380,2579.00
1226.292,2316.00
1227.206,2739.00
1228.118,2951.00
1229.032,2287.00
1229.943,2482.00
1230.855,2605.00
1231.768,2374.00
1232.679,2711.00
1233.590,2618.00
1234.503,2825.00
1235.414,2483.00
1236.325,2517.00
1237.238,2691.00
1238.149,2717.00
1239.059,2443.00
1239.972,2846.00
1240.882,2430.00
1241.793,2738.00
1242.705,2983.00
1243.615,2566.00
1244.525,2729.00
1245.437,2193.00
1246.347,2652.00
1247.259,2795.00
1248.168,3077.00
1249.078,2851.00
1249.989,2887.00
1250.899,2425.00
1251.808,2455.00
1252.719,2594.00
1253.628,2495.00
1254.537,3026.00
1255.448,2454.00
1256.357,2474.00
1257.266,2628.00
1258.176,2358.00
1259.085,2356.00
1259.993,2472.00
1260.904,2464.00
1261.812,2464.00
1262.720,3217.00
1263.630,2821.00
1264.538,2469.00
1265.446,2725.00
1266.356,2612.00
1267.263,2907.00
1268.171,2415.00
1269.080,2719.00
1269.988,2783.00
1270.895,2569.00
1271.804,2587.00
1272.711,2791.00
1273.619,2795.00
1274.527,2419.00
1275.434,2742.00
1276.341,2443.00
1277.248,2686.00
1278.156,2927.00
1279.063,2506.00
1279.969,2741.00
1280.877,3486.00
1281.783,2829.00
1282.690,2702.00
1283.598,2601.00
1284.503,2498.00
1285.409,2484.00
1286.317,2987.00
1287.223,3024.00
1288.128,2686.00
1289.036,2484.00
1289.941,2564.00
1290.846,2630.00
1291.751,2472.00
1292.658,2548.00
1293.563,3072.00
1294.468,2616.00
1295.375,2808.00
1296.280,2856.00
1297.184,3312.00
1298.091,2733.00
1298.995,2784.00
1299.900,3001.00
1300.806,2509.00
1301.710,2385.00
1302.614,2203.00
1303.518,2872.00
1304.424,2579.00
1305.327,2834.00
1306.231,2602.00
1307.137,2770.00
1308.040,2689.00
1308.943,2642.00
1309.847,2853.00
1310.752,2812.00
1311.655,2289.00
1312.558,2422.00
1313.463,2545.00
1314.366,2514.00
1315.269,2673.00
1316.171,2618.00
1317.076,2521.00
1317.978,2434.00
1318.881,2245.00
1319.785,2490.00
1320.687,2516.00
1321.589,2230.00
1322.491,2472.00
1323.395,2682.00
1324.297,3164.00
1325.198,2756.00
1326.102,2421.00
1327.004,2424.00
1327.905,3037.00
1328.806,2576.00
1329.709,2681.00
1330.611,2563.00
1331.512,2441.00
1332.413,3059.00
1333.316,2684.00
1334.216,2791.00
1335.117,2406.00
1336.020,2642.00
1336.920,2630.00
1337.821,2524.00
1338.721,2883.00
1339.623,2668.00
1340.523,2605.00
1341.423,2509.00
1342.323,2881.00
1343.225,2706.00
1344.125,2488.00
1345.025,2490.00
1345.924,2291.00
1346.826,2991.00
1347.725,3085.00
1348.624,2849.00
1349.524,2488.00
1350.425,2587.00
1351.324,2690.00
1352.223,2774.00
1353.121,2615.00
1354.022,2816.00
1354.921,3006.00
1355.819,2724.00
1356.718,2648.00
1357.618,2383.00
1358.516,2773.00
1359.415,2985.00
1360.313,2712.00
1361.213,2565.00
1362.111,2894.00
1363.008,3258.00
1363.906,2611.00
1364.806,2640.00
1365.703,2747.00
1366.601,2492.00
1367.498,2485.00
1368.397,2819.00
1369.295,2680.00
1370.192,2459.00
1371.089,2693.00
1371.987,2607.00
1372.884,2867.00
1373.781,2412.00
1374.678,2634.00
1375.574,2475.00
1376.473,2743.00
1377.369,2799.00
1378.265,2480.00
1379.161,2576.00
1380.059,2355.00
1380.955,2742.00
1381.851,2414.00
1382.747,2544.00
1383.643,2584.00
1384.540,2375.00
1385.436,2529.00
1386.331,2696.00
1387.227,2788.00
1388.124,2733.00
1389.019,2443.00
1389.914,2602.00
1390.809,2305.00
1391.704,3060.00
1392.601,2550.00
1393.495,2915.00
1394.390,2772.00
1395.285,2862.00
1396.179,2708.00
1397.075,2609.00
1397.969,2702.00
1398.864,2328.00
1399.758,2577.00
1400.652,2693.00
1401.547,2447.00
1402.441,2365.00
1403.335,2964.00
1404.229,2794.00
1405.122,2710.00
1406.017,2635.00
1406.911,2766.00
1407.804,3052.00
1408.697,2636.00
1409.590,2473.00
1410.485,2786.00
1411.378,2712.00
1412.271,2356.00
1413.163,2712.00
1414.056,2775.00
1414.949,2989.00
1415.843,2656.00
1416.735,2600.00
1417.627,2664.00
1418.520,2575.00
1419.412,2834.00
1420.306,2777.00
1421.197,2916.00
1422.089,2820.00
1422.981,3111.00
1423.873,2792.00
1424.764,2774.00
1425.657,2684.00
1426.549,2741.00
1427.440,2787.00
1428.331,2580.00
1429.222,2316.00
1430.113,2664.00
1431.006,2859.00
1431.897,2534.00
1432.787,2653.00
1433.678,2592.00
1434.568,2437.00
1435.459,2866.00
1436.351,2796.00
1437.241,2779.00
1438.131,2785.00
1439.021,2359.00
1439.911,2596.00
1440.801,2705.00
1441.693,2898.00
1442.583,2682.00
1443.472,2630.00
1444.362,2757.00
1445.251,2566.00
1446.140,2597.00
1447.030,2864.00
1447.921,2865.00
1448.810,2487.00
1449.699,2996.00
1450.588,2694.00
1451.476,2552.00
1452.365,2743.00
1453.254,2510.00
1454.144,2541.00
1455.032,2757.00
1455.921,2397.00
1456.809,2919.00
1457.697,2456.00
1458.585,2566.00
1459.473,2587.00
1460.361,2490.00
1461.251,2714.00
1462.138,2724.00
1463.026,2568.00
1463.913,2903.00
1464.801,2569.00
1465.688,2705.00
1466.575,2685.00
1467.463,3092.00
1468.351,2491.00
1469.238,2610.00
1470.125,2258.00
1471.012,2735.00
1471.899,2745.00
1472.785,2471.00
1473.672,2688.00
1474.558,2865.00
1475.446,2814.00
1476.333,2790.00
1477.219,2475.00
1478.105,2608.00
1478.991,2606.00
1479.877,2944.00
1480.762,2621.00
1481.648,2546.00
1482.534,2777.00
1483.419,2740.00
1484.307,2757.00
1485.192,2614.00
1486.077,2548.00
1486.962,2523.00
1487.847,2400.00
1488.732,2478.00
1489.617,2644.00
1490.502,2876.00
1491.387,2787.00
1492.271,2481.00
1493.156,2480.00
1494.042,2465.00
1494.927,2837.00
1495.811,2531.00
1496.695,2827.00
1497.579,2896.00
1498.463,2674.00
1499.347,2687.00
1500.231,2703.00
1501.114,2739.00
1501.998,2876.00
1502.881,2689.00
1503.765,2902.00
1504.648,3086.00
1505.533,2794.00
1506.417,2676.00
1507.300,2611.00
1508.183,2737.00
1509.066,2168.00
1509.948,2904.00
1510.831,3032.00
1511.714,2439.00
1512.596,2783.00
1513.479,2900.00
1514.361,2849.00
1515.243,2648.00
1516.125,2782.00
1517.008,2903.00
1517.890,2580.00
1518.771,2690.00
1519.655,2832.00
1520.537,2621.00
1521.419,2494.00
1522.300,2720.00
1523.182,2809.00
1524.063,2781.00
1524.944,2930.00
1525.825,2832.00
1526.707,2464.00
1527.588,2451.00
1528.468,2751.00
1529.349,2372.00
1530.230,2541.00
1531.111,2828.00
1531.991,2675.00
1532.872,2418.00
1533.752,2588.00
1534.632,2503.00
1535.513,2525.00
1536.393,2838.00
1537.273,2936.00
1538.153,3308.00
1539.032,2450.00
1539.912,2655.00
1540.792,2649.00
1541.672,2689.00
1542.551,2741.00
1543.430,3212.00
1544.310,2682.00
1545.189,2563.00
1546.068,3082.00
1546.947,2771.00
1547.826,2992.00
1548.705,2625.00
1549.584,2879.00
1550.462,2592.00
1551.341,2834.00
1552.219,2733.00
1553.098,2791.00
1553.976,2850.00
1554.854,3020.00
1555.733,2848.00
1556.611,2550.00
1557.489,2474.00
1558.367,2685.00
1559.244,2853.00
1560.122,2657.00
1561.000,2728.00
1561.877,2945.00
1562.755,2551.00
1563.632,2638.00
1564.509,2899.00
1565.386,3040.00
1566.264,2455.00
1567.141,2287.00
1568.017,2813.00
1568.894,2647.00
1569.771,2704.00
1570.648,2771.00
1571.524,2683.00
1572.401,2435.00
1573.277,2438.00
1574.153,2721.00
1575.029,2547.00
1575.906,3395.00
1576.781,2818.00
1577.657,2588.00
1578.533,2906.00
1579.409,2315.00
1580.285,2610.00
1581.160,3096.00
1582.036,2813.00
1582.911,2457.00
1583.786,3002.00
1584.662,2461.00
1585.537,2648.00
1586.412,2734.00
1587.287,2534.00
1588.160,2824.00
1589.035,2330.00
1589.909,2664.00
1590.784,2648.00
1591.658,2453.00
1592.533,2720.00
1593.407,2680.00
1594.281,2589.00
1595.155,3097.00
1596.029,2618.00
1596.903,2617.00
1597.777,2569.00
1598.651,2915.00
1599.525,2374.00
1600.398,2724.00
1601.272,2615.00
1602.144,3187.00
1603.017,2659.00
1603.890,2909.00
1604.763,2749.00
1605.636,2794.00
1606.509,2407.00
1607.382,2498.00
1608.255,2735.00
1609.128,2886.00
1610.000,2629.00
1610.873,2386.00
1611.746,2569.00
1612.616,2602.00
1613.488,2284.00
1614.361,2666.00
1615.233,2621.00
1616.105,2898.00
1616.977,2568.00
1617.849,2508.00
1618.720,2964.00
1619.592,2974.00
1620.464,2728.00
1621.333,3169.00
1622.205,2661.00
1623.076,2664.00
1623.947,2661.00
1624.818,2905.00
1625.689,2790.00
1626.560,2567.00
1627.431,2720.00
1628.302,3054.00
1629.171,2766.00
1630.042,3004.00
1630.912,3315.00
1631.782,3216.00
1632.653,2493.00
1633.523,2841.00
1634.393,2933.00
1635.263,2570.00
1636.131,2660.00
1637.001,2599.00
1637.871,2299.00
1638.741,2323.00
1639.611,2408.00
1640.480,2768.00
1641.350,2514.00
1642.219,2495.00
1643.087,2186.00
1643.956,3088.00
1644.825,2912.00
1645.694,2872.00
1646.563,2834.00
1647.432,2733.00
1648.299,2668.00
1649.167,2821.00
1650.036,2516.00
1650.904,2829.00
1651.773,2894.00
1652.641,2660.00
1653.509,2866.00
1654.376,2560.00
1655.244,2702.00
1656.112,2748.00
1656.980,2693.00
1657.847,2533.00
1658.715,2876.00
1659.581,2549.00
1660.448,2901.00
1661.316,2203.00
1662.183,2718.00
1663.051,2724.00
1663.918,2695.00
1664.783,2675.00
1665.650,2755.00
1666.517,2844.00
1667.384,2728.00
1668.251,2738.00
1669.115,2902.00
1669.982,2655.00
1670.849,2940.00
1671.715,2657.00
1672.581,2833.00
1673.446,2813.00
1674.312,2730.00
1675.178,3100.00
1676.044,2794.00
1676.910,2767.00
1677.774,2695.00
1678.639,2360.00
1679.505,2689.00
1680.370,2804.00
1681.236,3310.00
1682.099,2639.00
1682.965,2712.00
1683.830,2287.00
1684.695,2528.00
1685.560,2636.00
1686.423,2831.00
1687.288,2832.00
1688.153,2719.00
1689.017,2604.00
1689.880,2773.00
1690.745,2834.00
1691.609,2512.00
1692.473,2850.00
1693.338,2904.00
1694.200,2950.00
1695.064,2696.00
1695.928,2573.00
1696.792,2701.00
1697.654,3177.00
1698.517,2729.00
1699.381,2437.00
1700.245,2330.00
1701.106,2971.00
1701.969,2542.00
1702.833,2871.00
1703.696,2615.00
1704.557,2629.00
1705.420,2547.00
1706.283,2716.00
1707.146,2862.00
1708.007,2511.00
1708.870,2503.00
1709.732,2346.00
1710.595,2588.00
1711.455,2453.00
1712.318,2583.00
1713.180,2939.00
1714.040,2748.00
1714.902,2832.00
1715.764,2674.00
1716.626,2491.00
1717.486,2626.00
1718.348,2924.00
1719.209,4777.00
1720.071,2356.00
1720.930,2458.00
1721.792,2560.00
1722.653,2508.00
1723.512,2599.00
1724.374,2616.00
1725.234,2752.00
1726.095,2681.00
1726.954,2696.00
1727.815,2859.00
1728.676,2656.00
1729.535,2920.00
1730.395,2663.00
1731.256,2589.00
1732.114,2735.00
1732.974,2193.00
1733.834,3049.00
1734.693,2871.00
1735.553,2714.00
1736.413,3126.00
1737.272,2550.00
1738.130,2610.00
1738.990,2799.00
1739.849,2601.00
1740.707,3696.00
1741.566,2732.00
1742.426,2780.00
1743.283,3095.00
1744.142,2599.00
1745.001,2368.00
1745.858,2888.00
1746.717,2768.00
1747.576,2778.00
1748.433,2815.00
1749.292,3280.00
1750.150,3321.00
1751.007,2868.00
1751.865,2896.00
1752.723,2719.00
1753.579,2600.00
1754.438,2898.00
1755.296,2925.00
1756.152,2236.00
1757.010,2403.00
1757.865,2880.00
1758.723,2369.00
1759.581,2990.00
1760.436,2688.00
1761.294,3019.00
1762.151,2709.00
1763.006,2623.00
1763.864,2316.00
1764.721,2865.00
1765.576,2695.00
1766.433,2847.00
1767.288,2570.00
1768.144,2728.00
1769.001,2650.00
1769.856,2810.00
1770.712,2911.00
1771.568,2472.00
1772.423,2609.00
1773.279,2572.00
1774.133,2624.00
1774.989,3110.00
1775.845,3077.00
1776.699,2910.00
1777.555,2673.00
1778.409,3157.00
1779.265,2641.00
1780.120,2631.00
1780.974,2680.00
1781.829,2282.00
1782.682,2783.00
1783.538,2530.00
1784.393,2742.00
1785.246,2588.00
1786.101,2796.00
1786.954,2798.00
1787.808,2964.00
1788.661,2417.00
1789.516,2609.00
1790.370,2617.00
1791.223,2868.00
1792.077,2697.00
1792.930,2770.00
1793.784,2590.00
1794.636,2690.00
1795.490,2653.00
1796.344,2715.00
1797.196,2692.00
1798.049,2884.00
1798.901,2625.00
1799.755,2906.00
1800.606,2494.00
1801.460,3257.00
1802.311,3009.00
1803.165,3107.00
1804.018,3033.00
1804.869,2784.00
1805.722,3150.00
1806.573,2762.00
1807.426,2531.00
1808.276,2719.00
1809.129,2597.00
1809.980,2897.00
1810.832,3029.00
1811.683,2599.00
1812.535,2938.00
1813.385,2667.00
1814.237,2946.00
1815.089,2703.00
1815.940,3002.00
1816.791,2684.00
1817.641,2555.00
1818.493,2829.00
1819.343,2779.00
1820.194,2585.00
1821.044,2776.00
1821.895,2914.00
1822.745,2435.00
1823.596,2614.00
1824.445,3118.00
1825.296,2793.00
1826.145,2645.00
1826.996,2907.00
1827.845,2740.00
1828.695,2801.00
1829.544,2687.00
1830.395,2730.00
1831.243,2595.00
1832.094,2449.00
1832.942,3302.00
1833.792,2778.00
1834.640,2769.00
1835.490,2699.00
1836.338,2734.00
1837.186,2596.00
1838.036,2572.00
1838.884,2738.00
1839.733,2994.00
1840.581,2908.00
1841.430,2848.00
1842.278,3073.00
1843.127,2605.00
1843.974,2400.00
1844.823,3144.00
1845.671,2840.00
1846.519,2734.00
1847.366,2774.00
1848.213,2344.00
1849.062,2525.00
1849.909,2440.00
1850.757,3348.00
1851.604,2804.00
1852.452,2644.00
1853.298,2858.00
1854.146,2749.00
1854.993,2753.00
1855.839,3224.00
1856.687,2853.00
1857.532,2820.00
1858.380,2735.00
1859.226,2806.00
1860.073,2833.00
1860.919,2586.00
1861.765,2637.00
1862.612,2934.00
1863.457,2920.00
1864.304,2655.00
1865.150,2813.00
1865.995,2703.00
1866.842,2828.00
1867.686,2952.00
1868.533,2786.00
1869.378,2755.00
1870.223,2750.00
1871.069,2573.00
1871.914,2752.00
1872.760,2721.00
1873.604,2478.00
1874.448,2861.00
1875.294,2843.00
1876.139,2608.00
1876.984,2818.00
1877.828,2369.00
1878.672,2215.00
1879.518,2610.00
1880.361,2892.00
1881.205,2857.00
1882.050,2511.00
1882.894,3218.00
1883.739,2576.00
1884.582,2468.00
1885.425,2558.00
1886.270,3002.00
1887.113,2476.00
1887.956,2829.00
1888.801,2757.00
1889.644,2545.00
1890.486,2309.00
1891.331,2636.00
1892.173,2743.00
1893.017,2798.00
1893.860,3026.00
1894.702,3010.00
1895.546,2736.00
1896.388,3414.00
1897.230,3057.00
1898.074,2609.00
1898.916,2504.00
1899.757,2581.00
1900.601,3380.00
1901.443,3015.00
1902.284,3039.00
1903.125,3204.00
1903.969,2926.00
1904.810,2980.00
1905.651,2811.00
1906.494,3039.00
1907.335,3177.00
1908.176,2828.00
1909.018,2849.00
1909.859,2619.00
1910.700,2574.00
1911.542,3235.00
1912.383,2772.00
1913.223,2358.00
1914.064,2838.00
1914.906,2989.00
1915.746,3075.00
1916.586,3249.00
1917.428,2712.00
1918.268,2761.00
1919.107,2643.00
1919.947,2491.00
1920.789,2667.00
1921.628,2976.00
1922.468,2719.00
1923.309,2535.00
1924.148,3011.00
1924.988,2814.00
1925.827,2724.00
1926.667,2631.00
1927.507,2786.00
1928.345,2578.00
1929.184,2852.00
1930.025,2512.00
1930.864,2998.00
1931.702,3049.00
1932.541,2656.00
1933.381,2821.00
1934.219,2852.00
1935.057,3049.00
1935.896,2451.00
1936.735,2704.00
1937.573,2655.00
1938.411,2528.00
1939.249,2902.00
1940.089,2647.00
1940.927,2964.00
1941.764,3014.00
1942.602,2652.00
1943.439,2628.00
1944.278,2706.00
1945.115,2660.00
1945.953,2457.00
1946.790,2789.00
1947.628,3068.00
1948.465,2828.00
1949.302,2908.00
1950.139,2855.00
1950.976,2603.00
1951.814,2893.00
1952.651,2817.00
1953.487,2524.00
1954.323,2991.00
1955.160,2706.00
1955.998,3058.00
1956.834,2703.00
1957.670,2773.00
1958.506,2978.00
1959.342,2876.00
1960.177,2776.00
1961.015,2926.00
1961.850,2755.00
1962.686,2773.00
1963.521,2813.00
1964.357,2988.00
1965.192,2520.00
1966.029,2906.00
1966.864,2634.00
1967.699,2950.00
1968.534,2757.00
1969.369,2981.00
1970.204,2677.00
1971.040,2777.00
1971.875,2693.00
1972.709,2751.00
1973.544,2567.00
1974.378,2626.00
1975.212,2863.00
1976.047,2634.00
1976.882,2603.00
1977.716,3119.00
1978.550,2460.00
1979.384,2666.00
1980.218,2696.00
1981.052,2683.00
1981.885,2763.00
1982.719,2788.00
1983.554,2913.00
1984.388,3061.00
1985.221,2831.00
1986.054,2990.00
1986.887,2788.00
1987.720,2602.00
1988.553,3051.00
1989.386,2850.00
1990.219,2856.00
1991.053,3025.00
1991.886,2604.00
1992.719,2954.00
1993.551,2293.00
1994.383,2884.00
1995.216,2679.00
1996.048,2449.00
1996.880,2909.00
1997.712,2627.00
1998.544,2729.00
1999.376,2790.00
2000.208,2994.00
2001.040,3162.00
2001.873,2574.00
2002.705,2586.00
2003.536,2813.00
2004.367,2788.00
2005.199,2776.00
2006.030,2637.00
2006.861,2549.00
2007.692,2747.00
2008.523,2624.00
2009.354,2821.00
2010.185,2562.00
2011.016,2891.00
2011.846,2903.00
2012.677,2669.00
2013.507,3126.00
2014.338,2913.00
2015.168,2658.00
2015.999,3254.00
2016.829,2703.00
2017.659,2956.00
2018.489,3306.00
2019.319,2541.00
2020.149,2941.00
2020.980,2795.00
2021.810,2576.00
2022.639,2648.00
2023.469,2654.00
2024.298,2458.00
2025.128,2399.00
2025.957,2381.00
2026.786,2228.00
2027.615,2401.00
2028.444,2561.00
2029.273,2747.00
2030.102,2371.00
2030.931,2620.00
2031.758,2879.00
2032.586,2503.00
2033.415,2598.00
2034.243,2238.00
2035.072,2029.00
2035.900,2531.00
2036.728,2315.00
2037.556,2397.00
2038.385,2384.00
2039.213,2162.00
2040.040,2171.00
2040.868,2158.00
2041.696,2186.00
2042.524,2252.00
2043.351,2441.00
2044.179,2227.00
2045.006,2033.00
