RamanScope Measure Spectrum Data V3.72

<< MEASURE CONDITION >>
Exposure Type,Aver
Exposure Time [sec],15
Exposure Count,30
Measure Time,2023/07/03 20:44:10
Data Name,""
Data Comment,""
Rayleigh Wave[nm],532.0

<< SAMPLE SPECTRUM >>
Wave[dcm-1],No211
146.591,684.63
147.626,807.47
148.664,954.43
149.699,1086.60
150.737,1221.53
151.772,1322.37
152.809,1462.90
153.846,1590.57
154.881,1697.77
155.918,1762.23
156.953,1821.07
157.989,1903.67
159.026,1979.87
160.060,1986.13
161.096,2035.53
162.130,2109.70
163.167,2112.23
164.200,2130.63
165.236,2187.50
166.272,2208.33
167.305,2284.07
168.341,2305.87
169.374,2291.50
170.409,2334.50
171.445,2362.77
172.477,2400.40
173.512,2413.97
174.545,2480.20
175.580,2446.73
176.614,2445.03
177.647,2486.23
178.681,2513.83
179.713,2511.73
180.747,2498.87
181.781,2451.93
182.813,2498.80
183.847,2504.67
184.878,2507.73
185.912,2470.60
186.945,2524.07
187.976,2552.57
189.010,2558.17
190.043,2581.90
191.073,2625.73
192.106,2606.50
193.137,2649.43
194.170,2714.60
195.202,2701.33
196.232,2730.27
197.265,2791.23
198.297,2801.93
199.327,2851.77
200.359,2898.03
201.388,2914.20
202.420,2950.40
203.452,3064.00
204.481,3090.17
205.512,3207.20
206.544,3232.00
207.573,3384.70
208.604,3460.73
209.635,3593.47
210.663,3667.43
211.694,3824.13
212.725,3999.33
213.753,4166.33
214.783,4289.37
215.813,4455.23
216.841,4606.87
217.871,4693.67
218.899,4844.80
219.929,4874.00
220.959,4849.87
221.986,4759.47
223.016,4678.83
224.045,4587.20
225.072,4477.77
226.101,4257.87
227.130,4102.20
228.157,3983.10
229.185,3823.13
230.214,3713.83
231.241,3604.10
232.269,3492.53
233.297,3500.73
234.323,3434.37
235.351,3391.87
236.379,3357.77
237.407,3325.77
238.433,3313.60
239.460,3340.10
240.488,3339.67
241.513,3364.10
242.540,3368.50
243.568,3376.40
244.592,3426.77
245.619,3418.17
246.646,3433.67
247.671,3404.10
248.697,3449.00
249.724,3409.33
250.748,3405.33
251.774,3373.00
252.801,3359.33
253.827,3368.43
254.850,3375.93
255.876,3387.57
256.902,3394.00
257.925,3378.07
258.951,3456.83
259.976,3473.97
260.999,3491.93
262.024,3529.13
263.049,3565.20
264.074,3591.20
265.097,3691.97
266.122,3708.07
267.146,3744.17
268.168,3856.80
269.193,3901.87
270.217,3945.20
271.241,4016.90
272.263,4067.80
273.287,4112.70
274.311,4183.23
275.332,4281.93
276.356,4278.23
277.379,4321.97
278.402,4347.20
279.424,4400.60
280.447,4344.97
281.470,4338.23
282.492,4296.93
283.513,4267.10
284.536,4193.93
285.558,4145.63
286.581,4093.10
287.601,3972.87
288.623,3909.23
289.645,3849.23
290.665,3783.03
291.687,3703.97
292.709,3625.53
293.730,3568.50
294.750,3463.97
295.771,3468.13
296.792,3348.47
297.813,3297.90
298.832,3238.50
299.853,3199.37
300.874,3120.97
301.895,3087.40
302.913,3037.87
303.934,2989.23
304.954,2951.40
305.975,2898.43
306.993,2904.13
308.013,2804.33
309.033,2809.00
310.052,2725.73
311.072,2733.50
312.090,2755.77
313.109,2699.73
314.129,2670.67
315.148,2615.07
316.165,2676.50
317.184,2569.90
318.203,2580.27
319.222,2556.07
320.238,2541.73
321.257,2577.47
322.275,2514.93
323.294,2489.70
324.312,2511.57
325.328,2436.63
326.346,2495.00
327.364,2453.83
328.382,2445.23
329.397,2450.50
330.415,2465.17
331.432,2435.87
332.450,2411.57
333.467,2426.17
334.482,2397.13
335.499,2388.23
336.516,2438.07
337.533,2384.23
338.547,2371.57
339.564,2403.53
340.580,2418.37
341.597,2376.47
342.613,2428.50
343.627,2379.30
344.643,2373.27
345.659,2343.03
346.675,2406.50
347.690,2357.07
348.704,2367.27
349.719,2375.07
350.735,2364.63
351.750,2380.20
352.765,2365.03
353.778,2344.53
354.793,2359.37
355.808,2366.27
356.822,2402.20
357.837,2393.47
358.851,2443.70
359.864,2392.53
360.878,2395.57
361.892,2381.70
362.906,2400.50
363.920,2411.33
364.932,2439.37
365.945,2453.13
366.959,2424.40
367.972,2468.67
368.986,2449.90
369.999,2455.60
371.010,2479.83
372.023,2492.33
373.036,2483.67
374.049,2579.63
375.061,2557.47
376.072,2576.17
377.084,2589.63
378.097,2612.83
379.109,2643.77
380.121,2633.60
381.133,2608.70
382.143,2681.83
383.155,2616.40
384.166,2634.67
385.178,2717.77
386.189,2638.50
387.201,2715.77
388.212,2658.67
389.221,2712.50
390.232,2700.73
391.243,2736.93
392.254,2697.83
393.264,2698.93
394.275,2652.30
395.283,2687.17
396.294,2579.23
397.304,2599.23
398.314,2624.83
399.324,2595.33
400.334,2584.03
401.344,2545.73
402.351,2511.23
403.361,2547.67
404.370,2512.77
405.380,2426.57
406.389,2475.30
407.398,2456.20
408.407,2404.10
409.414,2429.97
410.423,2405.23
411.431,2388.53
412.440,2348.13
413.448,2336.17
414.457,2356.90
415.465,2290.33
416.471,2309.77
417.479,2269.07
418.487,2251.73
419.495,2274.13
420.503,2288.10
421.510,2220.63
422.518,2204.23
423.525,2216.40
424.530,2294.63
425.537,2268.33
426.544,2212.53
427.551,2212.87
428.558,2215.60
429.565,2228.90
430.571,2174.97
431.578,2162.37
432.582,2208.70
433.588,2178.93
434.595,2185.67
435.601,2181.47
436.607,2180.47
437.612,2158.20
438.618,2182.23
439.624,2157.63
440.627,2182.93
441.633,2168.93
442.638,2175.77
443.643,2136.80
444.648,2127.73
445.653,2163.47
446.658,2183.30
447.663,2169.37
448.667,2192.87
449.672,2165.07
450.674,2162.63
451.678,2157.93
452.682,2170.47
453.687,2181.17
454.690,2201.10
455.694,2196.43
456.698,2219.27
457.702,2173.87
458.705,2234.50
459.709,2220.80
460.710,2240.80
461.713,2225.17
462.716,2229.67
463.719,2213.63
464.722,2209.13
465.725,2221.40
466.727,2240.90
467.730,2235.70
468.732,2276.73
469.735,2228.03
470.737,2267.10
471.737,2229.10
472.739,2259.00
473.741,2259.10
474.742,2236.23
475.744,2280.83
476.746,2293.23
477.747,2258.10
478.748,2297.87
479.750,2285.73
480.751,2296.60
481.752,2288.07
482.753,2288.07
483.751,2247.03
484.752,2279.73
485.753,2281.60
486.753,2270.53
487.753,2274.73
488.754,2268.97
489.754,2248.87
490.754,2285.40
491.754,2238.80
492.754,2311.10
493.753,2264.80
494.753,2227.63
495.752,2242.07
496.752,2253.17
497.749,2291.77
498.748,2260.17
499.747,2213.13
500.746,2243.33
501.745,2223.27
502.744,2214.97
503.742,2217.00
504.741,2213.67
505.739,2240.30
506.737,2189.27
507.735,2229.13
508.734,2200.53
509.732,2200.87
510.729,2148.87
511.727,2180.73
512.725,2203.00
513.720,2187.57
514.718,2174.53
515.715,2181.47
516.712,2142.17
517.709,2107.50
518.706,2163.73
519.703,2135.00
520.700,2191.03
521.696,2167.63
522.693,2170.70
523.689,2173.13
524.686,2159.37
525.682,2153.77
526.678,2161.80
527.674,2138.40
528.670,2168.63
529.666,2213.40
530.661,2194.10
531.657,2239.90
532.652,2213.33
533.648,2218.10
534.641,2276.77
535.636,2185.07
536.631,2249.90
537.626,2249.97
538.621,2293.90
539.616,2227.37
540.610,2268.30
541.605,2258.93
542.599,2261.73
543.593,2283.97
544.587,2249.80
545.581,2305.10
546.575,2266.07
547.569,2250.83
548.563,2273.57
549.557,2296.23
550.550,2279.60
551.543,2312.97
552.537,2293.83
553.530,2286.70
554.523,2290.10
555.516,2259.53
556.509,2312.20
557.502,2260.83
558.494,2307.37
559.487,2278.63
560.479,2349.17
561.472,2294.53
562.464,2308.07
563.456,2311.40
564.448,2324.43
565.440,2326.03
566.432,2324.07
567.423,2345.83
568.415,2335.00
569.404,2361.73
570.396,2387.33
571.387,2380.53
572.378,2391.63
573.369,2384.43
574.360,2430.17
575.351,2417.37
576.341,2394.40
577.332,2424.20
578.323,2380.33
579.313,2431.03
580.303,2415.67
581.293,2412.20
582.283,2434.20
583.273,2439.30
584.263,2428.77
585.253,2478.30
586.243,2438.23
587.232,2433.23
588.222,2448.37
589.211,2464.33
590.200,2471.27
591.189,2456.03
592.178,2425.37
593.167,2468.33
594.156,2475.37
595.145,2492.43
596.133,2460.00
597.122,2444.80
598.110,2450.73
599.098,2488.17
600.086,2445.83
601.074,2442.73
602.062,2449.30
603.050,2427.57
604.038,2467.97
605.025,2456.77
606.013,2414.43
607.000,2405.50
607.987,2431.60
608.975,2374.47
609.962,2414.67
610.949,2400.57
611.936,2384.90
612.922,2399.30
613.909,2357.63
614.895,2365.43
615.882,2347.67
616.868,2403.80
617.854,2353.50
618.841,2307.23
619.826,2315.17
620.812,2265.70
621.798,2286.03
622.784,2281.77
623.769,2212.80
624.755,2250.87
625.740,2212.83
626.725,2232.50
627.711,2206.50
628.698,2177.53
629.683,2196.13
630.667,2162.73
631.652,2149.77
632.637,2146.07
633.621,2071.40
634.606,2093.30
635.590,2087.57
636.574,2100.50
637.558,2039.80
638.542,2028.20
639.526,2016.13
640.510,2007.80
641.493,2004.40
642.477,2048.50
643.460,1998.50
644.444,1960.90
645.427,1996.27
646.410,1947.20
647.393,1997.47
648.376,1958.67
649.359,1924.87
650.341,1937.57
651.324,1928.37
652.307,1903.70
653.289,1848.17
654.271,1913.70
655.253,1878.30
656.235,1871.60
657.217,1897.57
658.199,1859.30
659.181,1848.30
660.163,1855.40
661.144,1806.07
662.126,1873.23
663.107,1847.13
664.088,1801.40
665.069,1808.50
666.050,1811.27
667.033,1804.37
668.014,1796.67
668.995,1814.37
669.975,1776.63
670.956,1762.93
671.936,1723.37
672.916,1775.23
673.896,1766.47
674.876,1763.53
675.856,1735.80
676.836,1702.50
677.816,1707.50
678.795,1717.70
679.775,1679.47
680.754,1711.50
681.734,1652.73
682.713,1622.43
683.692,1630.33
684.671,1625.13
685.650,1608.43
686.629,1599.50
687.607,1579.87
688.586,1590.10
689.564,1550.33
690.543,1520.87
691.523,1550.93
692.501,1521.60
693.479,1596.63
694.457,1555.77
695.435,1529.47
696.413,1475.53
697.390,1477.87
698.368,1515.80
699.345,1537.33
700.322,1468.53
701.300,1461.83
702.277,1476.10
703.254,1451.77
704.231,1459.10
705.207,1465.33
706.184,1506.10
707.161,1435.20
708.137,1431.47
709.113,1420.90
710.090,1449.23
711.068,1401.70
712.044,1406.57
713.020,1426.07
713.996,1348.23
714.971,1407.03
715.947,1404.93
716.922,1417.83
717.898,1376.27
718.873,1393.63
719.848,1371.97
720.823,1378.33
721.798,1362.50
722.773,1333.83
723.748,1344.93
724.723,1326.90
725.697,1323.80
726.672,1369.10
727.646,1323.87
728.622,1315.17
729.596,1333.63
730.570,1328.03
731.544,1314.03
732.518,1321.83
733.492,1310.80
734.466,1312.20
735.439,1291.73
736.413,1281.50
737.386,1273.87
738.359,1291.17
739.332,1287.27
740.305,1272.93
741.278,1318.73
742.251,1242.93
743.224,1261.83
744.196,1329.97
745.171,1277.07
746.143,1231.47
747.115,1302.07
748.087,1303.27
749.059,1295.23
750.031,1242.40
751.003,1249.23
751.975,1256.90
752.947,1266.77
753.918,1233.33
754.890,1250.47
755.861,1239.60
756.832,1269.10
757.803,1224.27
758.774,1226.40
759.747,1233.37
760.718,1192.43
761.689,1211.60
762.659,1237.67
763.630,1205.90
764.600,1197.73
765.570,1205.00
766.540,1196.97
767.510,1225.37
768.480,1195.37
769.450,1191.30
770.420,1190.37
771.390,1226.77
772.359,1203.70
773.329,1186.40
774.300,1175.37
775.269,1191.13
776.238,1193.77
777.207,1209.80
778.176,1179.93
779.145,1165.30
780.114,1187.93
781.083,1172.03
782.051,1169.23
783.019,1186.47
783.988,1217.13
784.956,1160.27
785.924,1125.20
786.894,1158.00
787.862,1147.90
788.830,1164.87
789.797,1129.73
790.765,1131.87
791.732,1188.97
792.700,1166.37
793.667,1124.97
794.634,1148.07
795.601,1123.73
796.568,1101.07
797.535,1119.40
798.502,1110.17
799.468,1135.53
800.437,1108.63
801.403,1099.97
802.370,1095.73
803.336,1083.00
804.302,1103.77
805.268,1143.50
806.234,1078.90
807.200,1101.50
808.166,1101.03
809.131,1102.90
810.097,1093.57
811.062,1117.03
812.027,1052.27
812.994,1079.37
813.960,1082.97
814.925,1072.87
815.889,1056.73
816.854,1055.47
817.819,1057.63
818.783,1062.47
819.748,1054.20
820.712,1066.63
821.677,1071.33
822.641,1056.90
823.605,1044.37
824.571,1047.37
825.534,1058.07
826.498,1024.23
827.462,1041.70
828.425,1069.37
829.389,1041.07
830.352,1066.87
831.315,1004.07
832.279,1048.97
833.242,1049.37
834.204,1026.70
835.167,1049.13
836.132,1036.43
837.095,1047.00
838.057,996.63
839.020,1047.70
839.982,991.80
840.944,1016.90
841.906,1028.53
842.868,1014.20
843.830,1070.17
844.792,1047.37
845.753,1034.80
846.715,1070.40
847.679,1031.87
848.640,1026.90
849.601,966.60
850.562,1016.63
851.523,1061.13
852.484,1054.70
853.445,1030.30
854.406,1010.07
855.367,993.17
856.327,988.13
857.288,1006.90
858.248,1033.53
859.210,1006.00
860.170,1001.80
861.130,989.73
862.090,1007.17
863.050,1010.50
864.010,996.87
864.969,1001.93
865.929,958.70
866.888,1008.93
867.848,963.10
868.807,996.93
869.766,1007.47
870.727,1011.43
871.686,995.53
872.645,1008.23
873.604,1009.10
874.562,1001.17
875.521,1001.90
876.479,994.13
877.437,1030.20
878.396,988.97
879.354,998.90
880.312,962.73
881.270,1025.87
882.229,993.23
883.187,1006.87
884.145,1011.53
885.102,968.70
886.059,974.83
887.017,968.57
887.974,1004.97
888.931,980.77
889.888,1000.47
890.845,962.03
891.802,989.20
892.758,1012.40
893.717,993.77
894.673,984.10
895.630,970.07
896.586,967.47
897.542,967.93
898.498,998.83
899.454,993.23
900.410,980.53
901.366,1002.97
902.321,964.73
903.277,968.43
904.232,946.63
905.189,981.33
906.145,1000.60
907.100,983.83
908.055,1023.20
909.010,988.10
909.965,1026.40
910.919,1003.77
911.874,1009.27
912.828,981.23
913.783,963.03
914.737,970.43
915.693,992.10
916.648,955.57
917.602,1002.00
918.555,1018.73
919.509,1004.90
920.463,987.33
921.417,991.00
922.370,972.53
923.324,969.70
924.277,984.73
925.230,1015.37
926.183,1021.23
927.138,984.83
928.091,953.67
929.044,1008.23
929.996,965.90
930.949,1025.57
931.902,954.50
932.854,1003.47
933.806,998.63
934.758,1032.87
935.711,1007.73
936.663,1014.60
937.614,1003.10
938.568,1041.50
939.520,1033.37
940.471,1000.67
941.423,1036.10
942.374,1028.77
943.326,1004.17
944.277,987.10
945.228,991.90
946.179,1012.50
947.130,1036.33
948.080,967.83
949.031,988.60
949.984,1027.90
950.934,983.13
951.884,1033.07
952.835,1003.67
953.785,990.23
954.735,988.77
955.685,1039.17
956.635,996.90
957.585,1035.60
958.534,1000.57
959.484,1022.03
960.433,996.87
961.383,1002.47
962.334,1005.47
963.283,970.90
964.232,985.33
965.181,1004.70
966.130,1001.27
967.079,969.90
968.027,1032.80
968.976,973.70
969.924,1012.40
970.873,1025.33
971.821,981.47
972.769,986.80
973.719,1009.97
974.667,1034.53
975.615,1015.53
976.562,1020.97
977.510,1010.83
978.458,1025.03
979.405,1000.33
980.352,978.40
981.300,1023.90
982.247,1013.90
983.194,1025.03
984.141,1020.10
985.088,1048.03
986.036,1008.17
986.983,1029.13
987.930,1010.30
988.876,1035.47
989.822,1026.67
990.769,1050.87
991.715,1000.47
992.661,1033.43
993.607,994.60
994.553,1021.27
995.498,1029.37
996.444,1059.00
997.389,1034.23
998.337,1017.50
999.282,1008.40
1000.227,1071.47
1001.173,1048.60
1002.118,1013.63
1003.062,1050.07
1004.007,1013.60
1004.952,1021.73
1005.897,1013.90
1006.841,1014.77
1007.786,1031.50
1008.730,1064.13
1009.674,1037.67
1010.618,1000.83
1011.564,1089.10
1012.508,1040.27
1013.452,1061.17
1014.396,1058.43
1015.339,1081.53
1016.283,1029.07
1017.226,1040.50
1018.170,1049.33
1019.113,1014.43
1020.056,1080.17
1020.999,1085.63
1021.942,1023.20
1022.885,1061.43
1023.828,1033.43
1024.770,1111.00
1025.715,1073.07
1026.657,1089.70
1027.600,1047.33
1028.542,1108.00
1029.484,1109.93
1030.426,1082.30
1031.368,1084.70
1032.310,1093.33
1033.251,1084.97
1034.193,1102.40
1035.135,1062.43
1036.076,1093.50
1037.017,1121.03
1037.959,1121.33
1038.900,1049.37
1039.843,1085.70
1040.784,1126.77
1041.725,1120.03
1042.665,1117.60
1043.606,1108.20
1044.547,1132.53
1045.487,1137.00
1046.427,1094.30
1047.368,1121.90
1048.308,1122.60
1049.248,1158.43
1050.188,1156.33
1051.128,1122.93
1052.067,1141.57
1053.007,1172.13
1053.947,1193.77
1054.886,1174.73
1055.827,1172.33
1056.766,1178.47
1057.706,1165.27
1058.645,1157.97
1059.584,1161.10
1060.522,1176.77
1061.461,1204.10
1062.400,1232.53
1063.338,1190.13
1064.277,1182.80
1065.215,1204.97
1066.154,1211.87
1067.092,1203.47
1068.030,1203.77
1068.968,1189.93
1069.906,1242.10
1070.843,1196.47
1071.781,1218.87
1072.720,1250.40
1073.658,1213.13
1074.595,1252.13
1075.533,1233.57
1076.470,1239.80
1077.407,1270.23
1078.344,1260.30
1079.281,1285.53
1080.217,1249.83
1081.154,1278.63
1082.091,1232.03
1083.027,1239.73
1083.964,1272.40
1084.900,1256.93
1085.836,1249.67
1086.772,1239.33
1087.708,1279.80
1088.644,1291.23
1089.580,1250.67
1090.515,1231.80
1091.451,1257.07
1092.388,1244.07
1093.324,1244.90
1094.259,1278.47
1095.194,1259.00
1096.129,1234.37
1097.064,1221.60
1097.999,1240.27
1098.934,1268.07
1099.869,1237.27
1100.803,1220.90
1101.738,1215.90
1102.672,1200.07
1103.607,1221.00
1104.541,1206.60
1105.475,1219.77
1106.409,1183.53
1107.343,1234.13
1108.277,1227.10
1109.210,1186.87
1110.144,1178.07
1111.078,1199.90
1112.011,1181.37
1112.944,1191.67
1113.878,1152.03
1114.811,1143.43
1115.744,1181.13
1116.678,1165.73
1117.611,1142.77
1118.544,1136.53
1119.477,1124.03
1120.409,1146.30
1121.342,1165.40
1122.274,1121.77
1123.206,1131.97
1124.138,1116.57
1125.070,1073.20
1126.002,1112.97
1126.934,1102.37
1127.866,1104.13
1128.798,1087.33
1129.729,1085.57
1130.661,1093.27
1131.592,1074.10
1132.523,1036.57
1133.454,1029.13
1134.385,1092.53
1135.317,1064.40
1136.247,1052.60
1137.178,1086.70
1138.109,1037.83
1139.039,1060.33
1139.970,1051.17
1140.900,1069.67
1141.831,1028.53
1142.761,1036.80
1143.691,1053.23
1144.621,1041.67
1145.551,1026.63
1146.480,1036.40
1147.410,1045.70
1148.340,1044.10
1149.269,1021.70
1150.199,999.67
1151.128,1004.37
1152.057,1011.90
1152.979,1017.90
1153.898,978.63
1154.819,978.87
1155.739,1069.33
1156.658,988.70
1157.579,984.47
1158.498,989.33
1159.419,1032.70
1160.338,995.83
1161.256,1015.90
1162.177,992.17
1163.095,960.27
1164.016,990.43
1164.934,962.50
1165.852,955.07
1166.772,991.27
1167.690,985.97
1168.610,999.30
1169.528,981.20
1170.446,974.73
1171.365,1028.40
1172.283,953.30
1173.202,977.00
1174.120,989.63
1175.037,965.07
1175.956,963.10
1176.873,977.00
1177.792,962.80
1178.709,953.17
1179.626,948.23
1180.544,952.07
1181.461,927.43
1182.379,939.00
1183.296,950.37
1184.212,946.80
1185.130,954.23
1186.046,921.30
1186.962,943.30
1187.880,941.20
1188.796,982.57
1189.714,932.63
1190.629,942.03
1191.545,938.60
1192.462,949.63
1193.378,956.70
1194.295,958.60
1195.210,958.60
1196.125,953.23
1197.042,943.10
1197.957,946.47
1198.872,962.53
1199.788,956.37
1200.703,935.13
1201.619,943.90
1202.534,916.13
1203.448,985.80
1204.364,952.47
1205.278,941.40
1206.192,981.57
1207.108,940.80
1208.022,934.77
1208.938,931.80
1209.851,953.50
1210.765,925.43
1211.680,966.30
1212.594,965.07
1213.507,928.47
1214.422,944.10
1215.335,987.17
1216.248,988.97
1217.163,965.70
1218.076,945.90
1218.990,1004.47
1219.903,946.00
1220.816,954.37
1221.730,1004.67
1222.642,959.63
1223.554,944.37
1224.469,946.77
1225.380,990.37
1226.292,967.10
1227.206,990.50
1228.118,1005.70
1229.032,971.40
1229.943,957.63
1230.855,972.67
1231.768,976.40
1232.679,980.47
1233.590,982.03
1234.503,987.30
1235.414,1017.07
1236.325,998.10
1237.238,993.27
1238.149,1027.43
1239.059,1030.67
1239.972,1012.63
1240.882,1017.20
1241.793,1010.27
1242.705,1013.70
1243.615,1032.50
1244.525,1004.33
1245.437,1024.07
1246.347,1039.53
1247.259,1024.83
1248.168,1046.50
1249.078,1053.83
1249.989,1049.40
1250.899,1035.13
1251.808,1017.30
1252.719,1058.83
1253.628,1048.40
1254.537,1055.10
1255.448,1011.83
1256.357,1030.03
1257.266,1058.93
1258.176,1069.10
1259.085,1034.27
1259.993,1029.33
1260.904,1049.67
1261.812,1061.40
1262.720,1070.03
1263.630,1061.93
1264.538,1032.47
1265.446,1042.20
1266.356,1063.17
1267.263,1069.40
1268.171,1075.07
1269.080,1063.17
1269.988,1092.37
1270.895,1059.30
1271.804,1043.87
1272.711,1063.57
1273.619,1051.30
1274.527,1075.10
1275.434,1044.93
1276.341,1051.97
1277.248,1040.13
1278.156,1074.23
1279.063,1045.47
1279.969,1061.93
1280.877,1075.93
1281.783,1043.60
1282.690,1074.07
1283.598,1077.67
1284.503,1064.33
1285.409,1037.50
1286.317,1021.87
1287.223,1035.13
1288.128,1020.43
1289.036,1021.77
1289.941,1046.20
1290.846,1078.43
1291.751,1032.60
1292.658,1072.57
1293.563,1051.20
1294.468,1024.80
1295.375,991.13
1296.280,1038.83
1297.184,1052.50
1298.091,1026.40
1298.995,1013.73
1299.900,1086.90
1300.806,1033.50
1301.710,1009.47
1302.614,1009.77
1303.518,968.03
1304.424,1011.60
1305.327,1018.90
1306.231,991.97
1307.137,978.53
1308.040,996.20
1308.943,1018.57
1309.847,1013.40
1310.752,975.70
1311.655,939.00
1312.558,965.40
1313.463,957.47
1314.366,950.53
1315.269,976.83
1316.171,929.40
1317.076,972.13
1317.978,958.63
1318.881,966.77
1319.785,945.43
1320.687,957.37
1321.589,911.90
1322.491,929.93
1323.395,928.73
1324.297,938.23
1325.198,931.63
1326.102,899.30
1327.004,933.30
1327.905,876.73
1328.806,899.00
1329.709,936.57
1330.611,901.13
1331.512,896.23
1332.413,905.77
1333.316,879.17
1334.216,841.70
1335.117,864.63
1336.020,842.63
1336.920,879.43
1337.821,827.93
1338.721,829.10
1339.623,844.57
1340.523,869.10
1341.423,820.40
1342.323,815.53
1343.225,840.87
1344.125,827.10
1345.025,857.00
1345.924,842.00
1346.826,797.20
1347.725,808.17
1348.624,843.57
1349.524,830.57
1350.425,818.90
1351.324,824.30
1352.223,816.27
1353.121,796.50
1354.022,805.67
1354.921,797.43
1355.819,806.60
1356.718,763.97
1357.618,796.07
1358.516,781.03
1359.415,793.73
1360.313,790.40
1361.213,779.40
1362.111,778.43
1363.008,761.37
1363.906,760.33
1364.806,740.57
1365.703,771.77
1366.601,763.37
1367.498,760.43
1368.397,752.70
1369.295,753.30
1370.192,767.20
1371.089,733.27
1371.987,729.13
1372.884,708.17
1373.781,740.10
1374.678,749.13
1375.574,725.33
1376.473,719.70
1377.369,721.90
1378.265,713.27
1379.161,710.20
1380.059,705.23
1380.955,693.37
1381.851,746.73
1382.747,710.10
1383.643,697.43
1384.540,691.17
1385.436,678.00
1386.331,677.03
1387.227,684.53
1388.124,697.70
1389.019,685.00
1389.914,711.23
1390.809,700.20
1391.704,672.50
1392.601,686.70
1393.495,705.27
1394.390,677.37
1395.285,672.07
1396.179,676.03
1397.075,645.97
1397.969,690.07
1398.864,634.07
1399.758,698.47
1400.652,679.33
1401.547,668.13
1402.441,654.10
1403.335,671.77
1404.229,666.73
1405.122,642.87
1406.017,667.73
1406.911,692.17
1407.804,705.07
1408.697,634.77
1409.590,662.10
1410.485,659.63
1411.378,636.37
1412.271,681.40
1413.163,601.50
1414.056,675.47
1414.949,670.70
1415.843,645.43
1416.735,636.63
1417.627,648.30
1418.520,615.87
1419.412,664.47
1420.306,703.70
1421.197,619.67
1422.089,619.33
1422.981,610.50
1423.873,619.33
1424.764,643.70
1425.657,658.80
1426.549,661.47
1427.440,624.97
1428.331,640.73
1429.222,624.50
1430.113,649.57
1431.006,634.50
1431.897,644.13
1432.787,641.33
1433.678,642.33
1434.568,627.07
1435.459,626.70
1436.351,574.20
1437.241,595.50
1438.131,635.40
1439.021,596.63
1439.911,612.60
1440.801,620.20
1441.693,612.03
1442.583,623.77
1443.472,565.73
1444.362,578.03
1445.251,610.40
1446.140,612.47
1447.030,613.47
1447.921,587.33
1448.810,612.00
1449.699,589.57
1450.588,572.80
1451.476,607.97
1452.365,614.20
1453.254,586.63
1454.144,617.97
1455.032,576.13
1455.921,574.43
1456.809,609.30
1457.697,572.63
1458.585,580.23
1459.473,593.53
1460.361,600.63
1461.251,564.60
1462.138,575.13
1463.026,564.43
1463.913,591.57
1464.801,561.50
1465.688,588.77
1466.575,600.73
1467.463,618.50
1468.351,568.30
1469.238,589.73
1470.125,569.23
1471.012,599.90
1471.899,601.10
1472.785,539.83
1473.672,543.53
1474.558,560.43
1475.446,602.40
1476.333,507.50
1477.219,561.90
1478.105,548.10
1478.991,573.53
1479.877,556.67
1480.762,531.87
1481.648,554.07
1482.534,553.77
1483.419,576.20
1484.307,568.60
1485.192,505.93
1486.077,562.10
1486.962,542.43
1487.847,556.03
1488.732,538.83
1489.617,558.53
1490.502,523.40
1491.387,529.90
1492.271,559.23
1493.156,556.10
1494.042,551.80
1494.927,541.87
1495.811,565.23
1496.695,580.10
1497.579,567.67
1498.463,577.00
1499.347,509.93
1500.231,516.10
1501.114,552.20
1501.998,544.27
1502.881,534.50
1503.765,518.60
1504.648,536.57
1505.533,546.30
1506.417,555.13
1507.300,544.70
1508.183,554.93
1509.066,530.63
1509.948,547.47
1510.831,536.50
1511.714,553.90
1512.596,462.27
1513.479,528.60
1514.361,558.93
1515.243,516.23
1516.125,516.67
1517.008,543.93
1517.890,515.47
1518.771,547.23
1519.655,490.60
1520.537,525.33
1521.419,545.77
1522.300,553.23
1523.182,538.73
1524.063,470.17
1524.944,532.67
1525.825,501.87
1526.707,543.33
1527.588,512.70
1528.468,518.60
1529.349,540.57
1530.230,497.77
1531.111,500.77
1531.991,542.30
1532.872,483.40
1533.752,485.33
1534.632,499.37
1535.513,520.07
1536.393,485.47
1537.273,495.60
1538.153,558.87
1539.032,537.80
1539.912,510.13
1540.792,511.83
1541.672,520.33
1542.551,464.07
1543.430,556.80
1544.310,497.10
1545.189,505.87
1546.068,511.83
1546.947,542.43
1547.826,528.53
1548.705,496.23
1549.584,497.33
1550.462,530.87
1551.341,474.47
1552.219,507.83
1553.098,511.50
1553.976,505.57
1554.854,509.70
1555.733,472.70
1556.611,508.93
1557.489,479.97
1558.367,495.23
1559.244,480.87
1560.122,476.50
1561.000,481.10
1561.877,496.73
1562.755,504.20
1563.632,475.50
1564.509,513.40
1565.386,555.73
1566.264,501.27
1567.141,462.60
1568.017,511.63
1568.894,507.90
1569.771,493.53
1570.648,515.07
1571.524,467.03
1572.401,466.13
1573.277,502.80
1574.153,546.13
1575.029,515.63
1575.906,482.17
1576.781,492.90
1577.657,501.27
1578.533,470.63
1579.409,476.07
1580.285,476.23
1581.160,452.43
1582.036,470.57
1582.911,505.93
1583.786,459.43
1584.662,473.37
1585.537,493.37
1586.412,466.43
1587.287,473.90
1588.160,468.63
1589.035,466.90
1589.909,460.93
1590.784,478.20
1591.658,475.37
1592.533,498.67
1593.407,491.63
1594.281,435.23
1595.155,508.13
1596.029,508.97
1596.903,505.93
1597.777,498.23
1598.651,496.67
1599.525,458.87
1600.398,477.80
1601.272,479.07
1602.144,479.03
1603.017,461.30
1603.890,483.63
1604.763,459.23
1605.636,492.33
1606.509,475.87
1607.382,427.20
1608.255,422.50
1609.128,474.23
1610.000,465.43
1610.873,493.33
1611.746,463.10
1612.616,493.03
1613.488,439.30
1614.361,460.17
1615.233,489.07
1616.105,442.80
1616.977,485.57
1617.849,456.57
1618.720,478.00
1619.592,488.33
1620.464,479.17
1621.333,452.87
1622.205,475.40
1623.076,488.03
1623.947,455.70
1624.818,446.43
1625.689,516.80
1626.560,449.00
1627.431,460.03
1628.302,441.27
1629.171,446.40
1630.042,472.93
1630.912,445.37
1631.782,466.23
1632.653,460.07
1633.523,464.67
1634.393,448.67
1635.263,447.23
1636.131,462.77
1637.001,484.60
1637.871,459.57
1638.741,427.33
1639.611,434.37
1640.480,429.17
1641.350,470.33
1642.219,447.53
1643.087,427.97
1643.956,496.07
1644.825,439.23
1645.694,441.27
1646.563,446.57
1647.432,480.83
1648.299,469.80
1649.167,467.47
1650.036,444.90
1650.904,447.27
1651.773,444.27
1652.641,453.33
1653.509,421.63
1654.376,420.47
1655.244,445.33
1656.112,393.10
1656.980,444.70
1657.847,461.10
1658.715,449.90
1659.581,402.33
1660.448,436.10
1661.316,436.87
1662.183,467.97
1663.051,415.50
1663.918,453.13
1664.783,432.80
1665.650,437.30
1666.517,420.10
1667.384,463.53
1668.251,466.33
1669.115,411.87
1669.982,391.40
1670.849,428.27
1671.715,425.23
1672.581,422.13
1673.446,453.27
1674.312,433.43
1675.178,420.57
1676.044,438.93
1676.910,444.57
1677.774,447.20
1678.639,430.57
1679.505,469.60
1680.370,449.50
1681.236,419.50
1682.099,442.63
1682.965,414.43
1683.830,410.60
1684.695,398.67
1685.560,404.37
1686.423,456.73
1687.288,448.03
1688.153,429.33
1689.017,455.87
1689.880,428.03
1690.745,409.07
1691.609,410.33
1692.473,389.50
1693.338,373.97
1694.200,398.13
1695.064,411.23
1695.928,453.47
1696.792,404.83
1697.654,420.57
1698.517,413.30
1699.381,463.97
1700.245,415.07
1701.106,439.03
1701.969,405.93
1702.833,456.23
1703.696,417.60
1704.557,436.43
1705.420,450.57
1706.283,421.40
1707.146,436.00
1708.007,399.50
1708.870,419.70
1709.732,407.47
1710.595,420.23
1711.455,422.73
1712.318,430.33
1713.180,435.10
1714.040,378.30
1714.902,436.23
1715.764,403.10
1716.626,412.40
1717.486,406.57
1718.348,405.73
1719.209,406.37
1720.071,423.00
1720.930,427.10
1721.792,423.37
1722.653,421.63
1723.512,413.17
1724.374,411.47
1725.234,406.10
1726.095,379.80
1726.954,452.37
1727.815,436.03
1728.676,377.33
1729.535,389.60
1730.395,426.47
1731.256,399.47
1732.114,426.63
1732.974,402.67
1733.834,406.20
1734.693,401.87
1735.553,415.17
1736.413,397.77
1737.272,400.63
1738.130,407.17
1738.990,417.33
1739.849,422.03
1740.707,385.20
1741.566,420.67
1742.426,399.07
1743.283,412.17
1744.142,392.97
1745.001,359.57
1745.858,412.83
1746.717,408.40
1747.576,405.37
1748.433,407.93
1749.292,384.50
1750.150,446.30
1751.007,428.07
1751.865,437.77
1752.723,415.43
1753.579,411.43
1754.438,387.10
1755.296,389.43
1756.152,379.83
1757.010,440.27
1757.865,445.13
1758.723,407.73
1759.581,419.30
1760.436,410.00
1761.294,420.30
1762.151,411.23
1763.006,414.20
1763.864,413.63
1764.721,444.87
1765.576,412.50
1766.433,401.67
1767.288,399.77
1768.144,416.17
1769.001,416.70
1769.856,433.90
1770.712,404.87
1771.568,442.07
1772.423,403.83
1773.279,390.50
1774.133,409.97
1774.989,429.60
1775.845,405.80
1776.699,398.27
1777.555,404.97
1778.409,429.27
1779.265,383.47
1780.120,393.50
1780.974,401.43
1781.829,404.93
1782.682,392.00
1783.538,368.40
1784.393,387.47
1785.246,396.03
1786.101,419.27
1786.954,371.30
1787.808,418.43
1788.661,414.90
1789.516,391.20
1790.370,388.27
1791.223,393.13
1792.077,387.47
1792.930,390.00
1793.784,401.03
1794.636,415.37
1795.490,390.90
1796.344,423.97
1797.196,398.50
1798.049,412.37
1798.901,406.33
1799.755,385.03
1800.606,368.70
1801.460,416.43
1802.311,416.13
1803.165,392.10
1804.018,391.97
1804.869,389.27
1805.722,341.77
1806.573,399.53
1807.426,404.33
1808.276,396.33
1809.129,389.77
1809.980,377.57
1810.832,373.40
1811.683,374.57
1812.535,399.50
1813.385,380.00
1814.237,419.57
1815.089,371.93
1815.940,405.57
1816.791,374.00
1817.641,402.77
1818.493,379.53
1819.343,374.57
1820.194,394.63
1821.044,358.17
1821.895,374.73
1822.745,384.67
1823.596,409.90
1824.445,404.90
1825.296,405.77
1826.145,372.63
1826.996,405.07
1827.845,397.37
1828.695,379.23
1829.544,406.80
1830.395,381.40
1831.243,385.53
1832.094,397.33
1832.942,407.63
1833.792,385.50
1834.640,412.47
1835.490,372.60
1836.338,410.10
1837.186,374.10
1838.036,419.20
1838.884,395.47
1839.733,365.37
1840.581,360.77
1841.430,348.77
1842.278,408.00
1843.127,399.63
1843.974,380.50
1844.823,393.77
1845.671,362.40
1846.519,407.80
1847.366,377.40
1848.213,385.27
1849.062,384.43
1849.909,407.43
1850.757,421.60
1851.604,402.30
1852.452,387.23
1853.298,389.80
1854.146,390.87
1854.993,378.67
1855.839,367.20
1856.687,400.60
1857.532,396.10
1858.380,380.70
1859.226,381.53
1860.073,408.23
1860.919,391.40
1861.765,379.57
1862.612,351.80
1863.457,366.67
1864.304,339.67
1865.150,368.43
1865.995,389.17
1866.842,398.93
1867.686,389.90
1868.533,379.90
1869.378,358.47
1870.223,347.47
1871.069,371.27
1871.914,390.73
1872.760,389.23
1873.604,376.50
1874.448,390.67
1875.294,404.10
1876.139,357.83
1876.984,395.20
1877.828,377.17
1878.672,427.27
1879.518,358.37
1880.361,383.90
1881.205,378.57
1882.050,369.57
1882.894,374.87
1883.739,376.57
1884.582,364.43
1885.425,396.33
1886.270,401.27
1887.113,387.73
1887.956,363.27
1888.801,390.97
1889.644,365.37
1890.486,376.87
1891.331,382.23
1892.173,374.70
1893.017,399.47
1893.860,359.40
1894.702,379.67
1895.546,403.87
1896.388,369.30
1897.230,363.70
1898.074,362.87
1898.916,391.07
1899.757,410.77
1900.601,398.43
1901.443,318.77
1902.284,382.80
1903.125,365.20
1903.969,343.77
1904.810,376.70
1905.651,396.70
1906.494,353.37
1907.335,402.57
1908.176,389.57
1909.018,357.77
1909.859,348.07
1910.700,388.80
1911.542,366.83
1912.383,373.30
1913.223,354.17
1914.064,361.97
1914.906,360.63
1915.746,367.77
1916.586,347.83
1917.428,394.67
1918.268,381.33
1919.107,365.23
1919.947,356.93
1920.789,348.23
1921.628,374.00
1922.468,332.63
1923.309,340.83
1924.148,365.07
1924.988,386.87
1925.827,367.87
1926.667,363.90
1927.507,371.83
1928.345,365.63
1929.184,394.67
1930.025,347.93
1930.864,371.57
1931.702,366.73
1932.541,368.30
1933.381,397.20
1934.219,393.83
1935.057,401.20
1935.896,366.57
1936.735,399.33
1937.573,404.23
1938.411,373.57
1939.249,371.93
1940.089,377.87
1940.927,379.50
1941.764,349.03
1942.602,339.13
1943.439,401.33
1944.278,374.33
1945.115,389.93
1945.953,327.40
1946.790,358.67
1947.628,384.43
1948.465,390.43
1949.302,356.77
1950.139,359.83
1950.976,356.83
1951.814,358.00
1952.651,360.23
1953.487,379.67
1954.323,366.73
1955.160,388.93
1955.998,357.67
1956.834,376.70
1957.670,356.67
1958.506,335.63
1959.342,380.33
1960.177,371.40
1961.015,397.63
1961.850,381.10
1962.686,377.90
1963.521,408.90
1964.357,382.50
1965.192,390.10
1966.029,352.70
1966.864,353.70
1967.699,370.23
1968.534,384.80
1969.369,329.67
1970.204,327.67
1971.040,355.97
1971.875,365.77
1972.709,374.20
1973.544,348.67
1974.378,335.50
1975.212,364.13
1976.047,342.40
1976.882,341.30
1977.716,367.43
1978.550,356.00
1979.384,352.87
1980.218,338.63
1981.052,357.13
1981.885,329.03
1982.719,403.13
1983.554,359.90
1984.388,317.00
1985.221,374.97
1986.054,356.80
1986.887,387.70
1987.720,357.47
1988.553,365.17
1989.386,320.77
1990.219,351.47
1991.053,336.43
1991.886,363.00
1992.719,334.10
1993.551,357.10
1994.383,367.87
1995.216,317.67
1996.048,357.03
1996.880,356.87
1997.712,351.97
1998.544,378.67
1999.376,343.07
2000.208,350.57
2000.208,350.57

Max Intensity Wave.,219.929
Max Intensity Data,4874.00
Min Intensity Wave.,1984.388
Min Intensity Data,317.00
FWHM Wave.,388.291
FWHM Value,24.56
Pressure Wave.,684.671
Pressure Value [GPa],-24.91530
G/D Ratio,0.53962
G/D Gband Wave.,1543.526
G/D Gband Intensity,557.69
G/D Dband Wave.,1300.806
G/D Dband Intensity,1033.50

<< BACKGROUND SPECTRUM >>
Wave[dcm-1],No211
146.591,2261.00
147.626,2103.00
148.664,2042.00
149.699,2509.00
150.737,2231.00
151.772,2423.00
152.809,2379.00
153.846,2277.00
154.881,2350.00
155.918,1951.00
156.953,2299.00
157.989,2587.00
159.026,2427.00
160.060,2640.00
161.096,2858.00
162.130,2459.00
163.167,2571.00
164.200,2462.00
165.236,2628.00
166.272,2668.00
167.305,2243.00
168.341,2510.00
169.374,2776.00
170.409,2784.00
171.445,2720.00
172.477,2522.00
173.512,2404.00
174.545,2629.00
175.580,2852.00
176.614,3048.00
177.647,2797.00
178.681,3016.00
179.713,3310.00
180.747,2788.00
181.781,2744.00
182.813,2974.00
183.847,3080.00
184.878,2692.00
185.912,2993.00
186.945,3125.00
187.976,3040.00
189.010,2705.00
190.043,2816.00
191.073,2875.00
192.106,2746.00
193.137,3172.00
194.170,2510.00
195.202,2905.00
196.232,2691.00
197.265,2961.00
198.297,3076.00
199.327,2776.00
200.359,2931.00
201.388,3327.00
202.420,2935.00
203.452,3077.00
204.481,2708.00
205.512,3274.00
206.544,3090.00
207.573,3007.00
208.604,3359.00
209.635,3489.00
210.663,2960.00
211.694,2969.00
212.725,2807.00
213.753,2775.00
214.783,3395.00
215.813,3244.00
216.841,2975.00
217.871,3174.00
218.899,2871.00
219.929,3106.00
220.959,2868.00
221.986,3167.00
223.016,2784.00
224.045,3143.00
225.072,3032.00
226.101,3180.00
227.130,3223.00
228.157,2800.00
229.185,2358.00
230.214,3184.00
231.241,2833.00
232.269,2519.00
233.297,2672.00
234.323,3233.00
235.351,2801.00
236.379,3095.00
237.407,2751.00
238.433,2933.00
239.460,3079.00
240.488,3103.00
241.513,3174.00
242.540,3079.00
243.568,3194.00
244.592,3238.00
245.619,3234.00
246.646,2941.00
247.671,2966.00
248.697,2789.00
249.724,3013.00
250.748,2977.00
251.774,2974.00
252.801,3277.00
253.827,3110.00
254.850,3079.00
255.876,2674.00
256.902,3124.00
257.925,3003.00
258.951,2721.00
259.976,2774.00
260.999,3085.00
262.024,2773.00
263.049,3602.00
264.074,3127.00
265.097,2985.00
266.122,3070.00
267.146,3050.00
268.168,3157.00
269.193,2823.00
270.217,3215.00
271.241,2704.00
272.263,2857.00
273.287,3182.00
274.311,2766.00
275.332,3255.00
276.356,2860.00
277.379,3067.00
278.402,3093.00
279.424,2905.00
280.447,2887.00
281.470,2712.00
282.492,3062.00
283.513,2871.00
284.536,3158.00
285.558,3135.00
286.581,3101.00
287.601,2856.00
288.623,2786.00
289.645,3081.00
290.665,3122.00
291.687,3135.00
292.709,3112.00
293.730,3360.00
294.750,2919.00
295.771,2740.00
296.792,3059.00
297.813,2929.00
298.832,3029.00
299.853,2734.00
300.874,3005.00
301.895,2950.00
302.913,2954.00
303.934,3243.00
304.954,3020.00
305.975,3218.00
306.993,2712.00
308.013,3133.00
309.033,2998.00
310.052,2945.00
311.072,2889.00
312.090,3004.00
313.109,3250.00
314.129,3388.00
315.148,3030.00
316.165,2999.00
317.184,3272.00
318.203,2753.00
319.222,2756.00
320.238,3108.00
321.257,2778.00
322.275,2704.00
323.294,2994.00
324.312,3120.00
325.328,3293.00
326.346,3272.00
327.364,3241.00
328.382,3176.00
329.397,3116.00
330.415,3198.00
331.432,3201.00
332.450,3267.00
333.467,3436.00
334.482,2584.00
335.499,3345.00
336.516,2850.00
337.533,2595.00
338.547,2848.00
339.564,2817.00
340.580,3046.00
341.597,2968.00
342.613,3358.00
343.627,2976.00
344.643,3003.00
345.659,3133.00
346.675,2937.00
347.690,2896.00
348.704,3072.00
349.719,2858.00
350.735,2742.00
351.750,3163.00
352.765,3008.00
353.778,2997.00
354.793,3152.00
355.808,2817.00
356.822,3163.00
357.837,2628.00
358.851,3206.00
359.864,2940.00
360.878,2718.00
361.892,2971.00
362.906,3192.00
363.920,2589.00
364.932,3085.00
365.945,3049.00
366.959,3034.00
367.972,2932.00
368.986,2742.00
369.999,3398.00
371.010,2842.00
372.023,3360.00
373.036,2989.00
374.049,3337.00
375.061,3077.00
376.072,2984.00
377.084,2865.00
378.097,2706.00
379.109,3182.00
380.121,2982.00
381.133,2716.00
382.143,3106.00
383.155,2761.00
384.166,2945.00
385.178,3053.00
386.189,3236.00
387.201,2697.00
388.212,2958.00
389.221,2922.00
390.232,3003.00
391.243,2884.00
392.254,3015.00
393.264,2828.00
394.275,3249.00
395.283,3162.00
396.294,3657.00
397.304,3490.00
398.314,3100.00
399.324,3043.00
400.334,2652.00
401.344,3155.00
402.351,2673.00
403.361,3185.00
404.370,2962.00
405.380,2964.00
406.389,3318.00
407.398,3107.00
408.407,3118.00
409.414,3136.00
410.423,3309.00
411.431,2753.00
412.440,2674.00
413.448,3344.00
414.457,2844.00
415.465,2838.00
416.471,2879.00
417.479,3016.00
418.487,2841.00
419.495,3305.00
420.503,3097.00
421.510,2635.00
422.518,3188.00
423.525,3190.00
424.530,3339.00
425.537,2859.00
426.544,3222.00
427.551,2845.00
428.558,3565.00
429.565,3391.00
430.571,2902.00
431.578,2912.00
432.582,2839.00
433.588,2951.00
434.595,2623.00
435.601,3297.00
436.607,3225.00
437.612,2758.00
438.618,3322.00
439.624,2958.00
440.627,2927.00
441.633,3118.00
442.638,3577.00
443.643,3117.00
444.648,3052.00
445.653,3183.00
446.658,2889.00
447.663,3003.00
448.667,2858.00
449.672,2925.00
450.674,2999.00
451.678,2735.00
452.682,2895.00
453.687,2841.00
454.690,3587.00
455.694,3270.00
456.698,2554.00
457.702,2675.00
458.705,2754.00
459.709,2798.00
460.710,2861.00
461.713,3036.00
462.716,3047.00
463.719,3008.00
464.722,3201.00
465.725,2971.00
466.727,2833.00
467.730,3043.00
468.732,2737.00
469.735,3282.00
470.737,2887.00
471.737,2915.00
472.739,2882.00
473.741,2806.00
474.742,3081.00
475.744,3082.00
476.746,3030.00
477.747,2977.00
478.748,3128.00
479.750,2906.00
480.751,2984.00
481.752,3717.00
482.753,3094.00
483.751,3553.00
484.752,2612.00
485.753,2956.00
486.753,2878.00
487.753,2996.00
488.754,3419.00
489.754,2720.00
490.754,3288.00
491.754,3169.00
492.754,2648.00
493.753,3006.00
494.753,2924.00
495.752,3348.00
496.752,3046.00
497.749,2989.00
498.748,2833.00
499.747,3408.00
500.746,3084.00
501.745,2780.00
502.744,2766.00
503.742,3327.00
504.741,2953.00
505.739,2441.00
506.737,2933.00
507.735,3100.00
508.734,3375.00
509.732,3134.00
510.729,3363.00
511.727,2894.00
512.725,2885.00
513.720,2779.00
514.718,3253.00
515.715,2658.00
516.712,2661.00
517.709,3042.00
518.706,2895.00
519.703,3070.00
520.700,3161.00
521.696,3334.00
522.693,2916.00
523.689,2847.00
524.686,3177.00
525.682,2815.00
526.678,3472.00
527.674,2964.00
528.670,2623.00
529.666,3490.00
530.661,3478.00
531.657,3113.00
532.652,3161.00
533.648,3018.00
534.641,3172.00
535.636,3073.00
536.631,3063.00
537.626,3146.00
538.621,2713.00
539.616,2621.00
540.610,2499.00
541.605,2995.00
542.599,3044.00
543.593,2967.00
544.587,3918.00
545.581,2794.00
546.575,3042.00
547.569,3053.00
548.563,2706.00
549.557,2664.00
550.550,2789.00
551.543,2705.00
552.537,3143.00
553.530,2769.00
554.523,2776.00
555.516,3146.00
556.509,2931.00
557.502,2662.00
558.494,3175.00
559.487,2964.00
560.479,3136.00
561.472,3235.00
562.464,3125.00
563.456,3274.00
564.448,2945.00
565.440,3001.00
566.432,3386.00
567.423,2882.00
568.415,2901.00
569.404,3103.00
570.396,2791.00
571.387,3112.00
572.378,2989.00
573.369,3914.00
574.360,3631.00
575.351,2939.00
576.341,2852.00
577.332,2851.00
578.323,2701.00
579.313,2859.00
580.303,3242.00
581.293,3149.00
582.283,2990.00
583.273,3118.00
584.263,3030.00
585.253,3077.00
586.243,3178.00
587.232,2684.00
588.222,2956.00
589.211,3168.00
590.200,3054.00
591.189,2957.00
592.178,3013.00
593.167,3408.00
594.156,3253.00
595.145,2881.00
596.133,3459.00
597.122,3123.00
598.110,3208.00
599.098,3011.00
600.086,3015.00
601.074,3195.00
602.062,2827.00
603.050,2745.00
604.038,3063.00
605.025,2758.00
606.013,3207.00
607.000,3394.00
607.987,3003.00
608.975,3078.00
609.962,2756.00
610.949,3122.00
611.936,3257.00
612.922,3131.00
613.909,2705.00
614.895,3312.00
615.882,2853.00
616.868,2943.00
617.854,2711.00
618.841,3007.00
619.826,3061.00
620.812,2991.00
621.798,2779.00
622.784,3146.00
623.769,3107.00
624.755,2683.00
625.740,3058.00
626.725,2703.00
627.711,2849.00
628.698,3062.00
629.683,2766.00
630.667,3145.00
631.652,2735.00
632.637,2934.00
633.621,3196.00
634.606,2920.00
635.590,3111.00
636.574,2910.00
637.558,3092.00
638.542,3065.00
639.526,2845.00
640.510,2642.00
641.493,3053.00
642.477,2953.00
643.460,2710.00
644.444,3259.00
645.427,3205.00
646.410,2682.00
647.393,2942.00
648.376,3061.00
649.359,2926.00
650.341,3067.00
651.324,3081.00
652.307,3048.00
653.289,3006.00
654.271,2864.00
655.253,2918.00
656.235,3122.00
657.217,3229.00
658.199,2661.00
659.181,2773.00
660.163,2989.00
661.144,2892.00
662.126,2846.00
663.107,2771.00
664.088,6238.00
665.069,3251.00
666.050,2805.00
667.033,2708.00
668.014,3054.00
668.995,2569.00
669.975,2990.00
670.956,2991.00
671.936,3156.00
672.916,2928.00
673.896,3066.00
674.876,2876.00
675.856,2842.00
676.836,2741.00
677.816,2309.00
678.795,2801.00
679.775,2684.00
680.754,2988.00
681.734,3139.00
682.713,3170.00
683.692,2782.00
684.671,2645.00
685.650,2753.00
686.629,2863.00
687.607,2753.00
688.586,2756.00
689.564,2871.00
690.543,3287.00
691.523,2379.00
692.501,2834.00
693.479,2873.00
694.457,2762.00
695.435,2846.00
696.413,2690.00
697.390,2529.00
698.368,2655.00
699.345,3049.00
700.322,2948.00
701.300,3077.00
702.277,3043.00
703.254,3246.00
704.231,2562.00
705.207,2956.00
706.184,2718.00
707.161,2663.00
708.137,2821.00
709.113,2804.00
710.090,2765.00
711.068,2593.00
712.044,2610.00
713.020,2850.00
713.996,2657.00
714.971,2786.00
715.947,2830.00
716.922,2772.00
717.898,2752.00
718.873,2859.00
719.848,2717.00
720.823,2689.00
721.798,2965.00
722.773,2773.00
723.748,2543.00
724.723,3026.00
725.697,2851.00
726.672,2735.00
727.646,2523.00
728.622,2982.00
729.596,2600.00
730.570,2738.00
731.544,3078.00
732.518,3258.00
733.492,2825.00
734.466,2876.00
735.439,3012.00
736.413,3132.00
737.386,2489.00
738.359,2438.00
739.332,2537.00
740.305,2856.00
741.278,3261.00
742.251,2954.00
743.224,2752.00
744.196,2507.00
745.171,3128.00
746.143,3074.00
747.115,2749.00
748.087,2684.00
749.059,3063.00
750.031,2921.00
751.003,3684.00
751.975,3251.00
752.947,2680.00
753.918,3095.00
754.890,2566.00
755.861,2769.00
756.832,3002.00
757.803,2864.00
758.774,2838.00
759.747,2609.00
760.718,3231.00
761.689,2748.00
762.659,2576.00
763.630,3161.00
764.600,2567.00
765.570,3050.00
766.540,3148.00
767.510,2924.00
768.480,3050.00
769.450,2739.00
770.420,2829.00
771.390,2612.00
772.359,2748.00
773.329,2669.00
774.300,2538.00
775.269,2747.00
776.238,2977.00
777.207,3129.00
778.176,2499.00
779.145,2808.00
780.114,2663.00
781.083,2566.00
782.051,2759.00
783.019,2666.00
783.988,3040.00
784.956,2847.00
785.924,3001.00
786.894,2863.00
787.862,2713.00
788.830,3137.00
789.797,2642.00
790.765,2614.00
791.732,2714.00
792.700,2631.00
793.667,2606.00
794.634,2752.00
795.601,2752.00
796.568,2817.00
797.535,2842.00
798.502,3453.00
799.468,2897.00
800.437,2408.00
801.403,2663.00
802.370,3277.00
803.336,3015.00
804.302,2875.00
805.268,2416.00
806.234,2583.00
807.200,2734.00
808.166,2771.00
809.131,2551.00
810.097,2976.00
811.062,3623.00
812.027,3045.00
812.994,2610.00
813.960,2614.00
814.925,2940.00
815.889,2535.00
816.854,3026.00
817.819,2657.00
818.783,2736.00
819.748,3105.00
820.712,2739.00
821.677,2661.00
822.641,2707.00
823.605,2717.00
824.571,3138.00
825.534,2731.00
826.498,2719.00
827.462,2814.00
828.425,2595.00
829.389,3056.00
830.352,2814.00
831.315,2934.00
832.279,2500.00
833.242,2742.00
834.204,2657.00
835.167,2652.00
836.132,3056.00
837.095,2500.00
838.057,2733.00
839.020,2803.00
839.982,2888.00
840.944,2692.00
841.906,2637.00
842.868,2975.00
843.830,2502.00
844.792,3021.00
845.753,2665.00
846.715,2390.00
847.679,2587.00
848.640,2620.00
849.601,2798.00
850.562,3247.00
851.523,2657.00
852.484,2442.00
853.445,2956.00
854.406,2716.00
855.367,2743.00
856.327,3059.00
857.288,2509.00
858.248,2661.00
859.210,2704.00
860.170,2530.00
861.130,3018.00
862.090,2414.00
863.050,2618.00
864.010,2685.00
864.969,2893.00
865.929,2632.00
866.888,2521.00
867.848,2864.00
868.807,2658.00
869.766,2839.00
870.727,2709.00
871.686,2982.00
872.645,2980.00
873.604,3268.00
874.562,2762.00
875.521,2782.00
876.479,3341.00
877.437,2541.00
878.396,2593.00
879.354,3169.00
880.312,2613.00
881.270,2635.00
882.229,3087.00
883.187,2598.00
884.145,2650.00
885.102,2950.00
886.059,2831.00
887.017,2911.00
887.974,2940.00
888.931,3077.00
889.888,2516.00
890.845,2458.00
891.802,2346.00
892.758,2617.00
893.717,2442.00
894.673,2560.00
895.630,2640.00
896.586,2929.00
897.542,2699.00
898.498,2521.00
899.454,2844.00
900.410,2681.00
901.366,2651.00
902.321,2638.00
903.277,2707.00
904.232,2793.00
905.189,2478.00
906.145,2651.00
907.100,2224.00
908.055,2667.00
909.010,2930.00
909.965,2308.00
910.919,2787.00
911.874,2549.00
912.828,2778.00
913.783,2796.00
914.737,2384.00
915.693,2759.00
916.648,2958.00
917.602,2933.00
918.555,2756.00
919.509,2829.00
920.463,2763.00
921.417,2764.00
922.370,2599.00
923.324,2704.00
924.277,2666.00
925.230,2731.00
926.183,2401.00
927.138,2706.00
928.091,2989.00
929.044,2812.00
929.996,2678.00
930.949,2638.00
931.902,2888.00
932.854,2839.00
933.806,2581.00
934.758,2948.00
935.711,2989.00
936.663,2788.00
937.614,2799.00
938.568,2706.00
939.520,2384.00
940.471,2726.00
941.423,2764.00
942.374,2871.00
943.326,2768.00
944.277,2620.00
945.228,2860.00
946.179,2704.00
947.130,3007.00
948.080,2713.00
949.031,2588.00
949.984,2669.00
950.934,2744.00
951.884,2458.00
952.835,2714.00
953.785,2761.00
954.735,2619.00
955.685,2325.00
956.635,2641.00
957.585,2617.00
958.534,2638.00
959.484,2727.00
960.433,2622.00
961.383,2482.00
962.334,2962.00
963.283,2817.00
964.232,2875.00
965.181,2717.00
966.130,2789.00
967.079,2652.00
968.027,2694.00
968.976,2766.00
969.924,2611.00
970.873,2786.00
971.821,2780.00
972.769,2948.00
973.719,2848.00
974.667,2471.00
975.615,2717.00
976.562,2705.00
977.510,2421.00
978.458,2609.00
979.405,2843.00
980.352,2799.00
981.300,2955.00
982.247,2802.00
983.194,2547.00
984.141,2634.00
985.088,2711.00
986.036,2786.00
986.983,3000.00
987.930,3135.00
988.876,2348.00
989.822,2946.00
990.769,2528.00
991.715,2629.00
992.661,2427.00
993.607,2816.00
994.553,3272.00
995.498,2600.00
996.444,2247.00
997.389,2775.00
998.337,2540.00
999.282,2889.00
1000.227,2617.00
1001.173,2714.00
1002.118,2475.00
1003.062,2897.00
1004.007,2694.00
1004.952,3007.00
1005.897,2956.00
1006.841,2706.00
1007.786,2470.00
1008.730,2412.00
1009.674,3159.00
1010.618,2697.00
1011.564,2480.00
1012.508,2416.00
1013.452,2920.00
1014.396,2727.00
1015.339,2598.00
1016.283,2728.00
1017.226,2764.00
1018.170,2713.00
1019.113,2935.00
1020.056,2708.00
1020.999,2697.00
1021.942,2640.00
1022.885,2858.00
1023.828,3031.00
1024.770,2477.00
1025.715,2754.00
1026.657,2653.00
1027.600,2776.00
1028.542,2902.00
1029.484,2718.00
1030.426,2865.00
1031.368,2775.00
1032.310,2577.00
1033.251,2549.00
1034.193,2689.00
1035.135,2542.00
1036.076,2634.00
1037.017,2522.00
1037.959,2810.00
1038.900,2823.00
1039.843,2829.00
1040.784,2749.00
1041.725,2785.00
1042.665,2613.00
1043.606,2778.00
1044.547,2751.00
1045.487,2374.00
1046.427,2711.00
1047.368,2783.00
1048.308,2260.00
1049.248,2498.00
1050.188,2693.00
1051.128,2643.00
1052.067,2659.00
1053.007,2388.00
1053.947,2361.00
1054.886,2563.00
1055.827,2486.00
1056.766,2879.00
1057.706,2473.00
1058.645,2687.00
1059.584,2766.00
1060.522,2980.00
1061.461,2434.00
1062.400,2442.00
1063.338,2650.00
1064.277,2528.00
1065.215,2508.00
1066.154,2400.00
1067.092,2609.00
1068.030,2644.00
1068.968,2893.00
1069.906,2981.00
1070.843,2980.00
1071.781,2750.00
1072.720,2788.00
1073.658,2854.00
1074.595,2582.00
1075.533,2568.00
1076.470,2597.00
1077.407,2960.00
1078.344,2756.00
1079.281,2776.00
1080.217,2324.00
1081.154,2650.00
1082.091,2772.00
1083.027,2469.00
1083.964,2909.00
1084.900,2565.00
1085.836,2620.00
1086.772,2900.00
1087.708,2450.00
1088.644,2807.00
1089.580,2703.00
1090.515,2776.00
1091.451,2612.00
1092.388,2733.00
1093.324,2474.00
1094.259,3215.00
1095.194,2772.00
1096.129,2641.00
1097.064,2602.00
1097.999,2829.00
1098.934,2530.00
1099.869,2568.00
1100.803,2734.00
1101.738,2733.00
1102.672,2419.00
1103.607,2809.00
1104.541,2560.00
1105.475,2544.00
1106.409,2455.00
1107.343,2586.00
1108.277,2426.00
1109.210,2728.00
1110.144,2701.00
1111.078,2659.00
1112.011,2448.00
1112.944,2769.00
1113.878,2748.00
1114.811,2215.00
1115.744,2571.00
1116.678,2317.00
1117.611,2579.00
1118.544,2612.00
1119.477,2767.00
1120.409,2554.00
1121.342,3090.00
1122.274,2754.00
1123.206,3001.00
1124.138,2671.00
1125.070,3020.00
1126.002,2841.00
1126.934,2301.00
1127.866,2571.00
1128.798,2338.00
1129.729,2393.00
1130.661,2662.00
1131.592,2579.00
1132.523,2782.00
1133.454,2804.00
1134.385,2283.00
1135.317,2661.00
1136.247,2582.00
1137.178,2836.00
1138.109,2401.00
1139.039,3002.00
1139.970,2826.00
1140.900,2545.00
1141.831,2365.00
1142.761,2234.00
1143.691,2752.00
1144.621,2632.00
1145.551,2703.00
1146.480,2678.00
1147.410,2832.00
1148.340,2288.00
1149.269,2368.00
1150.199,2594.00
1151.128,3048.00
1152.057,2449.00
1152.979,2568.00
1153.898,2649.00
1154.819,2765.00
1155.739,2581.00
1156.658,2566.00
1157.579,2685.00
1158.498,2643.00
1159.419,2151.00
1160.338,2662.00
1161.256,2669.00
1162.177,2494.00
1163.095,2643.00
1164.016,2703.00
1164.934,2908.00
1165.852,2838.00
1166.772,2608.00
1167.690,2635.00
1168.610,2678.00
1169.528,2641.00
1170.446,2188.00
1171.365,2501.00
1172.283,2538.00
1173.202,2637.00
1174.120,2646.00
1175.037,2504.00
1175.956,2454.00
1176.873,2492.00
1177.792,2530.00
1178.709,3112.00
1179.626,2545.00
1180.544,2868.00
1181.461,2528.00
1182.379,2741.00
1183.296,2637.00
1184.212,2290.00
1185.130,2484.00
1186.046,2997.00
1186.962,2642.00
1187.880,2919.00
1188.796,2652.00
1189.714,2449.00
1190.629,2775.00
1191.545,2705.00
1192.462,2559.00
1193.378,2600.00
1194.295,2335.00
1195.210,2642.00
1196.125,2774.00
1197.042,2714.00
1197.957,2637.00
1198.872,2499.00
1199.788,2541.00
1200.703,2964.00
1201.619,2652.00
1202.534,2527.00
1203.448,2667.00
1204.364,2567.00
1205.278,2305.00
1206.192,2661.00
1207.108,3142.00
1208.022,3014.00
1208.938,2503.00
1209.851,2783.00
1210.765,2890.00
1211.680,2516.00
1212.594,2409.00
1213.507,2598.00
1214.422,3038.00
1215.335,2721.00
1216.248,2541.00
1217.163,2654.00
1218.076,3236.00
1218.990,2712.00
1219.903,2419.00
1220.816,2470.00
1221.730,2568.00
1222.642,2501.00
1223.554,2577.00
1224.469,2747.00
1225.380,2569.00
1226.292,2313.00
1227.206,2763.00
1228.118,2935.00
1229.032,2275.00
1229.943,2542.00
1230.855,2598.00
1231.768,2403.00
1232.679,2734.00
1233.590,2619.00
1234.503,2864.00
1235.414,2480.00
1236.325,2514.00
1237.238,2709.00
1238.149,2706.00
1239.059,2428.00
1239.972,2812.00
1240.882,2449.00
1241.793,2771.00
1242.705,2984.00
1243.615,2564.00
1244.525,2740.00
1245.437,2214.00
1246.347,2682.00
1247.259,2788.00
1248.168,3036.00
1249.078,2868.00
1249.989,2888.00
1250.899,2436.00
1251.808,2524.00
1252.719,2561.00
1253.628,2481.00
1254.537,2992.00
1255.448,2496.00
1256.357,2481.00
1257.266,2627.00
1258.176,2359.00
1259.085,2364.00
1259.993,2469.00
1260.904,2482.00
1261.812,2451.00
1262.720,3214.00
1263.630,2776.00
1264.538,2495.00
1265.446,2745.00
1266.356,2619.00
1267.263,2892.00
1268.171,2416.00
1269.080,2698.00
1269.988,2771.00
1270.895,2527.00
1271.804,2613.00
1272.711,2804.00
1273.619,2784.00
1274.527,2442.00
1275.434,2762.00
1276.341,2442.00
1277.248,2673.00
1278.156,2893.00
1279.063,2512.00
1279.969,2725.00
1280.877,3497.00
1281.783,2843.00
1282.690,2675.00
1283.598,2568.00
1284.503,2483.00
1285.409,2482.00
1286.317,3011.00
1287.223,3039.00
1288.128,2716.00
1289.036,2547.00
1289.941,2572.00
1290.846,2603.00
1291.751,2466.00
1292.658,2512.00
1293.563,3051.00
1294.468,2664.00
1295.375,2835.00
1296.280,2860.00
1297.184,3313.00
1298.091,2722.00
1298.995,2801.00
1299.900,2947.00
1300.806,2516.00
1301.710,2394.00
1302.614,2209.00
1303.518,2914.00
1304.424,2570.00
1305.327,2805.00
1306.231,2621.00
1307.137,2790.00
1308.040,2684.00
1308.943,2633.00
1309.847,2818.00
1310.752,2823.00
1311.655,2329.00
1312.558,2413.00
1313.463,2587.00
1314.366,2536.00
1315.269,2666.00
1316.171,2631.00
1317.076,2495.00
1317.978,2418.00
1318.881,2216.00
1319.785,2477.00
1320.687,2475.00
1321.589,2266.00
1322.491,2465.00
1323.395,2708.00
1324.297,3175.00
1325.198,2743.00
1326.102,2461.00
1327.004,2434.00
1327.905,3037.00
1328.806,2595.00
1329.709,2651.00
1330.611,2554.00
1331.512,2433.00
1332.413,3066.00
1333.316,2686.00
1334.216,2839.00
1335.117,2376.00
1336.020,2694.00
1336.920,2636.00
1337.821,2557.00
1338.721,2930.00
1339.623,2700.00
1340.523,2572.00
1341.423,2525.00
1342.323,2930.00
1343.225,2716.00
1344.125,2464.00
1345.025,2488.00
1345.924,2287.00
1346.826,2996.00
1347.725,3052.00
1348.624,2853.00
1349.524,2481.00
1350.425,2578.00
1351.324,2701.00
1352.223,2789.00
1353.121,2623.00
1354.022,2811.00
1354.921,3020.00
1355.819,2746.00
1356.718,2707.00
1357.618,2387.00
1358.516,2751.00
1359.415,3000.00
1360.313,2721.00
1361.213,2582.00
1362.111,2907.00
1363.008,3266.00
1363.906,2604.00
1364.806,2670.00
1365.703,2709.00
1366.601,2447.00
1367.498,2445.00
1368.397,2817.00
1369.295,2688.00
1370.192,2438.00
1371.089,2727.00
1371.987,2634.00
1372.884,2927.00
1373.781,2429.00
1374.678,2616.00
1375.574,2467.00
1376.473,2765.00
1377.369,2855.00
1378.265,2486.00
1379.161,2601.00
1380.059,2355.00
1380.955,2774.00
1381.851,2374.00
1382.747,2521.00
1383.643,2579.00
1384.540,2458.00
1385.436,2540.00
1386.331,2716.00
1387.227,2815.00
1388.124,2746.00
1389.019,2456.00
1389.914,2585.00
1390.809,2280.00
1391.704,3063.00
1392.601,2544.00
1393.495,2896.00
1394.390,2802.00
1395.285,2888.00
1396.179,2698.00
1397.075,2621.00
1397.969,2692.00
1398.864,2364.00
1399.758,2589.00
1400.652,2653.00
1401.547,2474.00
1402.441,2425.00
1403.335,2956.00
1404.229,2667.00
1405.122,2739.00
1406.017,2608.00
1406.911,2738.00
1407.804,2988.00
1408.697,2635.00
1409.590,2458.00
1410.485,2817.00
1411.378,2708.00
1412.271,2312.00
1413.163,2746.00
1414.056,2760.00
1414.949,2987.00
1415.843,2681.00
1416.735,2605.00
1417.627,2640.00
1418.520,2632.00
1419.412,2839.00
1420.306,2735.00
1421.197,2931.00
1422.089,2857.00
1422.981,3109.00
1423.873,2826.00
1424.764,2735.00
1425.657,2638.00
1426.549,2754.00
1427.440,2835.00
1428.331,2533.00
1429.222,2335.00
1430.113,2656.00
1431.006,2805.00
1431.897,2518.00
1432.787,2638.00
1433.678,2550.00
1434.568,2453.00
1435.459,2859.00
1436.351,2857.00
1437.241,2797.00
1438.131,2781.00
1439.021,2411.00
1439.911,2606.00
1440.801,2694.00
1441.693,2863.00
1442.583,2626.00
1443.472,2678.00
1444.362,2777.00
1445.251,2600.00
1446.140,2559.00
1447.030,2825.00
1447.921,2837.00
1448.810,2470.00
1449.699,3021.00
1450.588,2703.00
1451.476,2542.00
1452.365,2742.00
1453.254,2561.00
1454.144,2499.00
1455.032,2795.00
1455.921,2396.00
1456.809,2917.00
1457.697,2459.00
1458.585,2602.00
1459.473,2575.00
1460.361,2473.00
1461.251,2738.00
1462.138,2722.00
1463.026,2628.00
1463.913,2870.00
1464.801,2575.00
1465.688,2725.00
1466.575,2636.00
1467.463,3056.00
1468.351,2521.00
1469.238,2602.00
1470.125,2262.00
1471.012,2668.00
1471.899,2708.00
1472.785,2498.00
1473.672,2673.00
1474.558,2877.00
1475.446,2748.00
1476.333,2857.00
1477.219,2461.00
1478.105,2635.00
1478.991,2603.00
1479.877,2953.00
1480.762,2670.00
1481.648,2523.00
1482.534,2795.00
1483.419,2695.00
1484.307,2742.00
1485.192,2672.00
1486.077,2502.00
1486.962,2530.00
1487.847,2406.00
1488.732,2505.00
1489.617,2657.00
1490.502,2944.00
1491.387,2796.00
1492.271,2480.00
1493.156,2491.00
1494.042,2455.00
1494.927,2865.00
1495.811,2525.00
1496.695,2769.00
1497.579,2910.00
1498.463,2623.00
1499.347,2731.00
1500.231,2710.00
1501.114,2703.00
1501.998,2897.00
1502.881,2695.00
1503.765,2959.00
1504.648,3053.00
1505.533,2747.00
1506.417,2638.00
1507.300,2606.00
1508.183,2698.00
1509.066,2151.00
1509.948,2867.00
1510.831,2988.00
1511.714,2437.00
1512.596,2848.00
1513.479,2895.00
1514.361,2838.00
1515.243,2680.00
1516.125,2819.00
1517.008,2884.00
1517.890,2618.00
1518.771,2661.00
1519.655,2921.00
1520.537,2610.00
1521.419,2469.00
1522.300,2668.00
1523.182,2774.00
1524.063,2831.00
1524.944,2936.00
1525.825,2866.00
1526.707,2457.00
1527.588,2440.00
1528.468,2719.00
1529.349,2308.00
1530.230,2601.00
1531.111,2847.00
1531.991,2676.00
1532.872,2406.00
1533.752,2661.00
1534.632,2527.00
1535.513,2522.00
1536.393,2820.00
1537.273,2960.00
1538.153,3238.00
1539.032,2387.00
1539.912,2633.00
1540.792,2664.00
1541.672,2649.00
1542.551,2808.00
1543.430,3202.00
1544.310,2706.00
1545.189,2549.00
1546.068,3066.00
1546.947,2741.00
1547.826,2952.00
1548.705,2660.00
1549.584,2886.00
1550.462,2596.00
1551.341,2839.00
1552.219,2712.00
1553.098,2792.00
1553.976,2872.00
1554.854,3061.00
1555.733,2882.00
1556.611,2580.00
1557.489,2476.00
1558.367,2665.00
1559.244,2835.00
1560.122,2665.00
1561.000,2737.00
1561.877,2957.00
1562.755,2526.00
1563.632,2651.00
1564.509,2906.00
1565.386,2967.00
1566.264,2410.00
1567.141,2320.00
1568.017,2790.00
1568.894,2636.00
1569.771,2703.00
1570.648,2753.00
1571.524,2701.00
1572.401,2444.00
1573.277,2429.00
1574.153,2646.00
1575.029,2499.00
1575.906,3366.00
1576.781,2824.00
1577.657,2590.00
1578.533,2913.00
1579.409,2323.00
1580.285,2640.00
1581.160,3101.00
1582.036,2837.00
1582.911,2462.00
1583.786,3011.00
1584.662,2476.00
1585.537,2614.00
1586.412,2718.00
1587.287,2516.00
1588.160,2843.00
1589.035,2337.00
1589.909,2697.00
1590.784,2632.00
1591.658,2465.00
1592.533,2691.00
1593.407,2670.00
1594.281,2598.00
1595.155,3037.00
1596.029,2551.00
1596.903,2586.00
1597.777,2564.00
1598.651,2896.00
1599.525,2387.00
1600.398,2686.00
1601.272,2612.00
1602.144,3188.00
1603.017,2616.00
1603.890,2894.00
1604.763,2773.00
1605.636,2804.00
1606.509,2385.00
1607.382,2536.00
1608.255,2781.00
1609.128,2874.00
1610.000,2624.00
1610.873,2347.00
1611.746,2572.00
1612.616,2575.00
1613.488,2273.00
1614.361,2664.00
1615.233,2598.00
1616.105,2916.00
1616.977,2570.00
1617.849,2510.00
1618.720,2961.00
1619.592,2949.00
1620.464,2737.00
1621.333,3121.00
1622.205,2652.00
1623.076,2614.00
1623.947,2658.00
1624.818,2923.00
1625.689,2727.00
1626.560,2596.00
1627.431,2708.00
1628.302,3061.00
1629.171,2807.00
1630.042,2962.00
1630.912,3632.00
1631.782,3240.00
1632.653,2474.00
1633.523,2799.00
1634.393,2904.00
1635.263,2548.00
1636.131,2644.00
1637.001,2553.00
1637.871,2299.00
1638.741,2341.00
1639.611,2432.00
1640.480,2809.00
1641.350,2511.00
1642.219,2506.00
1643.087,2207.00
1643.956,3048.00
1644.825,2915.00
1645.694,2878.00
1646.563,2832.00
1647.432,2679.00
1648.299,2673.00
1649.167,2791.00
1650.036,2493.00
1650.904,2857.00
1651.773,2894.00
1652.641,2682.00
1653.509,2898.00
1654.376,2563.00
1655.244,2706.00
1656.112,2769.00
1656.980,2684.00
1657.847,2513.00
1658.715,2831.00
1659.581,2612.00
1660.448,2899.00
1661.316,2200.00
1662.183,2682.00
1663.051,2739.00
1663.918,2685.00
1664.783,2694.00
1665.650,2760.00
1666.517,2853.00
1667.384,2667.00
1668.251,2675.00
1669.115,2905.00
1669.982,2685.00
1670.849,2955.00
1671.715,2655.00
1672.581,2831.00
1673.446,2758.00
1674.312,2694.00
1675.178,3082.00
1676.044,2754.00
1676.910,2747.00
1677.774,2704.00
1678.639,2345.00
1679.505,2633.00
1680.370,2784.00
1681.236,3318.00
1682.099,2609.00
1682.965,2715.00
1683.830,2307.00
1684.695,2525.00
1685.560,2625.00
1686.423,2786.00
1687.288,2794.00
1688.153,2719.00
1689.017,2582.00
1689.880,2750.00
1690.745,2845.00
1691.609,2536.00
1692.473,2862.00
1693.338,2945.00
1694.200,2960.00
1695.064,2699.00
1695.928,2560.00
1696.792,2705.00
1697.654,3182.00
1698.517,2716.00
1699.381,2398.00
1700.245,2356.00
1701.106,2962.00
1701.969,2593.00
1702.833,2785.00
1703.696,2592.00
1704.557,2641.00
1705.420,2521.00
1706.283,2706.00
1707.146,2811.00
1708.007,2508.00
1708.870,2491.00
1709.732,2387.00
1710.595,2557.00
1711.455,2450.00
1712.318,2589.00
1713.180,2930.00
1714.040,2763.00
1714.902,2835.00
1715.764,2709.00
1716.626,2479.00
1717.486,2652.00
1718.348,2947.00
1719.209,4354.00
1720.071,2343.00
1720.930,2418.00
1721.792,2521.00
1722.653,2538.00
1723.512,2576.00
1724.374,2639.00
1725.234,2733.00
1726.095,2738.00
1726.954,2645.00
1727.815,2792.00
1728.676,2710.00
1729.535,2922.00
1730.395,2644.00
1731.256,2610.00
1732.114,2720.00
1732.974,2177.00
1733.834,3052.00
1734.693,2849.00
1735.553,2701.00
1736.413,3104.00
1737.272,2587.00
1738.130,2625.00
1738.990,2763.00
1739.849,2567.00
1740.707,3692.00
1741.566,2707.00
1742.426,2742.00
1743.283,3078.00
1744.142,2598.00
1745.001,2409.00
1745.858,2846.00
1746.717,2744.00
1747.576,2788.00
1748.433,2832.00
1749.292,3279.00
1750.150,3253.00
1751.007,2857.00
1751.865,2868.00
1752.723,2700.00
1753.579,2614.00
1754.438,2926.00
1755.296,2915.00
1756.152,2284.00
1757.010,2344.00
1757.865,2844.00
1758.723,2344.00
1759.581,2986.00
1760.436,2644.00
1761.294,3048.00
1762.151,2673.00
1763.006,2608.00
1763.864,2329.00
1764.721,2840.00
1765.576,2693.00
1766.433,2835.00
1767.288,2589.00
1768.144,2718.00
1769.001,2632.00
1769.856,2742.00
1770.712,2902.00
1771.568,2450.00
1772.423,2580.00
1773.279,2617.00
1774.133,2577.00
1774.989,3053.00
1775.845,3244.00
1776.699,2933.00
1777.555,2670.00
1778.409,3195.00
1779.265,2662.00
1780.120,2645.00
1780.974,2670.00
1781.829,2297.00
1782.682,2746.00
1783.538,2536.00
1784.393,2738.00
1785.246,2588.00
1786.101,2775.00
1786.954,2840.00
1787.808,2884.00
1788.661,2401.00
1789.516,2609.00
1790.370,2639.00
1791.223,2876.00
1792.077,2700.00
1792.930,2778.00
1793.784,2563.00
1794.636,2686.00
1795.490,2660.00
1796.344,2677.00
1797.196,2673.00
1798.049,2830.00
1798.901,2572.00
1799.755,2921.00
1800.606,2511.00
1801.460,3182.00
1802.311,2964.00
1803.165,3093.00
1804.018,3035.00
1804.869,2775.00
1805.722,3200.00
1806.573,2716.00
1807.426,2507.00
1808.276,2691.00
1809.129,2611.00
1809.980,2893.00
1810.832,2993.00
1811.683,2619.00
1812.535,3010.00
1813.385,2638.00
1814.237,2946.00
1815.089,2750.00
1815.940,2951.00
1816.791,2657.00
1817.641,2552.00
1818.493,2853.00
1819.343,2784.00
1820.194,2563.00
1821.044,2835.00
1821.895,2924.00
1822.745,2426.00
1823.596,2568.00
1824.445,3098.00
1825.296,2782.00
1826.145,2676.00
1826.996,2865.00
1827.845,2737.00
1828.695,2772.00
1829.544,2665.00
1830.395,2741.00
1831.243,2614.00
1832.094,2423.00
1832.942,3281.00
1833.792,2815.00
1834.640,2730.00
1835.490,2712.00
1836.338,2738.00
1837.186,2606.00
1838.036,2522.00
1838.884,2677.00
1839.733,3040.00
1840.581,2901.00
1841.430,2853.00
1842.278,3004.00
1843.127,2574.00
1843.974,2388.00
1844.823,3111.00
1845.671,2871.00
1846.519,2689.00
1847.366,2772.00
1848.213,2345.00
1849.062,2523.00
1849.909,2419.00
1850.757,3299.00
1851.604,2797.00
1852.452,2626.00
1853.298,2875.00
1854.146,2743.00
1854.993,2750.00
1855.839,3222.00
1856.687,2808.00
1857.532,2815.00
1858.380,2719.00
1859.226,2757.00
1860.073,2797.00
1860.919,2528.00
1861.765,2595.00
1862.612,2959.00
1863.457,2931.00
1864.304,2682.00
1865.150,2828.00
1865.995,2687.00
1866.842,2802.00
1867.686,2926.00
1868.533,2772.00
1869.378,2784.00
1870.223,2766.00
1871.069,2604.00
1871.914,2720.00
1872.760,2692.00
1873.604,2509.00
1874.448,2848.00
1875.294,2856.00
1876.139,2596.00
1876.984,2805.00
1877.828,2375.00
1878.672,2180.00
1879.518,2589.00
1880.361,2881.00
1881.205,2862.00
1882.050,2526.00
1882.894,3201.00
1883.739,2586.00
1884.582,2502.00
1885.425,2508.00
1886.270,2929.00
1887.113,2462.00
1887.956,2817.00
1888.801,2748.00
1889.644,2537.00
1890.486,2314.00
1891.331,2633.00
1892.173,2758.00
1893.017,2749.00
1893.860,3002.00
1894.702,2996.00
1895.546,2690.00
1896.388,3393.00
1897.230,3067.00
1898.074,2628.00
1898.916,2489.00
1899.757,2508.00
1900.601,3346.00
1901.443,3047.00
1902.284,2993.00
1903.125,3183.00
1903.969,2929.00
1904.810,2944.00
1905.651,2778.00
1906.494,3054.00
1907.335,3138.00
1908.176,2819.00
1909.018,2808.00
1909.859,2701.00
1910.700,2573.00
1911.542,3253.00
1912.383,2783.00
1913.223,2372.00
1914.064,2851.00
1914.906,2978.00
1915.746,3051.00
1916.586,3210.00
1917.428,2680.00
1918.268,2735.00
1919.107,2613.00
1919.947,2506.00
1920.789,2672.00
1921.628,2932.00
1922.468,2738.00
1923.309,2590.00
1924.148,3032.00
1924.988,2780.00
1925.827,2701.00
1926.667,2613.00
1927.507,2757.00
1928.345,2552.00
1929.184,2849.00
1930.025,2562.00
1930.864,2942.00
1931.702,3023.00
1932.541,2624.00
1933.381,2818.00
1934.219,2852.00
1935.057,2976.00
1935.896,2431.00
1936.735,2648.00
1937.573,2597.00
1938.411,2528.00
1939.249,2880.00
1940.089,2599.00
1940.927,2949.00
1941.764,3015.00
1942.602,2668.00
1943.439,2580.00
1944.278,2702.00
1945.115,2615.00
1945.953,2499.00
1946.790,2804.00
1947.628,3049.00
1948.465,2801.00
1949.302,2871.00
1950.139,2867.00
1950.976,2600.00
1951.814,2886.00
1952.651,2783.00
1953.487,2519.00
1954.323,2967.00
1955.160,2680.00
1955.998,3092.00
1956.834,2695.00
1957.670,2799.00
1958.506,2982.00
1959.342,2808.00
1960.177,2760.00
1961.015,2814.00
1961.850,2742.00
1962.686,2756.00
1963.521,2725.00
1964.357,2985.00
1965.192,2485.00
1966.029,2873.00
1966.864,2657.00
1967.699,2946.00
1968.534,2739.00
1969.369,3035.00
1970.204,2722.00
1971.040,2775.00
1971.875,2660.00
1972.709,2751.00
1973.544,2595.00
1974.378,2656.00
1975.212,2823.00
1976.047,2632.00
1976.882,2623.00
1977.716,3103.00
1978.550,2452.00
1979.384,2694.00
1980.218,2712.00
1981.052,2675.00
1981.885,2787.00
1982.719,2689.00
1983.554,2884.00
1984.388,3057.00
1985.221,2791.00
1986.054,2978.00
1986.887,2751.00
1987.720,2581.00
1988.553,3031.00
1989.386,2851.00
1990.219,2873.00
1991.053,3066.00
1991.886,2619.00
1992.719,2950.00
1993.551,2278.00
1994.383,2863.00
1995.216,2697.00
1996.048,2470.00
1996.880,2904.00
1997.712,2625.00
1998.544,2730.00
1999.376,2835.00
2000.208,3020.00
