RamanScope Measure Spectrum Data V3.72

<< MEASURE CONDITION >>
Exposure Type,Aver
Exposure Time [sec],15
Exposure Count,4
Measure Time,2023/07/14 22:30:47
Data Name,""
Data Comment,""
Rayleigh Wave[nm],532.0

<< SAMPLE SPECTRUM >>
Wave[dcm-1],No125
146.591,553.50
147.626,674.50
148.664,800.75
149.699,974.00
150.737,1120.75
151.772,1276.50
152.809,1455.25
153.846,1559.00
154.881,1727.00
155.918,1909.25
156.953,1976.75
157.989,2152.50
159.026,2191.50
160.060,2291.75
161.096,2341.75
162.130,2417.00
163.167,2414.25
164.200,2469.75
165.236,2535.50
166.272,2493.75
167.305,2597.75
168.341,2608.00
169.374,2654.75
170.409,2713.00
171.445,2773.75
172.477,2808.75
173.512,2837.50
174.545,2879.50
175.580,2907.75
176.614,2974.75
177.647,3023.00
178.681,3042.50
179.713,2989.25
180.747,3009.00
181.781,2956.75
182.813,2954.00
183.847,2903.50
184.878,2980.75
185.912,2965.25
186.945,2975.25
187.976,2923.75
189.010,2931.50
190.043,2957.00
191.073,3005.75
192.106,2988.75
193.137,2971.25
194.170,2999.75
195.202,3023.50
196.232,3072.25
197.265,3089.00
198.297,3025.25
199.327,3102.75
200.359,3240.50
201.388,3287.00
202.420,3363.50
203.452,3332.00
204.481,3363.00
205.512,3499.25
206.544,3515.50
207.573,3550.75
208.604,3672.75
209.635,3750.50
210.663,3843.00
211.694,3963.00
212.725,4049.25
213.753,4170.25
214.783,4288.50
215.813,4306.75
216.841,4387.50
217.871,4415.25
218.899,4435.00
219.929,4465.75
220.959,4547.75
221.986,4374.75
223.016,4330.75
224.045,4297.00
225.072,4271.00
226.101,4188.75
227.130,4089.00
228.157,3974.50
229.185,3885.75
230.214,3862.50
231.241,3759.25
232.269,3709.75
233.297,3699.25
234.323,3645.50
235.351,3599.25
236.379,3621.75
237.407,3605.50
238.433,3498.00
239.460,3547.00
240.488,3555.00
241.513,3551.25
242.540,3602.50
243.568,3612.75
244.592,3659.25
245.619,3716.25
246.646,3747.00
247.671,3700.50
248.697,3733.50
249.724,3745.00
250.748,3623.50
251.774,3682.25
252.801,3628.50
253.827,3702.00
254.850,3615.50
255.876,3691.00
256.902,3686.75
257.925,3663.75
258.951,3679.75
259.976,3742.25
260.999,3768.00
262.024,3814.00
263.049,3849.25
264.074,3851.00
265.097,3862.00
266.122,3903.75
267.146,3934.25
268.168,3973.50
269.193,4083.50
270.217,4007.50
271.241,4100.75
272.263,4139.00
273.287,4148.00
274.311,4184.25
275.332,4231.50
276.356,4294.50
277.379,4311.50
278.402,4314.50
279.424,4280.50
280.447,4215.50
281.470,4222.50
282.492,4209.25
283.513,4174.25
284.536,4074.25
285.558,4041.00
286.581,3968.75
287.601,3902.75
288.623,3861.25
289.645,3822.75
290.665,3795.75
291.687,3788.00
292.709,3692.00
293.730,3689.25
294.750,3542.50
295.771,3582.00
296.792,3496.00
297.813,3452.50
298.832,3453.00
299.853,3345.75
300.874,3349.50
301.895,3270.50
302.913,3259.75
303.934,3205.00
304.954,3210.00
305.975,3174.75
306.993,3079.50
308.013,3159.25
309.033,3052.50
310.052,3077.25
311.072,3044.25
312.090,2991.25
313.109,3080.00
314.129,2916.50
315.148,2908.50
316.165,2869.75
317.184,2956.00
318.203,2874.50
319.222,2893.50
320.238,2829.50
321.257,2795.00
322.275,2804.50
323.294,2839.00
324.312,2784.50
325.328,2810.75
326.346,2759.50
327.364,2784.50
328.382,2782.50
329.397,2761.50
330.415,2762.00
331.432,2744.25
332.450,2734.00
333.467,2766.75
334.482,2756.25
335.499,2749.75
336.516,2684.00
337.533,2694.50
338.547,2717.25
339.564,2715.00
340.580,2662.00
341.597,2680.50
342.613,2710.00
343.627,2714.00
344.643,2703.50
345.659,2656.50
346.675,2686.50
347.690,2692.50
348.704,2665.50
349.719,2677.00
350.735,2635.75
351.750,2724.50
352.765,2682.50
353.778,2644.75
354.793,2645.50
355.808,2665.00
356.822,2661.50
357.837,2605.50
358.851,2708.25
359.864,2667.25
360.878,2675.75
361.892,2662.25
362.906,2692.25
363.920,2648.50
364.932,2643.75
365.945,2702.75
366.959,2642.00
367.972,2694.25
368.986,2678.75
369.999,2682.00
371.010,2737.25
372.023,2667.75
373.036,2701.00
374.049,2696.75
375.061,2723.75
376.072,2758.75
377.084,2706.75
378.097,2710.75
379.109,2729.00
380.121,2751.25
381.133,2762.25
382.143,2750.50
383.155,2742.25
384.166,2743.50
385.178,2736.75
386.189,2726.50
387.201,2770.75
388.212,2742.00
389.221,2802.00
390.232,2744.00
391.243,2708.25
392.254,2764.00
393.264,2706.25
394.275,2725.50
395.283,2740.50
396.294,2675.00
397.304,2672.25
398.314,2701.50
399.324,2667.25
400.334,2704.50
401.344,2691.75
402.351,2646.00
403.361,2673.75
404.370,2588.75
405.380,2585.75
406.389,2648.00
407.398,2609.25
408.407,2636.50
409.414,2785.00
410.423,2548.00
411.431,2540.00
412.440,2589.75
413.448,2570.50
414.457,2566.00
415.465,2508.75
416.471,2525.25
417.479,2507.00
418.487,2542.00
419.495,2445.25
420.503,2524.00
421.510,2500.00
422.518,2474.50
423.525,2498.50
424.530,2473.25
425.537,2505.50
426.544,2459.75
427.551,2475.25
428.558,2498.75
429.565,2462.50
430.571,2454.50
431.578,2435.25
432.582,2459.25
433.588,2481.00
434.595,2415.75
435.601,2444.75
436.607,2437.00
437.612,2455.00
438.618,2434.25
439.624,2417.00
440.627,2461.25
441.633,2429.50
442.638,2424.00
443.643,2478.75
444.648,2499.75
445.653,2431.00
446.658,2400.25
447.663,2453.25
448.667,2464.50
449.672,2499.00
450.674,2443.25
451.678,2447.75
452.682,2445.75
453.687,2445.00
454.690,2424.75
455.694,2441.75
456.698,2458.75
457.702,2469.50
458.705,2445.25
459.709,2447.00
460.710,2401.25
461.713,2490.75
462.716,2501.50
463.719,2481.00
464.722,2491.25
465.725,2453.25
466.727,2506.00
467.730,2488.25
468.732,2483.50
469.735,2440.25
470.737,2462.75
471.737,2443.25
472.739,2438.00
473.741,2518.75
474.742,2492.75
475.744,2457.25
476.746,2501.00
477.747,2491.50
478.748,2518.75
479.750,2499.75
480.751,2501.25
481.752,2538.00
482.753,2466.25
483.751,2448.00
484.752,2425.00
485.753,2452.00
486.753,2445.25
487.753,2481.00
488.754,2563.50
489.754,2455.50
490.754,2425.25
491.754,2455.50
492.754,2439.25
493.753,2487.25
494.753,2449.75
495.752,2421.00
496.752,2456.50
497.749,2438.75
498.748,2417.25
499.747,2449.25
500.746,2449.00
501.745,2417.25
502.744,2366.75
503.742,2379.25
504.741,2429.50
505.739,2449.00
506.737,2419.25
507.735,2355.75
508.734,2370.00
509.732,2413.25
510.729,2425.75
511.727,2344.25
512.725,2344.25
513.720,2378.25
514.718,2338.75
515.715,2364.00
516.712,2334.75
517.709,2331.00
518.706,2330.75
519.703,2335.00
520.700,2334.00
521.696,2324.25
522.693,2335.75
523.689,2358.25
524.686,2270.00
525.682,2318.25
526.678,2320.00
527.674,2326.75
528.670,2311.00
529.666,2305.50
530.661,2297.25
531.657,2354.25
532.652,2315.25
533.648,2346.75
534.641,2325.50
535.636,2333.00
536.631,2311.00
537.626,2362.25
538.621,2344.75
539.616,2263.75
540.610,2380.25
541.605,2327.50
542.599,2368.25
543.593,2327.00
544.587,2354.00
545.581,2387.25
546.575,2273.75
547.569,2296.75
548.563,2317.50
549.557,2317.75
550.550,2342.00
551.543,2351.50
552.537,2267.00
553.530,2257.50
554.523,2335.00
555.516,2305.25
556.509,2317.25
557.502,2282.75
558.494,2332.50
559.487,2309.75
560.479,2294.75
561.472,2286.00
562.464,2343.00
563.456,2321.50
564.448,2347.75
565.440,2316.25
566.432,2280.50
567.423,2318.50
568.415,2321.25
569.404,2321.00
570.396,2338.75
571.387,2282.50
572.378,2363.75
573.369,2351.25
574.360,2356.25
575.351,2374.75
576.341,2346.25
577.332,2372.75
578.323,2421.75
579.313,2365.25
580.303,2326.00
581.293,2332.00
582.283,2372.00
583.273,2352.00
584.263,2408.75
585.253,2398.25
586.243,2427.50
587.232,2446.25
588.222,2404.75
589.211,2377.25
590.200,2379.00
591.189,2405.75
592.178,2419.75
593.167,2388.75
594.156,2413.25
595.145,2364.00
596.133,2440.75
597.122,2405.00
598.110,2423.25
599.098,2353.00
600.086,2425.25
601.074,2386.50
602.062,2360.75
603.050,2389.00
604.038,2345.25
605.025,2374.25
606.013,2367.50
607.000,2347.75
607.987,2353.25
608.975,2368.25
609.962,2308.50
610.949,2344.25
611.936,2281.00
612.922,2315.25
613.909,2311.00
614.895,2261.50
615.882,2271.00
616.868,2261.25
617.854,2251.75
618.841,2219.25
619.826,2230.25
620.812,2179.00
621.798,2205.25
622.784,2233.50
623.769,2215.00
624.755,2152.00
625.740,2183.00
626.725,2113.75
627.711,2116.00
628.698,2190.25
629.683,2158.00
630.667,2039.50
631.652,2063.00
632.637,2044.75
633.621,2109.25
634.606,2036.50
635.590,2064.50
636.574,2091.75
637.558,1979.75
638.542,2014.00
639.526,1971.75
640.510,1996.75
641.493,2003.75
642.477,2006.00
643.460,1956.50
644.444,1971.00
645.427,1965.00
646.410,1921.25
647.393,1914.50
648.376,1888.50
649.359,1892.25
650.341,1945.50
651.324,1927.25
652.307,1911.75
653.289,1872.25
654.271,1927.75
655.253,1899.75
656.235,1865.25
657.217,1863.50
658.199,1888.50
659.181,1859.75
660.163,1866.00
661.144,1859.25
662.126,1866.50
663.107,1816.50
664.088,1802.00
665.069,1807.25
666.050,1780.75
667.033,1804.00
668.014,1810.25
668.995,1795.75
669.975,1792.00
670.956,1824.50
671.936,1815.75
672.916,1777.00
673.896,1701.25
674.876,1722.75
675.856,1722.25
676.836,1724.50
677.816,1731.50
678.795,1730.00
679.775,1667.25
680.754,1705.25
681.734,1694.50
682.713,1677.75
683.692,1686.50
684.671,1683.00
685.650,1673.00
686.629,1622.50
687.607,1637.50
688.586,1635.50
689.564,1592.25
690.543,1614.75
691.523,1667.50
692.501,1604.00
693.479,1567.50
694.457,1605.00
695.435,1556.50
696.413,1595.75
697.390,1551.00
698.368,1558.25
699.345,1590.00
700.322,1551.25
701.300,1548.75
702.277,1545.50
703.254,1521.75
704.231,1531.50
705.207,1504.25
706.184,1513.25
707.161,1533.25
708.137,1553.25
709.113,1457.25
710.090,1496.25
711.068,1510.25
712.044,1502.25
713.020,1472.75
713.996,1517.50
714.971,1478.50
715.947,1449.75
716.922,1419.50
717.898,1454.00
718.873,1501.25
719.848,1492.00
720.823,1461.25
721.798,1475.25
722.773,1407.25
723.748,1449.25
724.723,1424.50
725.697,1454.50
726.672,1451.75
727.646,1451.25
728.622,1423.00
729.596,1460.50
730.570,1432.50
731.544,1481.25
732.518,1386.75
733.492,1404.25
734.466,1439.50
735.439,1401.50
736.413,1374.00
737.386,1366.25
738.359,1401.00
739.332,1406.50
740.305,1406.50
741.278,1334.50
742.251,1363.00
743.224,1375.75
744.196,1359.50
745.171,1347.75
746.143,1408.50
747.115,1348.25
748.087,1323.00
749.059,1333.50
750.031,1353.75
751.003,1323.75
751.975,1342.75
752.947,1351.25
753.918,1336.75
754.890,1349.75
755.861,1324.00
756.832,1318.00
757.803,1344.00
758.774,1321.50
759.747,1286.50
760.718,1319.00
761.689,1289.25
762.659,1290.50
763.630,1298.50
764.600,1284.75
765.570,1319.00
766.540,1249.00
767.510,1288.00
768.480,1278.50
769.450,1263.25
770.420,1278.50
771.390,1265.75
772.359,1257.25
773.329,1241.50
774.300,1291.00
775.269,1234.50
776.238,1297.75
777.207,1274.75
778.176,1247.75
779.145,1273.50
780.114,1232.75
781.083,1205.75
782.051,1239.00
783.019,1246.75
783.988,1232.25
784.956,1248.00
785.924,1195.00
786.894,1206.25
787.862,1203.00
788.830,1200.25
789.797,1200.75
790.765,1196.00
791.732,1201.25
792.700,1210.75
793.667,1173.25
794.634,1168.75
795.601,1185.50
796.568,1212.00
797.535,1182.25
798.502,1185.00
799.468,1132.50
800.437,1158.50
801.403,1169.25
802.370,1198.25
803.336,1141.50
804.302,1196.50
805.268,1192.50
806.234,1167.50
807.200,1182.25
808.166,1147.75
809.131,1154.50
810.097,1195.75
811.062,1091.00
812.027,1144.00
812.994,1129.00
813.960,1171.25
814.925,1126.00
815.889,1092.75
816.854,1101.50
817.819,1159.75
818.783,1138.50
819.748,1133.50
820.712,1117.25
821.677,1093.25
822.641,1151.50
823.605,1150.75
824.571,1105.75
825.534,1148.25
826.498,1157.50
827.462,1095.75
828.425,1112.75
829.389,1089.00
830.352,1132.25
831.315,1127.50
832.279,1145.75
833.242,1131.75
834.204,1105.25
835.167,1114.25
836.132,1118.75
837.095,1091.75
838.057,1097.00
839.020,1104.75
839.982,1099.50
840.944,1056.50
841.906,1120.00
842.868,1101.00
843.830,1099.00
844.792,1087.75
845.753,1073.25
846.715,1116.50
847.679,1088.50
848.640,1086.50
849.601,1137.25
850.562,1116.00
851.523,1078.75
852.484,1106.50
853.445,1131.50
854.406,1094.00
855.367,1060.50
856.327,1083.25
857.288,1097.75
858.248,1073.25
859.210,1075.50
860.170,1082.00
861.130,1085.00
862.090,1080.00
863.050,1082.75
864.010,1070.50
864.969,1106.50
865.929,1044.75
866.888,1105.50
867.848,1115.00
868.807,1115.50
869.766,1090.75
870.727,1113.00
871.686,1066.50
872.645,1103.75
873.604,1103.75
874.562,1079.00
875.521,1083.50
876.479,1139.75
877.437,1092.50
878.396,1129.50
879.354,1056.75
880.312,1084.25
881.270,1078.25
882.229,1074.00
883.187,1093.25
884.145,1109.25
885.102,1119.00
886.059,1112.75
887.017,1140.50
887.974,1090.50
888.931,1114.75
889.888,1150.75
890.845,1089.00
891.802,1098.75
892.758,1125.75
893.717,1106.75
894.673,1115.25
895.630,1142.75
896.586,1127.00
897.542,1143.50
898.498,1110.75
899.454,1084.00
900.410,1133.25
901.366,1102.75
902.321,1103.50
903.277,1114.00
904.232,1124.50
905.189,1099.75
906.145,1157.00
907.100,1119.25
908.055,1119.50
909.010,1121.50
909.965,1112.00
910.919,1118.50
911.874,1125.00
912.828,1134.75
913.783,1114.25
914.737,1187.50
915.693,1128.50
916.648,1129.50
917.602,1146.25
918.555,1173.25
919.509,1162.25
920.463,1141.75
921.417,1171.75
922.370,1179.00
923.324,1157.75
924.277,1121.00
925.230,1126.25
926.183,1184.25
927.138,1128.00
928.091,1131.25
929.044,1155.00
929.996,1134.00
930.949,1156.50
931.902,1145.50
932.854,1144.00
933.806,1153.50
934.758,1155.50
935.711,1169.50
936.663,1159.75
937.614,1174.25
938.568,1159.00
939.520,1145.25
940.471,1133.25
941.423,1128.25
942.374,1134.00
943.326,1178.50
944.277,1156.00
945.228,1110.75
946.179,1122.00
947.130,1140.75
948.080,1101.25
949.031,1138.25
949.984,1183.00
950.934,1099.25
951.884,1127.50
952.835,1169.00
953.785,1108.25
954.735,1168.00
955.685,1113.00
956.635,1131.75
957.585,1091.50
958.534,1092.00
959.484,1101.75
960.433,1116.75
961.383,1094.25
962.334,1089.75
963.283,1078.50
964.232,1141.50
965.181,1124.00
966.130,1106.00
967.079,1093.00
968.027,1076.00
968.976,1057.75
969.924,1088.50
970.873,1126.75
971.821,1069.50
972.769,1051.25
973.719,1114.25
974.667,1069.75
975.615,1103.25
976.562,1127.25
977.510,1052.00
978.458,1082.25
979.405,1035.25
980.352,1086.75
981.300,1066.25
982.247,1054.75
983.194,1066.00
984.141,1086.00
985.088,1075.00
986.036,1059.75
986.983,1106.00
987.930,1078.50
988.876,1072.75
989.822,1053.00
990.769,1056.50
991.715,1052.75
992.661,1040.75
993.607,1024.00
994.553,1054.00
995.498,1010.25
996.444,1055.75
997.389,1040.25
998.337,1081.50
999.282,1025.50
1000.227,1052.00
1001.173,1039.00
1002.118,1032.75
1003.062,1056.75
1004.007,1034.75
1004.952,1038.50
1005.897,1021.50
1006.841,1023.25
1007.786,1015.00
1008.730,1065.00
1009.674,1042.50
1010.618,1023.00
1011.564,1034.00
1012.508,1044.25
1013.452,1047.00
1014.396,1006.50
1015.339,1030.50
1016.283,1010.25
1017.226,981.50
1018.170,1040.50
1019.113,1026.50
1020.056,1021.25
1020.999,1019.25
1021.942,1021.00
1022.885,1027.75
1023.828,1014.75
1024.770,980.00
1025.715,1025.00
1026.657,1012.50
1027.600,1001.25
1028.542,1020.00
1029.484,1044.50
1030.426,1031.50
1031.368,1036.50
1032.310,1042.50
1033.251,1021.00
1034.193,993.50
1035.135,1051.50
1036.076,1028.75
1037.017,976.50
1037.959,983.00
1038.900,1027.25
1039.843,994.75
1040.784,994.50
1041.725,1016.75
1042.665,1017.75
1043.606,1027.25
1044.547,1021.00
1045.487,1022.25
1046.427,995.00
1047.368,1022.25
1048.308,1016.25
1049.248,1007.00
1050.188,1007.25
1051.128,979.50
1052.067,998.00
1053.007,997.25
1053.947,1021.00
1054.886,1040.00
1055.827,1005.25
1056.766,1051.00
1057.706,1014.00
1058.645,1037.25
1059.584,994.25
1060.522,1030.00
1061.461,1058.75
1062.400,984.50
1063.338,1044.75
1064.277,1018.75
1065.215,1038.75
1066.154,1055.00
1067.092,1029.50
1068.030,1029.75
1068.968,1105.25
1069.906,1042.00
1070.843,1036.50
1071.781,1048.00
1072.720,1048.00
1073.658,1046.25
1074.595,1037.50
1075.533,1056.50
1076.470,1004.50
1077.407,1070.50
1078.344,1024.50
1079.281,1058.25
1080.217,1075.50
1081.154,1058.50
1082.091,1034.50
1083.027,1024.75
1083.964,1007.00
1084.900,1049.75
1085.836,1100.75
1086.772,1096.25
1087.708,1033.00
1088.644,1015.50
1089.580,1043.75
1090.515,1024.00
1091.451,1048.25
1092.388,1057.50
1093.324,1029.50
1094.259,1044.75
1095.194,1048.50
1096.129,1064.00
1097.064,1027.50
1097.999,1027.00
1098.934,1022.50
1099.869,1008.00
1100.803,997.50
1101.738,1080.00
1102.672,1050.75
1103.607,1019.00
1104.541,1045.50
1105.475,1051.75
1106.409,1001.75
1107.343,1021.00
1108.277,999.50
1109.210,1005.50
1110.144,1000.25
1111.078,996.50
1112.011,992.00
1112.944,1010.50
1113.878,973.50
1114.811,970.25
1115.744,994.50
1116.678,970.50
1117.611,990.50
1118.544,998.50
1119.477,1008.00
1120.409,943.50
1121.342,954.50
1122.274,929.50
1123.206,935.50
1124.138,980.50
1125.070,982.50
1126.002,960.25
1126.934,933.50
1127.866,913.00
1128.798,963.00
1129.729,952.25
1130.661,940.00
1131.592,879.50
1132.523,897.75
1133.454,927.75
1134.385,933.00
1135.317,916.75
1136.247,962.75
1137.178,980.00
1138.109,938.50
1139.039,901.75
1139.970,891.00
1140.900,911.00
1141.831,883.25
1142.761,889.50
1143.691,894.00
1144.621,916.25
1145.551,874.50
1146.480,900.00
1147.410,874.75
1148.340,932.50
1149.269,855.75
1150.199,849.25
1151.128,878.50
1152.057,886.25
1152.979,888.00
1153.898,878.00
1154.819,860.25
1155.739,840.75
1156.658,855.75
1157.579,866.25
1158.498,900.00
1159.419,900.00
1160.338,860.75
1161.256,839.50
1162.177,850.25
1163.095,818.75
1164.016,844.50
1164.934,936.00
1165.852,855.25
1166.772,910.00
1167.690,877.75
1168.610,863.75
1169.528,815.50
1170.446,849.50
1171.365,840.25
1172.283,836.75
1173.202,859.25
1174.120,841.25
1175.037,893.50
1175.956,838.25
1176.873,851.25
1177.792,865.25
1178.709,882.00
1179.626,842.00
1180.544,823.00
1181.461,829.00
1182.379,844.00
1183.296,863.25
1184.212,839.50
1185.130,847.25
1186.046,837.00
1186.962,843.00
1187.880,849.75
1188.796,835.75
1189.714,815.00
1190.629,840.00
1191.545,811.50
1192.462,821.00
1193.378,870.50
1194.295,873.75
1195.210,830.25
1196.125,806.25
1197.042,842.50
1197.957,863.25
1198.872,816.50
1199.788,800.75
1200.703,828.50
1201.619,862.50
1202.534,805.25
1203.448,842.50
1204.364,823.50
1205.278,805.25
1206.192,794.75
1207.108,818.00
1208.022,818.00
1208.938,808.25
1209.851,825.00
1210.765,858.75
1211.680,822.50
1212.594,787.50
1213.507,844.75
1214.422,860.50
1215.335,807.00
1216.248,881.75
1217.163,799.75
1218.076,835.25
1218.990,845.50
1219.903,836.75
1220.816,837.00
1221.730,842.00
1222.642,801.00
1223.554,833.50
1224.469,831.00
1225.380,836.25
1226.292,788.00
1227.206,852.50
1228.118,849.50
1229.032,810.75
1229.943,823.00
1230.855,857.50
1231.768,852.00
1232.679,896.50
1233.590,861.75
1234.503,858.50
1235.414,881.50
1236.325,834.50
1237.238,812.50
1238.149,874.00
1239.059,872.75
1239.972,839.25
1240.882,850.75
1241.793,834.25
1242.705,815.50
1243.615,862.25
1244.525,851.75
1245.437,870.50
1246.347,827.75
1247.259,884.25
1248.168,849.75
1249.078,848.75
1249.989,873.75
1250.899,844.75
1251.808,831.50
1252.719,814.75
1253.628,905.75
1254.537,883.50
1255.448,863.25
1256.357,851.50
1257.266,863.00
1258.176,841.25
1259.085,866.00
1259.993,871.00
1260.904,906.75
1261.812,860.75
1262.720,877.25
1263.630,882.00
1264.538,859.50
1265.446,898.75
1266.356,851.25
1267.263,850.25
1268.171,841.25
1269.080,869.50
1269.988,831.00
1270.895,873.00
1271.804,819.25
1272.711,858.25
1273.619,872.75
1274.527,840.25
1275.434,824.50
1276.341,810.00
1277.248,846.75
1278.156,834.75
1279.063,864.00
1279.969,851.75
1280.877,872.50
1281.783,879.00
1282.690,851.75
1283.598,808.25
1284.503,892.75
1285.409,853.00
1286.317,834.25
1287.223,839.75
1288.128,836.25
1289.036,894.00
1289.941,819.50
1290.846,866.50
1291.751,828.00
1292.658,842.00
1293.563,868.50
1294.468,847.25
1295.375,812.75
1296.280,869.75
1297.184,798.50
1298.091,816.75
1298.995,805.25
1299.900,840.75
1300.806,814.00
1301.710,823.75
1302.614,827.50
1303.518,789.50
1304.424,849.25
1305.327,812.75
1306.231,817.75
1307.137,789.50
1308.040,857.25
1308.943,797.50
1309.847,807.25
1310.752,829.00
1311.655,791.50
1312.558,776.25
1313.463,816.50
1314.366,780.00
1315.269,793.25
1316.171,814.00
1317.076,722.75
1317.978,766.50
1318.881,789.25
1319.785,797.25
1320.687,778.75
1321.589,747.00
1322.491,806.50
1323.395,739.25
1324.297,784.25
1325.198,768.00
1326.102,773.75
1327.004,779.50
1327.905,780.25
1328.806,782.00
1329.709,788.00
1330.611,796.00
1331.512,735.50
1332.413,791.75
1333.316,750.00
1334.216,770.00
1335.117,773.50
1336.020,763.50
1336.920,735.00
1337.821,715.25
1338.721,774.50
1339.623,743.25
1340.523,746.25
1341.423,723.25
1342.323,742.00
1343.225,740.50
1344.125,719.75
1345.025,745.50
1345.924,708.25
1346.826,669.50
1347.725,765.50
1348.624,722.00
1349.524,772.50
1350.425,724.25
1351.324,692.50
1352.223,756.50
1353.121,716.25
1354.022,717.50
1354.921,706.25
1355.819,694.25
1356.718,709.50
1357.618,685.75
1358.516,727.25
1359.415,694.50
1360.313,698.00
1361.213,677.75
1362.111,665.25
1363.008,686.25
1363.906,666.50
1364.806,676.25
1365.703,693.25
1366.601,713.75
1367.498,651.75
1368.397,686.50
1369.295,683.75
1370.192,700.75
1371.089,659.50
1371.987,712.25
1372.884,683.50
1373.781,671.00
1374.678,678.25
1375.574,639.75
1376.473,707.00
1377.369,677.50
1378.265,630.50
1379.161,670.00
1380.059,651.25
1380.955,663.75
1381.851,685.50
1382.747,669.25
1383.643,700.00
1384.540,639.75
1385.436,632.00
1386.331,696.50
1387.227,646.00
1388.124,655.75
1389.019,697.75
1389.914,674.25
1390.809,618.25
1391.704,673.50
1392.601,625.00
1393.495,643.75
1394.390,660.25
1395.285,678.00
1396.179,677.75
1397.075,635.00
1397.969,632.75
1398.864,611.25
1399.758,638.50
1400.652,649.75
1401.547,646.75
1402.441,667.75
1403.335,607.00
1404.229,641.25
1405.122,652.00
1406.017,648.00
1406.911,636.00
1407.804,638.50
1408.697,571.00
1409.590,599.50
1410.485,591.75
1411.378,662.75
1412.271,653.75
1413.163,606.00
1414.056,601.75
1414.949,605.75
1415.843,646.25
1416.735,634.00
1417.627,596.75
1418.520,594.00
1419.412,600.00
1420.306,595.50
1421.197,624.25
1422.089,569.00
1422.981,589.75
1423.873,605.00
1424.764,611.75
1425.657,618.75
1426.549,610.75
1427.440,611.75
1428.331,627.75
1429.222,577.25
1430.113,600.25
1431.006,570.25
1431.897,625.75
1432.787,629.00
1433.678,601.00
1434.568,595.50
1435.459,571.00
1436.351,614.75
1437.241,619.75
1438.131,583.25
1439.021,659.75
1439.911,638.50
1440.801,583.25
1441.693,619.75
1442.583,609.00
1443.472,614.00
1444.362,592.25
1445.251,580.25
1446.140,576.00
1447.030,547.50
1447.921,575.00
1448.810,594.25
1449.699,607.25
1450.588,603.25
1451.476,540.00
1452.365,595.50
1453.254,624.00
1454.144,551.75
1455.032,534.00
1455.921,580.50
1456.809,623.75
1457.697,572.50
1458.585,558.25
1459.473,580.50
1460.361,586.75
1461.251,579.00
1462.138,576.50
1463.026,577.50
1463.913,579.75
1464.801,577.00
1465.688,606.50
1466.575,553.00
1467.463,559.75
1468.351,570.50
1469.238,561.50
1470.125,558.25
1471.012,588.25
1471.899,568.25
1472.785,560.50
1473.672,599.25
1474.558,569.75
1475.446,525.50
1476.333,555.00
1477.219,569.25
1478.105,539.00
1478.991,539.25
1479.877,542.75
1480.762,580.75
1481.648,575.75
1482.534,586.50
1483.419,539.75
1484.307,587.25
1485.192,541.00
1486.077,548.50
1486.962,523.25
1487.847,551.50
1488.732,578.50
1489.617,540.50
1490.502,541.00
1491.387,575.00
1492.271,556.75
1493.156,493.25
1494.042,518.75
1494.927,573.75
1495.811,566.00
1496.695,541.00
1497.579,586.75
1498.463,535.00
1499.347,576.25
1500.231,503.75
1501.114,542.75
1501.998,557.00
1502.881,534.50
1503.765,495.00
1504.648,527.00
1505.533,538.75
1506.417,516.75
1507.300,552.50
1508.183,525.75
1509.066,552.50
1509.948,488.00
1510.831,533.25
1511.714,501.00
1512.596,517.00
1513.479,506.25
1514.361,550.75
1515.243,504.25
1516.125,545.50
1517.008,531.50
1517.890,550.25
1518.771,533.00
1519.655,502.75
1520.537,540.75
1521.419,529.75
1522.300,525.00
1523.182,497.50
1524.063,508.25
1524.944,514.50
1525.825,535.00
1526.707,551.75
1527.588,480.75
1528.468,551.75
1529.349,555.25
1530.230,517.00
1531.111,498.75
1531.991,487.75
1532.872,516.25
1533.752,493.75
1534.632,483.25
1535.513,481.00
1536.393,509.00
1537.273,522.00
1538.153,544.00
1539.032,542.00
1539.912,459.25
1540.792,513.50
1541.672,495.25
1542.551,507.50
1543.430,494.75
1544.310,484.75
1545.189,478.50
1546.068,521.00
1546.947,488.75
1547.826,508.50
1548.705,515.25
1549.584,491.50
1550.462,523.75
1551.341,492.00
1552.219,529.50
1553.098,516.00
1553.976,506.25
1554.854,492.25
1555.733,531.75
1556.611,497.50
1557.489,495.25
1558.367,504.25
1559.244,525.00
1560.122,474.75
1561.000,493.25
1561.877,483.75
1562.755,458.75
1563.632,445.50
1564.509,479.75
1565.386,497.00
1566.264,517.25
1567.141,486.25
1568.017,458.50
1568.894,458.00
1569.771,500.25
1570.648,482.75
1571.524,471.50
1572.401,502.50
1573.277,510.25
1574.153,531.00
1575.029,461.50
1575.906,504.50
1576.781,464.75
1577.657,454.25
1578.533,462.50
1579.409,500.00
1580.285,501.50
1581.160,507.50
1582.036,476.25
1582.911,434.75
1583.786,422.25
1584.662,476.50
1585.537,448.25
1586.412,455.00
1587.287,490.50
1588.160,458.00
1589.035,465.25
1589.909,470.00
1590.784,483.00
1591.658,455.50
1592.533,500.75
1593.407,437.50
1594.281,479.50
1595.155,436.50
1596.029,447.50
1596.903,470.00
1597.777,496.50
1598.651,494.25
1599.525,448.25
1600.398,476.00
1601.272,480.75
1602.144,478.25
1603.017,464.50
1603.890,479.00
1604.763,503.50
1605.636,461.75
1606.509,466.50
1607.382,478.25
1608.255,488.25
1609.128,495.00
1610.000,474.75
1610.873,454.50
1611.746,484.00
1612.616,471.25
1613.488,490.50
1614.361,463.25
1615.233,499.25
1616.105,503.00
1616.977,426.25
1617.849,459.25
1618.720,491.00
1619.592,455.25
1620.464,479.50
1621.333,435.25
1622.205,444.25
1623.076,468.75
1623.947,487.50
1624.818,457.75
1625.689,471.75
1626.560,432.00
1627.431,441.50
1628.302,491.75
1629.171,471.25
1630.042,446.25
1630.912,403.25
1631.782,449.50
1632.653,440.25
1633.523,436.75
1634.393,441.75
1635.263,409.75
1636.131,448.00
1637.001,432.00
1637.871,443.75
1638.741,448.75
1639.611,457.25
1640.480,475.75
1641.350,475.50
1642.219,440.75
1643.087,476.00
1643.956,451.75
1644.825,509.00
1645.694,485.50
1646.563,463.00
1647.432,459.25
1648.299,443.00
1649.167,467.50
1650.036,482.50
1650.904,452.25
1651.773,497.75
1652.641,456.75
1653.509,407.25
1654.376,463.00
1655.244,450.50
1656.112,443.00
1656.980,424.25
1657.847,411.50
1658.715,463.50
1659.581,426.00
1660.448,413.25
1661.316,442.75
1662.183,447.25
1663.051,438.75
1663.918,465.50
1664.783,417.75
1665.650,472.00
1666.517,398.00
1667.384,419.25
1668.251,448.00
1669.115,469.25
1669.982,460.25
1670.849,430.50
1671.715,454.25
1672.581,407.00
1673.446,482.25
1674.312,435.00
1675.178,452.25
1676.044,404.75
1676.910,459.50
1677.774,453.75
1678.639,431.50
1679.505,403.00
1680.370,451.25
1681.236,425.50
1682.099,406.75
1682.965,464.50
1683.830,434.75
1684.695,446.00
1685.560,452.50
1686.423,461.00
1687.288,460.50
1688.153,436.50
1689.017,481.75
1689.880,456.50
1690.745,441.25
1691.609,461.00
1692.473,443.50
1693.338,416.00
1694.200,399.00
1695.064,416.25
1695.928,392.50
1696.792,399.75
1697.654,422.50
1698.517,445.50
1699.381,439.00
1700.245,441.00
1701.106,416.00
1701.969,440.75
1702.833,415.50
1703.696,434.25
1704.557,427.75
1705.420,418.25
1706.283,456.25
1707.146,438.75
1708.007,383.75
1708.870,406.25
1709.732,427.75
1710.595,426.50
1711.455,419.25
1712.318,399.00
1713.180,414.50
1714.040,428.25
1714.902,422.50
1715.764,435.50
1716.626,407.00
1717.486,424.50
1718.348,475.75
1719.209,440.50
1720.071,443.00
1720.930,413.75
1721.792,441.50
1722.653,376.00
1723.512,427.50
1724.374,408.00
1725.234,385.75
1726.095,433.25
1726.954,438.75
1727.815,434.00
1728.676,420.50
1729.535,431.00
1730.395,409.75
1731.256,398.25
1732.114,430.50
1732.974,421.50
1733.834,453.25
1734.693,446.00
1735.553,445.25
1736.413,447.75
1737.272,417.50
1738.130,394.25
1738.990,418.25
1739.849,422.75
1740.707,450.25
1741.566,417.25
1742.426,444.00
1743.283,428.25
1744.142,398.75
1745.001,429.50
1745.858,418.75
1746.717,409.50
1747.576,394.25
1748.433,431.50
1749.292,425.50
1750.150,469.75
1751.007,433.50
1751.865,437.75
1752.723,434.50
1753.579,444.00
1754.438,404.75
1755.296,351.25
1756.152,403.00
1757.010,421.50
1757.865,418.50
1758.723,405.50
1759.581,419.75
1760.436,393.25
1761.294,430.75
1762.151,424.50
1763.006,419.50
1763.864,376.75
1764.721,447.25
1765.576,374.75
1766.433,384.75
1767.288,378.50
1768.144,445.75
1769.001,416.00
1769.856,430.00
1770.712,419.25
1771.568,464.25
1772.423,431.50
1773.279,405.50
1774.133,378.75
1774.989,374.50
1775.845,436.75
1776.699,389.50
1777.555,397.50
1778.409,377.75
1779.265,418.00
1780.120,410.00
1780.974,407.50
1781.829,382.25
1782.682,442.25
1783.538,384.50
1784.393,428.25
1785.246,397.50
1786.101,390.75
1786.954,454.50
1787.808,413.25
1788.661,399.75
1789.516,398.25
1790.370,425.25
1791.223,442.75
1792.077,419.00
1792.930,397.00
1793.784,408.25
1794.636,433.00
1795.490,390.25
1796.344,422.75
1797.196,420.75
1798.049,415.75
1798.901,408.25
1799.755,443.50
1800.606,439.75
1801.460,419.75
1802.311,385.00
1803.165,393.00
1804.018,421.00
1804.869,396.00
1805.722,412.25
1806.573,401.50
1807.426,410.25
1808.276,456.75
1809.129,424.25
1809.980,403.50
1810.832,408.50
1811.683,428.00
1812.535,385.25
1813.385,403.00
1814.237,392.50
1815.089,398.00
1815.940,388.00
1816.791,414.75
1817.641,410.75
1818.493,420.25
1819.343,425.50
1820.194,388.50
1821.044,403.25
1821.895,393.75
1822.745,397.25
1823.596,393.25
1824.445,393.25
1825.296,364.75
1826.145,410.75
1826.996,395.00
1827.845,356.25
1828.695,435.00
1829.544,434.75
1830.395,431.00
1831.243,392.50
1832.094,399.75
1832.942,391.50
1833.792,411.25
1834.640,486.25
1835.490,400.50
1836.338,418.25
1837.186,446.75
1838.036,384.75
1838.884,395.00
1839.733,394.50
1840.581,392.75
1841.430,385.50
1842.278,378.75
1843.127,387.00
1843.974,410.25
1844.823,406.00
1845.671,428.25
1846.519,381.50
1847.366,388.25
1848.213,415.25
1849.062,402.75
1849.909,388.75
1850.757,306.50
1851.604,389.75
1852.452,393.75
1853.298,402.75
1854.146,385.25
1854.993,413.00
1855.839,388.00
1856.687,390.75
1857.532,390.75
1858.380,385.25
1859.226,354.50
1860.073,440.25
1860.919,377.25
1861.765,411.25
1862.612,350.25
1863.457,399.50
1864.304,389.25
1865.150,380.00
1865.995,423.00
1866.842,403.00
1867.686,394.50
1868.533,384.25
1869.378,402.25
1870.223,410.75
1871.069,358.50
1871.914,379.75
1872.760,391.50
1873.604,362.75
1874.448,385.00
1875.294,368.25
1876.139,413.25
1876.984,369.00
1877.828,371.00
1878.672,405.50
1879.518,373.75
1880.361,372.00
1881.205,378.25
1882.050,389.50
1882.894,401.75
1883.739,422.00
1884.582,350.50
1885.425,390.00
1886.270,402.50
1887.113,400.00
1887.956,390.00
1888.801,432.50
1889.644,388.25
1890.486,419.75
1891.331,425.25
1892.173,380.75
1893.017,387.50
1893.860,429.25
1894.702,364.00
1895.546,412.00
1896.388,379.50
1897.230,427.25
1898.074,407.00
1898.916,375.50
1899.757,383.25
1900.601,384.25
1901.443,378.00
1902.284,403.50
1903.125,438.75
1903.969,374.75
1904.810,411.50
1905.651,442.75
1906.494,377.75
1907.335,418.00
1908.176,370.75
1909.018,377.25
1909.859,366.00
1910.700,356.00
1911.542,419.50
1912.383,378.75
1913.223,393.25
1914.064,434.50
1914.906,337.50
1915.746,376.75
1916.586,380.00
1917.428,426.00
1918.268,391.50
1919.107,390.50
1919.947,367.00
1920.789,402.25
1921.628,379.75
1922.468,361.50
1923.309,424.75
1924.148,372.50
1924.988,356.25
1925.827,380.75
1926.667,338.25
1927.507,375.00
1928.345,413.75
1929.184,375.50
1930.025,407.75
1930.864,390.75
1931.702,357.50
1932.541,365.75
1933.381,368.50
1934.219,407.25
1935.057,409.75
1935.896,356.50
1936.735,388.00
1937.573,401.25
1938.411,363.00
1939.249,393.50
1940.089,388.25
1940.927,347.00
1941.764,389.25
1942.602,382.50
1943.439,370.50
1944.278,393.00
1945.115,316.00
1945.953,390.75
1946.790,355.25
1947.628,408.75
1948.465,378.75
1949.302,347.50
1950.139,373.25
1950.976,386.00
1951.814,405.25
1952.651,337.25
1953.487,399.25
1954.323,390.75
1955.160,370.50
1955.998,388.00
1956.834,421.25
1957.670,353.00
1958.506,364.25
1959.342,373.25
1960.177,380.50
1961.015,411.00
1961.850,419.25
1962.686,373.25
1963.521,349.50
1964.357,395.25
1965.192,389.25
1966.029,345.50
1966.864,329.00
1967.699,409.50
1968.534,345.75
1969.369,399.25
1970.204,330.50
1971.040,350.00
1971.875,359.75
1972.709,371.75
1973.544,338.75
1974.378,390.00
1975.212,389.00
1976.047,401.75
1976.882,383.00
1977.716,365.25
1978.550,376.75
1979.384,258.75
1980.218,345.00
1981.052,382.75
1981.885,375.25
1982.719,404.25
1983.554,358.50
1984.388,316.75
1985.221,340.00
1986.054,357.75
1986.887,382.75
1987.720,276.00
1988.553,378.75
1989.386,397.00
1990.219,396.75
1991.053,376.75
1991.886,356.00
1992.719,380.00
1993.551,302.50
1994.383,331.25
1995.216,348.00
1996.048,366.50
1996.880,423.50
1997.712,365.50
1998.544,408.75
1999.376,355.75
2000.208,350.75
2001.040,357.25
2001.873,378.50
2002.705,334.00
2003.536,349.00
2004.367,305.00
2005.199,397.25
2006.030,367.50
2006.861,384.75
2007.692,363.50
2008.523,396.50
2009.354,368.50
2010.185,354.50
2011.016,370.75
2011.846,406.75
2012.677,353.50
2013.507,376.75
2014.338,351.75
2015.168,361.75
2015.999,398.25
2016.829,376.75
2017.659,367.75
2018.489,360.25
2019.319,385.00
2020.149,409.50
2020.980,386.00
2021.810,384.75
2022.639,388.00
2023.469,351.50
2024.298,399.75
2025.128,365.00
2025.957,374.75
2026.786,386.75
2027.615,357.25
2028.444,394.75
2029.273,337.25
2030.102,378.25
2030.931,366.75
2031.758,424.00
2032.586,381.00
2033.415,384.25
2034.243,357.75
2035.072,353.75
2035.900,362.50
2036.728,416.50
2037.556,393.00
2038.385,379.75
2039.213,365.25
2040.040,371.00
2040.868,383.75
2041.696,396.25
2042.524,379.75
2043.351,388.75
2044.179,394.25
2045.006,357.00
2045.006,357.00

Max Intensity Wave.,220.959
Max Intensity Data,4547.75
Min Intensity Wave.,1979.384
Min Intensity Data,258.75
FWHM Wave.,409.307
FWHM Value,0.93
Pressure Wave.,684.671
Pressure Value [GPa],-24.91530
G/D Ratio,0.62031
G/D Gband Wave.,1555.764
G/D Gband Intensity,531.80
G/D Dband Wave.,1308.068
G/D Dband Intensity,857.31

<< BACKGROUND SPECTRUM >>
Wave[dcm-1],No125
146.591,2386.00
147.626,2235.00
148.664,2194.00
149.699,2699.00
150.737,2399.00
151.772,2564.00
152.809,2534.00
153.846,2489.00
154.881,2558.00
155.918,2078.00
156.953,2449.00
157.989,2772.00
159.026,2603.00
160.060,2797.00
161.096,3057.00
162.130,2671.00
163.167,2720.00
164.200,2631.00
165.236,2815.00
166.272,2910.00
167.305,2399.00
168.341,2753.00
169.374,2974.00
170.409,3011.00
171.445,2925.00
172.477,2711.00
173.512,2567.00
174.545,2888.00
175.580,3091.00
176.614,3231.00
177.647,3007.00
178.681,3222.00
179.713,3573.00
180.747,3030.00
181.781,2939.00
182.813,3227.00
183.847,3353.00
184.878,2903.00
185.912,3185.00
186.945,3335.00
187.976,3299.00
189.010,2902.00
190.043,3047.00
191.073,3087.00
192.106,2919.00
193.137,3427.00
194.170,2721.00
195.202,3122.00
196.232,2879.00
197.265,3199.00
198.297,3406.00
199.327,3011.00
200.359,3140.00
201.388,3558.00
202.420,3055.00
203.452,3328.00
204.481,2867.00
205.512,3521.00
206.544,3321.00
207.573,3283.00
208.604,3645.00
209.635,3795.00
210.663,3211.00
211.694,3203.00
212.725,3031.00
213.753,2967.00
214.783,3626.00
215.813,3491.00
216.841,3227.00
217.871,3426.00
218.899,3147.00
219.929,3413.00
220.959,3019.00
221.986,3407.00
223.016,2961.00
224.045,3402.00
225.072,3327.00
226.101,3426.00
227.130,3487.00
228.157,3047.00
229.185,2549.00
230.214,3427.00
231.241,3029.00
232.269,2631.00
233.297,2895.00
234.323,3455.00
235.351,3019.00
236.379,3315.00
237.407,2947.00
238.433,3187.00
239.460,3375.00
240.488,3358.00
241.513,3487.00
242.540,3331.00
243.568,3447.00
244.592,3447.00
245.619,3441.00
246.646,3119.00
247.671,3167.00
248.697,3015.00
249.724,3178.00
250.748,3263.00
251.774,3214.00
252.801,3570.00
253.827,3311.00
254.850,3316.00
255.876,2850.00
256.902,3385.00
257.925,3252.00
258.951,2966.00
259.976,2977.00
260.999,3308.00
262.024,2994.00
263.049,3865.00
264.074,3320.00
265.097,3246.00
266.122,3316.00
267.146,3292.00
268.168,3458.00
269.193,3016.00
270.217,3484.00
271.241,2912.00
272.263,3088.00
273.287,3428.00
274.311,3004.00
275.332,3525.00
276.356,3052.00
277.379,3317.00
278.402,3352.00
279.424,3128.00
280.447,3130.00
281.470,2889.00
282.492,3318.00
283.513,3097.00
284.536,3424.00
285.558,3376.00
286.581,3350.00
287.601,3065.00
288.623,3014.00
289.645,3289.00
290.665,3324.00
291.687,3321.00
292.709,3322.00
293.730,3637.00
294.750,3134.00
295.771,2937.00
296.792,3278.00
297.813,3153.00
298.832,3250.00
299.853,2917.00
300.874,3207.00
301.895,3173.00
302.913,3187.00
303.934,3524.00
304.954,3238.00
305.975,4462.00
306.993,2962.00
308.013,3299.00
309.033,3220.00
310.052,3097.00
311.072,3100.00
312.090,3273.00
313.109,3439.00
314.129,3673.00
315.148,3231.00
316.165,3304.00
317.184,3447.00
318.203,2938.00
319.222,2930.00
320.238,3398.00
321.257,3052.00
322.275,2887.00
323.294,3172.00
324.312,3385.00
325.328,3473.00
326.346,3556.00
327.364,3451.00
328.382,3385.00
329.397,3371.00
330.415,3466.00
331.432,3452.00
332.450,3486.00
333.467,3670.00
334.482,2735.00
335.499,3564.00
336.516,3085.00
337.533,2781.00
338.547,3048.00
339.564,3015.00
340.580,3341.00
341.597,3179.00
342.613,3691.00
343.627,3176.00
344.643,3202.00
345.659,3350.00
346.675,3179.00
347.690,3070.00
348.704,3301.00
349.719,3065.00
350.735,2948.00
351.750,3374.00
352.765,3193.00
353.778,3218.00
354.793,3390.00
355.808,3040.00
356.822,3405.00
357.837,2843.00
358.851,3453.00
359.864,3189.00
360.878,2940.00
361.892,3159.00
362.906,3395.00
363.920,2799.00
364.932,3363.00
365.945,3305.00
366.959,3227.00
367.972,3127.00
368.986,2874.00
369.999,3630.00
371.010,2998.00
372.023,3622.00
373.036,3147.00
374.049,3612.00
375.061,3316.00
376.072,3208.00
377.084,3077.00
378.097,2894.00
379.109,3441.00
380.121,3216.00
381.133,2853.00
382.143,3383.00
383.155,2896.00
384.166,3095.00
385.178,3297.00
386.189,3471.00
387.201,2891.00
388.212,3113.00
389.221,3091.00
390.232,3195.00
391.243,3155.00
392.254,3231.00
393.264,3071.00
394.275,3458.00
395.283,3398.00
396.294,3898.00
397.304,3763.00
398.314,3322.00
399.324,3257.00
400.334,2824.00
401.344,3349.00
402.351,2827.00
403.361,3409.00
404.370,3191.00
405.380,3144.00
406.389,3567.00
407.398,3347.00
408.407,3279.00
409.414,3379.00
410.423,3565.00
411.431,2979.00
412.440,2863.00
413.448,3539.00
414.457,3047.00
415.465,3027.00
416.471,3087.00
417.479,3247.00
418.487,2987.00
419.495,3574.00
420.503,3322.00
421.510,2794.00
422.518,3390.00
423.525,3407.00
424.530,3672.00
425.537,3117.00
426.544,3489.00
427.551,3048.00
428.558,3827.00
429.565,3681.00
430.571,3071.00
431.578,3099.00
432.582,3077.00
433.588,3167.00
434.595,2807.00
435.601,3547.00
436.607,3511.00
437.612,2927.00
438.618,3567.00
439.624,3159.00
440.627,3159.00
441.633,3343.00
442.638,3887.00
443.643,3287.00
444.648,3206.00
445.653,3434.00
446.658,3110.00
447.663,3227.00
448.667,3074.00
449.672,3057.00
450.674,3161.00
451.678,2888.00
452.682,3098.00
453.687,3041.00
454.690,3862.00
455.694,3506.00
456.698,2713.00
457.702,2832.00
458.705,3002.00
459.709,2989.00
460.710,3108.00
461.713,3218.00
462.716,3253.00
463.719,3212.00
464.722,3390.00
465.725,3157.00
466.727,3024.00
467.730,3238.00
468.732,2965.00
469.735,3549.00
470.737,3127.00
471.737,3096.00
472.739,3117.00
473.741,2990.00
474.742,3258.00
475.744,3339.00
476.746,3205.00
477.747,3143.00
478.748,3385.00
479.750,3112.00
480.751,3186.00
481.752,3963.00
482.753,3299.00
483.751,3831.00
484.752,2841.00
485.753,3184.00
486.753,3074.00
487.753,3195.00
488.754,3587.00
489.754,2895.00
490.754,3577.00
491.754,3336.00
492.754,2882.00
493.753,3215.00
494.753,3126.00
495.752,3578.00
496.752,3240.00
497.749,3224.00
498.748,3059.00
499.747,3617.00
500.746,3288.00
501.745,2977.00
502.744,3001.00
503.742,3578.00
504.741,3114.00
505.739,2604.00
506.737,3090.00
507.735,3386.00
508.734,3608.00
509.732,3340.00
510.729,3545.00
511.727,3097.00
512.725,3128.00
513.720,2953.00
514.718,3501.00
515.715,2838.00
516.712,2790.00
517.709,3180.00
518.706,3074.00
519.703,3243.00
520.700,3417.00
521.696,3585.00
522.693,3096.00
523.689,3021.00
524.686,3427.00
525.682,2963.00
526.678,3715.00
527.674,3109.00
528.670,2786.00
529.666,3758.00
530.661,3722.00
531.657,3935.00
532.652,3391.00
533.648,3225.00
534.641,3452.00
535.636,3285.00
536.631,3331.00
537.626,3355.00
538.621,2911.00
539.616,2813.00
540.610,2646.00
541.605,3206.00
542.599,3238.00
543.593,3223.00
544.587,4162.00
545.581,2984.00
546.575,3309.00
547.569,3257.00
548.563,2886.00
549.557,2845.00
550.550,2933.00
551.543,2922.00
552.537,3423.00
553.530,2972.00
554.523,2943.00
555.516,3322.00
556.509,3164.00
557.502,2835.00
558.494,3404.00
559.487,3123.00
560.479,3413.00
561.472,3500.00
562.464,3347.00
563.456,3549.00
564.448,3110.00
565.440,3194.00
566.432,3640.00
567.423,3103.00
568.415,3070.00
569.404,3333.00
570.396,3024.00
571.387,3376.00
572.378,3239.00
573.369,4225.00
574.360,3930.00
575.351,3129.00
576.341,3036.00
577.332,3066.00
578.323,2790.00
579.313,3072.00
580.303,3467.00
581.293,3393.00
582.283,3188.00
583.273,3376.00
584.263,3197.00
585.253,3298.00
586.243,3371.00
587.232,2793.00
588.222,3132.00
589.211,3394.00
590.200,3296.00
591.189,3139.00
592.178,3146.00
593.167,3653.00
594.156,3493.00
595.145,3101.00
596.133,3626.00
597.122,3297.00
598.110,3383.00
599.098,3291.00
600.086,3163.00
601.074,3388.00
602.062,3046.00
603.050,2938.00
604.038,3363.00
605.025,2962.00
606.013,3420.00
607.000,3612.00
607.987,3213.00
608.975,3258.00
609.962,2985.00
610.949,3369.00
611.936,3492.00
612.922,3390.00
613.909,2892.00
614.895,3635.00
615.882,3026.00
616.868,3225.00
617.854,2941.00
618.841,3248.00
619.826,3299.00
620.812,3232.00
621.798,2974.00
622.784,3371.00
623.769,3300.00
624.755,2906.00
625.740,3252.00
626.725,2921.00
627.711,3051.00
628.698,3228.00
629.683,2964.00
630.667,3420.00
631.652,2963.00
632.637,3182.00
633.621,3361.00
634.606,3141.00
635.590,3312.00
636.574,3086.00
637.558,3300.00
638.542,3235.00
639.526,3042.00
640.510,2793.00
641.493,3221.00
642.477,3156.00
643.460,2850.00
644.444,3441.00
645.427,3495.00
646.410,2871.00
647.393,3177.00
648.376,3296.00
649.359,3130.00
650.341,3274.00
651.324,3278.00
652.307,3230.00
653.289,3129.00
654.271,3021.00
655.253,3077.00
656.235,3353.00
657.217,3456.00
658.199,2787.00
659.181,2923.00
660.163,3187.00
661.144,3066.00
662.126,3056.00
663.107,2967.00
664.088,5051.00
665.069,3470.00
666.050,3029.00
667.033,2908.00
668.014,3231.00
668.995,2735.00
669.975,3188.00
670.956,3191.00
671.936,3325.00
672.916,3155.00
673.896,3378.00
674.876,3124.00
675.856,3046.00
676.836,2923.00
677.816,2462.00
678.795,3004.00
679.775,2869.00
680.754,3236.00
681.734,3359.00
682.713,3397.00
683.692,2956.00
684.671,2791.00
685.650,2936.00
686.629,3079.00
687.607,2919.00
688.586,2944.00
689.564,3062.00
690.543,3485.00
691.523,2507.00
692.501,3022.00
693.479,3133.00
694.457,2964.00
695.435,3094.00
696.413,2835.00
697.390,2676.00
698.368,2855.00
699.345,3272.00
700.322,3125.00
701.300,3283.00
702.277,3241.00
703.254,3494.00
704.231,2733.00
705.207,3170.00
706.184,2950.00
707.161,2819.00
708.137,3013.00
709.113,3014.00
710.090,2972.00
711.068,2749.00
712.044,2766.00
713.020,3079.00
713.996,2752.00
714.971,2960.00
715.947,3039.00
716.922,3041.00
717.898,2930.00
718.873,3024.00
719.848,2876.00
720.823,2870.00
721.798,3147.00
722.773,2956.00
723.748,2677.00
724.723,3197.00
725.697,3012.00
726.672,2911.00
727.646,2624.00
728.622,3194.00
729.596,2746.00
730.570,2909.00
731.544,3218.00
732.518,3504.00
733.492,2988.00
734.466,3001.00
735.439,3178.00
736.413,3313.00
737.386,2617.00
738.359,2557.00
739.332,2678.00
740.305,3017.00
741.278,3571.00
742.251,3115.00
743.224,2894.00
744.196,2704.00
745.171,3366.00
746.143,3170.00
747.115,2915.00
748.087,2900.00
749.059,3328.00
750.031,3092.00
751.003,3932.00
751.975,3471.00
752.947,2861.00
753.918,3289.00
754.890,2729.00
755.861,2952.00
756.832,3250.00
757.803,2986.00
758.774,3018.00
759.747,2787.00
760.718,3400.00
761.689,2916.00
762.659,2753.00
763.630,3341.00
764.600,2738.00
765.570,3225.00
766.540,3353.00
767.510,3103.00
768.480,3226.00
769.450,2904.00
770.420,3010.00
771.390,2830.00
772.359,2943.00
773.329,2837.00
774.300,2637.00
775.269,2956.00
776.238,3177.00
777.207,3343.00
778.176,2650.00
779.145,2955.00
780.114,2844.00
781.083,2747.00
782.051,2914.00
783.019,2833.00
783.988,3279.00
784.956,3013.00
785.924,3186.00
786.894,3085.00
787.862,2875.00
788.830,3367.00
789.797,2803.00
790.765,2745.00
791.732,2955.00
792.700,2806.00
793.667,2742.00
794.634,2950.00
795.601,2899.00
796.568,2946.00
797.535,3000.00
798.502,3657.00
799.468,3113.00
800.437,2566.00
801.403,2809.00
802.370,3484.00
803.336,3190.00
804.302,3018.00
805.268,2580.00
806.234,2699.00
807.200,2884.00
808.166,2972.00
809.131,2725.00
810.097,3113.00
811.062,3930.00
812.027,3213.00
812.994,2769.00
813.960,2738.00
814.925,3139.00
815.889,2681.00
816.854,3251.00
817.819,2794.00
818.783,2884.00
819.748,3279.00
820.712,2907.00
821.677,2791.00
822.641,2861.00
823.605,2873.00
824.571,3342.00
825.534,2879.00
826.498,2798.00
827.462,2999.00
828.425,2810.00
829.389,3269.00
830.352,2971.00
831.315,3061.00
832.279,2634.00
833.242,2925.00
834.204,2839.00
835.167,2803.00
836.132,3243.00
837.095,2693.00
838.057,2862.00
839.020,2999.00
839.982,3035.00
840.944,2846.00
841.906,2778.00
842.868,3128.00
843.830,2694.00
844.792,3250.00
845.753,2864.00
846.715,2564.00
847.679,2760.00
848.640,2777.00
849.601,2864.00
850.562,3441.00
851.523,2905.00
852.484,2597.00
853.445,3163.00
854.406,2861.00
855.367,2915.00
856.327,3254.00
857.288,2639.00
858.248,2859.00
859.210,2878.00
860.170,2683.00
861.130,3217.00
862.090,2563.00
863.050,2763.00
864.010,2873.00
864.969,3086.00
865.929,2794.00
866.888,2654.00
867.848,2979.00
868.807,2783.00
869.766,3021.00
870.727,2872.00
871.686,3196.00
872.645,3167.00
873.604,3487.00
874.562,2942.00
875.521,2985.00
876.479,3549.00
877.437,2762.00
878.396,2699.00
879.354,3409.00
880.312,2783.00
881.270,2847.00
882.229,3321.00
883.187,2766.00
884.145,2843.00
885.102,3091.00
886.059,2994.00
887.017,3043.00
887.974,3137.00
888.931,3239.00
889.888,2614.00
890.845,2564.00
891.802,2491.00
892.758,2774.00
893.717,2594.00
894.673,2700.00
895.630,2773.00
896.586,3074.00
897.542,2820.00
898.498,2684.00
899.454,3032.00
900.410,2822.00
901.366,2841.00
902.321,2868.00
903.277,2852.00
904.232,2917.00
905.189,2644.00
906.145,2790.00
907.100,2372.00
908.055,2876.00
909.010,3126.00
909.965,2477.00
910.919,2968.00
911.874,2720.00
912.828,2957.00
913.783,2953.00
914.737,2443.00
915.693,2941.00
916.648,3088.00
917.602,3110.00
918.555,2934.00
919.509,2982.00
920.463,2907.00
921.417,2897.00
922.370,2697.00
923.324,2860.00
924.277,2852.00
925.230,2935.00
926.183,2527.00
927.138,2879.00
928.091,3129.00
929.044,2984.00
929.996,2822.00
930.949,2790.00
931.902,3003.00
932.854,3027.00
933.806,2764.00
934.758,3144.00
935.711,3164.00
936.663,2950.00
937.614,2954.00
938.568,2904.00
939.520,2524.00
940.471,2893.00
941.423,2965.00
942.374,3053.00
943.326,2868.00
944.277,2753.00
945.228,3019.00
946.179,2870.00
947.130,3250.00
948.080,2840.00
949.031,2718.00
949.984,2806.00
950.934,2888.00
951.884,2612.00
952.835,2825.00
953.785,2941.00
954.735,2741.00
955.685,2477.00
956.635,2777.00
957.585,2794.00
958.534,2818.00
959.484,2914.00
960.433,2775.00
961.383,2611.00
962.334,3121.00
963.283,2972.00
964.232,2997.00
965.181,2863.00
966.130,2954.00
967.079,2778.00
968.027,2897.00
968.976,2926.00
969.924,2763.00
970.873,2948.00
971.821,2913.00
972.769,3130.00
973.719,2993.00
974.667,2622.00
975.615,2873.00
976.562,2851.00
977.510,2596.00
978.458,2771.00
979.405,3029.00
980.352,2930.00
981.300,3154.00
982.247,2988.00
983.194,2687.00
984.141,2758.00
985.088,2876.00
986.036,2941.00
986.983,3141.00
987.930,3306.00
988.876,2485.00
989.822,3132.00
990.769,2695.00
991.715,2767.00
992.661,2577.00
993.607,2983.00
994.553,3468.00
995.498,2767.00
996.444,2414.00
997.389,2942.00
998.337,2658.00
999.282,3032.00
1000.227,2810.00
1001.173,2837.00
1002.118,2584.00
1003.062,3072.00
1004.007,2848.00
1004.952,3181.00
1005.897,3143.00
1006.841,2868.00
1007.786,2600.00
1008.730,2552.00
1009.674,3322.00
1010.618,2814.00
1011.564,2641.00
1012.508,2536.00
1013.452,3093.00
1014.396,2885.00
1015.339,2756.00
1016.283,2859.00
1017.226,2945.00
1018.170,2843.00
1019.113,3071.00
1020.056,2900.00
1020.999,2866.00
1021.942,2738.00
1022.885,3023.00
1023.828,3183.00
1024.770,2668.00
1025.715,2916.00
1026.657,2824.00
1027.600,2935.00
1028.542,3106.00
1029.484,2904.00
1030.426,3004.00
1031.368,2929.00
1032.310,2715.00
1033.251,2657.00
1034.193,2876.00
1035.135,2597.00
1036.076,2782.00
1037.017,2702.00
1037.959,3019.00
1038.900,2925.00
1039.843,2962.00
1040.784,2921.00
1041.725,2961.00
1042.665,2790.00
1043.606,2930.00
1044.547,2900.00
1045.487,2479.00
1046.427,2842.00
1047.368,2948.00
1048.308,2356.00
1049.248,2677.00
1050.188,2871.00
1051.128,2784.00
1052.067,2844.00
1053.007,2576.00
1053.947,2535.00
1054.886,2710.00
1055.827,2664.00
1056.766,3129.00
1057.706,2601.00
1058.645,2798.00
1059.584,2920.00
1060.522,3156.00
1061.461,2562.00
1062.400,2662.00
1063.338,2781.00
1064.277,2672.00
1065.215,2668.00
1066.154,2536.00
1067.092,2753.00
1068.030,2787.00
1068.968,3004.00
1069.906,3176.00
1070.843,3152.00
1071.781,2899.00
1072.720,2978.00
1073.658,2996.00
1074.595,2772.00
1075.533,2709.00
1076.470,2759.00
1077.407,3172.00
1078.344,2928.00
1079.281,2968.00
1080.217,2418.00
1081.154,2814.00
1082.091,2893.00
1083.027,2625.00
1083.964,3121.00
1084.900,2712.00
1085.836,2716.00
1086.772,3015.00
1087.708,2603.00
1088.644,3031.00
1089.580,2848.00
1090.515,2929.00
1091.451,2751.00
1092.388,2859.00
1093.324,2578.00
1094.259,3420.00
1095.194,2903.00
1096.129,2731.00
1097.064,2731.00
1097.999,2984.00
1098.934,2681.00
1099.869,2687.00
1100.803,2899.00
1101.738,2830.00
1102.672,2504.00
1103.607,2974.00
1104.541,2663.00
1105.475,2658.00
1106.409,2548.00
1107.343,2721.00
1108.277,2561.00
1109.210,2835.00
1110.144,2825.00
1111.078,2849.00
1112.011,2599.00
1112.944,2894.00
1113.878,2899.00
1114.811,2307.00
1115.744,2722.00
1116.678,2446.00
1117.611,2724.00
1118.544,2738.00
1119.477,2882.00
1120.409,2728.00
1121.342,3325.00
1122.274,2932.00
1123.206,3228.00
1124.138,2833.00
1125.070,3141.00
1126.002,3015.00
1126.934,2424.00
1127.866,2749.00
1128.798,2438.00
1129.729,2479.00
1130.661,2791.00
1131.592,2756.00
1132.523,2915.00
1133.454,2917.00
1134.385,2418.00
1135.317,2803.00
1136.247,2696.00
1137.178,2958.00
1138.109,2487.00
1139.039,3173.00
1139.970,3019.00
1140.900,2744.00
1141.831,2472.00
1142.761,2354.00
1143.691,2911.00
1144.621,2806.00
1145.551,2881.00
1146.480,2852.00
1147.410,3036.00
1148.340,2395.00
1149.269,2536.00
1150.199,2747.00
1151.128,3237.00
1152.057,2557.00
1152.979,2711.00
1153.898,2745.00
1154.819,2890.00
1155.739,2803.00
1156.658,2687.00
1157.579,2851.00
1158.498,2771.00
1159.419,2288.00
1160.338,2842.00
1161.256,2871.00
1162.177,2650.00
1163.095,2806.00
1164.016,2856.00
1164.934,3025.00
1165.852,3019.00
1166.772,2716.00
1167.690,2772.00
1168.610,2865.00
1169.528,2843.00
1170.446,2327.00
1171.365,2697.00
1172.283,2680.00
1173.202,2759.00
1174.120,2823.00
1175.037,2594.00
1175.956,2603.00
1176.873,2633.00
1177.792,2651.00
1178.709,3283.00
1179.626,2689.00
1180.544,3039.00
1181.461,2639.00
1182.379,2882.00
1183.296,2758.00
1184.212,2407.00
1185.130,2603.00
1186.046,3131.00
1186.962,2780.00
1187.880,3049.00
1188.796,2811.00
1189.714,2587.00
1190.629,2934.00
1191.545,2861.00
1192.462,2723.00
1193.378,2710.00
1194.295,2435.00
1195.210,2808.00
1196.125,2942.00
1197.042,2847.00
1197.957,2781.00
1198.872,2646.00
1199.788,2713.00
1200.703,3133.00
1201.619,2774.00
1202.534,2675.00
1203.448,2865.00
1204.364,2730.00
1205.278,2446.00
1206.192,2860.00
1207.108,3338.00
1208.022,3190.00
1208.938,2624.00
1209.851,2953.00
1210.765,2992.00
1211.680,2688.00
1212.594,2593.00
1213.507,2721.00
1214.422,3170.00
1215.335,2921.00
1216.248,2672.00
1217.163,2826.00
1218.076,3442.00
1218.990,2897.00
1219.903,2546.00
1220.816,2584.00
1221.730,2732.00
1222.642,2676.00
1223.554,2698.00
1224.469,2873.00
1225.380,2716.00
1226.292,2440.00
1227.206,2924.00
1228.118,3109.00
1229.032,2415.00
1229.943,2677.00
1230.855,2704.00
1231.768,2508.00
1232.679,2839.00
1233.590,2759.00
1234.503,2991.00
1235.414,2609.00
1236.325,2649.00
1237.238,2886.00
1238.149,2851.00
1239.059,2566.00
1239.972,2955.00
1240.882,2554.00
1241.793,2916.00
1242.705,3198.00
1243.615,2701.00
1244.525,2875.00
1245.437,2309.00
1246.347,2848.00
1247.259,2929.00
1248.168,3226.00
1249.078,3059.00
1249.989,3038.00
1250.899,2568.00
1251.808,2643.00
1252.719,2736.00
1253.628,2595.00
1254.537,3156.00
1255.448,2564.00
1256.357,2587.00
1257.266,2760.00
1258.176,2506.00
1259.085,2485.00
1259.993,2565.00
1260.904,2566.00
1261.812,2592.00
1262.720,3401.00
1263.630,2939.00
1264.538,2623.00
1265.446,2844.00
1266.356,2781.00
1267.263,3059.00
1268.171,2586.00
1269.080,2826.00
1269.988,2993.00
1270.895,2659.00
1271.804,2774.00
1272.711,2980.00
1273.619,2916.00
1274.527,2562.00
1275.434,2947.00
1276.341,2580.00
1277.248,2813.00
1278.156,3108.00
1279.063,2632.00
1279.969,2838.00
1280.877,3721.00
1281.783,2954.00
1282.690,2852.00
1283.598,2764.00
1284.503,2569.00
1285.409,2598.00
1286.317,3176.00
1287.223,3225.00
1288.128,2849.00
1289.036,2610.00
1289.941,2717.00
1290.846,2752.00
1291.751,2627.00
1292.658,2675.00
1293.563,3224.00
1294.468,2782.00
1295.375,2960.00
1296.280,3023.00
1297.184,3563.00
1298.091,2888.00
1298.995,2960.00
1299.900,3185.00
1300.806,2667.00
1301.710,2491.00
1302.614,2324.00
1303.518,3053.00
1304.424,2678.00
1305.327,2987.00
1306.231,2750.00
1307.137,2952.00
1308.040,2810.00
1308.943,2813.00
1309.847,3006.00
1310.752,2980.00
1311.655,2428.00
1312.558,2564.00
1313.463,2699.00
1314.366,2660.00
1315.269,2832.00
1316.171,2740.00
1317.076,2709.00
1317.978,2579.00
1318.881,2364.00
1319.785,2617.00
1320.687,2648.00
1321.589,2407.00
1322.491,2583.00
1323.395,2908.00
1324.297,3371.00
1325.198,2940.00
1326.102,2554.00
1327.004,2562.00
1327.905,3208.00
1328.806,2727.00
1329.709,2841.00
1330.611,2677.00
1331.512,2605.00
1332.413,3220.00
1333.316,2838.00
1334.216,2942.00
1335.117,2491.00
1336.020,2806.00
1336.920,2797.00
1337.821,2648.00
1338.721,3037.00
1339.623,2831.00
1340.523,2732.00
1341.423,2646.00
1342.323,3077.00
1343.225,2859.00
1344.125,2618.00
1345.025,2645.00
1345.924,2420.00
1346.826,3210.00
1347.725,3182.00
1348.624,3013.00
1349.524,2603.00
1350.425,2749.00
1351.324,2913.00
1352.223,2937.00
1353.121,2735.00
1354.022,2959.00
1354.921,3210.00
1355.819,2922.00
1356.718,2838.00
1357.618,2530.00
1358.516,2891.00
1359.415,3208.00
1360.313,2885.00
1361.213,2761.00
1362.111,3104.00
1363.008,3486.00
1363.906,2764.00
1364.806,2794.00
1365.703,2874.00
1366.601,2577.00
1367.498,2624.00
1368.397,2977.00
1369.295,2832.00
1370.192,2589.00
1371.089,2891.00
1371.987,2732.00
1372.884,3055.00
1373.781,2569.00
1374.678,2798.00
1375.574,2615.00
1376.473,2889.00
1377.369,3007.00
1378.265,2650.00
1379.161,2744.00
1380.059,2486.00
1380.955,2910.00
1381.851,2527.00
1382.747,2656.00
1383.643,2684.00
1384.540,2564.00
1385.436,2681.00
1386.331,2831.00
1387.227,2945.00
1388.124,2892.00
1389.019,2541.00
1389.914,2750.00
1390.809,2438.00
1391.704,3206.00
1392.601,2716.00
1393.495,3090.00
1394.390,2929.00
1395.285,3032.00
1396.179,2852.00
1397.075,2728.00
1397.969,2836.00
1398.864,2482.00
1399.758,2740.00
1400.652,2817.00
1401.547,2589.00
1402.441,2517.00
1403.335,3196.00
1404.229,2937.00
1405.122,2830.00
1406.017,2763.00
1406.911,2946.00
1407.804,3216.00
1408.697,2815.00
1409.590,2632.00
1410.485,2975.00
1411.378,2829.00
1412.271,2465.00
1413.163,2870.00
1414.056,2960.00
1414.949,3202.00
1415.843,2831.00
1416.735,2742.00
1417.627,2837.00
1418.520,2772.00
1419.412,3053.00
1420.306,2970.00
1421.197,3077.00
1422.089,3046.00
1422.981,3324.00
1423.873,3003.00
1424.764,2920.00
1425.657,2819.00
1426.549,2933.00
1427.440,2997.00
1428.331,2683.00
1429.222,2468.00
1430.113,2870.00
1431.006,3023.00
1431.897,2679.00
1432.787,2786.00
1433.678,2741.00
1434.568,2601.00
1435.459,3083.00
1436.351,2994.00
1437.241,2936.00
1438.131,2939.00
1439.021,2491.00
1439.911,2718.00
1440.801,2868.00
1441.693,3005.00
1442.583,2827.00
1443.472,2766.00
1444.362,2912.00
1445.251,2772.00
1446.140,2734.00
1447.030,3051.00
1447.921,3016.00
1448.810,2596.00
1449.699,3165.00
1450.588,2824.00
1451.476,2735.00
1452.365,2896.00
1453.254,2680.00
1454.144,2687.00
1455.032,2961.00
1455.921,2534.00
1456.809,3045.00
1457.697,2593.00
1458.585,2771.00
1459.473,2722.00
1460.361,2613.00
1461.251,2855.00
1462.138,2875.00
1463.026,2770.00
1463.913,3057.00
1464.801,2703.00
1465.688,2875.00
1466.575,2858.00
1467.463,3284.00
1468.351,2650.00
1469.238,2774.00
1470.125,2391.00
1471.012,2845.00
1471.899,2904.00
1472.785,2620.00
1473.672,2769.00
1474.558,3015.00
1475.446,2987.00
1476.333,2973.00
1477.219,2601.00
1478.105,2794.00
1478.991,2775.00
1479.877,3151.00
1480.762,2770.00
1481.648,2670.00
1482.534,2921.00
1483.419,2890.00
1484.307,2910.00
1485.192,2796.00
1486.077,2644.00
1486.962,2698.00
1487.847,2528.00
1488.732,2621.00
1489.617,2813.00
1490.502,3109.00
1491.387,2920.00
1492.271,2621.00
1493.156,2683.00
1494.042,2627.00
1494.927,3014.00
1495.811,2673.00
1496.695,2971.00
1497.579,3082.00
1498.463,2807.00
1499.347,2825.00
1500.231,2851.00
1501.114,2867.00
1501.998,3069.00
1502.881,2854.00
1503.765,3142.00
1504.648,3243.00
1505.533,2927.00
1506.417,2823.00
1507.300,2760.00
1508.183,2900.00
1509.066,2258.00
1509.948,3095.00
1510.831,3198.00
1511.714,2608.00
1512.596,2989.00
1513.479,3085.00
1514.361,3014.00
1515.243,2837.00
1516.125,2973.00
1517.008,3083.00
1517.890,2763.00
1518.771,2825.00
1519.655,3046.00
1520.537,2731.00
1521.419,2647.00
1522.300,2834.00
1523.182,2991.00
1524.063,2969.00
1524.944,3131.00
1525.825,3014.00
1526.707,2589.00
1527.588,2623.00
1528.468,2890.00
1529.349,2422.00
1530.230,2736.00
1531.111,3015.00
1531.991,2910.00
1532.872,2513.00
1533.752,2812.00
1534.632,2688.00
1535.513,2679.00
1536.393,2981.00
1537.273,3154.00
1538.153,3485.00
1539.032,2501.00
1539.912,2838.00
1540.792,2835.00
1541.672,2864.00
1542.551,2938.00
1543.430,3471.00
1544.310,2865.00
1545.189,2730.00
1546.068,3269.00
1546.947,2953.00
1547.826,3151.00
1548.705,2807.00
1549.584,3077.00
1550.462,2754.00
1551.341,3006.00
1552.219,2890.00
1553.098,2966.00
1553.976,3031.00
1554.854,3268.00
1555.733,3005.00
1556.611,2752.00
1557.489,2612.00
1558.367,2815.00
1559.244,3001.00
1560.122,2846.00
1561.000,2917.00
1561.877,3148.00
1562.755,2706.00
1563.632,2822.00
1564.509,3125.00
1565.386,3222.00
1566.264,2544.00
1567.141,2436.00
1568.017,3024.00
1568.894,2838.00
1569.771,2880.00
1570.648,2960.00
1571.524,2876.00
1572.401,2593.00
1573.277,2569.00
1574.153,2873.00
1575.029,2696.00
1575.906,3601.00
1576.781,3030.00
1577.657,2778.00
1578.533,3098.00
1579.409,2425.00
1580.285,2766.00
1581.160,3244.00
1582.036,3032.00
1582.911,2668.00
1583.786,3251.00
1584.662,2617.00
1585.537,2797.00
1586.412,2909.00
1587.287,2648.00
1588.160,3042.00
1589.035,2466.00
1589.909,2859.00
1590.784,2795.00
1591.658,2641.00
1592.533,2888.00
1593.407,2872.00
1594.281,2731.00
1595.155,3318.00
1596.029,2774.00
1596.903,2776.00
1597.777,2728.00
1598.651,3091.00
1599.525,2537.00
1600.398,2869.00
1601.272,2765.00
1602.144,3432.00
1603.017,2778.00
1603.890,3082.00
1604.763,2895.00
1605.636,2982.00
1606.509,2504.00
1607.382,2661.00
1608.255,2900.00
1609.128,3039.00
1610.000,2796.00
1610.873,2529.00
1611.746,2727.00
1612.616,2772.00
1613.488,2367.00
1614.361,2840.00
1615.233,2771.00
1616.105,3039.00
1616.977,2793.00
1617.849,2670.00
1618.720,3164.00
1619.592,3174.00
1620.464,2910.00
1621.333,3374.00
1622.205,2840.00
1623.076,2808.00
1623.947,2805.00
1624.818,3105.00
1625.689,2937.00
1626.560,2785.00
1627.431,2904.00
1628.302,3258.00
1629.171,2979.00
1630.042,3171.00
1630.912,3590.00
1631.782,3480.00
1632.653,2657.00
1633.523,3050.00
1634.393,3147.00
1635.263,2753.00
1636.131,2833.00
1637.001,2783.00
1637.871,2461.00
1638.741,2459.00
1639.611,2566.00
1640.480,2950.00
1641.350,2698.00
1642.219,2675.00
1643.087,2283.00
1643.956,3313.00
1644.825,3068.00
1645.694,3033.00
1646.563,3011.00
1647.432,2898.00
1648.299,2867.00
1649.167,2968.00
1650.036,2623.00
1650.904,2979.00
1651.773,3036.00
1652.641,2846.00
1653.509,3080.00
1654.376,2690.00
1655.244,2883.00
1656.112,2900.00
1656.980,2860.00
1657.847,2717.00
1658.715,3028.00
1659.581,2778.00
1660.448,3133.00
1661.316,2329.00
1662.183,2887.00
1663.051,2916.00
1663.918,2841.00
1664.783,2883.00
1665.650,2942.00
1666.517,3078.00
1667.384,2885.00
1668.251,2882.00
1669.115,3075.00
1669.982,2801.00
1670.849,3161.00
1671.715,2807.00
1672.581,3029.00
1673.446,2946.00
1674.312,2890.00
1675.178,3266.00
1676.044,2975.00
1676.910,2954.00
1677.774,2877.00
1678.639,2488.00
1679.505,2868.00
1680.370,2998.00
1681.236,3569.00
1682.099,2814.00
1682.965,2860.00
1683.830,2441.00
1684.695,2657.00
1685.560,2766.00
1686.423,3001.00
1687.288,2956.00
1688.153,2887.00
1689.017,2731.00
1689.880,2913.00
1690.745,2991.00
1691.609,2669.00
1692.473,3011.00
1693.338,3099.00
1694.200,3179.00
1695.064,2886.00
1695.928,2786.00
1696.792,2886.00
1697.654,3390.00
1698.517,2887.00
1699.381,2572.00
1700.245,2481.00
1701.106,3192.00
1701.969,2741.00
1702.833,3031.00
1703.696,2769.00
1704.557,2830.00
1705.420,2721.00
1706.283,2855.00
1707.146,3011.00
1708.007,2703.00
1708.870,2652.00
1709.732,2507.00
1710.595,2751.00
1711.455,2602.00
1712.318,2795.00
1713.180,3141.00
1714.040,2910.00
1714.902,3043.00
1715.764,2865.00
1716.626,2627.00
1717.486,2842.00
1718.348,3108.00
1719.209,5150.00
1720.071,2486.00
1720.930,2607.00
1721.792,2660.00
1722.653,2713.00
1723.512,2737.00
1724.374,2812.00
1725.234,2927.00
1726.095,2884.00
1726.954,2862.00
1727.815,2975.00
1728.676,2844.00
1729.535,3090.00
1730.395,2852.00
1731.256,2772.00
1732.114,2922.00
1732.974,2301.00
1733.834,3204.00
1734.693,3000.00
1735.553,2876.00
1736.413,3288.00
1737.272,2734.00
1738.130,2808.00
1738.990,2933.00
1739.849,2737.00
1740.707,3909.00
1741.566,2908.00
1742.426,2881.00
1743.283,3298.00
1744.142,2754.00
1745.001,2511.00
1745.858,3041.00
1746.717,2962.00
1747.576,2996.00
1748.433,3016.00
1749.292,3482.00
1750.150,3503.00
1751.007,3045.00
1751.865,3085.00
1752.723,2872.00
1753.579,2752.00
1754.438,3095.00
1755.296,3159.00
1756.152,2407.00
1757.010,2516.00
1757.865,3080.00
1758.723,2518.00
1759.581,3219.00
1760.436,2866.00
1761.294,3212.00
1762.151,2837.00
1763.006,2785.00
1763.864,2514.00
1764.721,3052.00
1765.576,2908.00
1766.433,3058.00
1767.288,2790.00
1768.144,2913.00
1769.001,2825.00
1769.856,2953.00
1770.712,3100.00
1771.568,2593.00
1772.423,2775.00
1773.279,2762.00
1774.133,2778.00
1774.989,3324.00
1775.845,3246.00
1776.699,3150.00
1777.555,2856.00
1778.409,3465.00
1779.265,2805.00
1780.120,2849.00
1780.974,2869.00
1781.829,2480.00
1782.682,2890.00
1783.538,2703.00
1784.393,2898.00
1785.246,2763.00
1786.101,2988.00
1786.954,2981.00
1787.808,3090.00
1788.661,2565.00
1789.516,2775.00
1790.370,2776.00
1791.223,3031.00
1792.077,2876.00
1792.930,2978.00
1793.784,2727.00
1794.636,2873.00
1795.490,2867.00
1796.344,2888.00
1797.196,2844.00
1798.049,3050.00
1798.901,2747.00
1799.755,3098.00
1800.606,2604.00
1801.460,3413.00
1802.311,3212.00
1803.165,3327.00
1804.018,3244.00
1804.869,2980.00
1805.722,3350.00
1806.573,2936.00
1807.426,2675.00
1808.276,2824.00
1809.129,2745.00
1809.980,3097.00
1810.832,3176.00
1811.683,2774.00
1812.535,3237.00
1813.385,2799.00
1814.237,3171.00
1815.089,2933.00
1815.940,3169.00
1816.791,2827.00
1817.641,2734.00
1818.493,3022.00
1819.343,2914.00
1820.194,2742.00
1821.044,2995.00
1821.895,3105.00
1822.745,2584.00
1823.596,2780.00
1824.445,3321.00
1825.296,3027.00
1826.145,2819.00
1826.996,3108.00
1827.845,2936.00
1828.695,2919.00
1829.544,2855.00
1830.395,2902.00
1831.243,2809.00
1832.094,2604.00
1832.942,3547.00
1833.792,3023.00
1834.640,2888.00
1835.490,2867.00
1836.338,2917.00
1837.186,2726.00
1838.036,2747.00
1838.884,2868.00
1839.733,3227.00
1840.581,3070.00
1841.430,3041.00
1842.278,3255.00
1843.127,2776.00
1843.974,2542.00
1844.823,3332.00
1845.671,3030.00
1846.519,2918.00
1847.366,2980.00
1848.213,2489.00
1849.062,2681.00
1849.909,2612.00
1850.757,3661.00
1851.604,3024.00
1852.452,2814.00
1853.298,3062.00
1854.146,2952.00
1854.993,2934.00
1855.839,3445.00
1856.687,2996.00
1857.532,3004.00
1858.380,2884.00
1859.226,3020.00
1860.073,2971.00
1860.919,2732.00
1861.765,2757.00
1862.612,3165.00
1863.457,3116.00
1864.304,2826.00
1865.150,3040.00
1865.995,2835.00
1866.842,3007.00
1867.686,3149.00
1868.533,2972.00
1869.378,2941.00
1870.223,2887.00
1871.069,2819.00
1871.914,2923.00
1872.760,2872.00
1873.604,2694.00
1874.448,3050.00
1875.294,3119.00
1876.139,2719.00
1876.984,3060.00
1877.828,2524.00
1878.672,2364.00
1879.518,2775.00
1880.361,3111.00
1881.205,3084.00
1882.050,2656.00
1882.894,3429.00
1883.739,2726.00
1884.582,2691.00
1885.425,2708.00
1886.270,3161.00
1887.113,2615.00
1887.956,2992.00
1888.801,2915.00
1889.644,2672.00
1890.486,2438.00
1891.331,2799.00
1892.173,2944.00
1893.017,2970.00
1893.860,3160.00
1894.702,3225.00
1895.546,2879.00
1896.388,3652.00
1897.230,3261.00
1898.074,2772.00
1898.916,2675.00
1899.757,2706.00
1900.601,3612.00
1901.443,3235.00
1902.284,3217.00
1903.125,3383.00
1903.969,3105.00
1904.810,3144.00
1905.651,2967.00
1906.494,3238.00
1907.335,3354.00
1908.176,3051.00
1909.018,3001.00
1909.859,2886.00
1910.700,2776.00
1911.542,3448.00
1912.383,2982.00
1913.223,2495.00
1914.064,3017.00
1914.906,3217.00
1915.746,3289.00
1916.586,3401.00
1917.428,2866.00
1918.268,2935.00
1919.107,2790.00
1919.947,2658.00
1920.789,2810.00
1921.628,3169.00
1922.468,2930.00
1923.309,2716.00
1924.148,3237.00
1924.988,3000.00
1925.827,2871.00
1926.667,2789.00
1927.507,2965.00
1928.345,2690.00
1929.184,3061.00
1930.025,2695.00
1930.864,3155.00
1931.702,3254.00
1932.541,2808.00
1933.381,3074.00
1934.219,3066.00
1935.057,3218.00
1935.896,2620.00
1936.735,2892.00
1937.573,2768.00
1938.411,2717.00
1939.249,3076.00
1940.089,2793.00
1940.927,3196.00
1941.764,3205.00
1942.602,2831.00
1943.439,2809.00
1944.278,2866.00
1945.115,2901.00
1945.953,2610.00
1946.790,2998.00
1947.628,3267.00
1948.465,3024.00
1949.302,3075.00
1950.139,3061.00
1950.976,2764.00
1951.814,3071.00
1952.651,3024.00
1953.487,2687.00
1954.323,3182.00
1955.160,2905.00
1955.998,3302.00
1956.834,2865.00
1957.670,3010.00
1958.506,3161.00
1959.342,3019.00
1960.177,2977.00
1961.015,3035.00
1961.850,2936.00
1962.686,2971.00
1963.521,3007.00
1964.357,3198.00
1965.192,2658.00
1966.029,3105.00
1966.864,2883.00
1967.699,3107.00
1968.534,3001.00
1969.369,3192.00
1970.204,2911.00
1971.040,2971.00
1971.875,2859.00
1972.709,2947.00
1973.544,2772.00
1974.378,2791.00
1975.212,3018.00
1976.047,2806.00
1976.882,2770.00
1977.716,3384.00
1978.550,2615.00
1979.384,2980.00
1980.218,2884.00
1981.052,2865.00
1981.885,2948.00
1982.719,2895.00
1983.554,3097.00
1984.388,3316.00
1985.221,3042.00
1986.054,3224.00
1986.887,2978.00
1987.720,2846.00
1988.553,3252.00
1989.386,3008.00
1990.219,3061.00
1991.053,3252.00
1991.886,2812.00
1992.719,3157.00
1993.551,2488.00
1994.383,3111.00
1995.216,2881.00
1996.048,2609.00
1996.880,3074.00
1997.712,2800.00
1998.544,2894.00
1999.376,3022.00
2000.208,3263.00
2001.040,3425.00
2001.873,2736.00
2002.705,2752.00
2003.536,3009.00
2004.367,3026.00
2005.199,2967.00
2006.030,2828.00
2006.861,2693.00
2007.692,2942.00
2008.523,2749.00
2009.354,2970.00
2010.185,2741.00
2011.016,3083.00
2011.846,3121.00
2012.677,2874.00
2013.507,3297.00
2014.338,3186.00
2015.168,2850.00
2015.999,3471.00
2016.829,2868.00
2017.659,3191.00
2018.489,3520.00
2019.319,2733.00
2020.149,3106.00
2020.980,2968.00
2021.810,2727.00
2022.639,2809.00
2023.469,2835.00
2024.298,2597.00
2025.128,2532.00
2025.957,2527.00
2026.786,2346.00
2027.615,2554.00
2028.444,2754.00
2029.273,2992.00
2030.102,2523.00
2030.931,2788.00
2031.758,3036.00
2032.586,2697.00
2033.415,2781.00
2034.243,2394.00
2035.072,2156.00
2035.900,2676.00
2036.728,2438.00
2037.556,2491.00
2038.385,2528.00
2039.213,2333.00
2040.040,2313.00
2040.868,2285.00
2041.696,2330.00
2042.524,2349.00
2043.351,2567.00
2044.179,2334.00
2045.006,2159.00
