RamanScope Measure Spectrum Data V3.72

<< MEASURE CONDITION >>
Exposure Type,Aver
Exposure Time [sec],15
Exposure Count,30
Measure Time,2023/07/12 20:43:34
Data Name,""
Data Comment,""
Rayleigh Wave[nm],532.0

<< SAMPLE SPECTRUM >>
Wave[dcm-1],No48
146.591,1225.57
147.626,1424.03
148.664,1660.60
149.699,1858.53
150.737,2105.23
151.772,2332.07
152.809,2502.50
153.846,2712.20
154.881,2856.87
155.918,3014.27
156.953,3132.13
157.989,3209.60
159.026,3341.17
160.060,3349.70
161.096,3424.67
162.130,3508.83
163.167,3557.03
164.200,3635.83
165.236,3703.13
166.272,3765.20
167.305,3826.03
168.341,3912.90
169.374,4020.43
170.409,4052.80
171.445,4145.67
172.477,4232.07
173.512,4301.37
174.545,4270.07
175.580,4249.47
176.614,4274.00
177.647,4289.93
178.681,4245.43
179.713,4159.93
180.747,4192.40
181.781,4171.70
182.813,4083.60
183.847,4110.67
184.878,4078.67
185.912,4063.23
186.945,4160.47
187.976,4133.90
189.010,4218.07
190.043,4209.43
191.073,4211.03
192.106,4260.73
193.137,4336.20
194.170,4367.73
195.202,4394.23
196.232,4447.93
197.265,4511.33
198.297,4611.50
199.327,4642.10
200.359,4690.13
201.388,4793.03
202.420,4890.30
203.452,4989.33
204.481,5049.73
205.512,5176.43
206.544,5229.13
207.573,5364.63
208.604,5509.37
209.635,5608.33
210.663,5708.97
211.694,5783.47
212.725,5957.07
213.753,6054.73
214.783,6089.87
215.813,6101.37
216.841,6111.03
217.871,6056.20
218.899,6055.83
219.929,5991.17
220.959,5926.30
221.986,5840.43
223.016,5752.83
224.045,5600.67
225.072,5552.53
226.101,5483.63
227.130,5419.70
228.157,5399.63
229.185,5328.37
230.214,5261.37
231.241,5212.13
232.269,5190.23
233.297,5213.13
234.323,5227.43
235.351,5163.90
236.379,5175.63
237.407,5231.17
238.433,5153.63
239.460,5243.37
240.488,5304.43
241.513,5372.60
242.540,5358.60
243.568,5436.43
244.592,5468.43
245.619,5377.70
246.646,5382.07
247.671,5399.60
248.697,5355.47
249.724,5347.73
250.748,5320.20
251.774,5321.70
252.801,5276.10
253.827,5339.03
254.850,5349.47
255.876,5322.00
256.902,5363.50
257.925,5317.30
258.951,5401.00
259.976,5430.73
260.999,5479.60
262.024,5479.03
263.049,5544.50
264.074,5534.97
265.097,5608.13
266.122,5656.20
267.146,5686.83
268.168,5721.13
269.193,5783.03
270.217,5818.33
271.241,5841.43
272.263,5881.10
273.287,5815.13
274.311,5864.97
275.332,5934.23
276.356,5914.20
277.379,5829.33
278.402,5791.20
279.424,5750.97
280.447,5657.67
281.470,5603.73
282.492,5517.47
283.513,5495.83
284.536,5402.53
285.558,5331.67
286.581,5290.10
287.601,5221.50
288.623,5174.17
289.645,5145.07
290.665,5057.30
291.687,5066.83
292.709,4961.77
293.730,4864.03
294.750,4893.40
295.771,4821.57
296.792,4756.40
297.813,4732.50
298.832,4648.30
299.853,4594.90
300.874,4584.20
301.895,4575.37
302.913,4504.50
303.934,4462.67
304.954,4381.73
305.975,5086.23
306.993,4367.40
308.013,4330.07
309.033,4325.33
310.052,4267.07
311.072,4306.00
312.090,4305.23
313.109,4240.43
314.129,4250.10
315.148,4203.90
316.165,4176.93
317.184,4194.07
318.203,4144.20
319.222,4166.63
320.238,4072.20
321.257,4074.37
322.275,4106.30
323.294,4059.37
324.312,3992.47
325.328,4061.13
326.346,4070.83
327.364,4041.43
328.382,4052.57
329.397,4068.83
330.415,4009.97
331.432,4061.47
332.450,3997.90
333.467,4011.77
334.482,3994.60
335.499,3974.37
336.516,3988.63
337.533,4006.50
338.547,4003.87
339.564,3936.40
340.580,3972.27
341.597,4008.87
342.613,3983.00
343.627,3962.47
344.643,3936.23
345.659,3976.93
346.675,3959.17
347.690,3931.13
348.704,3935.63
349.719,3895.50
350.735,3890.00
351.750,3832.53
352.765,3920.00
353.778,3900.70
354.793,3897.50
355.808,3891.23
356.822,3934.97
357.837,3916.93
358.851,3916.20
359.864,3934.10
360.878,3890.83
361.892,3972.63
362.906,3922.73
363.920,3947.10
364.932,3935.37
365.945,3905.33
366.959,3949.17
367.972,3995.03
368.986,3962.53
369.999,3983.73
371.010,3985.63
372.023,3971.43
373.036,3996.93
374.049,4013.53
375.061,3983.27
376.072,3996.67
377.084,3989.73
378.097,4046.20
379.109,4065.57
380.121,4018.70
381.133,3983.43
382.143,4008.73
383.155,3986.77
384.166,3995.23
385.178,3966.03
386.189,3989.60
387.201,4009.00
388.212,3954.17
389.221,3967.03
390.232,3966.77
391.243,3921.77
392.254,3894.40
393.264,3915.13
394.275,3903.30
395.283,3880.27
396.294,3882.10
397.304,3840.13
398.314,3855.07
399.324,3833.23
400.334,3843.47
401.344,3796.40
402.351,3791.17
403.361,3827.00
404.370,3768.43
405.380,3740.87
406.389,3741.70
407.398,3749.90
408.407,3727.90
409.414,3669.80
410.423,3726.80
411.431,3664.57
412.440,3646.27
413.448,3648.37
414.457,3667.20
415.465,3638.03
416.471,3660.60
417.479,3591.73
418.487,3613.57
419.495,3624.70
420.503,3579.73
421.510,3581.07
422.518,3602.70
423.525,3578.73
424.530,3641.97
425.537,3617.17
426.544,3533.00
427.551,3542.13
428.558,3547.30
429.565,3582.83
430.571,3603.20
431.578,3567.07
432.582,3525.00
433.588,3550.30
434.595,3559.80
435.601,3531.27
436.607,3523.60
437.612,3547.47
438.618,3540.77
439.624,3517.80
440.627,3519.57
441.633,3561.23
442.638,3510.67
443.643,3518.00
444.648,3511.07
445.653,3562.07
446.658,3498.73
447.663,3494.57
448.667,3497.40
449.672,3535.37
450.674,3566.87
451.678,3586.87
452.682,3557.57
453.687,3579.97
454.690,3543.30
455.694,3557.70
456.698,3571.50
457.702,3542.50
458.705,3527.40
459.709,3561.23
460.710,3637.30
461.713,3534.80
462.716,3534.30
463.719,3605.20
464.722,3592.93
465.725,3633.27
466.727,3602.77
467.730,3590.73
468.732,3566.60
469.735,3620.97
470.737,3573.73
471.737,3591.20
472.739,3584.80
473.741,3581.67
474.742,3595.17
475.744,3601.13
476.746,3569.47
477.747,3604.60
478.748,3622.77
479.750,3619.37
480.751,3614.77
481.752,3610.87
482.753,3612.67
483.751,3605.63
484.752,3608.90
485.753,3594.10
486.753,3621.57
487.753,3603.93
488.754,3587.23
489.754,3585.30
490.754,3591.93
491.754,3624.07
492.754,3631.90
493.753,3617.40
494.753,3559.23
495.752,3574.17
496.752,3640.40
497.749,3563.70
498.748,3611.10
499.747,3523.37
500.746,3549.70
501.745,3537.30
502.744,3565.17
503.742,3524.73
504.741,3486.40
505.739,3553.33
506.737,3550.27
507.735,3509.40
508.734,3494.10
509.732,3446.70
510.729,3419.43
511.727,3496.00
512.725,3459.03
513.720,3453.67
514.718,3445.23
515.715,3424.50
516.712,3388.40
517.709,3439.73
518.706,3409.43
519.703,3425.70
520.700,3372.37
521.696,3419.63
522.693,3465.80
523.689,3423.33
524.686,3449.73
525.682,3422.37
526.678,3472.17
527.674,3446.57
528.670,3458.03
529.666,3470.70
530.661,3459.10
531.657,3603.50
532.652,3446.90
533.648,3498.47
534.641,3469.93
535.636,3442.33
536.631,3481.47
537.626,3471.03
538.621,3483.40
539.616,3481.57
540.610,3470.93
541.605,3460.07
542.599,3482.23
543.593,3468.03
544.587,3464.77
545.581,3484.40
546.575,3423.67
547.569,3471.03
548.563,3487.07
549.557,3488.13
550.550,3469.67
551.543,3469.10
552.537,3476.23
553.530,3499.77
554.523,3531.47
555.516,3529.87
556.509,3487.07
557.502,3470.37
558.494,3507.27
559.487,3521.07
560.479,3499.23
561.472,3512.07
562.464,3493.83
563.456,3484.23
564.448,3523.23
565.440,3542.83
566.432,3478.57
567.423,3521.13
568.415,3556.47
569.404,3588.13
570.396,3586.20
571.387,3548.93
572.378,3537.37
573.369,3583.53
574.360,3640.20
575.351,3637.63
576.341,3637.50
577.332,3648.63
578.323,3630.07
579.313,3648.03
580.303,3706.10
581.293,3602.07
582.283,3654.87
583.273,3689.77
584.263,3665.73
585.253,3636.97
586.243,3738.37
587.232,3669.43
588.222,3674.27
589.211,3693.73
590.200,3707.07
591.189,3775.57
592.178,3748.20
593.167,3705.27
594.156,3713.30
595.145,3755.40
596.133,3735.73
597.122,3756.73
598.110,3703.00
599.098,3730.80
600.086,3758.03
601.074,3726.37
602.062,3741.63
603.050,3726.17
604.038,3692.60
605.025,3708.33
606.013,3706.63
607.000,3683.47
607.987,3683.50
608.975,3647.37
609.962,3622.90
610.949,3655.87
611.936,3617.20
612.922,3558.57
613.909,3565.80
614.895,3517.67
615.882,3567.20
616.868,3538.67
617.854,3484.40
618.841,3443.37
619.826,3471.67
620.812,3442.13
621.798,3418.97
622.784,3412.53
623.769,3370.73
624.755,3344.53
625.740,3357.37
626.725,3351.43
627.711,3342.83
628.698,3266.83
629.683,3249.57
630.667,3203.87
631.652,3218.57
632.637,3203.80
633.621,3194.63
634.606,3129.40
635.590,3135.47
636.574,3156.43
637.558,3117.37
638.542,3098.53
639.526,3081.30
640.510,3071.43
641.493,3073.00
642.477,3064.17
643.460,3045.73
644.444,3032.13
645.427,3033.10
646.410,3017.63
647.393,3038.53
648.376,3022.70
649.359,2957.97
650.341,2977.10
651.324,2930.73
652.307,2940.00
653.289,2992.27
654.271,2945.50
655.253,2899.13
656.235,2904.57
657.217,2884.30
658.199,2934.77
659.181,2939.77
660.163,2904.50
661.144,2859.33
662.126,2856.87
663.107,2872.77
664.088,2891.57
665.069,2859.37
666.050,2835.37
667.033,2844.47
668.014,2811.10
668.995,2826.17
669.975,2776.10
670.956,2781.13
671.936,2738.97
672.916,2778.33
673.896,2735.30
674.876,2763.87
675.856,2667.80
676.836,2647.97
677.816,2666.87
678.795,2695.03
679.775,2669.50
680.754,2657.17
681.734,2604.67
682.713,2572.67
683.692,2593.80
684.671,2582.03
685.650,2524.00
686.629,2544.67
687.607,2522.53
688.586,2545.90
689.564,2512.77
690.543,2472.30
691.523,2460.83
692.501,2432.93
693.479,2481.13
694.457,2489.13
695.435,2410.73
696.413,2427.77
697.390,2406.07
698.368,2424.90
699.345,2413.03
700.322,2384.27
701.300,2421.87
702.277,2357.97
703.254,2363.23
704.231,2360.77
705.207,2390.67
706.184,2340.37
707.161,2319.77
708.137,2312.47
709.113,2322.27
710.090,2280.23
711.068,2318.07
712.044,2311.13
713.020,2267.13
713.996,2297.77
714.971,2271.10
715.947,2286.77
716.922,2258.90
717.898,2241.57
718.873,2235.03
719.848,2244.23
720.823,2271.07
721.798,2203.37
722.773,2196.40
723.748,2182.03
724.723,2206.03
725.697,2210.80
726.672,2185.27
727.646,2167.13
728.622,2177.17
729.596,2161.80
730.570,2167.77
731.544,2202.40
732.518,2148.80
733.492,2159.17
734.466,2148.03
735.439,2158.00
736.413,2131.17
737.386,2131.57
738.359,2126.97
739.332,2123.60
740.305,2086.53
741.278,2158.33
742.251,2128.70
743.224,2075.50
744.196,2049.23
745.171,2092.17
746.143,2072.27
747.115,2072.63
748.087,2066.27
749.059,2070.10
750.031,2049.23
751.003,2017.20
751.975,2034.23
752.947,2040.00
753.918,2021.67
754.890,2012.67
755.861,2022.60
756.832,2050.73
757.803,1986.57
758.774,1989.63
759.747,2007.60
760.718,1988.47
761.689,1977.67
762.659,1971.50
763.630,1929.27
764.600,1917.53
765.570,2004.10
766.540,1965.63
767.510,1975.97
768.480,1978.87
769.450,1967.93
770.420,1894.83
771.390,1963.37
772.359,1953.53
773.329,1916.93
774.300,1920.13
775.269,1905.73
776.238,1949.97
777.207,1865.47
778.176,1886.93
779.145,1920.77
780.114,1901.60
781.083,1869.87
782.051,1857.27
783.019,1877.50
783.988,1845.20
784.956,1873.33
785.924,1857.17
786.894,1866.03
787.862,1875.53
788.830,1841.77
789.797,1890.13
790.765,1831.70
791.732,1846.07
792.700,1876.47
793.667,1817.97
794.634,1833.17
795.601,1828.97
796.568,1805.77
797.535,1793.70
798.502,1800.43
799.468,1810.43
800.437,1817.73
801.403,1757.70
802.370,1772.43
803.336,1748.90
804.302,1810.37
805.268,1789.23
806.234,1800.83
807.200,1773.07
808.166,1754.63
809.131,1787.83
810.097,1740.57
811.062,1768.20
812.027,1726.10
812.994,1762.67
813.960,1768.33
814.925,1763.40
815.889,1728.00
816.854,1713.80
817.819,1708.63
818.783,1704.17
819.748,1698.83
820.712,1713.87
821.677,1735.40
822.641,1712.87
823.605,1668.57
824.571,1710.93
825.534,1736.50
826.498,1715.40
827.462,1718.17
828.425,1698.27
829.389,1724.90
830.352,1710.73
831.315,1707.40
832.279,1688.93
833.242,1700.43
834.204,1658.83
835.167,1661.07
836.132,1692.07
837.095,1708.83
838.057,1676.27
839.020,1678.87
839.982,1670.77
840.944,1681.93
841.906,1645.23
842.868,1676.07
843.830,1667.57
844.792,1670.50
845.753,1657.33
846.715,1652.90
847.679,1663.40
848.640,1626.33
849.601,1646.47
850.562,1623.47
851.523,1651.63
852.484,1657.13
853.445,1625.10
854.406,1612.70
855.367,1612.33
856.327,1610.57
857.288,1653.07
858.248,1600.37
859.210,1604.03
860.170,1609.40
861.130,1565.73
862.090,1631.83
863.050,1621.13
864.010,1613.50
864.969,1620.43
865.929,1613.37
866.888,1592.83
867.848,1617.47
868.807,1601.60
869.766,1548.57
870.727,1598.03
871.686,1596.60
872.645,1582.70
873.604,1599.03
874.562,1581.00
875.521,1585.00
876.479,1569.03
877.437,1578.17
878.396,1586.03
879.354,1621.17
880.312,1581.33
881.270,1580.57
882.229,1547.87
883.187,1584.23
884.145,1558.10
885.102,1561.60
886.059,1540.20
887.017,1622.77
887.974,1563.23
888.931,1560.10
889.888,1547.73
890.845,1574.53
891.802,1544.77
892.758,1573.13
893.717,1564.03
894.673,1561.27
895.630,1597.07
896.586,1564.53
897.542,1574.50
898.498,1549.07
899.454,1606.87
900.410,1573.27
901.366,1566.97
902.321,1582.43
903.277,1607.37
904.232,1541.30
905.189,1614.47
906.145,1575.17
907.100,1609.13
908.055,1602.23
909.010,1604.37
909.965,1570.00
910.919,1557.20
911.874,1559.13
912.828,1581.30
913.783,1547.00
914.737,1602.73
915.693,1588.27
916.648,1604.33
917.602,1593.63
918.555,1582.87
919.509,1601.07
920.463,1581.03
921.417,1593.83
922.370,1591.87
923.324,1586.90
924.277,1610.43
925.230,1637.50
926.183,1632.07
927.138,1611.07
928.091,1558.87
929.044,1595.67
929.996,1591.50
930.949,1656.60
931.902,1608.83
932.854,1630.07
933.806,1582.33
934.758,1603.17
935.711,1647.47
936.663,1627.90
937.614,1627.90
938.568,1570.13
939.520,1597.83
940.471,1592.50
941.423,1626.57
942.374,1607.17
943.326,1617.50
944.277,1587.87
945.228,1611.07
946.179,1584.83
947.130,1584.23
948.080,1618.43
949.031,1612.40
949.984,1596.30
950.934,1591.90
951.884,1607.27
952.835,1615.23
953.785,1591.47
954.735,1572.87
955.685,1612.80
956.635,1630.80
957.585,1592.60
958.534,1542.90
959.484,1560.53
960.433,1546.43
961.383,1571.87
962.334,1583.93
963.283,1540.73
964.232,1629.10
965.181,1554.50
966.130,1575.97
967.079,1607.73
968.027,1573.70
968.976,1545.70
969.924,1561.43
970.873,1572.27
971.821,1592.80
972.769,1573.17
973.719,1605.03
974.667,1564.57
975.615,1586.17
976.562,1566.53
977.510,1548.57
978.458,1581.50
979.405,1561.80
980.352,1581.03
981.300,1546.37
982.247,1593.17
983.194,1547.97
984.141,1603.87
985.088,1528.63
986.036,1530.30
986.983,1522.53
987.930,1563.53
988.876,1580.47
989.822,1565.70
990.769,1589.00
991.715,1573.43
992.661,1579.60
993.607,1531.63
994.553,1554.23
995.498,1540.40
996.444,1564.67
997.389,1560.20
998.337,1545.83
999.282,1578.57
1000.227,1571.27
1001.173,1549.80
1002.118,1568.60
1003.062,1521.20
1004.007,1555.37
1004.952,1497.23
1005.897,1526.57
1006.841,1566.67
1007.786,1528.37
1008.730,1555.33
1009.674,1538.90
1010.618,1555.70
1011.564,1528.67
1012.508,1569.83
1013.452,1539.87
1014.396,1576.67
1015.339,1583.73
1016.283,1570.93
1017.226,1548.17
1018.170,1552.77
1019.113,1557.87
1020.056,1548.03
1020.999,1552.90
1021.942,1551.57
1022.885,1539.00
1023.828,1580.90
1024.770,1577.23
1025.715,1578.13
1026.657,1567.30
1027.600,1557.87
1028.542,1600.50
1029.484,1605.73
1030.426,1596.93
1031.368,1566.80
1032.310,1535.60
1033.251,1599.17
1034.193,1584.37
1035.135,1606.27
1036.076,1623.73
1037.017,1581.43
1037.959,1588.73
1038.900,1609.13
1039.843,1595.30
1040.784,1595.77
1041.725,1606.03
1042.665,1572.43
1043.606,1612.33
1044.547,1596.73
1045.487,1597.13
1046.427,1629.33
1047.368,1581.03
1048.308,1608.10
1049.248,1611.40
1050.188,1601.20
1051.128,1625.63
1052.067,1632.23
1053.007,1654.60
1053.947,1637.37
1054.886,1621.90
1055.827,1647.67
1056.766,1662.73
1057.706,1621.00
1058.645,1658.80
1059.584,1636.60
1060.522,1684.37
1061.461,1668.53
1062.400,1643.40
1063.338,1645.47
1064.277,1691.37
1065.215,1649.03
1066.154,1691.57
1067.092,1688.63
1068.030,1668.23
1068.968,1688.17
1069.906,1694.77
1070.843,1698.40
1071.781,1707.87
1072.720,1685.70
1073.658,1727.93
1074.595,1720.17
1075.533,1704.40
1076.470,1693.53
1077.407,1701.53
1078.344,1692.43
1079.281,1653.67
1080.217,1715.60
1081.154,1685.70
1082.091,1709.80
1083.027,1733.20
1083.964,1726.40
1084.900,1737.40
1085.836,1700.40
1086.772,1698.53
1087.708,1718.30
1088.644,1741.57
1089.580,1710.37
1090.515,1723.87
1091.451,1653.67
1092.388,1738.93
1093.324,1720.57
1094.259,1710.87
1095.194,1691.60
1096.129,1661.07
1097.064,1691.13
1097.999,1725.90
1098.934,1697.53
1099.869,1734.93
1100.803,1696.83
1101.738,1652.23
1102.672,1677.20
1103.607,1684.03
1104.541,1674.40
1105.475,1655.33
1106.409,1645.10
1107.343,1616.67
1108.277,1645.47
1109.210,1609.23
1110.144,1634.87
1111.078,1596.77
1112.011,1621.00
1112.944,1596.83
1113.878,1600.57
1114.811,1647.40
1115.744,1582.03
1116.678,1579.87
1117.611,1579.60
1118.544,1610.63
1119.477,1509.13
1120.409,1597.73
1121.342,1581.67
1122.274,1519.73
1123.206,1577.87
1124.138,1580.57
1125.070,1556.90
1126.002,1506.93
1126.934,1519.80
1127.866,1514.77
1128.798,1513.27
1129.729,1541.97
1130.661,1484.90
1131.592,1503.40
1132.523,1495.27
1133.454,1470.10
1134.385,1478.70
1135.317,1495.53
1136.247,1495.07
1137.178,1528.40
1138.109,1495.07
1139.039,1533.90
1139.970,1479.53
1140.900,1483.60
1141.831,1446.47
1142.761,1462.73
1143.691,1477.20
1144.621,1444.33
1145.551,1426.27
1146.480,1452.20
1147.410,1432.23
1148.340,1449.90
1149.269,1458.00
1150.199,1448.23
1151.128,1436.07
1152.057,1409.80
1152.979,1444.33
1153.898,1450.57
1154.819,1396.07
1155.739,1396.20
1156.658,1417.33
1157.579,1402.30
1158.498,1414.00
1159.419,1422.13
1160.338,1404.30
1161.256,1436.33
1162.177,1418.70
1163.095,1377.03
1164.016,1413.67
1164.934,1402.03
1165.852,1396.90
1166.772,1396.00
1167.690,1370.77
1168.610,1385.03
1169.528,1384.53
1170.446,1419.60
1171.365,1370.00
1172.283,1396.40
1173.202,1413.77
1174.120,1404.73
1175.037,1404.40
1175.956,1388.50
1176.873,1389.37
1177.792,1370.73
1178.709,1406.03
1179.626,1327.90
1180.544,1376.90
1181.461,1358.37
1182.379,1376.57
1183.296,1347.87
1184.212,1357.50
1185.130,1376.93
1186.046,1379.50
1186.962,1386.63
1187.880,1349.23
1188.796,1364.13
1189.714,1380.37
1190.629,1336.33
1191.545,1351.43
1192.462,1373.50
1193.378,1369.33
1194.295,1326.63
1195.210,1333.17
1196.125,1381.23
1197.042,1316.57
1197.957,1378.23
1198.872,1367.20
1199.788,1407.20
1200.703,1316.23
1201.619,1338.50
1202.534,1351.70
1203.448,1340.47
1204.364,1325.60
1205.278,1342.87
1206.192,1358.53
1207.108,1356.57
1208.022,1373.27
1208.938,1378.43
1209.851,1357.20
1210.765,1349.37
1211.680,1367.63
1212.594,1322.63
1213.507,1352.43
1214.422,1308.73
1215.335,1392.00
1216.248,1331.23
1217.163,1350.83
1218.076,1347.03
1218.990,1395.40
1219.903,1350.73
1220.816,1371.00
1221.730,1392.07
1222.642,1351.07
1223.554,1344.97
1224.469,1371.57
1225.380,1377.17
1226.292,1315.43
1227.206,1345.77
1228.118,1334.83
1229.032,1352.17
1229.943,1369.60
1230.855,1303.03
1231.768,1379.07
1232.679,1384.40
1233.590,1391.33
1234.503,1347.03
1235.414,1364.23
1236.325,1347.30
1237.238,1363.97
1238.149,1345.43
1239.059,1344.67
1239.972,1302.00
1240.882,1392.53
1241.793,1346.13
1242.705,1332.07
1243.615,1341.00
1244.525,1353.73
1245.437,1354.00
1246.347,1374.83
1247.259,1362.30
1248.168,1367.37
1249.078,1392.40
1249.989,1364.60
1250.899,1357.40
1251.808,1374.63
1252.719,1368.20
1253.628,1363.37
1254.537,1339.50
1255.448,1392.80
1256.357,1359.30
1257.266,1379.20
1258.176,1367.63
1259.085,1378.33
1259.993,1352.17
1260.904,1355.00
1261.812,1357.47
1262.720,1371.10
1263.630,1338.07
1264.538,1337.20
1265.446,1387.57
1266.356,1349.00
1267.263,1370.40
1268.171,1365.70
1269.080,1392.17
1269.988,1361.63
1270.895,1375.00
1271.804,1364.10
1272.711,1362.50
1273.619,1363.73
1274.527,1373.40
1275.434,1362.83
1276.341,1361.10
1277.248,1359.03
1278.156,1336.83
1279.063,1331.20
1279.969,1366.10
1280.877,1333.47
1281.783,1350.80
1282.690,1371.13
1283.598,1361.53
1284.503,1333.33
1285.409,1363.70
1286.317,1370.13
1287.223,1359.27
1288.128,1302.47
1289.036,1343.47
1289.941,1362.67
1290.846,1320.70
1291.751,1307.43
1292.658,1329.17
1293.563,1292.30
1294.468,1327.93
1295.375,1343.00
1296.280,1342.57
1297.184,1307.87
1298.091,1356.17
1298.995,1284.73
1299.900,1293.10
1300.806,1306.87
1301.710,1314.33
1302.614,1283.13
1303.518,1342.00
1304.424,1312.20
1305.327,1336.60
1306.231,1302.00
1307.137,1286.60
1308.040,1258.97
1308.943,1308.07
1309.847,1304.53
1310.752,1259.97
1311.655,1266.80
1312.558,1271.80
1313.463,1263.40
1314.366,1259.83
1315.269,1234.70
1316.171,1273.77
1317.076,1270.90
1317.978,1282.57
1318.881,1245.67
1319.785,1252.70
1320.687,1237.87
1321.589,1232.80
1322.491,1211.73
1323.395,1267.93
1324.297,1214.00
1325.198,1258.13
1326.102,1264.73
1327.004,1227.67
1327.905,1265.93
1328.806,1227.47
1329.709,1227.67
1330.611,1292.63
1331.512,1236.93
1332.413,1231.67
1333.316,1190.87
1334.216,1198.07
1335.117,1228.40
1336.020,1206.93
1336.920,1200.17
1337.821,1213.43
1338.721,1213.37
1339.623,1189.73
1340.523,1191.33
1341.423,1196.83
1342.323,1182.90
1343.225,1188.20
1344.125,1165.50
1345.025,1162.03
1345.924,1204.20
1346.826,1201.83
1347.725,1160.57
1348.624,1152.33
1349.524,1189.83
1350.425,1191.23
1351.324,1175.80
1352.223,1155.97
1353.121,1175.20
1354.022,1160.53
1354.921,1147.37
1355.819,1158.73
1356.718,1144.33
1357.618,1180.10
1358.516,1136.07
1359.415,1168.37
1360.313,1121.93
1361.213,1149.03
1362.111,1143.90
1363.008,1151.80
1363.906,1135.67
1364.806,1145.27
1365.703,1137.87
1366.601,1125.10
1367.498,1149.37
1368.397,1134.20
1369.295,1115.87
1370.192,1108.87
1371.089,1134.40
1371.987,1127.63
1372.884,1139.90
1373.781,1113.73
1374.678,1086.13
1375.574,1117.50
1376.473,1141.40
1377.369,1127.37
1378.265,1100.10
1379.161,1147.60
1380.059,1080.93
1380.955,1098.37
1381.851,1112.57
1382.747,1131.07
1383.643,1098.20
1384.540,1124.20
1385.436,1088.93
1386.331,1081.07
1387.227,1117.40
1388.124,1094.13
1389.019,1080.50
1389.914,1083.97
1390.809,1093.67
1391.704,1076.50
1392.601,1075.63
1393.495,1095.87
1394.390,1074.13
1395.285,1060.00
1396.179,1062.33
1397.075,1072.73
1397.969,1116.43
1398.864,1083.33
1399.758,1042.70
1400.652,1102.80
1401.547,1045.33
1402.441,1075.43
1403.335,1043.50
1404.229,1088.10
1405.122,1032.63
1406.017,1042.97
1406.911,1049.70
1407.804,1079.57
1408.697,1054.63
1409.590,1068.83
1410.485,1098.10
1411.378,1034.20
1412.271,1038.33
1413.163,1062.63
1414.056,1079.17
1414.949,1042.37
1415.843,1057.77
1416.735,1011.17
1417.627,1052.23
1418.520,1039.17
1419.412,1044.50
1420.306,1080.73
1421.197,1061.37
1422.089,1025.20
1422.981,1084.80
1423.873,1051.50
1424.764,1002.70
1425.657,1036.90
1426.549,1026.87
1427.440,1001.40
1428.331,1014.80
1429.222,1009.10
1430.113,1025.83
1431.006,1015.50
1431.897,1050.93
1432.787,1048.27
1433.678,973.30
1434.568,1023.13
1435.459,1022.63
1436.351,1012.13
1437.241,1027.10
1438.131,1034.80
1439.021,1018.97
1439.911,1028.40
1440.801,995.63
1441.693,967.07
1442.583,1016.00
1443.472,994.73
1444.362,982.80
1445.251,993.80
1446.140,1002.97
1447.030,1005.30
1447.921,1020.77
1448.810,1000.83
1449.699,1039.03
1450.588,949.37
1451.476,1004.33
1452.365,964.20
1453.254,1005.20
1454.144,1006.33
1455.032,1006.07
1455.921,991.77
1456.809,1009.27
1457.697,959.23
1458.585,1000.30
1459.473,1021.63
1460.361,1000.70
1461.251,1002.40
1462.138,969.70
1463.026,974.53
1463.913,981.07
1464.801,984.30
1465.688,975.33
1466.575,1005.73
1467.463,989.77
1468.351,951.03
1469.238,976.37
1470.125,950.40
1471.012,961.73
1471.899,978.53
1472.785,973.10
1473.672,966.87
1474.558,924.27
1475.446,978.90
1476.333,962.53
1477.219,969.87
1478.105,938.73
1478.991,942.47
1479.877,969.37
1480.762,969.70
1481.648,936.77
1482.534,974.33
1483.419,919.23
1484.307,963.20
1485.192,961.80
1486.077,978.50
1486.962,955.57
1487.847,927.33
1488.732,927.30
1489.617,944.13
1490.502,927.57
1491.387,958.60
1492.271,947.07
1493.156,934.97
1494.042,949.80
1494.927,912.70
1495.811,936.17
1496.695,921.80
1497.579,955.13
1498.463,947.63
1499.347,932.00
1500.231,969.87
1501.114,940.97
1501.998,914.17
1502.881,924.10
1503.765,925.47
1504.648,903.90
1505.533,895.00
1506.417,917.80
1507.300,912.70
1508.183,931.23
1509.066,895.37
1509.948,925.50
1510.831,890.33
1511.714,924.17
1512.596,919.27
1513.479,869.13
1514.361,904.43
1515.243,892.17
1516.125,929.20
1517.008,897.20
1517.890,891.47
1518.771,876.40
1519.655,933.20
1520.537,883.57
1521.419,882.80
1522.300,886.13
1523.182,909.73
1524.063,911.30
1524.944,900.83
1525.825,887.80
1526.707,874.40
1527.588,888.23
1528.468,877.40
1529.349,872.37
1530.230,864.47
1531.111,872.17
1531.991,888.00
1532.872,905.67
1533.752,878.60
1534.632,889.40
1535.513,875.07
1536.393,895.37
1537.273,896.63
1538.153,924.67
1539.032,872.30
1539.912,843.43
1540.792,880.47
1541.672,860.50
1542.551,846.47
1543.430,890.67
1544.310,881.37
1545.189,923.67
1546.068,898.77
1546.947,856.47
1547.826,879.73
1548.705,880.63
1549.584,888.70
1550.462,859.73
1551.341,864.07
1552.219,859.03
1553.098,859.17
1553.976,881.80
1554.854,856.03
1555.733,879.77
1556.611,846.87
1557.489,872.17
1558.367,916.33
1559.244,891.63
1560.122,874.50
1561.000,862.77
1561.877,869.47
1562.755,831.50
1563.632,886.93
1564.509,842.87
1565.386,889.83
1566.264,869.50
1567.141,866.53
1568.017,852.73
1568.894,826.10
1569.771,830.07
1570.648,887.63
1571.524,878.73
1572.401,813.80
1573.277,839.43
1574.153,829.03
1575.029,873.50
1575.906,868.37
1576.781,850.33
1577.657,848.33
1578.533,832.17
1579.409,868.70
1580.285,864.33
1581.160,841.60
1582.036,853.00
1582.911,833.10
1583.786,845.33
1584.662,878.77
1585.537,798.83
1586.412,835.73
1587.287,820.67
1588.160,864.40
1589.035,821.00
1589.909,823.53
1590.784,840.03
1591.658,814.33
1592.533,832.23
1593.407,844.30
1594.281,828.40
1595.155,812.87
1596.029,846.40
1596.903,860.77
1597.777,852.50
1598.651,828.93
1599.525,846.97
1600.398,807.47
1601.272,862.37
1602.144,869.63
1603.017,834.40
1603.890,862.03
1604.763,846.13
1605.636,848.13
1606.509,834.07
1607.382,786.70
1608.255,823.87
1609.128,854.33
1610.000,819.63
1610.873,789.80
1611.746,824.73
1612.616,800.40
1613.488,835.33
1614.361,813.23
1615.233,820.30
1616.105,812.20
1616.977,821.50
1617.849,820.97
1618.720,829.70
1619.592,804.40
1620.464,820.37
1621.333,858.00
1622.205,847.07
1623.076,844.07
1623.947,829.17
1624.818,838.13
1625.689,787.37
1626.560,835.17
1627.431,807.87
1628.302,809.10
1629.171,818.07
1630.042,815.33
1630.912,653.17
1631.782,811.70
1632.653,767.53
1633.523,798.63
1634.393,773.83
1635.263,814.07
1636.131,803.33
1637.001,833.13
1637.871,804.00
1638.741,825.70
1639.611,787.90
1640.480,812.63
1641.350,803.97
1642.219,822.27
1643.087,803.77
1643.956,787.23
1644.825,809.60
1645.694,819.00
1646.563,820.50
1647.432,782.77
1648.299,786.97
1649.167,791.43
1650.036,770.20
1650.904,782.23
1651.773,751.23
1652.641,837.30
1653.509,809.20
1654.376,817.90
1655.244,772.27
1656.112,791.37
1656.980,825.37
1657.847,816.80
1658.715,776.90
1659.581,790.30
1660.448,772.03
1661.316,799.80
1662.183,805.93
1663.051,766.53
1663.918,769.93
1664.783,767.50
1665.650,784.03
1666.517,805.40
1667.384,791.23
1668.251,731.53
1669.115,793.03
1669.982,792.87
1670.849,759.30
1671.715,772.97
1672.581,795.10
1673.446,813.07
1674.312,769.40
1675.178,782.43
1676.044,780.90
1676.910,786.87
1677.774,781.53
1678.639,800.00
1679.505,807.00
1680.370,762.83
1681.236,795.03
1682.099,766.63
1682.965,759.10
1683.830,774.70
1684.695,752.70
1685.560,757.43
1686.423,784.60
1687.288,799.73
1688.153,780.30
1689.017,784.03
1689.880,810.73
1690.745,770.13
1691.609,776.23
1692.473,787.57
1693.338,788.97
1694.200,798.67
1695.064,778.23
1695.928,791.03
1696.792,801.83
1697.654,797.40
1698.517,735.43
1699.381,784.50
1700.245,765.67
1701.106,781.37
1701.969,775.67
1702.833,765.10
1703.696,788.40
1704.557,786.63
1705.420,765.00
1706.283,754.77
1707.146,764.47
1708.007,765.20
1708.870,728.17
1709.732,764.50
1710.595,769.97
1711.455,778.83
1712.318,761.10
1713.180,783.47
1714.040,772.87
1714.902,765.67
1715.764,796.53
1716.626,784.83
1717.486,749.37
1718.348,763.77
1719.209,775.50
1720.071,779.73
1720.930,751.07
1721.792,755.90
1722.653,802.23
1723.512,783.33
1724.374,794.93
1725.234,724.83
1726.095,784.23
1726.954,762.00
1727.815,752.93
1728.676,761.50
1729.535,786.53
1730.395,747.77
1731.256,734.80
1732.114,778.70
1732.974,754.27
1733.834,752.17
1734.693,784.57
1735.553,815.00
1736.413,749.90
1737.272,758.10
1738.130,768.43
1738.990,771.67
1739.849,753.40
1740.707,789.53
1741.566,756.73
1742.426,747.53
1743.283,767.03
1744.142,754.03
1745.001,744.67
1745.858,758.17
1746.717,744.27
1747.576,776.70
1748.433,751.90
1749.292,786.53
1750.150,738.20
1751.007,761.23
1751.865,762.97
1752.723,774.07
1753.579,757.80
1754.438,758.57
1755.296,749.43
1756.152,768.63
1757.010,733.23
1757.865,752.93
1758.723,786.47
1759.581,764.67
1760.436,738.93
1761.294,752.40
1762.151,764.33
1763.006,746.07
1763.864,757.00
1764.721,771.63
1765.576,748.23
1766.433,793.60
1767.288,760.20
1768.144,765.57
1769.001,757.63
1769.856,729.43
1770.712,776.50
1771.568,777.23
1772.423,736.53
1773.279,766.13
1774.133,773.17
1774.989,765.13
1775.845,771.97
1776.699,715.33
1777.555,761.10
1778.409,784.40
1779.265,714.93
1780.120,806.30
1780.974,745.87
1781.829,721.33
1782.682,757.43
1783.538,756.53
1784.393,765.13
1785.246,735.90
1786.101,751.17
1786.954,762.43
1787.808,741.63
1788.661,735.63
1789.516,755.53
1790.370,764.47
1791.223,738.07
1792.077,739.70
1792.930,754.77
1793.784,762.20
1794.636,738.63
1795.490,736.93
1796.344,732.40
1797.196,733.60
1798.049,726.07
1798.901,742.10
1799.755,717.40
1800.606,727.27
1801.460,775.73
1802.311,746.07
1803.165,779.73
1804.018,683.17
1804.869,735.67
1805.722,746.13
1806.573,720.20
1807.426,766.70
1808.276,721.30
1809.129,717.37
1809.980,758.33
1810.832,739.90
1811.683,726.57
1812.535,773.93
1813.385,741.53
1814.237,717.73
1815.089,727.80
1815.940,715.77
1816.791,718.80
1817.641,765.73
1818.493,748.10
1819.343,725.60
1820.194,712.17
1821.044,745.77
1821.895,732.73
1822.745,782.50
1823.596,734.10
1824.445,733.33
1825.296,714.60
1826.145,723.50
1826.996,771.67
1827.845,708.80
1828.695,756.00
1829.544,755.23
1830.395,730.30
1831.243,739.20
1832.094,762.40
1832.942,720.13
1833.792,726.20
1834.640,702.27
1835.490,729.40
1836.338,753.27
1837.186,749.70
1838.036,712.80
1838.884,720.73
1839.733,754.00
1840.581,736.47
1841.430,731.37
1842.278,731.23
1843.127,726.87
1843.974,717.00
1844.823,744.73
1845.671,731.20
1846.519,718.73
1847.366,725.77
1848.213,763.40
1849.062,723.00
1849.909,742.63
1850.757,710.83
1851.604,735.37
1852.452,701.57
1853.298,749.10
1854.146,756.17
1854.993,702.30
1855.839,732.17
1856.687,699.57
1857.532,755.43
1858.380,744.87
1859.226,717.23
1860.073,723.30
1860.919,719.20
1861.765,712.37
1862.612,717.53
1863.457,739.77
1864.304,737.83
1865.150,749.47
1865.995,732.03
1866.842,710.70
1867.686,744.07
1868.533,717.40
1869.378,715.97
1870.223,742.87
1871.069,705.57
1871.914,677.80
1872.760,717.63
1873.604,704.27
1874.448,729.30
1875.294,715.67
1876.139,721.70
1876.984,744.67
1877.828,726.63
1878.672,718.67
1879.518,700.80
1880.361,734.67
1881.205,704.57
1882.050,691.27
1882.894,743.23
1883.739,683.63
1884.582,739.17
1885.425,686.27
1886.270,696.70
1887.113,706.67
1887.956,729.30
1888.801,722.30
1889.644,747.00
1890.486,732.00
1891.331,705.57
1892.173,681.17
1893.017,710.20
1893.860,701.33
1894.702,715.90
1895.546,724.17
1896.388,705.73
1897.230,713.87
1898.074,717.30
1898.916,704.50
1899.757,712.67
1900.601,737.83
1901.443,774.50
1902.284,730.03
1903.125,718.50
1903.969,713.47
1904.810,705.60
1905.651,693.53
1906.494,737.73
1907.335,731.23
1908.176,715.60
1909.018,732.37
1909.859,677.47
1910.700,688.40
1911.542,686.23
1912.383,700.23
1913.223,718.90
1914.064,708.17
1914.906,706.37
1915.746,713.47
1916.586,741.33
1917.428,707.10
1918.268,711.07
1919.107,702.30
1919.947,701.27
1920.789,720.60
1921.628,723.20
1922.468,711.37
1923.309,720.03
1924.148,717.30
1924.988,700.43
1925.827,734.30
1926.667,702.37
1927.507,730.23
1928.345,690.00
1929.184,690.03
1930.025,718.67
1930.864,708.93
1931.702,744.90
1932.541,709.97
1933.381,675.77
1934.219,708.73
1935.057,703.07
1935.896,744.13
1936.735,688.60
1937.573,703.33
1938.411,708.30
1939.249,706.60
1940.089,693.70
1940.927,730.77
1941.764,708.20
1942.602,718.37
1943.439,696.07
1944.278,716.50
1945.115,682.33
1945.953,697.63
1946.790,698.93
1947.628,704.97
1948.465,697.87
1949.302,728.13
1950.139,728.93
1950.976,702.40
1951.814,670.80
1952.651,696.17
1953.487,706.17
1954.323,659.90
1955.160,757.90
1955.998,700.97
1956.834,712.83
1957.670,687.50
1958.506,719.77
1959.342,705.20
1960.177,736.77
1961.015,699.00
1961.850,688.37
1962.686,704.23
1963.521,735.57
1964.357,728.70
1965.192,697.53
1966.029,690.43
1966.864,708.20
1967.699,712.47
1968.534,719.07
1969.369,719.40
1970.204,668.53
1971.040,732.27
1971.875,719.13
1972.709,688.60
1973.544,701.03
1974.378,702.63
1975.212,677.10
1976.047,716.00
1976.882,672.67
1977.716,711.07
1978.550,682.90
1979.384,712.97
1980.218,698.13
1981.052,734.27
1981.885,718.10
1982.719,693.83
1983.554,667.37
1984.388,677.00
1985.221,709.13
1986.054,698.77
1986.887,698.90
1987.720,683.47
1988.553,715.77
1989.386,695.03
1990.219,728.40
1991.053,670.37
1991.886,691.30
1992.719,708.80
1993.551,689.37
1994.383,687.27
1995.216,719.63
1996.048,718.07
1996.880,720.93
1997.712,692.37
1998.544,700.20
1999.376,730.03
2000.208,708.93
2001.040,748.40
2001.873,692.23
2002.705,728.23
2003.536,684.37
2004.367,694.93
2005.199,692.03
2006.030,718.83
2006.861,683.97
2007.692,705.93
2008.523,712.50
2009.354,677.00
2010.185,699.50
2011.016,718.03
2011.846,684.03
2012.677,691.33
2013.507,706.77
2014.338,680.93
2015.168,682.13
2015.999,658.87
2016.829,709.07
2017.659,730.73
2018.489,722.37
2019.319,688.13
2020.149,719.97
2020.980,684.83
2021.810,695.87
2022.639,721.40
2023.469,694.07
2024.298,692.10
2025.128,698.40
2025.957,702.90
2026.786,726.00
2027.615,718.50
2028.444,724.97
2029.273,714.50
2030.102,719.57
2030.931,721.13
2031.758,736.87
2032.586,732.93
2033.415,722.87
2034.243,735.63
2035.072,725.53
2035.900,727.00
2036.728,706.63
2037.556,709.13
2038.385,714.93
2039.213,732.67
2040.040,725.40
2040.868,733.97
2041.696,733.50
2042.524,697.67
2043.351,706.90
2044.179,733.37
2045.006,685.70
2045.006,685.70

Max Intensity Wave.,216.841
Max Intensity Data,6111.03
Min Intensity Wave.,1630.912
Min Intensity Data,653.17
FWHM Wave.,399.949
FWHM Value,1.20
Pressure Wave.,684.671
Pressure Value [GPa],-24.91530
G/D Ratio,0.68808
G/D Gband Wave.,1545.303
G/D Gband Intensity,924.23
G/D Dband Wave.,1303.667
G/D Dband Intensity,1343.21

<< BACKGROUND SPECTRUM >>
Wave[dcm-1],No48
146.591,2235.00
147.626,2102.00
148.664,2036.00
149.699,2529.00
150.737,2264.00
151.772,2390.00
152.809,2409.00
153.846,2293.00
154.881,2407.00
155.918,1957.00
156.953,2272.00
157.989,2615.00
159.026,2426.00
160.060,2662.00
161.096,2878.00
162.130,2504.00
163.167,2566.00
164.200,2433.00
165.236,2616.00
166.272,2656.00
167.305,2281.00
168.341,2536.00
169.374,2727.00
170.409,2800.00
171.445,2733.00
172.477,2523.00
173.512,2353.00
174.545,2682.00
175.580,2869.00
176.614,3026.00
177.647,2783.00
178.681,3027.00
179.713,3368.00
180.747,2779.00
181.781,2685.00
182.813,3027.00
183.847,3087.00
184.878,2756.00
185.912,3014.00
186.945,3114.00
187.976,3103.00
189.010,2703.00
190.043,2848.00
191.073,2948.00
192.106,2756.00
193.137,3178.00
194.170,2575.00
195.202,2904.00
196.232,2705.00
197.265,3017.00
198.297,3068.00
199.327,2775.00
200.359,2976.00
201.388,3310.00
202.420,2878.00
203.452,3080.00
204.481,2690.00
205.512,3285.00
206.544,3112.00
207.573,3064.00
208.604,3349.00
209.635,3524.00
210.663,2959.00
211.694,3004.00
212.725,2801.00
213.753,2771.00
214.783,3364.00
215.813,3222.00
216.841,2988.00
217.871,3183.00
218.899,2907.00
219.929,3152.00
220.959,2864.00
221.986,3117.00
223.016,2742.00
224.045,3207.00
225.072,3141.00
226.101,3193.00
227.130,3238.00
228.157,2800.00
229.185,2350.00
230.214,3199.00
231.241,2842.00
232.269,2473.00
233.297,2664.00
234.323,3192.00
235.351,2826.00
236.379,3088.00
237.407,2735.00
238.433,2992.00
239.460,3124.00
240.488,3104.00
241.513,3157.00
242.540,3135.00
243.568,3184.00
244.592,3205.00
245.619,3256.00
246.646,2955.00
247.671,2931.00
248.697,2813.00
249.724,3027.00
250.748,2989.00
251.774,2967.00
252.801,3310.00
253.827,3090.00
254.850,3070.00
255.876,2702.00
256.902,3123.00
257.925,3012.00
258.951,2745.00
259.976,2776.00
260.999,3073.00
262.024,2798.00
263.049,3600.00
264.074,3138.00
265.097,3021.00
266.122,3083.00
267.146,3032.00
268.168,3221.00
269.193,2864.00
270.217,3230.00
271.241,2714.00
272.263,2876.00
273.287,3218.00
274.311,2800.00
275.332,3280.00
276.356,2828.00
277.379,3092.00
278.402,3141.00
279.424,2937.00
280.447,2925.00
281.470,2732.00
282.492,3125.00
283.513,2886.00
284.536,3214.00
285.558,3202.00
286.581,3132.00
287.601,2843.00
288.623,2805.00
289.645,3045.00
290.665,3133.00
291.687,3081.00
292.709,3078.00
293.730,3423.00
294.750,2862.00
295.771,2759.00
296.792,3062.00
297.813,2893.00
298.832,3042.00
299.853,2757.00
300.874,2990.00
301.895,2941.00
302.913,2978.00
303.934,3256.00
304.954,3079.00
305.975,3228.00
306.993,2759.00
308.013,3113.00
309.033,2993.00
310.052,2954.00
311.072,2888.00
312.090,3002.00
313.109,3250.00
314.129,3350.00
315.148,3004.00
316.165,3084.00
317.184,3212.00
318.203,2761.00
319.222,2732.00
320.238,3169.00
321.257,2857.00
322.275,2697.00
323.294,3007.00
324.312,3208.00
325.328,3259.00
326.346,3290.00
327.364,3234.00
328.382,3154.00
329.397,3081.00
330.415,3254.00
331.432,3197.00
332.450,3277.00
333.467,3444.00
334.482,2575.00
335.499,3368.00
336.516,2883.00
337.533,2558.00
338.547,2801.00
339.564,2858.00
340.580,3089.00
341.597,2922.00
342.613,3437.00
343.627,2987.00
344.643,2997.00
345.659,3071.00
346.675,2973.00
347.690,2903.00
348.704,3067.00
349.719,2886.00
350.735,2779.00
351.750,3286.00
352.765,2999.00
353.778,2986.00
354.793,3144.00
355.808,2846.00
356.822,3184.00
357.837,2658.00
358.851,3253.00
359.864,2948.00
360.878,2777.00
361.892,2921.00
362.906,3193.00
363.920,2591.00
364.932,3092.00
365.945,3115.00
366.959,3002.00
367.972,2922.00
368.986,2711.00
369.999,3348.00
371.010,2814.00
372.023,3357.00
373.036,2948.00
374.049,3378.00
375.061,3088.00
376.072,2992.00
377.084,2903.00
378.097,2700.00
379.109,3161.00
380.121,2984.00
381.133,2705.00
382.143,3158.00
383.155,2745.00
384.166,2911.00
385.178,3125.00
386.189,3187.00
387.201,2689.00
388.212,2951.00
389.221,2923.00
390.232,2998.00
391.243,2943.00
392.254,3058.00
393.264,2847.00
394.275,3223.00
395.283,3185.00
396.294,3602.00
397.304,3497.00
398.314,3118.00
399.324,3047.00
400.334,2646.00
401.344,3153.00
402.351,2667.00
403.361,3177.00
404.370,2975.00
405.380,2936.00
406.389,3327.00
407.398,3106.00
408.407,3090.00
409.414,3239.00
410.423,3280.00
411.431,2786.00
412.440,2709.00
413.448,3356.00
414.457,2874.00
415.465,2820.00
416.471,2836.00
417.479,3043.00
418.487,2820.00
419.495,3296.00
420.503,3145.00
421.510,2629.00
422.518,3134.00
423.525,3192.00
424.530,3353.00
425.537,2871.00
426.544,3274.00
427.551,2873.00
428.558,3589.00
429.565,3430.00
430.571,2846.00
431.578,2889.00
432.582,2883.00
433.588,2951.00
434.595,2613.00
435.601,3324.00
436.607,3250.00
437.612,2747.00
438.618,3323.00
439.624,2971.00
440.627,2960.00
441.633,3092.00
442.638,3623.00
443.643,3107.00
444.648,3059.00
445.653,3169.00
446.658,2925.00
447.663,3046.00
448.667,2922.00
449.672,2919.00
450.674,2954.00
451.678,2687.00
452.682,2865.00
453.687,2824.00
454.690,3610.00
455.694,3288.00
456.698,2566.00
457.702,2670.00
458.705,2816.00
459.709,2808.00
460.710,2829.00
461.713,3061.00
462.716,3080.00
463.719,2961.00
464.722,3145.00
465.725,2919.00
466.727,2830.00
467.730,3037.00
468.732,2783.00
469.735,3246.00
470.737,2935.00
471.737,2905.00
472.739,2915.00
473.741,2814.00
474.742,3081.00
475.744,3102.00
476.746,3078.00
477.747,2943.00
478.748,3125.00
479.750,2899.00
480.751,2992.00
481.752,3760.00
482.753,3082.00
483.751,3535.00
484.752,2627.00
485.753,2996.00
486.753,2865.00
487.753,3008.00
488.754,3434.00
489.754,2699.00
490.754,3328.00
491.754,3111.00
492.754,2689.00
493.753,2996.00
494.753,2946.00
495.752,3337.00
496.752,2986.00
497.749,3010.00
498.748,2832.00
499.747,3420.00
500.746,3099.00
501.745,2801.00
502.744,2776.00
503.742,3333.00
504.741,2973.00
505.739,2447.00
506.737,2874.00
507.735,3152.00
508.734,3359.00
509.732,3158.00
510.729,3383.00
511.727,2865.00
512.725,2925.00
513.720,2766.00
514.718,3245.00
515.715,2670.00
516.712,2670.00
517.709,2987.00
518.706,2905.00
519.703,3031.00
520.700,3225.00
521.696,3348.00
522.693,2890.00
523.689,2858.00
524.686,3143.00
525.682,2802.00
526.678,3424.00
527.674,2920.00
528.670,2588.00
529.666,3486.00
530.661,3452.00
531.657,3109.00
532.652,3197.00
533.648,2988.00
534.641,3208.00
535.636,3049.00
536.631,3086.00
537.626,3162.00
538.621,2756.00
539.616,2592.00
540.610,2499.00
541.605,3005.00
542.599,3052.00
543.593,3017.00
544.587,3921.00
545.581,2822.00
546.575,3086.00
547.569,3044.00
548.563,2711.00
549.557,2670.00
550.550,2769.00
551.543,2756.00
552.537,3153.00
553.530,2774.00
554.523,2749.00
555.516,3070.00
556.509,2948.00
557.502,2655.00
558.494,3185.00
559.487,2907.00
560.479,3197.00
561.472,3212.00
562.464,3138.00
563.456,3310.00
564.448,2935.00
565.440,2986.00
566.432,3420.00
567.423,2920.00
568.415,2896.00
569.404,3098.00
570.396,2797.00
571.387,3149.00
572.378,3061.00
573.369,3965.00
574.360,3644.00
575.351,2959.00
576.341,2826.00
577.332,2838.00
578.323,2702.00
579.313,2880.00
580.303,3199.00
581.293,3161.00
582.283,2980.00
583.273,3077.00
584.263,3017.00
585.253,3162.00
586.243,3138.00
587.232,2680.00
588.222,2959.00
589.211,3186.00
590.200,3065.00
591.189,2904.00
592.178,2937.00
593.167,3410.00
594.156,3269.00
595.145,2871.00
596.133,3460.00
597.122,3087.00
598.110,3225.00
599.098,3067.00
600.086,2971.00
601.074,3196.00
602.062,2826.00
603.050,2722.00
604.038,3119.00
605.025,2806.00
606.013,3196.00
607.000,3388.00
607.987,3004.00
608.975,3062.00
609.962,2797.00
610.949,3129.00
611.936,3257.00
612.922,3189.00
613.909,2700.00
614.895,3371.00
615.882,2822.00
616.868,2990.00
617.854,2770.00
618.841,3040.00
619.826,3086.00
620.812,2977.00
621.798,2792.00
622.784,3164.00
623.769,3081.00
624.755,2716.00
625.740,3035.00
626.725,2700.00
627.711,2821.00
628.698,3071.00
629.683,2805.00
630.667,3214.00
631.652,2780.00
632.637,2966.00
633.621,3159.00
634.606,2962.00
635.590,3136.00
636.574,2941.00
637.558,3080.00
638.542,3059.00
639.526,2857.00
640.510,2633.00
641.493,3046.00
642.477,2992.00
643.460,2702.00
644.444,3247.00
645.427,3234.00
646.410,2657.00
647.393,2948.00
648.376,3044.00
649.359,2922.00
650.341,3068.00
651.324,3107.00
652.307,3060.00
653.289,2908.00
654.271,2869.00
655.253,2937.00
656.235,3119.00
657.217,3280.00
658.199,2621.00
659.181,2726.00
660.163,2979.00
661.144,2899.00
662.126,2925.00
663.107,2807.00
664.088,4685.00
665.069,3243.00
666.050,2826.00
667.033,2718.00
668.014,3070.00
668.995,2590.00
669.975,3023.00
670.956,2992.00
671.936,3169.00
672.916,2940.00
673.896,3105.00
674.876,2878.00
675.856,2896.00
676.836,2778.00
677.816,2341.00
678.795,2802.00
679.775,2656.00
680.754,3005.00
681.734,3153.00
682.713,3166.00
683.692,2756.00
684.671,2637.00
685.650,2778.00
686.629,2854.00
687.607,2753.00
688.586,2744.00
689.564,2846.00
690.543,3264.00
691.523,2397.00
692.501,2863.00
693.479,2921.00
694.457,2769.00
695.435,2888.00
696.413,2667.00
697.390,2518.00
698.368,2670.00
699.345,3110.00
700.322,2965.00
701.300,3039.00
702.277,3060.00
703.254,3256.00
704.231,2572.00
705.207,2930.00
706.184,2786.00
707.161,2669.00
708.137,2845.00
709.113,2792.00
710.090,2828.00
711.068,2584.00
712.044,2602.00
713.020,2895.00
713.996,2593.00
714.971,2813.00
715.947,2809.00
716.922,2809.00
717.898,2735.00
718.873,2895.00
719.848,2726.00
720.823,2667.00
721.798,2998.00
722.773,2759.00
723.748,2550.00
724.723,3004.00
725.697,2839.00
726.672,2765.00
727.646,2527.00
728.622,2996.00
729.596,2636.00
730.570,2750.00
731.544,3042.00
732.518,3282.00
733.492,2813.00
734.466,2869.00
735.439,2981.00
736.413,3120.00
737.386,2461.00
738.359,2415.00
739.332,2518.00
740.305,2875.00
741.278,3261.00
742.251,2906.00
743.224,2731.00
744.196,2592.00
745.171,3134.00
746.143,3030.00
747.115,2768.00
748.087,2715.00
749.059,3081.00
750.031,2904.00
751.003,3701.00
751.975,3273.00
752.947,2703.00
753.918,3094.00
754.890,2584.00
755.861,2754.00
756.832,3007.00
757.803,2858.00
758.774,2856.00
759.747,2585.00
760.718,3205.00
761.689,2750.00
762.659,2605.00
763.630,3196.00
764.600,2610.00
765.570,3015.00
766.540,3109.00
767.510,2910.00
768.480,3016.00
769.450,2704.00
770.420,2867.00
771.390,2623.00
772.359,2760.00
773.329,2677.00
774.300,2504.00
775.269,2758.00
776.238,2975.00
777.207,3184.00
778.176,2539.00
779.145,2780.00
780.114,2661.00
781.083,2583.00
782.051,2769.00
783.019,2682.00
783.988,3113.00
784.956,2835.00
785.924,2979.00
786.894,2883.00
787.862,2696.00
788.830,3142.00
789.797,2587.00
790.765,2586.00
791.732,2747.00
792.700,2616.00
793.667,2609.00
794.634,2747.00
795.601,2740.00
796.568,2782.00
797.535,2857.00
798.502,3451.00
799.468,2903.00
800.437,2389.00
801.403,2688.00
802.370,3291.00
803.336,3022.00
804.302,2838.00
805.268,2435.00
806.234,2516.00
807.200,2727.00
808.166,2789.00
809.131,2556.00
810.097,3015.00
811.062,3645.00
812.027,3031.00
812.994,2586.00
813.960,2593.00
814.925,2930.00
815.889,2522.00
816.854,3030.00
817.819,2664.00
818.783,2750.00
819.748,3129.00
820.712,2741.00
821.677,2616.00
822.641,2705.00
823.605,2757.00
824.571,3142.00
825.534,2730.00
826.498,2669.00
827.462,2795.00
828.425,2627.00
829.389,3041.00
830.352,2804.00
831.315,2903.00
832.279,2507.00
833.242,2747.00
834.204,2679.00
835.167,2669.00
836.132,3043.00
837.095,2490.00
838.057,2687.00
839.020,2798.00
839.982,2851.00
840.944,2670.00
841.906,2649.00
842.868,2950.00
843.830,2536.00
844.792,3031.00
845.753,2689.00
846.715,2434.00
847.679,2569.00
848.640,2624.00
849.601,2747.00
850.562,3263.00
851.523,2684.00
852.484,2459.00
853.445,2985.00
854.406,2719.00
855.367,2731.00
856.327,3049.00
857.288,2471.00
858.248,2699.00
859.210,2699.00
860.170,2535.00
861.130,3054.00
862.090,2403.00
863.050,2598.00
864.010,2662.00
864.969,2870.00
865.929,2580.00
866.888,2535.00
867.848,2809.00
868.807,2652.00
869.766,2893.00
870.727,2724.00
871.686,2986.00
872.645,2998.00
873.604,3280.00
874.562,2762.00
875.521,2793.00
876.479,3368.00
877.437,2600.00
878.396,2601.00
879.354,3136.00
880.312,2610.00
881.270,2665.00
882.229,3132.00
883.187,2618.00
884.145,2693.00
885.102,2949.00
886.059,2858.00
887.017,2840.00
887.974,2968.00
888.931,3079.00
889.888,2543.00
890.845,2432.00
891.802,2373.00
892.758,2656.00
893.717,2446.00
894.673,2586.00
895.630,2597.00
896.586,2911.00
897.542,2693.00
898.498,2556.00
899.454,2825.00
900.410,2682.00
901.366,2659.00
902.321,2603.00
903.277,2669.00
904.232,2786.00
905.189,2465.00
906.145,2650.00
907.100,2199.00
908.055,2699.00
909.010,2912.00
909.965,2354.00
910.919,2820.00
911.874,2587.00
912.828,2758.00
913.783,2824.00
914.737,2348.00
915.693,2768.00
916.648,2871.00
917.602,2949.00
918.555,2789.00
919.509,2849.00
920.463,2777.00
921.417,2779.00
922.370,2554.00
923.324,2671.00
924.277,2654.00
925.230,2730.00
926.183,2371.00
927.138,2684.00
928.091,2967.00
929.044,2817.00
929.996,2673.00
930.949,2603.00
931.902,2833.00
932.854,2810.00
933.806,2610.00
934.758,2978.00
935.711,2962.00
936.663,2731.00
937.614,2773.00
938.568,2781.00
939.520,2392.00
940.471,2713.00
941.423,2767.00
942.374,2886.00
943.326,2743.00
944.277,2613.00
945.228,2830.00
946.179,2718.00
947.130,3053.00
948.080,2639.00
949.031,2539.00
949.984,2681.00
950.934,2720.00
951.884,2471.00
952.835,2691.00
953.785,2742.00
954.735,2619.00
955.685,2341.00
956.635,2583.00
957.585,2626.00
958.534,2672.00
959.484,2758.00
960.433,2638.00
961.383,2470.00
962.334,2948.00
963.283,2809.00
964.232,2808.00
965.181,2740.00
966.130,2784.00
967.079,2592.00
968.027,2730.00
968.976,2741.00
969.924,2621.00
970.873,2808.00
971.821,2737.00
972.769,2925.00
973.719,2826.00
974.667,2490.00
975.615,2709.00
976.562,2734.00
977.510,2455.00
978.458,2593.00
979.405,2840.00
980.352,2747.00
981.300,2976.00
982.247,2779.00
983.194,2562.00
984.141,2597.00
985.088,2762.00
986.036,2805.00
986.983,3055.00
987.930,3117.00
988.876,2350.00
989.822,2960.00
990.769,2538.00
991.715,2595.00
992.661,2422.00
993.607,2832.00
994.553,3276.00
995.498,2608.00
996.444,2286.00
997.389,2769.00
998.337,2549.00
999.282,2852.00
1000.227,2640.00
1001.173,2705.00
1002.118,2438.00
1003.062,2939.00
1004.007,2701.00
1004.952,3045.00
1005.897,2947.00
1006.841,2676.00
1007.786,2487.00
1008.730,2434.00
1009.674,3190.00
1010.618,2651.00
1011.564,2536.00
1012.508,2379.00
1013.452,2952.00
1014.396,2725.00
1015.339,2591.00
1016.283,2681.00
1017.226,2746.00
1018.170,2716.00
1019.113,2886.00
1020.056,2751.00
1020.999,2718.00
1021.942,2604.00
1022.885,2872.00
1023.828,2977.00
1024.770,2498.00
1025.715,2741.00
1026.657,2669.00
1027.600,2760.00
1028.542,2891.00
1029.484,2721.00
1030.426,2831.00
1031.368,2791.00
1032.310,2616.00
1033.251,2510.00
1034.193,2699.00
1035.135,2475.00
1036.076,2598.00
1037.017,2540.00
1037.959,2825.00
1038.900,2750.00
1039.843,2794.00
1040.784,2752.00
1041.725,2785.00
1042.665,2643.00
1043.606,2752.00
1044.547,2748.00
1045.487,2376.00
1046.427,2655.00
1047.368,2814.00
1048.308,2249.00
1049.248,2525.00
1050.188,2712.00
1051.128,2618.00
1052.067,2669.00
1053.007,2374.00
1053.947,2390.00
1054.886,2577.00
1055.827,2485.00
1056.766,2931.00
1057.706,2465.00
1058.645,2641.00
1059.584,2754.00
1060.522,2942.00
1061.461,2447.00
1062.400,2499.00
1063.338,2667.00
1064.277,2480.00
1065.215,2533.00
1066.154,2387.00
1067.092,2563.00
1068.030,2658.00
1068.968,2848.00
1069.906,3007.00
1070.843,2931.00
1071.781,2722.00
1072.720,2817.00
1073.658,2796.00
1074.595,2583.00
1075.533,2559.00
1076.470,2593.00
1077.407,2978.00
1078.344,2781.00
1079.281,2851.00
1080.217,2298.00
1081.154,2679.00
1082.091,2725.00
1083.027,2435.00
1083.964,2910.00
1084.900,2533.00
1085.836,2627.00
1086.772,2886.00
1087.708,2458.00
1088.644,2801.00
1089.580,2690.00
1090.515,2726.00
1091.451,2656.00
1092.388,2677.00
1093.324,2438.00
1094.259,3228.00
1095.194,2744.00
1096.129,2644.00
1097.064,2575.00
1097.999,2780.00
1098.934,2528.00
1099.869,2497.00
1100.803,2689.00
1101.738,2718.00
1102.672,2401.00
1103.607,2792.00
1104.541,2538.00
1105.475,2543.00
1106.409,2428.00
1107.343,2623.00
1108.277,2425.00
1109.210,2724.00
1110.144,2666.00
1111.078,2696.00
1112.011,2442.00
1112.944,2759.00
1113.878,2717.00
1114.811,2149.00
1115.744,2593.00
1116.678,2332.00
1117.611,2582.00
1118.544,2570.00
1119.477,2823.00
1120.409,2522.00
1121.342,3125.00
1122.274,2780.00
1123.206,2968.00
1124.138,2651.00
1125.070,2969.00
1126.002,2878.00
1126.934,2316.00
1127.866,2576.00
1128.798,2342.00
1129.729,2363.00
1130.661,2688.00
1131.592,2580.00
1132.523,2744.00
1133.454,2789.00
1134.385,2307.00
1135.317,2657.00
1136.247,2589.00
1137.178,2821.00
1138.109,2367.00
1139.039,2951.00
1139.970,2838.00
1140.900,2566.00
1141.831,2378.00
1142.761,2242.00
1143.691,2739.00
1144.621,2668.00
1145.551,2733.00
1146.480,2696.00
1147.410,2872.00
1148.340,2303.00
1149.269,2353.00
1150.199,2595.00
1151.128,3044.00
1152.057,2472.00
1152.979,2583.00
1153.898,2595.00
1154.819,2751.00
1155.739,2656.00
1156.658,2553.00
1157.579,2703.00
1158.498,2650.00
1159.419,2179.00
1160.338,2689.00
1161.256,2678.00
1162.177,2495.00
1163.095,2648.00
1164.016,2707.00
1164.934,2894.00
1165.852,2817.00
1166.772,2611.00
1167.690,2685.00
1168.610,2695.00
1169.528,2652.00
1170.446,2170.00
1171.365,2567.00
1172.283,2514.00
1173.202,2602.00
1174.120,2656.00
1175.037,2469.00
1175.956,2454.00
1176.873,2492.00
1177.792,2537.00
1178.709,3073.00
1179.626,2578.00
1180.544,2821.00
1181.461,2516.00
1182.379,2734.00
1183.296,2647.00
1184.212,2285.00
1185.130,2462.00
1186.046,2940.00
1186.962,2605.00
1187.880,2919.00
1188.796,2682.00
1189.714,2417.00
1190.629,2789.00
1191.545,2706.00
1192.462,2554.00
1193.378,2592.00
1194.295,2378.00
1195.210,2671.00
1196.125,2749.00
1197.042,2749.00
1197.957,2613.00
1198.872,2492.00
1199.788,2482.00
1200.703,2991.00
1201.619,2662.00
1202.534,2507.00
1203.448,2721.00
1204.364,2617.00
1205.278,2314.00
1206.192,2665.00
1207.108,3119.00
1208.022,2963.00
1208.938,2450.00
1209.851,2777.00
1210.765,2843.00
1211.680,2519.00
1212.594,2431.00
1213.507,2569.00
1214.422,3066.00
1215.335,2706.00
1216.248,2582.00
1217.163,2635.00
1218.076,3222.00
1218.990,2708.00
1219.903,2425.00
1220.816,2440.00
1221.730,2555.00
1222.642,2512.00
1223.554,2548.00
1224.469,2694.00
1225.380,2556.00
1226.292,2326.00
1227.206,2772.00
1228.118,2965.00
1229.032,2268.00
1229.943,2500.00
1230.855,2637.00
1231.768,2349.00
1232.679,2686.00
1233.590,2569.00
1234.503,2857.00
1235.414,2490.00
1236.325,2519.00
1237.238,2700.00
1238.149,2739.00
1239.059,2466.00
1239.972,2872.00
1240.882,2410.00
1241.793,2765.00
1242.705,3010.00
1243.615,2605.00
1244.525,2709.00
1245.437,2217.00
1246.347,2670.00
1247.259,2804.00
1248.168,3054.00
1249.078,2843.00
1249.989,2891.00
1250.899,2448.00
1251.808,2492.00
1252.719,2556.00
1253.628,2498.00
1254.537,3026.00
1255.448,2433.00
1256.357,2472.00
1257.266,2624.00
1258.176,2368.00
1259.085,2332.00
1259.993,2447.00
1260.904,2484.00
1261.812,2465.00
1262.720,3136.00
1263.630,2829.00
1264.538,2479.00
1265.446,2709.00
1266.356,2615.00
1267.263,2893.00
1268.171,2427.00
1269.080,2666.00
1269.988,2786.00
1270.895,2522.00
1271.804,2594.00
1272.711,2810.00
1273.619,2773.00
1274.527,2429.00
1275.434,2733.00
1276.341,2424.00
1277.248,2648.00
1278.156,2931.00
1279.063,2503.00
1279.969,2719.00
1280.877,3516.00
1281.783,2816.00
1282.690,2667.00
1283.598,2579.00
1284.503,2490.00
1285.409,2440.00
1286.317,2953.00
1287.223,3002.00
1288.128,2718.00
1289.036,2521.00
1289.941,2540.00
1290.846,2638.00
1291.751,2456.00
1292.658,2553.00
1293.563,3095.00
1294.468,2645.00
1295.375,2760.00
1296.280,2841.00
1297.184,3339.00
1298.091,2682.00
1298.995,2814.00
1299.900,3028.00
1300.806,2526.00
1301.710,2366.00
1302.614,2236.00
1303.518,2833.00
1304.424,2565.00
1305.327,2784.00
1306.231,2601.00
1307.137,2788.00
1308.040,2719.00
1308.943,2639.00
1309.847,2825.00
1310.752,2830.00
1311.655,2309.00
1312.558,2418.00
1313.463,2579.00
1314.366,2538.00
1315.269,2704.00
1316.171,2603.00
1317.076,2516.00
1317.978,2407.00
1318.881,2261.00
1319.785,2496.00
1320.687,2510.00
1321.589,2260.00
1322.491,2495.00
1323.395,2691.00
1324.297,3213.00
1325.198,2740.00
1326.102,2417.00
1327.004,2455.00
1327.905,2983.00
1328.806,2611.00
1329.709,2712.00
1330.611,2503.00
1331.512,2451.00
1332.413,3058.00
1333.316,2706.00
1334.216,2813.00
1335.117,2375.00
1336.020,2678.00
1336.920,2652.00
1337.821,2484.00
1338.721,2878.00
1339.623,2707.00
1340.523,2596.00
1341.423,2504.00
1342.323,2912.00
1343.225,2713.00
1344.125,2479.00
1345.025,2528.00
1345.924,2269.00
1346.826,2957.00
1347.725,3055.00
1348.624,2887.00
1349.524,2489.00
1350.425,2575.00
1351.324,2711.00
1352.223,2818.00
1353.121,2607.00
1354.022,2835.00
1354.921,3031.00
1355.819,2750.00
1356.718,2693.00
1357.618,2363.00
1358.516,2759.00
1359.415,2998.00
1360.313,2748.00
1361.213,2582.00
1362.111,2918.00
1363.008,3263.00
1363.906,2617.00
1364.806,2637.00
1365.703,2717.00
1366.601,2465.00
1367.498,2454.00
1368.397,2807.00
1369.295,2687.00
1370.192,2474.00
1371.089,2703.00
1371.987,2605.00
1372.884,2870.00
1373.781,2439.00
1374.678,2668.00
1375.574,2466.00
1376.473,2723.00
1377.369,2840.00
1378.265,2487.00
1379.161,2557.00
1380.059,2356.00
1380.955,2743.00
1381.851,2392.00
1382.747,2491.00
1383.643,2558.00
1384.540,2401.00
1385.436,2535.00
1386.331,2708.00
1387.227,2755.00
1388.124,2737.00
1389.019,2446.00
1389.914,2614.00
1390.809,2269.00
1391.704,3046.00
1392.601,2551.00
1393.495,2893.00
1394.390,2796.00
1395.285,2894.00
1396.179,2725.00
1397.075,2607.00
1397.969,2631.00
1398.864,2317.00
1399.758,2612.00
1400.652,2623.00
1401.547,2475.00
1402.441,2411.00
1403.335,2995.00
1404.229,2640.00
1405.122,2731.00
1406.017,2634.00
1406.911,2786.00
1407.804,3015.00
1408.697,2617.00
1409.590,2446.00
1410.485,2757.00
1411.378,2712.00
1412.271,2347.00
1413.163,2687.00
1414.056,2753.00
1414.949,3011.00
1415.843,2669.00
1416.735,2630.00
1417.627,2646.00
1418.520,2599.00
1419.412,2850.00
1420.306,2742.00
1421.197,2893.00
1422.089,2853.00
1422.981,3046.00
1423.873,2785.00
1424.764,2765.00
1425.657,2666.00
1426.549,2778.00
1427.440,2869.00
1428.331,2563.00
1429.222,2351.00
1430.113,2689.00
1431.006,2821.00
1431.897,2510.00
1432.787,2635.00
1433.678,2622.00
1434.568,2458.00
1435.459,2851.00
1436.351,2828.00
1437.241,2770.00
1438.131,2769.00
1439.021,2397.00
1439.911,2583.00
1440.801,2721.00
1441.693,2904.00
1442.583,2666.00
1443.472,2655.00
1444.362,2778.00
1445.251,2603.00
1446.140,2561.00
1447.030,2828.00
1447.921,2818.00
1448.810,2472.00
1449.699,2966.00
1450.588,2722.00
1451.476,2544.00
1452.365,2772.00
1453.254,2528.00
1454.144,2513.00
1455.032,2756.00
1455.921,2377.00
1456.809,2916.00
1457.697,2468.00
1458.585,2586.00
1459.473,2549.00
1460.361,2458.00
1461.251,2700.00
1462.138,2729.00
1463.026,2620.00
1463.913,2871.00
1464.801,2552.00
1465.688,2732.00
1466.575,2634.00
1467.463,3072.00
1468.351,2526.00
1469.238,2609.00
1470.125,2273.00
1471.012,2701.00
1471.899,2708.00
1472.785,2456.00
1473.672,2646.00
1474.558,2891.00
1475.446,2763.00
1476.333,2808.00
1477.219,2456.00
1478.105,2645.00
1478.991,2607.00
1479.877,2927.00
1480.762,2628.00
1481.648,2517.00
1482.534,2750.00
1483.419,2731.00
1484.307,2735.00
1485.192,2601.00
1486.077,2463.00
1486.962,2504.00
1487.847,2414.00
1488.732,2494.00
1489.617,2651.00
1490.502,2919.00
1491.387,2764.00
1492.271,2453.00
1493.156,2489.00
1494.042,2443.00
1494.927,2878.00
1495.811,2540.00
1496.695,2791.00
1497.579,2898.00
1498.463,2623.00
1499.347,2688.00
1500.231,2628.00
1501.114,2695.00
1501.998,2924.00
1502.881,2679.00
1503.765,2929.00
1504.648,3053.00
1505.533,2783.00
1506.417,2657.00
1507.300,2619.00
1508.183,2707.00
1509.066,2166.00
1509.948,2874.00
1510.831,3026.00
1511.714,2434.00
1512.596,2778.00
1513.479,2929.00
1514.361,2852.00
1515.243,2688.00
1516.125,2785.00
1517.008,2917.00
1517.890,2627.00
1518.771,2705.00
1519.655,2820.00
1520.537,2619.00
1521.419,2506.00
1522.300,2703.00
1523.182,2775.00
1524.063,2773.00
1524.944,2935.00
1525.825,2845.00
1526.707,2483.00
1527.588,2447.00
1528.468,2747.00
1529.349,2343.00
1530.230,2603.00
1531.111,2838.00
1531.991,2706.00
1532.872,2358.00
1533.752,2631.00
1534.632,2515.00
1535.513,2516.00
1536.393,2792.00
1537.273,2948.00
1538.153,3238.00
1539.032,2406.00
1539.912,2676.00
1540.792,2664.00
1541.672,2685.00
1542.551,2796.00
1543.430,3225.00
1544.310,2685.00
1545.189,2516.00
1546.068,3043.00
1546.947,2781.00
1547.826,2958.00
1548.705,2647.00
1549.584,2857.00
1550.462,2630.00
1551.341,2819.00
1552.219,2729.00
1553.098,2811.00
1553.976,2854.00
1554.854,3068.00
1555.733,2847.00
1556.611,2602.00
1557.489,2459.00
1558.367,2612.00
1559.244,2789.00
1560.122,2638.00
1561.000,2733.00
1561.877,2946.00
1562.755,2565.00
1563.632,2603.00
1564.509,2929.00
1565.386,2999.00
1566.264,2421.00
1567.141,2282.00
1568.017,2807.00
1568.894,2691.00
1569.771,2731.00
1570.648,2735.00
1571.524,2657.00
1572.401,2454.00
1573.277,2451.00
1574.153,2735.00
1575.029,2510.00
1575.906,3362.00
1576.781,2832.00
1577.657,2610.00
1578.533,2911.00
1579.409,2288.00
1580.285,2605.00
1581.160,3077.00
1582.036,2825.00
1582.911,2499.00
1583.786,3000.00
1584.662,2423.00
1585.537,2659.00
1586.412,2706.00
1587.287,2511.00
1588.160,2817.00
1589.035,2331.00
1589.909,2699.00
1590.784,2629.00
1591.658,2495.00
1592.533,2727.00
1593.407,2679.00
1594.281,2558.00
1595.155,3087.00
1596.029,2575.00
1596.903,2591.00
1597.777,2566.00
1598.651,2920.00
1599.525,2358.00
1600.398,2722.00
1601.272,2591.00
1602.144,3164.00
1603.017,2624.00
1603.890,2873.00
1604.763,2732.00
1605.636,2783.00
1606.509,2369.00
1607.382,2532.00
1608.255,2738.00
1609.128,2841.00
1610.000,2646.00
1610.873,2402.00
1611.746,2569.00
1612.616,2616.00
1613.488,2246.00
1614.361,2673.00
1615.233,2620.00
1616.105,2879.00
1616.977,2573.00
1617.849,2496.00
1618.720,2975.00
1619.592,2988.00
1620.464,2747.00
1621.333,3094.00
1622.205,2633.00
1623.076,2615.00
1623.947,2645.00
1624.818,2882.00
1625.689,2817.00
1626.560,2554.00
1627.431,2718.00
1628.302,3071.00
1629.171,2781.00
1630.042,2967.00
1630.912,3629.00
1631.782,3240.00
1632.653,2514.00
1633.523,2843.00
1634.393,2943.00
1635.263,2539.00
1636.131,2653.00
1637.001,2568.00
1637.871,2311.00
1638.741,2303.00
1639.611,2439.00
1640.480,2779.00
1641.350,2536.00
1642.219,2475.00
1643.087,2186.00
1643.956,3114.00
1644.825,2907.00
1645.694,2860.00
1646.563,2811.00
1647.432,2721.00
1648.299,2709.00
1649.167,2806.00
1650.036,2521.00
1650.904,2883.00
1651.773,2934.00
1652.641,2647.00
1653.509,2832.00
1654.376,2515.00
1655.244,2743.00
1656.112,2720.00
1656.980,2655.00
1657.847,2517.00
1658.715,2867.00
1659.581,2583.00
1660.448,2929.00
1661.316,2175.00
1662.183,2707.00
1663.051,2742.00
1663.918,2719.00
1664.783,2714.00
1665.650,2771.00
1666.517,2827.00
1667.384,2689.00
1668.251,2767.00
1669.115,2889.00
1669.982,2635.00
1670.849,2978.00
1671.715,2671.00
1672.581,2803.00
1673.446,2771.00
1674.312,2711.00
1675.178,3096.00
1676.044,2775.00
1676.910,2755.00
1677.774,2723.00
1678.639,2327.00
1679.505,2649.00
1680.370,2835.00
1681.236,3283.00
1682.099,2647.00
1682.965,2731.00
1683.830,2291.00
1684.695,2526.00
1685.560,2627.00
1686.423,2798.00
1687.288,2782.00
1688.153,2731.00
1689.017,2616.00
1689.880,2718.00
1690.745,2841.00
1691.609,2520.00
1692.473,2827.00
1693.338,2885.00
1694.200,2924.00
1695.064,2695.00
1695.928,2573.00
1696.792,2651.00
1697.654,3147.00
1698.517,2753.00
1699.381,2431.00
1700.245,2347.00
1701.106,2963.00
1701.969,2587.00
1702.833,2835.00
1703.696,2587.00
1704.557,2639.00
1705.420,2567.00
1706.283,2730.00
1707.146,2823.00
1708.007,2494.00
1708.870,2523.00
1709.732,2367.00
1710.595,2585.00
1711.455,2430.00
1712.318,2621.00
1713.180,2926.00
1714.040,2726.00
1714.902,2859.00
1715.764,2665.00
1716.626,2450.00
1717.486,2693.00
1718.348,2945.00
1719.209,4166.00
1720.071,2339.00
1720.930,2453.00
1721.792,2538.00
1722.653,2491.00
1723.512,2561.00
1724.374,2610.00
1725.234,2771.00
1726.095,2685.00
1726.954,2686.00
1727.815,2822.00
1728.676,2677.00
1729.535,2883.00
1730.395,2674.00
1731.256,2621.00
1732.114,2721.00
1732.974,2167.00
1733.834,3039.00
1734.693,2848.00
1735.553,2658.00
1736.413,3103.00
1737.272,2578.00
1738.130,2611.00
1738.990,2749.00
1739.849,2584.00
1740.707,3646.00
1741.566,2721.00
1742.426,2738.00
1743.283,3071.00
1744.142,2581.00
1745.001,2372.00
1745.858,2866.00
1746.717,2781.00
1747.576,2770.00
1748.433,2847.00
1749.292,3244.00
1750.150,3312.00
1751.007,2879.00
1751.865,2889.00
1752.723,2682.00
1753.579,2609.00
1754.438,2905.00
1755.296,2898.00
1756.152,2254.00
1757.010,2392.00
1757.865,2886.00
1758.723,2319.00
1759.581,2996.00
1760.436,2684.00
1761.294,3024.00
1762.151,2669.00
1763.006,2614.00
1763.864,2345.00
1764.721,2869.00
1765.576,2716.00
1766.433,2798.00
1767.288,2596.00
1768.144,2730.00
1769.001,2643.00
1769.856,2808.00
1770.712,2881.00
1771.568,2456.00
1772.423,2608.00
1773.279,2595.00
1774.133,2565.00
1774.989,3062.00
1775.845,3029.00
1776.699,2960.00
1777.555,2667.00
1778.409,3178.00
1779.265,2677.00
1780.120,2587.00
1780.974,2685.00
1781.829,2330.00
1782.682,2732.00
1783.538,2507.00
1784.393,2711.00
1785.246,2586.00
1786.101,2785.00
1786.954,2808.00
1787.808,2903.00
1788.661,2422.00
1789.516,2601.00
1790.370,2611.00
1791.223,2885.00
1792.077,2695.00
1792.930,2772.00
1793.784,2550.00
1794.636,2719.00
1795.490,2666.00
1796.344,2731.00
1797.196,2689.00
1798.049,2853.00
1798.901,2579.00
1799.755,2956.00
1800.606,2507.00
1801.460,3171.00
1802.311,3002.00
1803.165,3062.00
1804.018,3084.00
1804.869,2782.00
1805.722,3142.00
1806.573,2761.00
1807.426,2496.00
1808.276,2693.00
1809.129,2617.00
1809.980,2877.00
1810.832,2975.00
1811.683,2637.00
1812.535,2987.00
1813.385,2631.00
1814.237,2986.00
1815.089,2750.00
1815.940,2995.00
1816.791,2659.00
1817.641,2534.00
1818.493,2829.00
1819.343,2777.00
1820.194,2598.00
1821.044,2794.00
1821.895,2913.00
1822.745,2382.00
1823.596,2587.00
1824.445,3100.00
1825.296,2829.00
1826.145,2666.00
1826.996,2861.00
1827.845,2771.00
1828.695,2737.00
1829.544,2671.00
1830.395,2749.00
1831.243,2615.00
1832.094,2431.00
1832.942,3307.00
1833.792,2827.00
1834.640,2799.00
1835.490,2714.00
1836.338,2758.00
1837.186,2591.00
1838.036,2582.00
1838.884,2703.00
1839.733,2993.00
1840.581,2884.00
1841.430,2814.00
1842.278,3040.00
1843.127,2598.00
1843.974,2403.00
1844.823,3108.00
1845.671,2857.00
1846.519,2725.00
1847.366,2773.00
1848.213,2319.00
1849.062,2533.00
1849.909,2427.00
1850.757,3363.00
1851.604,2807.00
1852.452,2643.00
1853.298,2863.00
1854.146,2723.00
1854.993,2771.00
1855.839,3203.00
1856.687,2834.00
1857.532,2778.00
1858.380,2703.00
1859.226,2783.00
1860.073,2830.00
1860.919,2537.00
1861.765,2608.00
1862.612,2947.00
1863.457,2910.00
1864.304,2653.00
1865.150,2803.00
1865.995,2673.00
1866.842,2843.00
1867.686,2921.00
1868.533,2791.00
1869.378,2779.00
1870.223,2711.00
1871.069,2631.00
1871.914,2783.00
1872.760,2703.00
1873.604,2523.00
1874.448,2839.00
1875.294,2895.00
1876.139,2583.00
1876.984,2815.00
1877.828,2370.00
1878.672,2234.00
1879.518,2607.00
1880.361,2878.00
1881.205,2879.00
1882.050,2545.00
1882.894,3197.00
1883.739,2619.00
1884.582,2456.00
1885.425,2571.00
1886.270,2971.00
1887.113,2474.00
1887.956,2795.00
1888.801,2761.00
1889.644,2502.00
1890.486,2307.00
1891.331,2649.00
1892.173,2786.00
1893.017,2791.00
1893.860,3005.00
1894.702,3010.00
1895.546,2719.00
1896.388,3405.00
1897.230,3066.00
1898.074,2611.00
1898.916,2520.00
1899.757,2555.00
1900.601,3351.00
1901.443,2945.00
1902.284,2991.00
1903.125,3165.00
1903.969,2907.00
1904.810,2951.00
1905.651,2834.00
1906.494,3003.00
1907.335,3131.00
1908.176,2835.00
1909.018,2791.00
1909.859,2717.00
1910.700,2606.00
1911.542,3275.00
1912.383,2803.00
1913.223,2347.00
1914.064,2855.00
1914.906,2989.00
1915.746,3058.00
1916.586,3159.00
1917.428,2719.00
1918.268,2763.00
1919.107,2627.00
1919.947,2488.00
1920.789,2643.00
1921.628,2947.00
1922.468,2722.00
1923.309,2567.00
1924.148,3029.00
1924.988,2814.00
1925.827,2691.00
1926.667,2616.00
1927.507,2758.00
1928.345,2583.00
1929.184,2904.00
1930.025,2534.00
1930.864,2977.00
1931.702,2989.00
1932.541,2626.00
1933.381,2889.00
1934.219,2889.00
1935.057,3018.00
1935.896,2399.00
1936.735,2720.00
1937.573,2626.00
1938.411,2531.00
1939.249,2888.00
1940.089,2626.00
1940.927,2960.00
1941.764,3008.00
1942.602,2650.00
1943.439,2637.00
1944.278,2680.00
1945.115,2680.00
1945.953,2484.00
1946.790,2816.00
1947.628,3075.00
1948.465,2853.00
1949.302,2860.00
1950.139,2836.00
1950.976,2600.00
1951.814,2922.00
1952.651,2790.00
1953.487,2525.00
1954.323,3028.00
1955.160,2660.00
1955.998,3100.00
1956.834,2712.00
1957.670,2823.00
1958.506,2941.00
1959.342,2828.00
1960.177,2756.00
1961.015,2880.00
1961.850,2791.00
1962.686,2779.00
1963.521,2749.00
1964.357,2989.00
1965.192,2524.00
1966.029,2890.00
1966.864,2650.00
1967.699,2955.00
1968.534,2766.00
1969.369,2996.00
1970.204,2736.00
1971.040,2749.00
1971.875,2643.00
1972.709,2793.00
1973.544,2576.00
1974.378,2633.00
1975.212,2874.00
1976.047,2627.00
1976.882,2638.00
1977.716,3121.00
1978.550,2463.00
1979.384,2668.00
1980.218,2698.00
1981.052,2648.00
1981.885,2751.00
1982.719,2746.00
1983.554,2924.00
1984.388,3069.00
1985.221,2816.00
1986.054,2991.00
1986.887,2780.00
1987.720,2597.00
1988.553,3031.00
1989.386,2841.00
1990.219,2850.00
1991.053,3072.00
1991.886,2631.00
1992.719,2930.00
1993.551,2294.00
1994.383,2884.00
1995.216,2640.00
1996.048,2443.00
1996.880,2884.00
1997.712,2629.00
1998.544,2733.00
1999.376,2784.00
2000.208,3006.00
2001.040,3140.00
2001.873,2583.00
2002.705,2554.00
2003.536,2813.00
2004.367,2792.00
2005.199,2784.00
2006.030,2626.00
2006.861,2560.00
2007.692,2759.00
2008.523,2596.00
2009.354,2808.00
2010.185,2557.00
2011.016,2865.00
2011.846,2967.00
2012.677,2697.00
2013.507,3080.00
2014.338,2998.00
2015.168,2698.00
2015.999,3299.00
2016.829,2678.00
2017.659,2945.00
2018.489,3237.00
2019.319,2580.00
2020.149,2914.00
2020.980,2796.00
2021.810,2559.00
2022.639,2618.00
2023.469,2653.00
2024.298,2465.00
2025.128,2381.00
2025.957,2378.00
2026.786,2192.00
2027.615,2382.00
2028.444,2586.00
2029.273,2771.00
2030.102,2365.00
2030.931,2596.00
2031.758,2849.00
2032.586,2521.00
2033.415,2602.00
2034.243,2210.00
2035.072,2020.00
2035.900,2487.00
2036.728,2326.00
2037.556,2377.00
2038.385,2385.00
2039.213,2188.00
2040.040,2178.00
2040.868,2144.00
2041.696,2199.00
2042.524,2234.00
2043.351,2425.00
2044.179,2213.00
2045.006,2024.00
