RamanScope Measure Spectrum Data V3.72

<< MEASURE CONDITION >>
Exposure Type,Aver
Exposure Time [sec],15
Exposure Count,30
Measure Time,2023/07/14 21:15:55
Data Name,""
Data Comment,""
Rayleigh Wave[nm],532.0

<< SAMPLE SPECTRUM >>
Wave[dcm-1],No104
146.591,586.43
147.626,658.03
148.664,849.27
149.699,960.63
150.737,1089.97
151.772,1254.90
152.809,1365.40
153.846,1543.53
154.881,1649.10
155.918,1783.83
156.953,1903.57
157.989,1940.63
159.026,2015.73
160.060,2108.67
161.096,2184.90
162.130,2221.60
163.167,2248.37
164.200,2275.83
165.236,2326.30
166.272,2381.70
167.305,2416.50
168.341,2434.50
169.374,2507.07
170.409,2580.87
171.445,2633.00
172.477,2630.30
173.512,2698.10
174.545,2701.87
175.580,2751.40
176.614,2781.60
177.647,2779.23
178.681,2765.27
179.713,2738.67
180.747,2748.67
181.781,2721.10
182.813,2699.17
183.847,2694.10
184.878,2648.50
185.912,2635.77
186.945,2706.27
187.976,2702.03
189.010,2750.80
190.043,2737.97
191.073,2754.00
192.106,2786.17
193.137,2795.53
194.170,2851.83
195.202,2840.30
196.232,2912.87
197.265,2960.57
198.297,3020.60
199.327,3009.10
200.359,3073.57
201.388,3167.00
202.420,3206.70
203.452,3270.20
204.481,3333.60
205.512,3366.37
206.544,3479.53
207.573,3562.77
208.604,3610.73
209.635,3784.37
210.663,3896.07
211.694,4059.50
212.725,4122.70
213.753,4291.57
214.783,4430.17
215.813,4521.40
216.841,4627.30
217.871,4663.07
218.899,4730.80
219.929,4761.33
220.959,4787.30
221.986,4689.67
223.016,4673.90
224.045,4518.70
225.072,4407.23
226.101,4328.00
227.130,4289.90
228.157,4118.53
229.185,3997.73
230.214,3938.03
231.241,3869.30
232.269,3712.87
233.297,3649.07
234.323,3643.03
235.351,3583.30
236.379,3567.73
237.407,3503.73
238.433,3457.40
239.460,3433.83
240.488,3470.03
241.513,3452.40
242.540,3434.33
243.568,3481.23
244.592,3496.73
245.619,3540.33
246.646,3587.73
247.671,3570.47
248.697,3545.17
249.724,3573.97
250.748,3530.50
251.774,3561.57
252.801,3492.13
253.827,3521.63
254.850,3462.23
255.876,3522.43
256.902,3549.60
257.925,3544.57
258.951,3531.90
259.976,3605.57
260.999,3654.20
262.024,3645.83
263.049,3724.50
264.074,3674.40
265.097,3732.27
266.122,3787.07
267.146,3836.00
268.168,3810.67
269.193,3839.17
270.217,3929.20
271.241,3946.60
272.263,4029.37
273.287,4018.33
274.311,4088.43
275.332,4161.87
276.356,4206.23
277.379,4158.80
278.402,4223.87
279.424,4232.13
280.447,4147.77
281.470,4149.23
282.492,4113.07
283.513,4066.07
284.536,4001.00
285.558,4003.03
286.581,3953.80
287.601,3839.70
288.623,3826.93
289.645,3758.40
290.665,3668.37
291.687,3647.07
292.709,3594.93
293.730,3528.50
294.750,3463.77
295.771,3416.73
296.792,3419.23
297.813,3336.33
298.832,3326.20
299.853,3261.60
300.874,3231.40
301.895,3148.90
302.913,3132.93
303.934,3108.40
304.954,3068.90
305.975,2461.83
306.993,2963.43
308.013,2933.10
309.033,2936.10
310.052,2853.03
311.072,2855.33
312.090,2869.83
313.109,2852.80
314.129,2776.00
315.148,2763.10
316.165,2760.10
317.184,2751.40
318.203,2675.03
319.222,2718.27
320.238,2691.23
321.257,2619.83
322.275,2673.90
323.294,2658.03
324.312,2635.70
325.328,2593.97
326.346,2580.97
327.364,2566.73
328.382,2542.10
329.397,2571.23
330.415,2528.97
331.432,2544.53
332.450,2554.80
333.467,2499.87
334.482,2542.37
335.499,2481.23
336.516,2514.67
337.533,2507.00
338.547,2477.77
339.564,2481.53
340.580,2526.77
341.597,2459.13
342.613,2533.07
343.627,2510.40
344.643,2462.20
345.659,2450.50
346.675,2479.97
347.690,2432.83
348.704,2429.87
349.719,2461.33
350.735,2418.13
351.750,2419.77
352.765,2350.67
353.778,2385.57
354.793,2462.07
355.808,2429.77
356.822,2422.90
357.837,2418.87
358.851,2438.23
359.864,2418.93
360.878,2381.30
361.892,2439.43
362.906,2438.00
363.920,2417.40
364.932,2386.23
365.945,2416.97
366.959,2428.73
367.972,2440.03
368.986,2448.77
369.999,2483.80
371.010,2451.27
372.023,2457.47
373.036,2455.50
374.049,2469.07
375.061,2557.80
376.072,2535.30
377.084,2499.77
378.097,2493.27
379.109,2539.33
380.121,2534.50
381.133,2538.17
382.143,2569.03
383.155,2499.63
384.166,2557.87
385.178,2561.77
386.189,2567.53
387.201,2525.63
388.212,2547.57
389.221,2540.87
390.232,2538.80
391.243,2523.53
392.254,2586.73
393.264,2531.23
394.275,2504.30
395.283,2539.60
396.294,2595.37
397.304,2533.97
398.314,2507.03
399.324,2475.17
400.334,2454.23
401.344,2408.00
402.351,2473.13
403.361,2428.10
404.370,2441.33
405.380,2468.37
406.389,2442.27
407.398,2412.17
408.407,2413.27
409.414,2653.53
410.423,2346.07
411.431,2332.73
412.440,2371.97
413.448,2357.50
414.457,2318.47
415.465,2317.50
416.471,2332.43
417.479,2308.27
418.487,2321.87
419.495,2303.73
420.503,2320.53
421.510,2342.77
422.518,2275.30
423.525,2260.90
424.530,2262.47
425.537,2308.60
426.544,2322.77
427.551,2295.80
428.558,2252.37
429.565,2249.50
430.571,2248.43
431.578,2260.03
432.582,2244.27
433.588,2261.03
434.595,2245.97
435.601,2262.20
436.607,2274.83
437.612,2222.80
438.618,2264.63
439.624,2260.57
440.627,2210.23
441.633,2272.80
442.638,2217.77
443.643,2233.37
444.648,2210.87
445.653,2222.90
446.658,2234.87
447.663,2232.43
448.667,2296.27
449.672,2278.87
450.674,2207.70
451.678,2277.83
452.682,2291.80
453.687,2249.87
454.690,2263.87
455.694,2259.77
456.698,2235.10
457.702,2294.33
458.705,2281.13
459.709,2247.93
460.710,2239.27
461.713,2299.30
462.716,2319.53
463.719,2313.90
464.722,2294.53
465.725,2273.37
466.727,2304.83
467.730,2316.97
468.732,2298.47
469.735,2241.70
470.737,2284.60
471.737,2307.40
472.739,2327.67
473.741,2343.93
474.742,2315.67
475.744,2355.03
476.746,2347.57
477.747,2356.53
478.748,2314.10
479.750,2310.10
480.751,2278.63
481.752,2310.00
482.753,2332.03
483.751,2348.17
484.752,2336.53
485.753,2326.03
486.753,2344.53
487.753,2296.53
488.754,2339.60
489.754,2303.73
490.754,2328.57
491.754,2307.90
492.754,2329.43
493.753,2340.57
494.753,2342.07
495.752,2315.50
496.752,2292.17
497.749,2307.00
498.748,2316.90
499.747,2290.50
500.746,2311.03
501.745,2275.67
502.744,2271.50
503.742,2291.67
504.741,2273.97
505.739,2278.00
506.737,2291.87
507.735,2264.53
508.734,2303.83
509.732,2270.53
510.729,2233.23
511.727,2274.77
512.725,2250.53
513.720,2260.37
514.718,2240.23
515.715,2241.23
516.712,2267.40
517.709,2232.27
518.706,2235.47
519.703,2252.40
520.700,2235.03
521.696,2236.30
522.693,2209.13
523.689,2253.27
524.686,2228.27
525.682,2243.63
526.678,2245.20
527.674,2248.17
528.670,2268.83
529.666,2275.10
530.661,2285.37
531.657,2302.10
532.652,2266.17
533.648,2274.67
534.641,2293.30
535.636,2239.40
536.631,2337.90
537.626,2283.90
538.621,2305.83
539.616,2308.60
540.610,2331.40
541.605,2311.03
542.599,2323.60
543.593,2312.00
544.587,2325.17
545.581,2351.57
546.575,2303.30
547.569,2355.70
548.563,2324.03
549.557,2346.10
550.550,2346.07
551.543,2353.30
552.537,2381.47
553.530,2329.63
554.523,2324.67
555.516,2301.83
556.509,2373.20
557.502,2330.63
558.494,2349.10
559.487,2344.03
560.479,2321.50
561.472,2376.73
562.464,2376.07
563.456,2339.07
564.448,2346.93
565.440,2385.87
566.432,2367.43
567.423,2359.53
568.415,2349.27
569.404,2349.13
570.396,2387.17
571.387,2349.90
572.378,2325.17
573.369,2386.80
574.360,2349.07
575.351,2371.77
576.341,2349.97
577.332,2377.60
578.323,2370.93
579.313,2348.37
580.303,2353.70
581.293,2409.33
582.283,2356.47
583.273,2375.53
584.263,2376.83
585.253,2423.70
586.243,2429.67
587.232,2430.77
588.222,2381.30
589.211,2373.00
590.200,2396.30
591.189,2341.40
592.178,2394.07
593.167,2392.37
594.156,2384.73
595.145,2420.10
596.133,2375.80
597.122,2405.97
598.110,2365.23
599.098,2375.47
600.086,2385.13
601.074,2397.07
602.062,2371.07
603.050,2414.60
604.038,2430.17
605.025,2385.23
606.013,2403.80
607.000,2337.37
607.987,2406.70
608.975,2385.57
609.962,2337.13
610.949,2374.50
611.936,2349.87
612.922,2352.30
613.909,2367.83
614.895,2341.83
615.882,2297.83
616.868,2292.43
617.854,2286.00
618.841,2322.83
619.826,2278.80
620.812,2229.73
621.798,2284.33
622.784,2258.70
623.769,2216.13
624.755,2199.87
625.740,2197.17
626.725,2215.80
627.711,2196.80
628.698,2171.93
629.683,2186.57
630.667,2142.93
631.652,2102.17
632.637,2094.33
633.621,2069.63
634.606,2046.23
635.590,2073.30
636.574,2030.77
637.558,2075.40
638.542,2001.67
639.526,1967.80
640.510,1988.10
641.493,1984.97
642.477,1959.67
643.460,1963.47
644.444,1945.90
645.427,1951.93
646.410,1927.20
647.393,1917.27
648.376,1918.40
649.359,1921.40
650.341,1887.70
651.324,1880.87
652.307,1861.13
653.289,1861.57
654.271,1904.70
655.253,1864.87
656.235,1851.00
657.217,1844.23
658.199,1840.23
659.181,1857.63
660.163,1870.13
661.144,1778.87
662.126,1761.50
663.107,1785.20
664.088,1738.07
665.069,1758.73
666.050,1793.03
667.033,1759.33
668.014,1743.93
668.995,1789.40
669.975,1732.60
670.956,1738.27
671.936,1772.07
672.916,1770.87
673.896,1746.20
674.876,1722.90
675.856,1732.53
676.836,1730.60
677.816,1693.67
678.795,1663.10
679.775,1668.93
680.754,1656.33
681.734,1665.07
682.713,1619.90
683.692,1637.10
684.671,1613.67
685.650,1657.63
686.629,1630.07
687.607,1592.33
688.586,1532.70
689.564,1539.13
690.543,1546.63
691.523,1531.83
692.501,1547.20
693.479,1570.23
694.457,1541.57
695.435,1531.00
696.413,1511.97
697.390,1485.23
698.368,1498.00
699.345,1511.60
700.322,1476.57
701.300,1476.80
702.277,1471.00
703.254,1470.27
704.231,1440.13
705.207,1461.13
706.184,1463.53
707.161,1431.57
708.137,1460.70
709.113,1434.33
710.090,1435.40
711.068,1448.57
712.044,1394.67
713.020,1398.83
713.996,1396.10
714.971,1418.23
715.947,1373.87
716.922,1372.90
717.898,1404.87
718.873,1404.63
719.848,1366.50
720.823,1344.70
721.798,1344.40
722.773,1367.83
723.748,1354.10
724.723,1331.03
725.697,1328.63
726.672,1333.97
727.646,1355.43
728.622,1332.10
729.596,1333.90
730.570,1335.17
731.544,1265.07
732.518,1317.67
733.492,1296.43
734.466,1308.53
735.439,1304.43
736.413,1271.30
737.386,1256.30
738.359,1308.53
739.332,1302.13
740.305,1266.97
741.278,1253.43
742.251,1264.47
743.224,1283.67
744.196,1293.40
745.171,1290.57
746.143,1259.33
747.115,1262.90
748.087,1281.47
749.059,1245.90
750.031,1261.47
751.003,1228.63
751.975,1242.60
752.947,1253.83
753.918,1229.53
754.890,1261.77
755.861,1264.03
756.832,1210.13
757.803,1250.60
758.774,1230.23
759.747,1252.43
760.718,1212.57
761.689,1221.47
762.659,1193.77
763.630,1199.43
764.600,1211.97
765.570,1218.60
766.540,1191.50
767.510,1197.30
768.480,1191.53
769.450,1208.73
770.420,1222.97
771.390,1183.77
772.359,1184.73
773.329,1128.33
774.300,1168.77
775.269,1159.83
776.238,1176.20
777.207,1194.40
778.176,1155.77
779.145,1153.43
780.114,1160.43
781.083,1164.63
782.051,1160.37
783.019,1141.67
783.988,1192.87
784.956,1171.33
785.924,1145.87
786.894,1110.10
787.862,1156.03
788.830,1142.37
789.797,1155.10
790.765,1143.40
791.732,1101.07
792.700,1111.03
793.667,1102.73
794.634,1108.37
795.601,1140.40
796.568,1024.73
797.535,1099.77
798.502,1116.37
799.468,1113.83
800.437,1073.17
801.403,1084.90
802.370,1071.80
803.336,1055.87
804.302,1085.13
805.268,1078.10
806.234,1077.50
807.200,1055.07
808.166,1056.43
809.131,1087.10
810.097,1071.33
811.062,1025.93
812.027,1084.27
812.994,1054.03
813.960,1070.50
814.925,1074.00
815.889,1032.63
816.854,998.80
817.819,1049.93
818.783,1042.87
819.748,1034.80
820.712,1020.73
821.677,1071.03
822.641,1022.30
823.605,1043.23
824.571,984.53
825.534,1026.13
826.498,1026.03
827.462,1024.93
828.425,1008.47
829.389,1055.33
830.352,1035.63
831.315,1056.20
832.279,1006.70
833.242,1046.53
834.204,1012.33
835.167,996.23
836.132,993.47
837.095,1039.83
838.057,1029.80
839.020,1046.80
839.982,1026.73
840.944,1012.20
841.906,1027.40
842.868,1044.67
843.830,1018.07
844.792,1017.73
845.753,1030.17
846.715,1037.10
847.679,994.83
848.640,1008.37
849.601,989.63
850.562,1012.20
851.523,972.30
852.484,1014.57
853.445,976.93
854.406,1005.20
855.367,992.77
856.327,1004.23
857.288,1014.87
858.248,1043.23
859.210,1031.47
860.170,980.13
861.130,985.93
862.090,995.13
863.050,1022.13
864.010,991.80
864.969,1009.47
865.929,984.40
866.888,955.53
867.848,985.53
868.807,1007.53
869.766,981.77
870.727,1018.90
871.686,973.23
872.645,1005.13
873.604,991.07
874.562,1017.43
875.521,1004.17
876.479,993.90
877.437,975.37
878.396,1007.10
879.354,990.07
880.312,989.13
881.270,997.57
882.229,971.10
883.187,990.93
884.145,1022.50
885.102,993.50
886.059,989.00
887.017,986.50
887.974,973.90
888.931,975.67
889.888,989.03
890.845,1012.77
891.802,982.27
892.758,1000.03
893.717,993.27
894.673,992.83
895.630,983.67
896.586,991.07
897.542,1035.90
898.498,998.97
899.454,959.70
900.410,983.60
901.366,1012.27
902.321,960.27
903.277,965.27
904.232,981.80
905.189,975.83
906.145,989.57
907.100,1010.20
908.055,999.73
909.010,990.00
909.965,991.40
910.919,995.30
911.874,1027.17
912.828,988.67
913.783,960.87
914.737,996.07
915.693,985.87
916.648,977.30
917.602,1012.27
918.555,993.30
919.509,993.43
920.463,992.87
921.417,1027.27
922.370,977.20
923.324,1017.83
924.277,983.87
925.230,957.13
926.183,998.17
927.138,1005.33
928.091,1018.00
929.044,998.67
929.996,1010.83
930.949,1021.93
931.902,971.73
932.854,989.83
933.806,1004.40
934.758,1008.37
935.711,994.67
936.663,1001.60
937.614,1008.97
938.568,1020.80
939.520,993.53
940.471,999.13
941.423,996.07
942.374,999.17
943.326,1032.63
944.277,1006.60
945.228,984.57
946.179,979.97
947.130,966.10
948.080,992.23
949.031,1024.17
949.984,990.27
950.934,994.17
951.884,991.70
952.835,1018.40
953.785,992.53
954.735,981.57
955.685,985.87
956.635,1000.43
957.585,999.83
958.534,984.83
959.484,990.70
960.433,1033.63
961.383,984.27
962.334,1008.97
963.283,990.90
964.232,989.80
965.181,986.83
966.130,1007.20
967.079,967.50
968.027,1028.43
968.976,970.90
969.924,972.47
970.873,989.07
971.821,940.13
972.769,987.50
973.719,967.40
974.667,994.77
975.615,974.27
976.562,973.33
977.510,964.90
978.458,990.90
979.405,1013.00
980.352,1014.27
981.300,945.53
982.247,1001.03
983.194,988.37
984.141,951.83
985.088,1014.23
986.036,975.93
986.983,999.40
987.930,1005.83
988.876,980.77
989.822,954.33
990.769,973.53
991.715,976.87
992.661,997.97
993.607,985.73
994.553,992.87
995.498,983.63
996.444,961.50
997.389,998.73
998.337,981.73
999.282,990.23
1000.227,1008.60
1001.173,961.63
1002.118,982.27
1003.062,1015.40
1004.007,1001.10
1004.952,968.27
1005.897,982.70
1006.841,1028.93
1007.786,1040.30
1008.730,1008.13
1009.674,1047.93
1010.618,987.37
1011.564,960.77
1012.508,989.97
1013.452,995.57
1014.396,977.63
1015.339,1046.03
1016.283,1012.73
1017.226,1003.30
1018.170,1007.03
1019.113,987.90
1020.056,1028.13
1020.999,1057.90
1021.942,1039.30
1022.885,1022.63
1023.828,974.97
1024.770,1024.13
1025.715,1034.30
1026.657,1032.57
1027.600,1032.90
1028.542,1060.70
1029.484,1030.13
1030.426,1062.63
1031.368,1049.07
1032.310,1042.40
1033.251,1059.50
1034.193,1048.63
1035.135,1066.17
1036.076,1031.13
1037.017,1020.47
1037.959,1050.07
1038.900,1069.10
1039.843,1055.87
1040.784,1042.10
1041.725,1080.07
1042.665,1082.90
1043.606,1091.43
1044.547,1104.83
1045.487,1038.00
1046.427,1063.93
1047.368,1103.13
1048.308,1089.27
1049.248,1067.17
1050.188,1085.17
1051.128,1106.50
1052.067,1064.53
1053.007,1124.77
1053.947,1120.20
1054.886,1155.80
1055.827,1135.83
1056.766,1131.17
1057.706,1127.57
1058.645,1129.40
1059.584,1104.77
1060.522,1089.97
1061.461,1153.53
1062.400,1146.13
1063.338,1106.50
1064.277,1149.57
1065.215,1164.47
1066.154,1161.47
1067.092,1133.00
1068.030,1170.37
1068.968,1196.87
1069.906,1123.87
1070.843,1177.10
1071.781,1143.67
1072.720,1179.03
1073.658,1182.33
1074.595,1181.37
1075.533,1207.03
1076.470,1186.57
1077.407,1188.30
1078.344,1240.03
1079.281,1186.13
1080.217,1199.00
1081.154,1227.73
1082.091,1191.60
1083.027,1195.43
1083.964,1228.97
1084.900,1224.33
1085.836,1168.17
1086.772,1211.13
1087.708,1196.30
1088.644,1181.17
1089.580,1233.13
1090.515,1195.70
1091.451,1203.93
1092.388,1234.87
1093.324,1188.97
1094.259,1194.70
1095.194,1214.20
1096.129,1188.47
1097.064,1197.77
1097.999,1179.43
1098.934,1177.37
1099.869,1208.67
1100.803,1171.67
1101.738,1184.87
1102.672,1192.47
1103.607,1180.40
1104.541,1153.20
1105.475,1171.13
1106.409,1145.90
1107.343,1128.97
1108.277,1148.80
1109.210,1152.40
1110.144,1117.37
1111.078,1143.83
1112.011,1163.17
1112.944,1118.43
1113.878,1094.67
1114.811,1085.77
1115.744,1125.30
1116.678,1082.23
1117.611,1089.93
1118.544,1121.63
1119.477,1118.63
1120.409,1092.63
1121.342,1058.87
1122.274,1055.47
1123.206,1167.77
1124.138,1038.27
1125.070,1108.60
1126.002,1046.57
1126.934,1079.40
1127.866,1025.27
1128.798,997.43
1129.729,1014.63
1130.661,1005.77
1131.592,1029.43
1132.523,1018.30
1133.454,998.53
1134.385,990.80
1135.317,1000.47
1136.247,964.17
1137.178,991.40
1138.109,994.77
1139.039,964.13
1139.970,1007.37
1140.900,944.83
1141.831,942.83
1142.761,971.40
1143.691,718.00
1144.621,941.30
1145.551,912.80
1146.480,952.70
1147.410,972.30
1148.340,918.53
1149.269,904.13
1150.199,921.17
1151.128,969.40
1152.057,892.63
1152.979,902.47
1153.898,942.37
1154.819,903.13
1155.739,901.03
1156.658,919.23
1157.579,917.80
1158.498,913.57
1159.419,898.20
1160.338,859.73
1161.256,850.27
1162.177,890.80
1163.095,896.97
1164.016,879.57
1164.934,870.50
1165.852,881.50
1166.772,875.23
1167.690,887.00
1168.610,878.50
1169.528,838.47
1170.446,854.10
1171.365,858.37
1172.283,899.73
1173.202,867.87
1174.120,858.50
1175.037,837.37
1175.956,850.60
1176.873,824.80
1177.792,818.03
1178.709,839.30
1179.626,858.57
1180.544,854.90
1181.461,850.27
1182.379,791.30
1183.296,863.90
1184.212,811.13
1185.130,832.77
1186.046,784.20
1186.962,833.83
1187.880,808.87
1188.796,833.57
1189.714,803.00
1190.629,862.93
1191.545,841.87
1192.462,868.00
1193.378,841.63
1194.295,826.97
1195.210,825.47
1196.125,813.50
1197.042,817.93
1197.957,796.17
1198.872,829.43
1199.788,821.20
1200.703,832.53
1201.619,809.87
1202.534,796.10
1203.448,821.77
1204.364,822.60
1205.278,811.07
1206.192,844.07
1207.108,797.80
1208.022,800.77
1208.938,804.40
1209.851,802.57
1210.765,793.70
1211.680,845.50
1212.594,810.23
1213.507,806.03
1214.422,845.57
1215.335,822.63
1216.248,823.73
1217.163,848.73
1218.076,821.10
1218.990,819.97
1219.903,815.00
1220.816,803.87
1221.730,793.53
1222.642,824.33
1223.554,875.47
1224.469,850.67
1225.380,792.83
1226.292,814.97
1227.206,781.13
1228.118,817.70
1229.032,847.50
1229.943,877.33
1230.855,835.07
1231.768,824.70
1232.679,817.97
1233.590,825.83
1234.503,825.40
1235.414,789.07
1236.325,820.53
1237.238,833.03
1238.149,813.43
1239.059,829.53
1239.972,841.23
1240.882,824.53
1241.793,824.43
1242.705,881.23
1243.615,859.53
1244.525,816.30
1245.437,850.97
1246.347,847.73
1247.259,808.83
1248.168,810.60
1249.078,856.70
1249.989,834.50
1250.899,828.77
1251.808,835.27
1252.719,818.10
1253.628,874.03
1254.537,841.50
1255.448,855.60
1256.357,836.60
1257.266,864.63
1258.176,829.13
1259.085,819.13
1259.993,820.73
1260.904,889.10
1261.812,859.47
1262.720,862.63
1263.630,881.17
1264.538,860.63
1265.446,882.87
1266.356,882.90
1267.263,795.67
1268.171,848.17
1269.080,884.70
1269.988,852.63
1270.895,867.63
1271.804,860.80
1272.711,854.67
1273.619,863.93
1274.527,826.00
1275.434,874.83
1276.341,871.77
1277.248,811.57
1278.156,861.57
1279.063,828.83
1279.969,855.20
1280.877,834.97
1281.783,856.30
1282.690,807.80
1283.598,844.00
1284.503,820.90
1285.409,815.03
1286.317,839.77
1287.223,866.67
1288.128,817.77
1289.036,821.93
1289.941,842.13
1290.846,815.20
1291.751,788.70
1292.658,845.57
1293.563,841.03
1294.468,855.77
1295.375,843.90
1296.280,864.83
1297.184,795.63
1298.091,824.73
1298.995,842.73
1299.900,796.80
1300.806,826.43
1301.710,820.83
1302.614,834.73
1303.518,795.53
1304.424,813.27
1305.327,831.80
1306.231,849.20
1307.137,801.83
1308.040,818.17
1308.943,797.03
1309.847,817.90
1310.752,774.73
1311.655,803.83
1312.558,820.97
1313.463,809.33
1314.366,793.53
1315.269,812.33
1316.171,813.43
1317.076,796.90
1317.978,765.90
1318.881,786.80
1319.785,778.27
1320.687,777.50
1321.589,739.87
1322.491,750.13
1323.395,798.47
1324.297,796.77
1325.198,756.07
1326.102,772.13
1327.004,747.77
1327.905,761.93
1328.806,780.73
1329.709,757.67
1330.611,754.57
1331.512,738.97
1332.413,748.23
1333.316,752.70
1334.216,791.07
1335.117,730.53
1336.020,770.03
1336.920,737.00
1337.821,722.33
1338.721,760.47
1339.623,740.10
1340.523,720.03
1341.423,725.07
1342.323,733.23
1343.225,697.87
1344.125,705.53
1345.025,710.70
1345.924,704.20
1346.826,724.90
1347.725,694.23
1348.624,681.40
1349.524,704.87
1350.425,695.57
1351.324,665.93
1352.223,680.27
1353.121,671.60
1354.022,680.63
1354.921,703.70
1355.819,690.03
1356.718,683.37
1357.618,682.37
1358.516,687.00
1359.415,654.10
1360.313,684.10
1361.213,631.93
1362.111,687.00
1363.008,676.00
1363.906,669.87
1364.806,647.50
1365.703,668.27
1366.601,645.93
1367.498,666.27
1368.397,642.07
1369.295,646.43
1370.192,654.57
1371.089,640.20
1371.987,662.10
1372.884,650.40
1373.781,668.27
1374.678,627.83
1375.574,644.07
1376.473,651.90
1377.369,615.60
1378.265,635.97
1379.161,619.60
1380.059,612.70
1380.955,652.37
1381.851,618.37
1382.747,613.53
1383.643,601.77
1384.540,618.03
1385.436,606.53
1386.331,599.10
1387.227,639.60
1388.124,604.13
1389.019,588.37
1389.914,619.47
1390.809,604.07
1391.704,602.73
1392.601,620.23
1393.495,583.07
1394.390,597.77
1395.285,585.50
1396.179,622.93
1397.075,572.33
1397.969,588.03
1398.864,610.30
1399.758,578.87
1400.652,560.87
1401.547,608.70
1402.441,579.90
1403.335,616.37
1404.229,579.73
1405.122,615.10
1406.017,555.93
1406.911,600.43
1407.804,600.90
1408.697,558.57
1409.590,579.63
1410.485,566.83
1411.378,572.67
1412.271,613.03
1413.163,577.77
1414.056,555.07
1414.949,589.67
1415.843,573.97
1416.735,591.43
1417.627,565.37
1418.520,566.17
1419.412,582.77
1420.306,553.67
1421.197,564.20
1422.089,547.83
1422.981,552.40
1423.873,532.17
1424.764,554.13
1425.657,563.37
1426.549,574.63
1427.440,554.57
1428.331,576.17
1429.222,569.13
1430.113,563.07
1431.006,547.53
1431.897,530.50
1432.787,581.37
1433.678,542.13
1434.568,552.67
1435.459,511.93
1436.351,514.87
1437.241,550.27
1438.131,565.10
1439.021,520.10
1439.911,520.70
1440.801,507.13
1441.693,544.07
1442.583,565.30
1443.472,550.27
1444.362,514.70
1445.251,537.90
1446.140,551.77
1447.030,579.37
1447.921,531.27
1448.810,512.80
1449.699,555.07
1450.588,525.57
1451.476,530.40
1452.365,528.73
1453.254,532.97
1454.144,541.70
1455.032,550.03
1455.921,534.03
1456.809,525.37
1457.697,552.50
1458.585,520.83
1459.473,492.97
1460.361,545.93
1461.251,538.53
1462.138,524.67
1463.026,507.53
1463.913,518.00
1464.801,508.03
1465.688,499.87
1466.575,520.23
1467.463,558.80
1468.351,493.83
1469.238,539.20
1470.125,515.00
1471.012,535.23
1471.899,480.33
1472.785,483.03
1473.672,482.50
1474.558,512.80
1475.446,516.20
1476.333,534.67
1477.219,513.83
1478.105,508.50
1478.991,492.97
1479.877,558.67
1480.762,487.00
1481.648,501.93
1482.534,523.20
1483.419,493.33
1484.307,499.20
1485.192,481.80
1486.077,494.67
1486.962,531.17
1487.847,487.80
1488.732,481.23
1489.617,483.43
1490.502,499.37
1491.387,493.30
1492.271,511.77
1493.156,477.93
1494.042,498.10
1494.927,523.00
1495.811,427.30
1496.695,462.50
1497.579,491.00
1498.463,473.97
1499.347,468.93
1500.231,482.83
1501.114,446.47
1501.998,461.47
1502.881,480.77
1503.765,478.87
1504.648,462.73
1505.533,507.23
1506.417,459.60
1507.300,472.27
1508.183,462.70
1509.066,493.97
1509.948,477.00
1510.831,469.67
1511.714,481.73
1512.596,477.97
1513.479,493.83
1514.361,474.10
1515.243,519.77
1516.125,478.53
1517.008,452.70
1517.890,439.47
1518.771,460.77
1519.655,452.90
1520.537,463.30
1521.419,461.70
1522.300,455.07
1523.182,436.83
1524.063,463.37
1524.944,506.10
1525.825,494.03
1526.707,453.63
1527.588,451.67
1528.468,470.70
1529.349,406.90
1530.230,485.50
1531.111,457.07
1531.991,501.50
1532.872,482.37
1533.752,450.13
1534.632,450.67
1535.513,472.73
1536.393,450.83
1537.273,398.30
1538.153,439.00
1539.032,474.87
1539.912,407.97
1540.792,482.37
1541.672,441.03
1542.551,488.47
1543.430,455.20
1544.310,445.70
1545.189,471.43
1546.068,453.50
1546.947,483.67
1547.826,457.13
1548.705,447.53
1549.584,460.60
1550.462,411.43
1551.341,477.30
1552.219,444.10
1553.098,453.90
1553.976,494.80
1554.854,436.60
1555.733,452.37
1556.611,471.07
1557.489,463.07
1558.367,475.80
1559.244,459.23
1560.122,428.80
1561.000,464.40
1561.877,438.13
1562.755,494.77
1563.632,422.23
1564.509,470.93
1565.386,434.77
1566.264,453.73
1567.141,413.70
1568.017,465.40
1568.894,430.60
1569.771,428.50
1570.648,443.80
1571.524,431.47
1572.401,434.87
1573.277,419.43
1574.153,407.37
1575.029,430.10
1575.906,423.03
1576.781,439.37
1577.657,432.07
1578.533,418.10
1579.409,425.57
1580.285,445.40
1581.160,413.20
1582.036,421.57
1582.911,423.87
1583.786,396.20
1584.662,432.00
1585.537,469.10
1586.412,408.47
1587.287,451.43
1588.160,384.57
1589.035,410.57
1589.909,435.97
1590.784,423.23
1591.658,427.20
1592.533,406.50
1593.407,423.83
1594.281,400.60
1595.155,407.47
1596.029,428.27
1596.903,417.37
1597.777,435.03
1598.651,385.30
1599.525,436.23
1600.398,422.67
1601.272,400.00
1602.144,406.63
1603.017,421.07
1603.890,394.70
1604.763,447.50
1605.636,411.27
1606.509,421.77
1607.382,400.60
1608.255,418.60
1609.128,419.40
1610.000,431.03
1610.873,435.17
1611.746,405.70
1612.616,391.40
1613.488,394.97
1614.361,386.53
1615.233,422.03
1616.105,437.37
1616.977,366.67
1617.849,440.10
1618.720,414.20
1619.592,412.97
1620.464,435.67
1621.333,381.03
1622.205,410.37
1623.076,447.07
1623.947,392.73
1624.818,392.90
1625.689,390.90
1626.560,432.70
1627.431,414.17
1628.302,404.47
1629.171,414.83
1630.042,379.50
1630.912,427.00
1631.782,406.60
1632.653,375.73
1633.523,428.03
1634.393,393.60
1635.263,387.37
1636.131,390.70
1637.001,405.83
1637.871,419.33
1638.741,400.43
1639.611,414.47
1640.480,376.93
1641.350,405.20
1642.219,410.93
1643.087,395.83
1643.956,428.50
1644.825,407.00
1645.694,383.43
1646.563,389.73
1647.432,399.57
1648.299,399.47
1649.167,398.03
1650.036,384.23
1650.904,393.37
1651.773,389.53
1652.641,386.17
1653.509,438.77
1654.376,385.80
1655.244,419.53
1656.112,386.77
1656.980,440.57
1657.847,375.77
1658.715,401.13
1659.581,363.50
1660.448,383.13
1661.316,359.60
1662.183,384.97
1663.051,387.53
1663.918,385.40
1664.783,392.07
1665.650,409.43
1666.517,418.40
1667.384,371.17
1668.251,383.30
1669.115,388.03
1669.982,382.50
1670.849,368.93
1671.715,426.40
1672.581,378.07
1673.446,393.73
1674.312,390.10
1675.178,366.37
1676.044,389.33
1676.910,342.70
1677.774,382.73
1678.639,389.50
1679.505,371.87
1680.370,380.47
1681.236,390.00
1682.099,375.07
1682.965,384.67
1683.830,400.90
1684.695,388.27
1685.560,383.67
1686.423,394.97
1687.288,402.03
1688.153,388.27
1689.017,372.60
1689.880,357.20
1690.745,367.97
1691.609,402.23
1692.473,373.87
1693.338,363.77
1694.200,391.37
1695.064,378.53
1695.928,386.07
1696.792,370.60
1697.654,376.73
1698.517,385.97
1699.381,350.27
1700.245,363.30
1701.106,405.03
1701.969,382.00
1702.833,378.10
1703.696,404.63
1704.557,388.20
1705.420,385.87
1706.283,373.37
1707.146,398.40
1708.007,381.37
1708.870,399.87
1709.732,401.07
1710.595,360.77
1711.455,349.53
1712.318,357.77
1713.180,396.80
1714.040,400.40
1714.902,404.87
1715.764,380.23
1716.626,370.47
1717.486,365.07
1718.348,378.23
1719.209,1107.93
1720.071,389.37
1720.930,377.57
1721.792,391.30
1722.653,349.60
1723.512,378.97
1724.374,334.33
1725.234,346.43
1726.095,401.03
1726.954,375.07
1727.815,347.60
1728.676,382.03
1729.535,386.50
1730.395,385.93
1731.256,303.77
1732.114,384.20
1732.974,356.87
1733.834,351.13
1734.693,349.53
1735.553,394.60
1736.413,412.07
1737.272,368.37
1738.130,361.53
1738.990,385.67
1739.849,406.53
1740.707,366.73
1741.566,376.23
1742.426,371.57
1743.283,400.30
1744.142,345.50
1745.001,375.93
1745.858,354.83
1746.717,366.73
1747.576,343.50
1748.433,344.90
1749.292,376.27
1750.150,416.07
1751.007,383.73
1751.865,353.73
1752.723,361.43
1753.579,343.73
1754.438,362.13
1755.296,345.17
1756.152,380.00
1757.010,331.80
1757.865,382.97
1758.723,374.17
1759.581,364.20
1760.436,394.70
1761.294,371.90
1762.151,364.93
1763.006,379.53
1763.864,368.07
1764.721,376.63
1765.576,369.30
1766.433,370.33
1767.288,367.93
1768.144,378.70
1769.001,344.10
1769.856,325.30
1770.712,369.97
1771.568,402.10
1772.423,347.37
1773.279,329.30
1774.133,361.47
1774.989,314.30
1775.845,376.03
1776.699,351.63
1777.555,368.50
1778.409,341.77
1779.265,373.27
1780.120,335.93
1780.974,392.10
1781.829,343.50
1782.682,350.43
1783.538,408.50
1784.393,351.50
1785.246,376.77
1786.101,348.20
1786.954,353.13
1787.808,333.30
1788.661,356.13
1789.516,343.43
1790.370,373.93
1791.223,352.10
1792.077,378.27
1792.930,353.77
1793.784,364.73
1794.636,355.70
1795.490,382.17
1796.344,373.57
1797.196,344.13
1798.049,343.13
1798.901,325.07
1799.755,351.30
1800.606,342.93
1801.460,396.93
1802.311,372.13
1803.165,386.97
1804.018,340.03
1804.869,377.03
1805.722,375.07
1806.573,355.80
1807.426,372.17
1808.276,406.53
1809.129,355.17
1809.980,353.23
1810.832,358.23
1811.683,359.83
1812.535,337.33
1813.385,343.63
1814.237,360.93
1815.089,333.53
1815.940,374.47
1816.791,350.97
1817.641,358.30
1818.493,362.60
1819.343,349.23
1820.194,338.63
1821.044,360.97
1821.895,324.70
1822.745,323.50
1823.596,315.23
1824.445,369.53
1825.296,339.67
1826.145,307.07
1826.996,342.20
1827.845,359.80
1828.695,371.50
1829.544,348.47
1830.395,319.70
1831.243,318.87
1832.094,355.90
1832.942,362.67
1833.792,338.67
1834.640,352.33
1835.490,341.33
1836.338,311.53
1837.186,365.60
1838.036,347.77
1838.884,316.30
1839.733,339.07
1840.581,315.47
1841.430,322.13
1842.278,365.70
1843.127,349.57
1843.974,355.10
1844.823,352.60
1845.671,358.50
1846.519,322.37
1847.366,349.93
1848.213,297.63
1849.062,339.83
1849.909,350.83
1850.757,386.83
1851.604,337.13
1852.452,350.97
1853.298,325.00
1854.146,352.27
1854.993,350.23
1855.839,318.20
1856.687,369.67
1857.532,374.17
1858.380,360.27
1859.226,353.30
1860.073,291.73
1860.919,349.73
1861.765,342.83
1862.612,347.87
1863.457,357.10
1864.304,326.33
1865.150,355.83
1865.995,340.17
1866.842,357.83
1867.686,356.60
1868.533,320.17
1869.378,327.80
1870.223,333.03
1871.069,325.93
1871.914,352.90
1872.760,363.17
1873.604,345.50
1874.448,294.70
1875.294,339.37
1876.139,305.27
1876.984,305.30
1877.828,324.23
1878.672,341.83
1879.518,330.97
1880.361,334.80
1881.205,358.10
1882.050,363.50
1882.894,335.03
1883.739,321.17
1884.582,332.60
1885.425,376.37
1886.270,341.13
1887.113,329.30
1887.956,339.60
1888.801,320.07
1889.644,334.87
1890.486,328.20
1891.331,317.37
1892.173,345.73
1893.017,309.50
1893.860,347.93
1894.702,330.30
1895.546,346.33
1896.388,336.70
1897.230,382.97
1898.074,339.30
1898.916,396.87
1899.757,310.27
1900.601,299.20
1901.443,351.60
1902.284,357.83
1903.125,355.97
1903.969,291.63
1904.810,334.87
1905.651,375.43
1906.494,319.93
1907.335,325.13
1908.176,310.33
1909.018,335.93
1909.859,361.00
1910.700,344.20
1911.542,335.20
1912.383,321.97
1913.223,329.40
1914.064,324.03
1914.906,341.17
1915.746,282.43
1916.586,343.30
1917.428,333.60
1918.268,343.33
1919.107,360.47
1919.947,317.27
1920.789,325.33
1921.628,367.67
1922.468,356.40
1923.309,333.43
1924.148,324.10
1924.988,348.83
1925.827,318.97
1926.667,318.20
1927.507,314.90
1928.345,364.70
1929.184,306.67
1930.025,334.30
1930.864,319.23
1931.702,307.47
1932.541,330.77
1933.381,302.53
1934.219,315.80
1935.057,371.73
1935.896,336.63
1936.735,309.37
1937.573,279.70
1938.411,303.23
1939.249,329.57
1940.089,280.90
1940.927,344.77
1941.764,333.70
1942.602,333.70
1943.439,323.63
1944.278,300.60
1945.115,304.40
1945.953,316.80
1946.790,333.43
1947.628,321.07
1948.465,340.03
1949.302,354.00
1950.139,291.27
1950.976,342.00
1951.814,304.03
1952.651,344.53
1953.487,287.97
1954.323,323.50
1955.160,342.13
1955.998,324.17
1956.834,280.73
1957.670,311.43
1958.506,348.13
1959.342,324.23
1960.177,328.60
1961.015,314.23
1961.850,367.00
1962.686,337.30
1963.521,318.20
1964.357,254.57
1965.192,360.10
1966.029,352.93
1966.864,325.17
1967.699,316.27
1968.534,308.87
1969.369,303.20
1970.204,318.80
1971.040,286.80
1971.875,316.27
1972.709,310.83
1973.544,314.07
1974.378,327.77
1975.212,314.07
1976.047,332.60
1976.882,316.00
1977.716,283.40
1978.550,314.23
1979.384,351.20
1980.218,329.23
1981.052,358.70
1981.885,315.37
1982.719,308.70
1983.554,351.33
1984.388,324.37
1985.221,317.53
1986.054,334.77
1986.887,299.77
1987.720,338.70
1988.553,303.97
1989.386,282.50
1990.219,370.23
1991.053,303.37
1991.886,260.10
1992.719,316.90
1993.551,333.27
1994.383,331.17
1995.216,300.80
1996.048,309.20
1996.880,336.10
1997.712,306.87
1998.544,340.53
1999.376,308.27
2000.208,305.53
2001.040,315.37
2001.873,284.17
2002.705,338.50
2003.536,315.47
2004.367,295.77
2005.199,287.67
2006.030,304.27
2006.861,314.40
2007.692,301.43
2008.523,306.63
2009.354,337.17
2010.185,309.60
2011.016,306.33
2011.846,292.47
2012.677,341.97
2013.507,319.57
2014.338,275.27
2015.168,315.47
2015.999,323.57
2016.829,327.47
2017.659,290.50
2018.489,308.63
2019.319,305.53
2020.149,276.77
2020.980,327.17
2021.810,290.90
2022.639,291.27
2023.469,297.07
2024.298,366.43
2025.128,309.23
2025.957,301.67
2026.786,314.17
2027.615,297.77
2028.444,318.90
2029.273,302.93
2030.102,345.60
2030.931,317.10
2031.758,328.40
2032.586,348.07
2033.415,322.07
2034.243,321.10
2035.072,316.27
2035.900,300.93
2036.728,346.80
2037.556,321.07
2038.385,310.30
2039.213,313.37
2040.040,316.40
2040.868,335.20
2041.696,319.60
2042.524,259.77
2043.351,302.93
2044.179,345.07
2045.006,314.60
2045.006,314.60

Max Intensity Wave.,220.959
Max Intensity Data,4787.30
Min Intensity Wave.,1964.357
Min Intensity Data,254.57
FWHM Wave.,409.361
FWHM Value,0.87
Pressure Wave.,685.762
Pressure Value [GPa],-22.07072
G/D Ratio,0.58193
G/D Gband Wave.,1553.900
G/D Gband Intensity,495.18
G/D Dband Wave.,1306.023
G/D Dband Intensity,850.92

<< BACKGROUND SPECTRUM >>
Wave[dcm-1],No104
146.591,2230.00
147.626,2122.00
148.664,2027.00
149.699,2541.00
150.737,2287.00
151.772,2396.00
152.809,2429.00
153.846,2295.00
154.881,2423.00
155.918,1963.00
156.953,2276.00
157.989,2650.00
159.026,2491.00
160.060,2642.00
161.096,2838.00
162.130,2489.00
163.167,2569.00
164.200,2478.00
165.236,2656.00
166.272,2668.00
167.305,2270.00
168.341,2570.00
169.374,2784.00
170.409,2769.00
171.445,2700.00
172.477,2549.00
173.512,2404.00
174.545,2732.00
175.580,2879.00
176.614,3028.00
177.647,2795.00
178.681,3065.00
179.713,3368.00
180.747,2815.00
181.781,2717.00
182.813,3003.00
183.847,3106.00
184.878,2785.00
185.912,3030.00
186.945,3143.00
187.976,3091.00
189.010,2704.00
190.043,2878.00
191.073,2948.00
192.106,2731.00
193.137,3211.00
194.170,2557.00
195.202,2952.00
196.232,2697.00
197.265,2986.00
198.297,3046.00
199.327,2802.00
200.359,2965.00
201.388,3310.00
202.420,2873.00
203.452,3085.00
204.481,2676.00
205.512,3346.00
206.544,3089.00
207.573,3022.00
208.604,3402.00
209.635,3508.00
210.663,2952.00
211.694,2931.00
212.725,2848.00
213.753,2772.00
214.783,3372.00
215.813,3249.00
216.841,2995.00
217.871,3180.00
218.899,2913.00
219.929,3153.00
220.959,2879.00
221.986,3183.00
223.016,2748.00
224.045,3178.00
225.072,3166.00
226.101,3226.00
227.130,3207.00
228.157,2832.00
229.185,2360.00
230.214,3188.00
231.241,2817.00
232.269,2510.00
233.297,2729.00
234.323,3224.00
235.351,2829.00
236.379,3090.00
237.407,2772.00
238.433,2942.00
239.460,3125.00
240.488,3111.00
241.513,3208.00
242.540,3141.00
243.568,3200.00
244.592,3238.00
245.619,3199.00
246.646,2924.00
247.671,2946.00
248.697,2824.00
249.724,3009.00
250.748,3023.00
251.774,2985.00
252.801,3333.00
253.827,3096.00
254.850,3118.00
255.876,2678.00
256.902,3130.00
257.925,2987.00
258.951,2764.00
259.976,2745.00
260.999,3065.00
262.024,2809.00
263.049,3594.00
264.074,3124.00
265.097,3019.00
266.122,3074.00
267.146,3015.00
268.168,3241.00
269.193,2897.00
270.217,3230.00
271.241,2741.00
272.263,2890.00
273.287,3223.00
274.311,2790.00
275.332,3260.00
276.356,2835.00
277.379,3132.00
278.402,3106.00
279.424,2888.00
280.447,2901.00
281.470,2711.00
282.492,3097.00
283.513,2921.00
284.536,3188.00
285.558,3119.00
286.581,3099.00
287.601,2886.00
288.623,2786.00
289.645,3056.00
290.665,3134.00
291.687,3123.00
292.709,3112.00
293.730,3408.00
294.750,2909.00
295.771,2765.00
296.792,3034.00
297.813,2940.00
298.832,3029.00
299.853,2731.00
300.874,2967.00
301.895,2985.00
302.913,2972.00
303.934,3258.00
304.954,3010.00
305.975,4182.00
306.993,2750.00
308.013,3128.00
309.033,3000.00
310.052,2969.00
311.072,2900.00
312.090,3020.00
313.109,3256.00
314.129,3441.00
315.148,2999.00
316.165,3065.00
317.184,3217.00
318.203,2800.00
319.222,2730.00
320.238,3123.00
321.257,2854.00
322.275,2671.00
323.294,2972.00
324.312,3140.00
325.328,3287.00
326.346,3300.00
327.364,3262.00
328.382,3212.00
329.397,3133.00
330.415,3271.00
331.432,3229.00
332.450,3244.00
333.467,3504.00
334.482,2574.00
335.499,3386.00
336.516,2867.00
337.533,2585.00
338.547,2869.00
339.564,2853.00
340.580,3053.00
341.597,2979.00
342.613,3395.00
343.627,2954.00
344.643,3026.00
345.659,3119.00
346.675,2959.00
347.690,2914.00
348.704,3104.00
349.719,2868.00
350.735,2782.00
351.750,3199.00
352.765,3077.00
353.778,3029.00
354.793,3121.00
355.808,2845.00
356.822,3179.00
357.837,2650.00
358.851,3250.00
359.864,2994.00
360.878,2795.00
361.892,2958.00
362.906,3172.00
363.920,2621.00
364.932,3152.00
365.945,3110.00
366.959,3013.00
367.972,2948.00
368.986,2715.00
369.999,3364.00
371.010,2864.00
372.023,3371.00
373.036,2981.00
374.049,3403.00
375.061,3048.00
376.072,2972.00
377.084,2887.00
378.097,2710.00
379.109,3186.00
380.121,3001.00
381.133,2684.00
382.143,3122.00
383.155,2768.00
384.166,2893.00
385.178,3103.00
386.189,3216.00
387.201,2744.00
388.212,2924.00
389.221,2930.00
390.232,3023.00
391.243,2961.00
392.254,2996.00
393.264,2840.00
394.275,3249.00
395.283,3167.00
396.294,3559.00
397.304,3453.00
398.314,3117.00
399.324,3051.00
400.334,2686.00
401.344,3222.00
402.351,2655.00
403.361,3223.00
404.370,2955.00
405.380,2881.00
406.389,3348.00
407.398,3138.00
408.407,3078.00
409.414,3162.00
410.423,3346.00
411.431,2809.00
412.440,2681.00
413.448,3329.00
414.457,2900.00
415.465,2829.00
416.471,2891.00
417.479,3047.00
418.487,2806.00
419.495,3301.00
420.503,3107.00
421.510,2594.00
422.518,3179.00
423.525,3217.00
424.530,3418.00
425.537,2870.00
426.544,3212.00
427.551,2846.00
428.558,3610.00
429.565,3448.00
430.571,2900.00
431.578,2909.00
432.582,2909.00
433.588,2965.00
434.595,2616.00
435.601,3304.00
436.607,3231.00
437.612,2794.00
438.618,3318.00
439.624,2916.00
440.627,2976.00
441.633,3102.00
442.638,3620.00
443.643,3113.00
444.648,3060.00
445.653,3204.00
446.658,2912.00
447.663,3048.00
448.667,2834.00
449.672,2889.00
450.674,3009.00
451.678,2701.00
452.682,2856.00
453.687,2860.00
454.690,3602.00
455.694,3279.00
456.698,2606.00
457.702,2652.00
458.705,2793.00
459.709,2833.00
460.710,2915.00
461.713,3013.00
462.716,3020.00
463.719,2994.00
464.722,3198.00
465.725,2967.00
466.727,2839.00
467.730,3037.00
468.732,2785.00
469.735,3356.00
470.737,2918.00
471.737,2894.00
472.739,2879.00
473.741,2795.00
474.742,3060.00
475.744,3057.00
476.746,2989.00
477.747,2923.00
478.748,3170.00
479.750,2940.00
480.751,3027.00
481.752,3747.00
482.753,3087.00
483.751,3521.00
484.752,2613.00
485.753,2959.00
486.753,2839.00
487.753,3022.00
488.754,3410.00
489.754,2726.00
490.754,3282.00
491.754,3122.00
492.754,2676.00
493.753,2996.00
494.753,2905.00
495.752,3337.00
496.752,3057.00
497.749,3005.00
498.748,2857.00
499.747,3406.00
500.746,3095.00
501.745,2787.00
502.744,2786.00
503.742,3322.00
504.741,2960.00
505.739,2490.00
506.737,2894.00
507.735,3168.00
508.734,3348.00
509.732,3148.00
510.729,3380.00
511.727,2864.00
512.725,2909.00
513.720,2769.00
514.718,3265.00
515.715,2684.00
516.712,2600.00
517.709,2994.00
518.706,2903.00
519.703,3022.00
520.700,3196.00
521.696,3349.00
522.693,2932.00
523.689,2834.00
524.686,3184.00
525.682,2808.00
526.678,3482.00
527.674,2917.00
528.670,2573.00
529.666,3489.00
530.661,3444.00
531.657,3620.00
532.652,3166.00
533.648,3019.00
534.641,3215.00
535.636,3125.00
536.631,3072.00
537.626,3177.00
538.621,2751.00
539.616,2602.00
540.610,2518.00
541.605,3028.00
542.599,3071.00
543.593,3014.00
544.587,3917.00
545.581,2832.00
546.575,3076.00
547.569,3014.00
548.563,2705.00
549.557,2651.00
550.550,2765.00
551.543,2744.00
552.537,3117.00
553.530,2771.00
554.523,2794.00
555.516,3154.00
556.509,2928.00
557.502,2655.00
558.494,3170.00
559.487,2912.00
560.479,3209.00
561.472,3221.00
562.464,3122.00
563.456,3293.00
564.448,2936.00
565.440,2963.00
566.432,3366.00
567.423,2880.00
568.415,2894.00
569.404,3108.00
570.396,2791.00
571.387,3137.00
572.378,3065.00
573.369,3921.00
574.360,3689.00
575.351,2951.00
576.341,2862.00
577.332,2879.00
578.323,2695.00
579.313,2923.00
580.303,3278.00
581.293,3116.00
582.283,3015.00
583.273,3123.00
584.263,3007.00
585.253,3053.00
586.243,3141.00
587.232,2626.00
588.222,2971.00
589.211,3190.00
590.200,3042.00
591.189,2994.00
592.178,2969.00
593.167,3419.00
594.156,3265.00
595.145,2873.00
596.133,3465.00
597.122,3095.00
598.110,3239.00
599.098,3075.00
600.086,2991.00
601.074,3166.00
602.062,2847.00
603.050,2727.00
604.038,3078.00
605.025,2810.00
606.013,3176.00
607.000,3414.00
607.987,3002.00
608.975,3052.00
609.962,2800.00
610.949,3128.00
611.936,3269.00
612.922,3168.00
613.909,2705.00
614.895,3352.00
615.882,2865.00
616.868,3027.00
617.854,2788.00
618.841,3019.00
619.826,3125.00
620.812,3018.00
621.798,2763.00
622.784,3165.00
623.769,3106.00
624.755,2723.00
625.740,3052.00
626.725,2686.00
627.711,2843.00
628.698,3077.00
629.683,2779.00
630.667,3148.00
631.652,2768.00
632.637,2958.00
633.621,3179.00
634.606,2963.00
635.590,3113.00
636.574,2965.00
637.558,3036.00
638.542,3075.00
639.526,2890.00
640.510,2638.00
641.493,3039.00
642.477,2993.00
643.460,2714.00
644.444,3261.00
645.427,3276.00
646.410,2690.00
647.393,2975.00
648.376,3073.00
649.359,2898.00
650.341,3108.00
651.324,3096.00
652.307,3066.00
653.289,2954.00
654.271,2848.00
655.253,2905.00
656.235,3117.00
657.217,3237.00
658.199,2641.00
659.181,2741.00
660.163,2963.00
661.144,2919.00
662.126,2922.00
663.107,2799.00
664.088,4726.00
665.069,3267.00
666.050,2823.00
667.033,2740.00
668.014,3054.00
668.995,2545.00
669.975,3011.00
670.956,3023.00
671.936,3121.00
672.916,2929.00
673.896,3102.00
674.876,2918.00
675.856,2842.00
676.836,2719.00
677.816,2319.00
678.795,2833.00
679.775,2689.00
680.754,3037.00
681.734,3147.00
682.713,3167.00
683.692,2763.00
684.671,2647.00
685.650,2735.00
686.629,2846.00
687.607,2755.00
688.586,2810.00
689.564,2886.00
690.543,3259.00
691.523,2405.00
692.501,2827.00
693.479,2913.00
694.457,2777.00
695.435,2859.00
696.413,2663.00
697.390,2523.00
698.368,2678.00
699.345,3066.00
700.322,2946.00
701.300,3082.00
702.277,3050.00
703.254,3264.00
704.231,2580.00
705.207,2952.00
706.184,2760.00
707.161,2680.00
708.137,2824.00
709.113,2792.00
710.090,2784.00
711.068,2557.00
712.044,2632.00
713.020,2889.00
713.996,2604.00
714.971,2776.00
715.947,2851.00
716.922,2828.00
717.898,2718.00
718.873,2857.00
719.848,2716.00
720.823,2702.00
721.798,2993.00
722.773,2745.00
723.748,2539.00
724.723,3012.00
725.697,2852.00
726.672,2754.00
727.646,2491.00
728.622,2995.00
729.596,2613.00
730.570,2716.00
731.544,3112.00
732.518,3250.00
733.492,2851.00
734.466,2871.00
735.439,3008.00
736.413,3124.00
737.386,2485.00
738.359,2415.00
739.332,2535.00
740.305,2865.00
741.278,3324.00
742.251,2942.00
743.224,2727.00
744.196,2543.00
745.171,3119.00
746.143,3037.00
747.115,2761.00
748.087,2699.00
749.059,3118.00
750.031,2890.00
751.003,3702.00
751.975,3246.00
752.947,2694.00
753.918,3116.00
754.890,2569.00
755.861,2749.00
756.832,3057.00
757.803,2805.00
758.774,2841.00
759.747,2582.00
760.718,3202.00
761.689,2719.00
762.659,2606.00
763.630,3158.00
764.600,2553.00
765.570,3037.00
766.540,3123.00
767.510,2921.00
768.480,3037.00
769.450,2699.00
770.420,2795.00
771.390,2655.00
772.359,2751.00
773.329,2702.00
774.300,2514.00
775.269,2762.00
776.238,2987.00
777.207,3135.00
778.176,2505.00
779.145,2789.00
780.114,2685.00
781.083,2555.00
782.051,2731.00
783.019,2687.00
783.988,3030.00
784.956,2822.00
785.924,2963.00
786.894,2895.00
787.862,2671.00
788.830,3109.00
789.797,2593.00
790.765,2575.00
791.732,2783.00
792.700,2651.00
793.667,2595.00
794.634,2759.00
795.601,2707.00
796.568,2855.00
797.535,2838.00
798.502,3402.00
799.468,2882.00
800.437,2418.00
801.403,2662.00
802.370,3300.00
803.336,2992.00
804.302,2856.00
805.268,2448.00
806.234,2552.00
807.200,2740.00
808.166,2789.00
809.131,2541.00
810.097,2968.00
811.062,3673.00
812.027,2985.00
812.994,2590.00
813.960,2595.00
814.925,2917.00
815.889,2530.00
816.854,3067.00
817.819,2645.00
818.783,2710.00
819.748,3087.00
820.712,2753.00
821.677,2575.00
822.641,2710.00
823.605,2692.00
824.571,3174.00
825.534,2751.00
826.498,2663.00
827.462,2809.00
828.425,2640.00
829.389,3012.00
830.352,2802.00
831.315,2875.00
832.279,2518.00
833.242,2740.00
834.204,2660.00
835.167,2664.00
836.132,3066.00
837.095,2509.00
838.057,2676.00
839.020,2776.00
839.982,2836.00
840.944,2652.00
841.906,2618.00
842.868,2925.00
843.830,2536.00
844.792,3036.00
845.753,2653.00
846.715,2417.00
847.679,2603.00
848.640,2620.00
849.601,2749.00
850.562,3231.00
851.523,2746.00
852.484,2466.00
853.445,3020.00
854.406,2707.00
855.367,2730.00
856.327,3033.00
857.288,2488.00
858.248,2633.00
859.210,2658.00
860.170,2549.00
861.130,3027.00
862.090,2421.00
863.050,2582.00
864.010,2692.00
864.969,2882.00
865.929,2603.00
866.888,2558.00
867.848,2829.00
868.807,2644.00
869.766,2860.00
870.727,2691.00
871.686,3008.00
872.645,2983.00
873.604,3277.00
874.562,2748.00
875.521,2782.00
876.479,3356.00
877.437,2611.00
878.396,2574.00
879.354,3165.00
880.312,2609.00
881.270,2657.00
882.229,3119.00
883.187,2604.00
884.145,2643.00
885.102,2919.00
886.059,2826.00
887.017,2890.00
887.974,2964.00
888.931,3075.00
889.888,2518.00
890.845,2405.00
891.802,2353.00
892.758,2625.00
893.717,2422.00
894.673,2553.00
895.630,2630.00
896.586,2898.00
897.542,2643.00
898.498,2521.00
899.454,2867.00
900.410,2684.00
901.366,2645.00
902.321,3782.00
903.277,2714.00
904.232,2747.00
905.189,2500.00
906.145,2646.00
907.100,2196.00
908.055,2708.00
909.010,2914.00
909.965,2325.00
910.919,2797.00
911.874,2529.00
912.828,2777.00
913.783,2808.00
914.737,2339.00
915.693,2763.00
916.648,2902.00
917.602,2922.00
918.555,2785.00
919.509,2839.00
920.463,2759.00
921.417,2733.00
922.370,2581.00
923.324,2651.00
924.277,2682.00
925.230,2795.00
926.183,2406.00
927.138,2679.00
928.091,2935.00
929.044,2825.00
929.996,2634.00
930.949,2624.00
931.902,2862.00
932.854,2855.00
933.806,2602.00
934.758,2960.00
935.711,3005.00
936.663,2796.00
937.614,2783.00
938.568,2721.00
939.520,2396.00
940.471,2710.00
941.423,2788.00
942.374,2890.00
943.326,2714.00
944.277,2596.00
945.228,2840.00
946.179,2720.00
947.130,3084.00
948.080,2669.00
949.031,2544.00
949.984,2689.00
950.934,2705.00
951.884,2480.00
952.835,2683.00
953.785,2756.00
954.735,2627.00
955.685,2362.00
956.635,2608.00
957.585,2618.00
958.534,2637.00
959.484,2738.00
960.433,2557.00
961.383,2465.00
962.334,2936.00
963.283,2778.00
964.232,2848.00
965.181,2711.00
966.130,2763.00
967.079,2633.00
968.027,2680.00
968.976,2740.00
969.924,2626.00
970.873,2803.00
971.821,2770.00
972.769,2913.00
973.719,2857.00
974.667,2476.00
975.615,2730.00
976.562,2725.00
977.510,2439.00
978.458,2614.00
979.405,2796.00
980.352,2740.00
981.300,3003.00
982.247,2786.00
983.194,2537.00
984.141,2665.00
985.088,2688.00
986.036,2782.00
986.983,2992.00
987.930,3099.00
988.876,2382.00
989.822,2992.00
990.769,2577.00
991.715,2617.00
992.661,2431.00
993.607,2792.00
994.553,3273.00
995.498,2602.00
996.444,2326.00
997.389,2763.00
998.337,2549.00
999.282,2863.00
1000.227,2649.00
1001.173,2733.00
1002.118,2458.00
1003.062,2882.00
1004.007,2670.00
1004.952,3014.00
1005.897,2935.00
1006.841,2676.00
1007.786,2416.00
1008.730,2428.00
1009.674,3117.00
1010.618,2667.00
1011.564,2540.00
1012.508,2428.00
1013.452,2936.00
1014.396,2738.00
1015.339,2578.00
1016.283,2692.00
1017.226,2757.00
1018.170,2704.00
1019.113,2925.00
1020.056,2704.00
1020.999,2688.00
1021.942,2583.00
1022.885,2860.00
1023.828,3050.00
1024.770,2509.00
1025.715,2745.00
1026.657,2695.00
1027.600,2760.00
1028.542,2900.00
1029.484,2747.00
1030.426,2807.00
1031.368,2783.00
1032.310,2576.00
1033.251,2521.00
1034.193,2699.00
1035.135,2475.00
1036.076,2642.00
1037.017,2560.00
1037.959,2838.00
1038.900,2771.00
1039.843,2799.00
1040.784,2772.00
1041.725,2780.00
1042.665,2613.00
1043.606,2743.00
1044.547,2727.00
1045.487,2409.00
1046.427,2676.00
1047.368,2754.00
1048.308,2239.00
1049.248,2546.00
1050.188,2706.00
1051.128,2596.00
1052.067,2701.00
1053.007,2398.00
1053.947,2380.00
1054.886,2525.00
1055.827,2465.00
1056.766,2950.00
1057.706,2449.00
1058.645,2661.00
1059.584,2759.00
1060.522,3026.00
1061.461,2428.00
1062.400,2483.00
1063.338,2674.00
1064.277,2515.00
1065.215,2500.00
1066.154,2400.00
1067.092,2619.00
1068.030,2620.00
1068.968,2842.00
1069.906,3052.00
1070.843,2953.00
1071.781,2770.00
1072.720,2809.00
1073.658,2824.00
1074.595,2609.00
1075.533,2551.00
1076.470,2597.00
1077.407,2990.00
1078.344,2725.00
1079.281,2811.00
1080.217,2315.00
1081.154,2647.00
1082.091,2745.00
1083.027,2459.00
1083.964,2890.00
1084.900,2554.00
1085.836,2651.00
1086.772,2891.00
1087.708,2474.00
1088.644,2852.00
1089.580,2668.00
1090.515,2750.00
1091.451,2615.00
1092.388,2685.00
1093.324,2457.00
1094.259,3245.00
1095.194,2736.00
1096.129,2627.00
1097.064,2578.00
1097.999,2838.00
1098.934,2551.00
1099.869,2508.00
1100.803,2735.00
1101.738,2705.00
1102.672,2384.00
1103.607,2795.00
1104.541,2565.00
1105.475,2534.00
1106.409,2447.00
1107.343,2624.00
1108.277,2431.00
1109.210,2687.00
1110.144,2680.00
1111.078,2654.00
1112.011,2428.00
1112.944,2755.00
1113.878,2735.00
1114.811,2196.00
1115.744,2553.00
1116.678,2325.00
1117.611,2574.00
1118.544,2562.00
1119.477,2709.00
1120.409,2527.00
1121.342,3119.00
1122.274,2741.00
1123.206,3032.00
1124.138,2687.00
1125.070,2923.00
1126.002,2831.00
1126.934,2247.00
1127.866,2569.00
1128.798,2358.00
1129.729,2363.00
1130.661,2646.00
1131.592,2546.00
1132.523,2723.00
1133.454,2761.00
1134.385,2291.00
1135.317,2624.00
1136.247,2601.00
1137.178,2847.00
1138.109,2351.00
1139.039,3003.00
1139.970,2789.00
1140.900,2590.00
1141.831,2354.00
1142.761,2215.00
1143.691,3182.00
1144.621,2650.00
1145.551,2717.00
1146.480,2685.00
1147.410,2810.00
1148.340,2317.00
1149.269,2397.00
1150.199,2582.00
1151.128,2999.00
1152.057,2456.00
1152.979,2582.00
1153.898,2594.00
1154.819,2725.00
1155.739,2630.00
1156.658,2540.00
1157.579,2657.00
1158.498,2613.00
1159.419,2174.00
1160.338,2697.00
1161.256,2725.00
1162.177,2486.00
1163.095,2607.00
1164.016,2704.00
1164.934,2903.00
1165.852,2823.00
1166.772,2613.00
1167.690,2630.00
1168.610,2697.00
1169.528,2671.00
1170.446,2203.00
1171.365,2551.00
1172.283,2473.00
1173.202,2610.00
1174.120,2667.00
1175.037,2498.00
1175.956,2459.00
1176.873,2510.00
1177.792,2544.00
1178.709,3102.00
1179.626,2521.00
1180.544,2838.00
1181.461,2488.00
1182.379,2772.00
1183.296,2596.00
1184.212,2302.00
1185.130,2473.00
1186.046,3008.00
1186.962,2637.00
1187.880,2929.00
1188.796,2680.00
1189.714,2455.00
1190.629,2724.00
1191.545,2686.00
1192.462,2531.00
1193.378,2588.00
1194.295,2334.00
1195.210,2657.00
1196.125,2781.00
1197.042,2710.00
1197.957,2656.00
1198.872,2497.00
1199.788,2535.00
1200.703,2943.00
1201.619,2656.00
1202.534,2521.00
1203.448,2702.00
1204.364,2575.00
1205.278,2298.00
1206.192,2649.00
1207.108,3146.00
1208.022,3004.00
1208.938,2482.00
1209.851,2784.00
1210.765,2874.00
1211.680,2509.00
1212.594,2424.00
1213.507,2585.00
1214.422,2996.00
1215.335,2736.00
1216.248,2554.00
1217.163,2621.00
1218.076,3214.00
1218.990,2732.00
1219.903,2424.00
1220.816,2465.00
1221.730,2618.00
1222.642,2500.00
1223.554,2493.00
1224.469,2677.00
1225.380,2610.00
1226.292,2292.00
1227.206,2801.00
1228.118,2951.00
1229.032,2258.00
1229.943,2468.00
1230.855,2564.00
1231.768,2383.00
1232.679,2719.00
1233.590,2613.00
1234.503,2837.00
1235.414,2532.00
1236.325,2519.00
1237.238,2698.00
1238.149,2735.00
1239.059,2442.00
1239.972,2800.00
1240.882,2438.00
1241.793,2761.00
1242.705,2943.00
1243.615,2576.00
1244.525,2740.00
1245.437,2196.00
1246.347,2654.00
1247.259,2822.00
1248.168,3081.00
1249.078,2845.00
1249.989,2908.00
1250.899,2445.00
1251.808,2500.00
1252.719,2591.00
1253.628,2466.00
1254.537,3012.00
1255.448,2443.00
1256.357,2460.00
1257.266,2618.00
1258.176,2372.00
1259.085,2372.00
1259.993,2463.00
1260.904,2424.00
1261.812,2441.00
1262.720,3176.00
1263.630,2773.00
1264.538,2459.00
1265.446,2704.00
1266.356,2578.00
1267.263,2952.00
1268.171,2427.00
1269.080,2663.00
1269.988,2801.00
1270.895,2533.00
1271.804,2589.00
1272.711,2806.00
1273.619,2771.00
1274.527,2462.00
1275.434,2714.00
1276.341,2406.00
1277.248,2701.00
1278.156,2898.00
1279.063,2509.00
1279.969,2724.00
1280.877,3521.00
1281.783,2814.00
1282.690,2728.00
1283.598,2590.00
1284.503,2508.00
1285.409,2487.00
1286.317,2980.00
1287.223,2988.00
1288.128,2704.00
1289.036,2533.00
1289.941,2559.00
1290.846,2652.00
1291.751,2509.00
1292.658,2533.00
1293.563,3058.00
1294.468,2619.00
1295.375,2760.00
1296.280,2830.00
1297.184,3362.00
1298.091,2725.00
1298.995,2755.00
1299.900,3024.00
1300.806,2528.00
1301.710,2373.00
1302.614,2187.00
1303.518,2902.00
1304.424,2576.00
1305.327,2796.00
1306.231,2583.00
1307.137,2779.00
1308.040,2676.00
1308.943,2652.00
1309.847,2812.00
1310.752,2827.00
1311.655,2282.00
1312.558,2392.00
1313.463,2544.00
1314.366,2508.00
1315.269,2634.00
1316.171,2581.00
1317.076,2480.00
1317.978,2441.00
1318.881,2228.00
1319.785,2481.00
1320.687,2491.00
1321.589,2268.00
1322.491,2466.00
1323.395,2668.00
1324.297,3154.00
1325.198,2762.00
1326.102,2409.00
1327.004,2445.00
1327.905,3021.00
1328.806,2569.00
1329.709,2677.00
1330.611,2546.00
1331.512,2454.00
1332.413,3054.00
1333.316,2670.00
1334.216,2751.00
1335.117,2385.00
1336.020,2621.00
1336.920,2636.00
1337.821,2488.00
1338.721,2859.00
1339.623,2667.00
1340.523,2590.00
1341.423,2492.00
1342.323,2881.00
1343.225,2722.00
1344.125,2475.00
1345.025,2496.00
1345.924,2301.00
1346.826,2950.00
1347.725,3045.00
1348.624,2875.00
1349.524,2488.00
1350.425,2591.00
1351.324,2745.00
1352.223,2810.00
1353.121,2618.00
1354.022,2808.00
1354.921,3007.00
1355.819,2739.00
1356.718,2664.00
1357.618,2381.00
1358.516,2725.00
1359.415,3047.00
1360.313,2710.00
1361.213,2613.00
1362.111,2895.00
1363.008,3243.00
1363.906,2602.00
1364.806,2649.00
1365.703,2710.00
1366.601,2478.00
1367.498,2446.00
1368.397,2828.00
1369.295,2679.00
1370.192,2460.00
1371.089,2720.00
1371.987,2588.00
1372.884,2876.00
1373.781,2410.00
1374.678,2653.00
1375.574,2469.00
1376.473,2741.00
1377.369,2869.00
1378.265,2469.00
1379.161,2602.00
1380.059,2347.00
1380.955,2715.00
1381.851,2414.00
1382.747,2526.00
1383.643,2585.00
1384.540,2414.00
1385.436,2534.00
1386.331,2716.00
1387.227,2752.00
1388.124,2755.00
1389.019,2461.00
1389.914,2605.00
1390.809,2296.00
1391.704,3053.00
1392.601,2526.00
1393.495,2935.00
1394.390,2790.00
1395.285,2893.00
1396.179,2690.00
1397.075,2624.00
1397.969,2687.00
1398.864,2316.00
1399.758,2598.00
1400.652,2685.00
1401.547,2453.00
1402.441,2418.00
1403.335,2957.00
1404.229,2792.00
1405.122,2683.00
1406.017,2647.00
1406.911,2765.00
1407.804,3022.00
1408.697,2644.00
1409.590,2462.00
1410.485,2806.00
1411.378,2702.00
1412.271,2312.00
1413.163,2689.00
1414.056,2800.00
1414.949,2993.00
1415.843,2669.00
1416.735,2573.00
1417.627,2655.00
1418.520,2604.00
1419.412,2838.00
1420.306,2803.00
1421.197,2915.00
1422.089,2859.00
1422.981,3105.00
1423.873,2841.00
1424.764,2746.00
1425.657,2671.00
1426.549,2754.00
1427.440,2838.00
1428.331,2535.00
1429.222,2316.00
1430.113,2679.00
1431.006,2832.00
1431.897,2573.00
1432.787,2634.00
1433.678,2581.00
1434.568,2458.00
1435.459,2908.00
1436.351,2842.00
1437.241,2784.00
1438.131,2774.00
1439.021,2420.00
1439.911,2624.00
1440.801,2733.00
1441.693,2873.00
1442.583,2648.00
1443.472,2629.00
1444.362,2765.00
1445.251,2598.00
1446.140,2559.00
1447.030,2796.00
1447.921,2842.00
1448.810,2486.00
1449.699,2981.00
1450.588,2682.00
1451.476,2553.00
1452.365,2761.00
1453.254,2549.00
1454.144,2519.00
1455.032,2756.00
1455.921,2387.00
1456.809,2926.00
1457.697,2427.00
1458.585,2586.00
1459.473,2629.00
1460.361,2454.00
1461.251,2697.00
1462.138,2722.00
1463.026,2628.00
1463.913,2875.00
1464.801,2565.00
1465.688,2754.00
1466.575,2665.00
1467.463,3056.00
1468.351,2534.00
1469.238,2602.00
1470.125,2257.00
1471.012,2675.00
1471.899,2764.00
1472.785,2504.00
1473.672,2677.00
1474.558,2858.00
1475.446,2778.00
1476.333,2781.00
1477.219,2461.00
1478.105,2618.00
1478.991,2612.00
1479.877,2885.00
1480.762,2651.00
1481.648,2526.00
1482.534,2756.00
1483.419,2713.00
1484.307,2771.00
1485.192,2639.00
1486.077,2501.00
1486.962,2485.00
1487.847,2394.00
1488.732,2515.00
1489.617,2674.00
1490.502,2907.00
1491.387,2782.00
1492.271,2464.00
1493.156,2507.00
1494.042,2457.00
1494.927,2827.00
1495.811,2609.00
1496.695,2824.00
1497.579,2942.00
1498.463,2647.00
1499.347,2722.00
1500.231,2675.00
1501.114,2752.00
1501.998,2940.00
1502.881,2695.00
1503.765,2949.00
1504.648,3075.00
1505.533,2733.00
1506.417,2685.00
1507.300,2623.00
1508.183,2735.00
1509.066,2139.00
1509.948,2878.00
1510.831,3011.00
1511.714,2446.00
1512.596,2790.00
1513.479,2874.00
1514.361,2857.00
1515.243,2614.00
1516.125,2804.00
1517.008,2941.00
1517.890,2652.00
1518.771,2695.00
1519.655,2880.00
1520.537,2604.00
1521.419,2502.00
1522.300,2708.00
1523.182,2815.00
1524.063,2793.00
1524.944,2904.00
1525.825,2813.00
1526.707,2485.00
1527.588,2462.00
1528.468,2739.00
1529.349,2389.00
1530.230,2562.00
1531.111,2827.00
1531.991,2668.00
1532.872,2354.00
1533.752,2642.00
1534.632,2541.00
1535.513,2499.00
1536.393,2812.00
1537.273,3028.00
1538.153,3284.00
1539.032,2386.00
1539.912,2683.00
1540.792,2652.00
1541.672,2697.00
1542.551,2736.00
1543.430,3249.00
1544.310,2690.00
1545.189,2544.00
1546.068,3083.00
1546.947,2729.00
1547.826,2962.00
1548.705,2661.00
1549.584,2868.00
1550.462,2654.00
1551.341,2799.00
1552.219,2729.00
1553.098,2782.00
1553.976,2820.00
1554.854,3072.00
1555.733,2847.00
1556.611,2566.00
1557.489,2456.00
1558.367,2636.00
1559.244,2805.00
1560.122,2663.00
1561.000,2713.00
1561.877,2965.00
1562.755,2484.00
1563.632,2643.00
1564.509,2886.00
1565.386,3038.00
1566.264,2418.00
1567.141,2313.00
1568.017,2790.00
1568.894,2656.00
1569.771,2720.00
1570.648,2768.00
1571.524,2691.00
1572.401,2425.00
1573.277,2456.00
1574.153,2741.00
1575.029,2520.00
1575.906,3383.00
1576.781,2826.00
1577.657,2600.00
1578.533,2918.00
1579.409,2317.00
1580.285,2615.00
1581.160,3096.00
1582.036,2845.00
1582.911,2493.00
1583.786,3042.00
1584.662,2462.00
1585.537,2597.00
1586.412,2735.00
1587.287,2475.00
1588.160,2888.00
1589.035,2333.00
1589.909,2682.00
1590.784,2635.00
1591.658,2458.00
1592.533,2737.00
1593.407,2675.00
1594.281,2584.00
1595.155,3094.00
1596.029,2573.00
1596.903,2623.00
1597.777,2562.00
1598.651,2956.00
1599.525,2356.00
1600.398,2699.00
1601.272,2646.00
1602.144,3212.00
1603.017,2624.00
1603.890,2940.00
1604.763,2730.00
1605.636,2813.00
1606.509,2361.00
1607.382,2532.00
1608.255,2745.00
1609.128,2873.00
1610.000,2611.00
1610.873,2359.00
1611.746,2580.00
1612.616,2635.00
1613.488,2294.00
1614.361,2706.00
1615.233,2611.00
1616.105,2861.00
1616.977,2631.00
1617.849,2481.00
1618.720,2973.00
1619.592,2966.00
1620.464,2734.00
1621.333,3150.00
1622.205,2670.00
1623.076,2619.00
1623.947,2677.00
1624.818,2921.00
1625.689,2812.00
1626.560,2564.00
1627.431,2719.00
1628.302,3070.00
1629.171,2783.00
1630.042,3013.00
1630.912,3284.00
1631.782,3239.00
1632.653,2517.00
1633.523,2811.00
1634.393,2939.00
1635.263,2572.00
1636.131,2670.00
1637.001,2591.00
1637.871,2294.00
1638.741,2318.00
1639.611,2413.00
1640.480,2812.00
1641.350,2547.00
1642.219,2488.00
1643.087,2181.00
1643.956,3078.00
1644.825,2920.00
1645.694,2887.00
1646.563,2848.00
1647.432,2735.00
1648.299,2696.00
1649.167,2808.00
1650.036,2514.00
1650.904,2796.00
1651.773,2898.00
1652.641,2693.00
1653.509,2816.00
1654.376,2560.00
1655.244,2689.00
1656.112,2732.00
1656.980,2635.00
1657.847,2560.00
1658.715,2844.00
1659.581,2618.00
1660.448,2917.00
1661.316,2234.00
1662.183,2713.00
1663.051,2729.00
1663.918,2717.00
1664.783,2691.00
1665.650,2736.00
1666.517,2814.00
1667.384,2715.00
1668.251,2735.00
1669.115,2898.00
1669.982,2644.00
1670.849,2976.00
1671.715,2619.00
1672.581,2819.00
1673.446,2777.00
1674.312,2701.00
1675.178,3112.00
1676.044,2770.00
1676.910,2799.00
1677.774,2711.00
1678.639,2342.00
1679.505,2688.00
1680.370,2824.00
1681.236,3311.00
1682.099,2646.00
1682.965,2709.00
1683.830,2265.00
1684.695,2508.00
1685.560,2611.00
1686.423,2801.00
1687.288,2783.00
1688.153,2722.00
1689.017,2629.00
1689.880,2779.00
1690.745,2839.00
1691.609,2502.00
1692.473,2828.00
1693.338,2915.00
1694.200,2950.00
1695.064,2694.00
1695.928,2589.00
1696.792,2705.00
1697.654,3175.00
1698.517,2713.00
1699.381,2457.00
1700.245,2366.00
1701.106,2946.00
1701.969,2582.00
1702.833,2834.00
1703.696,2575.00
1704.557,2652.00
1705.420,2552.00
1706.283,2704.00
1707.146,2808.00
1708.007,2486.00
1708.870,2460.00
1709.732,2349.00
1710.595,2596.00
1711.455,2480.00
1712.318,2625.00
1713.180,2929.00
1714.040,2703.00
1714.902,2829.00
1715.764,2692.00
1716.626,2482.00
1717.486,2679.00
1718.348,2938.00
1719.209,3986.00
1720.071,2349.00
1720.930,2440.00
1721.792,2519.00
1722.653,2552.00
1723.512,2581.00
1724.374,2674.00
1725.234,2764.00
1726.095,2682.00
1726.954,2685.00
1727.815,2839.00
1728.676,2637.00
1729.535,2892.00
1730.395,2644.00
1731.256,2663.00
1732.114,2735.00
1732.974,2187.00
1733.834,3065.00
1734.693,2865.00
1735.553,2683.00
1736.413,3063.00
1737.272,2582.00
1738.130,2630.00
1738.990,2759.00
1739.849,2547.00
1740.707,3683.00
1741.566,2717.00
1742.426,2728.00
1743.283,3051.00
1744.142,2602.00
1745.001,2362.00
1745.858,2874.00
1746.717,2765.00
1747.576,2815.00
1748.433,2864.00
1749.292,3253.00
1750.150,3273.00
1751.007,2863.00
1751.865,2910.00
1752.723,2713.00
1753.579,2639.00
1754.438,2918.00
1755.296,2919.00
1756.152,2249.00
1757.010,2410.00
1757.865,2871.00
1758.723,2340.00
1759.581,3011.00
1760.436,2647.00
1761.294,3032.00
1762.151,2679.00
1763.006,2597.00
1763.864,2339.00
1764.721,2879.00
1765.576,2704.00
1766.433,2846.00
1767.288,2594.00
1768.144,2734.00
1769.001,2662.00
1769.856,2817.00
1770.712,2904.00
1771.568,2456.00
1772.423,2621.00
1773.279,2625.00
1774.133,2594.00
1774.989,3133.00
1775.845,3052.00
1776.699,2934.00
1777.555,2663.00
1778.409,3229.00
1779.265,2630.00
1780.120,2680.00
1780.974,2653.00
1781.829,2322.00
1782.682,2763.00
1783.538,2477.00
1784.393,2748.00
1785.246,2571.00
1786.101,2793.00
1786.954,2819.00
1787.808,2918.00
1788.661,2424.00
1789.516,2618.00
1790.370,2615.00
1791.223,2890.00
1792.077,2677.00
1792.930,2788.00
1793.784,2552.00
1794.636,2711.00
1795.490,2637.00
1796.344,2702.00
1797.196,2700.00
1798.049,2868.00
1798.901,2614.00
1799.755,2930.00
1800.606,2509.00
1801.460,3177.00
1802.311,2996.00
1803.165,3072.00
1804.018,3049.00
1804.869,2758.00
1805.722,3131.00
1806.573,2733.00
1807.426,2508.00
1808.276,2639.00
1809.129,2588.00
1809.980,2903.00
1810.832,2974.00
1811.683,2620.00
1812.535,3038.00
1813.385,2628.00
1814.237,2963.00
1815.089,2753.00
1815.940,2936.00
1816.791,2649.00
1817.641,2556.00
1818.493,2835.00
1819.343,2766.00
1820.194,2581.00
1821.044,2794.00
1821.895,2936.00
1822.745,2451.00
1823.596,2629.00
1824.445,3091.00
1825.296,2817.00
1826.145,2704.00
1826.996,2911.00
1827.845,2723.00
1828.695,2731.00
1829.544,2699.00
1830.395,2760.00
1831.243,2655.00
1832.094,2438.00
1832.942,3291.00
1833.792,2826.00
1834.640,2757.00
1835.490,2711.00
1836.338,2792.00
1837.186,2582.00
1838.036,2565.00
1838.884,2723.00
1839.733,3026.00
1840.581,2912.00
1841.430,2853.00
1842.278,3023.00
1843.127,2603.00
1843.974,2385.00
1844.823,3109.00
1845.671,2855.00
1846.519,2743.00
1847.366,2774.00
1848.213,2403.00
1849.062,2539.00
1849.909,2434.00
1850.757,3307.00
1851.604,2828.00
1852.452,2630.00
1853.298,2902.00
1854.146,2744.00
1854.993,2743.00
1855.839,3240.00
1856.687,2796.00
1857.532,2792.00
1858.380,2685.00
1859.226,2766.00
1860.073,2872.00
1860.919,2540.00
1861.765,2593.00
1862.612,2938.00
1863.457,2900.00
1864.304,2669.00
1865.150,2812.00
1865.995,2678.00
1866.842,2809.00
1867.686,2924.00
1868.533,2795.00
1869.378,2781.00
1870.223,2744.00
1871.069,2622.00
1871.914,2729.00
1872.760,2675.00
1873.604,2507.00
1874.448,2904.00
1875.294,2896.00
1876.139,2603.00
1876.984,2875.00
1877.828,2391.00
1878.672,2236.00
1879.518,2601.00
1880.361,2874.00
1881.205,2847.00
1882.050,2490.00
1882.894,3212.00
1883.739,2594.00
1884.582,2489.00
1885.425,2510.00
1886.270,2961.00
1887.113,2468.00
1887.956,2812.00
1888.801,2786.00
1889.644,2524.00
1890.486,2326.00
1891.331,2669.00
1892.173,2745.00
1893.017,2816.00
1893.860,2985.00
1894.702,3009.00
1895.546,2723.00
1896.388,3390.00
1897.230,3025.00
1898.074,2619.00
1898.916,2446.00
1899.757,2574.00
1900.601,3413.00
1901.443,2999.00
1902.284,2986.00
1903.125,3160.00
1903.969,2948.00
1904.810,2943.00
1905.651,2774.00
1906.494,3045.00
1907.335,3177.00
1908.176,2857.00
1909.018,2806.00
1909.859,2656.00
1910.700,2570.00
1911.542,3239.00
1912.383,2806.00
1913.223,2352.00
1914.064,2848.00
1914.906,2976.00
1915.746,3102.00
1916.586,3172.00
1917.428,2705.00
1918.268,2744.00
1919.107,2592.00
1919.947,2496.00
1920.789,2661.00
1921.628,2922.00
1922.468,2696.00
1923.309,2572.00
1924.148,3029.00
1924.988,2779.00
1925.827,2720.00
1926.667,2616.00
1927.507,2777.00
1928.345,2522.00
1929.184,2902.00
1930.025,2548.00
1930.864,2977.00
1931.702,3055.00
1932.541,2636.00
1933.381,2872.00
1934.219,2892.00
1935.057,2983.00
1935.896,2439.00
1936.735,2717.00
1937.573,2668.00
1938.411,2541.00
1939.249,2890.00
1940.089,2667.00
1940.927,2946.00
1941.764,3004.00
1942.602,2642.00
1943.439,2633.00
1944.278,2723.00
1945.115,2688.00
1945.953,2485.00
1946.790,2792.00
1947.628,3091.00
1948.465,2819.00
1949.302,2849.00
1950.139,2886.00
1950.976,2592.00
1951.814,2919.00
1952.651,2770.00
1953.487,2571.00
1954.323,2976.00
1955.160,2693.00
1955.998,3095.00
1956.834,2756.00
1957.670,2803.00
1958.506,2928.00
1959.342,2826.00
1960.177,2782.00
1961.015,2876.00
1961.850,2739.00
1962.686,2769.00
1963.521,2781.00
1964.357,3073.00
1965.192,2485.00
1966.029,2858.00
1966.864,2655.00
1967.699,2962.00
1968.534,2786.00
1969.369,3011.00
1970.204,2692.00
1971.040,2807.00
1971.875,2676.00
1972.709,2784.00
1973.544,2578.00
1974.378,2628.00
1975.212,2859.00
1976.047,2636.00
1976.882,2612.00
1977.716,3176.00
1978.550,2460.00
1979.384,2663.00
1980.218,2689.00
1981.052,2637.00
1981.885,2776.00
1982.719,2765.00
1983.554,2859.00
1984.388,3050.00
1985.221,2823.00
1986.054,2981.00
1986.887,2815.00
1987.720,2555.00
1988.553,3068.00
1989.386,2870.00
1990.219,2827.00
1991.053,3055.00
1991.886,2670.00
1992.719,2944.00
1993.551,2268.00
1994.383,2883.00
1995.216,2687.00
1996.048,2476.00
1996.880,2892.00
1997.712,2628.00
1998.544,2711.00
1999.376,2831.00
2000.208,3040.00
2001.040,3189.00
2001.873,2601.00
2002.705,2555.00
2003.536,2803.00
2004.367,2809.00
2005.199,2818.00
2006.030,2651.00
2006.861,2563.00
2007.692,2774.00
2008.523,2615.00
2009.354,2772.00
2010.185,2567.00
2011.016,2895.00
2011.846,2980.00
2012.677,2666.00
2013.507,3096.00
2014.338,3007.00
2015.168,2666.00
2015.999,3260.00
2016.829,2680.00
2017.659,2989.00
2018.489,3271.00
2019.319,2584.00
2020.149,2969.00
2020.980,2776.00
2021.810,2586.00
2022.639,2663.00
2023.469,2656.00
2024.298,2402.00
2025.128,2381.00
2025.957,2401.00
2026.786,2210.00
2027.615,2425.00
2028.444,2600.00
2029.273,2794.00
2030.102,2338.00
2030.931,2608.00
2031.758,2874.00
2032.586,2517.00
2033.415,2617.00
2034.243,2229.00
2035.072,2029.00
2035.900,2524.00
2036.728,2306.00
2037.556,2370.00
2038.385,2398.00
2039.213,2202.00
2040.040,2193.00
2040.868,2136.00
2041.696,2209.00
2042.524,2280.00
2043.351,2436.00
2044.179,2186.00
2045.006,2017.00
