RamanScope Measure Spectrum Data V3.72

<< MEASURE CONDITION >>
Exposure Type,Aver
Exposure Time [sec],15
Exposure Count,30
Measure Time,2023/07/12 12:24:11
Data Name,""
Data Comment,""
Rayleigh Wave[nm],532.0

<< SAMPLE SPECTRUM >>
Wave[dcm-1],No19
146.591,858.23
147.626,973.70
148.664,1146.57
149.699,1299.63
150.737,1474.90
151.772,1649.23
152.809,1780.93
153.846,1915.30
154.881,2052.60
155.918,2138.17
156.953,2266.10
157.989,2329.43
159.026,2418.43
160.060,2456.43
161.096,2467.17
162.130,2569.90
163.167,2559.53
164.200,2592.20
165.236,2652.07
166.272,2643.20
167.305,2719.27
168.341,2765.70
169.374,2793.97
170.409,2846.90
171.445,2935.43
172.477,2980.07
173.512,3002.07
174.545,3011.40
175.580,3064.30
176.614,3097.17
177.647,3051.83
178.681,3076.17
179.713,3046.13
180.747,3024.90
181.781,3004.67
182.813,2986.10
183.847,3002.00
184.878,2981.90
185.912,3006.20
186.945,3000.97
187.976,3062.80
189.010,3030.20
190.043,3092.23
191.073,3078.87
192.106,3124.87
193.137,3135.37
194.170,3213.03
195.202,3229.03
196.232,3258.40
197.265,3327.67
198.297,3404.23
199.327,3407.80
200.359,3477.27
201.388,3579.13
202.420,3650.63
203.452,3747.57
204.481,3805.50
205.512,3911.90
206.544,4084.53
207.573,4172.77
208.604,4274.40
209.635,4475.47
210.663,4714.07
211.694,4915.73
212.725,5051.30
213.753,5262.00
214.783,5410.53
215.813,5516.47
216.841,5571.20
217.871,5576.80
218.899,5540.37
219.929,5442.70
220.959,5345.97
221.986,5175.63
223.016,5017.03
224.045,4876.47
225.072,4744.43
226.101,4550.43
227.130,4436.80
228.157,4325.07
229.185,4219.40
230.214,4136.37
231.241,4064.57
232.269,4040.00
233.297,4005.20
234.323,3915.17
235.351,3928.13
236.379,3927.93
237.407,3878.23
238.433,3872.83
239.460,3937.87
240.488,3960.03
241.513,3947.03
242.540,4031.20
243.568,4005.70
244.592,4051.13
245.619,4072.37
246.646,4064.67
247.671,4004.63
248.697,3981.73
249.724,4001.47
250.748,3971.93
251.774,3941.43
252.801,3946.80
253.827,3973.53
254.850,3950.30
255.876,3992.37
256.902,4041.23
257.925,4039.83
258.951,4068.43
259.976,4152.13
260.999,4153.30
262.024,4179.43
263.049,4275.17
264.074,4282.73
265.097,4380.70
266.122,4441.73
267.146,4486.90
268.168,4526.57
269.193,4626.03
270.217,4662.37
271.241,4732.67
272.263,4793.70
273.287,4837.40
274.311,4935.73
275.332,4918.17
276.356,4924.47
277.379,4891.03
278.402,4853.50
279.424,4866.20
280.447,4812.27
281.470,4721.13
282.492,4662.97
283.513,4607.97
284.536,4524.30
285.558,4495.23
286.581,4377.60
287.601,4284.53
288.623,4262.40
289.645,4147.27
290.665,4112.37
291.687,4029.47
292.709,3920.90
293.730,3872.07
294.750,3818.83
295.771,3754.60
296.792,3704.53
297.813,3665.80
298.832,3562.87
299.853,3542.73
300.874,3479.43
301.895,3433.80
302.913,3421.83
303.934,3303.93
304.954,3347.20
305.975,3272.90
306.993,3256.20
308.013,3160.90
309.033,3170.07
310.052,3135.97
311.072,3145.60
312.090,3106.53
313.109,3120.57
314.129,3059.60
315.148,3011.33
316.165,3026.00
317.184,3016.47
318.203,2990.37
319.222,3005.73
320.238,2902.70
321.257,2975.70
322.275,2971.73
323.294,2887.97
324.312,2915.83
325.328,2924.67
326.346,2890.73
327.364,2927.43
328.382,2881.43
329.397,2875.20
330.415,2877.83
331.432,2874.60
332.450,2832.53
333.467,2848.93
334.482,2863.13
335.499,2817.03
336.516,2823.87
337.533,2843.80
338.547,2817.13
339.564,2781.87
340.580,2825.53
341.597,2836.67
342.613,2796.60
343.627,2780.57
344.643,2788.67
345.659,2817.90
346.675,2789.80
347.690,2804.53
348.704,2773.00
349.719,2772.83
350.735,2801.20
351.750,2795.20
352.765,2738.47
353.778,2752.90
354.793,2776.07
355.808,2792.23
356.822,2750.90
357.837,2783.60
358.851,2783.23
359.864,2797.63
360.878,2802.57
361.892,2837.37
362.906,2799.77
363.920,2793.10
364.932,2836.43
365.945,2838.97
366.959,2816.70
367.972,2879.37
368.986,2854.93
369.999,2861.97
371.010,2901.33
372.023,2882.67
373.036,2954.43
374.049,2949.87
375.061,2949.97
376.072,2945.77
377.084,2951.13
378.097,3010.43
379.109,3028.07
380.121,2949.73
381.133,2996.67
382.143,2967.57
383.155,3050.53
384.166,3000.03
385.178,3016.80
386.189,3012.23
387.201,2999.47
388.212,3037.63
389.221,3040.80
390.232,2996.37
391.243,2968.33
392.254,2968.77
393.264,2959.67
394.275,2962.93
395.283,2947.13
396.294,2928.27
397.304,2880.20
398.314,2893.23
399.324,2883.07
400.334,2856.90
401.344,2844.13
402.351,2813.73
403.361,2793.13
404.370,2836.33
405.380,2828.47
406.389,2791.13
407.398,2785.90
408.407,2806.13
409.414,2702.30
410.423,2708.83
411.431,2724.63
412.440,2714.63
413.448,2656.53
414.457,2700.10
415.465,2652.00
416.471,2670.13
417.479,2655.13
418.487,2663.80
419.495,2620.60
420.503,2616.07
421.510,2626.67
422.518,2553.60
423.525,2631.70
424.530,2559.07
425.537,2645.10
426.544,2598.37
427.551,2599.00
428.558,2571.70
429.565,2570.03
430.571,2571.80
431.578,2560.17
432.582,2549.20
433.588,2531.20
434.595,2556.27
435.601,2557.50
436.607,2537.50
437.612,2544.03
438.618,2594.90
439.624,2599.33
440.627,2572.50
441.633,2586.97
442.638,2540.00
443.643,2555.30
444.648,2525.77
445.653,2587.40
446.658,2562.83
447.663,2549.83
448.667,2568.37
449.672,2525.10
450.674,2563.93
451.678,2583.07
452.682,2525.83
453.687,2601.17
454.690,2621.70
455.694,2564.23
456.698,2579.27
457.702,2628.77
458.705,2624.83
459.709,2596.53
460.710,2601.87
461.713,2629.33
462.716,2630.97
463.719,2631.90
464.722,2641.27
465.725,2599.20
466.727,2601.53
467.730,2637.13
468.732,2617.70
469.735,2595.57
470.737,2621.27
471.737,2619.40
472.739,2594.13
473.741,2612.17
474.742,2602.03
475.744,2651.47
476.746,2683.83
477.747,2640.00
478.748,2670.43
479.750,2665.73
480.751,2655.83
481.752,2633.50
482.753,2653.30
483.751,2625.13
484.752,2637.10
485.753,2635.37
486.753,2662.40
487.753,2629.73
488.754,2636.07
489.754,2655.73
490.754,2651.53
491.754,2675.73
492.754,2666.73
493.753,2586.10
494.753,2619.50
495.752,2633.33
496.752,2634.57
497.749,2664.30
498.748,2639.90
499.747,2582.67
500.746,2572.37
501.745,2635.93
502.744,2577.20
503.742,2519.47
504.741,2574.53
505.739,2564.37
506.737,2552.70
507.735,2568.97
508.734,2528.70
509.732,2544.87
510.729,2490.20
511.727,2512.30
512.725,2540.87
513.720,2506.93
514.718,2484.77
515.715,2500.87
516.712,2449.00
517.709,2500.43
518.706,2512.17
519.703,2490.97
520.700,2459.10
521.696,2489.20
522.693,2491.33
523.689,2505.93
524.686,2496.67
525.682,2474.70
526.678,2492.53
527.674,2480.87
528.670,2538.30
529.666,2567.13
530.661,2521.37
531.657,2469.73
532.652,2467.10
533.648,2524.67
534.641,2521.27
535.636,2501.97
536.631,2492.77
537.626,2562.47
538.621,2521.70
539.616,2526.33
540.610,2528.27
541.605,2518.50
542.599,2524.77
543.593,2502.37
544.587,2486.93
545.581,2532.53
546.575,2501.10
547.569,2494.80
548.563,2510.00
549.557,2526.43
550.550,2523.17
551.543,2478.27
552.537,2473.50
553.530,2565.73
554.523,2487.53
555.516,2552.87
556.509,2503.80
557.502,2528.37
558.494,2521.53
559.487,2537.47
560.479,2516.67
561.472,2493.37
562.464,2538.93
563.456,2578.97
564.448,2570.50
565.440,2563.87
566.432,2567.53
567.423,2532.73
568.415,2534.17
569.404,2558.60
570.396,2598.33
571.387,2593.00
572.378,2545.00
573.369,2549.80
574.360,2573.77
575.351,2606.17
576.341,2632.87
577.332,2680.20
578.323,2628.03
579.313,2625.73
580.303,2647.93
581.293,2628.10
582.283,2633.43
583.273,2600.40
584.263,2672.97
585.253,2656.37
586.243,2633.77
587.232,2637.97
588.222,2614.93
589.211,2655.27
590.200,2664.63
591.189,2682.47
592.178,2703.33
593.167,2648.53
594.156,2699.60
595.145,2716.13
596.133,2727.33
597.122,2666.93
598.110,2697.67
599.098,2682.63
600.086,2691.50
601.074,2700.00
602.062,2727.30
603.050,2695.73
604.038,2625.80
605.025,2674.37
606.013,2640.70
607.000,2698.83
607.987,2635.03
608.975,2647.13
609.962,2657.80
610.949,2588.27
611.936,2627.70
612.922,2616.20
613.909,2562.20
614.895,2582.87
615.882,2564.00
616.868,2569.73
617.854,2501.07
618.841,2482.60
619.826,2459.87
620.812,2473.27
621.798,2447.47
622.784,2410.60
623.769,2391.10
624.755,2376.57
625.740,2378.33
626.725,2374.27
627.711,2346.23
628.698,2288.87
629.683,2319.90
630.667,2267.60
631.652,2313.43
632.637,2273.73
633.621,2261.33
634.606,2221.90
635.590,2222.73
636.574,2192.03
637.558,2234.37
638.542,2141.07
639.526,2144.23
640.510,2145.77
641.493,2153.87
642.477,2163.03
643.460,2139.10
644.444,2128.47
645.427,2099.97
646.410,2104.57
647.393,2086.60
648.376,2070.40
649.359,2072.27
650.341,2046.40
651.324,2072.67
652.307,2056.70
653.289,2062.13
654.271,2052.37
655.253,2033.50
656.235,2022.17
657.217,2012.77
658.199,1991.17
659.181,2015.20
660.163,1970.43
661.144,2011.60
662.126,1959.83
663.107,1969.77
664.088,2001.17
665.069,1951.73
666.050,1907.37
667.033,1956.00
668.014,1913.97
668.995,1936.57
669.975,1921.30
670.956,1938.53
671.936,1930.17
672.916,1936.30
673.896,1916.00
674.876,1862.43
675.856,1875.83
676.836,1811.17
677.816,1840.63
678.795,1815.27
679.775,1838.93
680.754,1776.60
681.734,1781.97
682.713,1744.37
683.692,1723.53
684.671,1737.40
685.650,1769.10
686.629,1725.70
687.607,1714.23
688.586,1705.53
689.564,1722.10
690.543,1662.27
691.523,1659.53
692.501,1693.00
693.479,1668.23
694.457,1659.57
695.435,1655.60
696.413,1647.40
697.390,1627.40
698.368,1591.67
699.345,1593.23
700.322,1630.03
701.300,1612.10
702.277,1591.87
703.254,1603.10
704.231,1610.97
705.207,1595.33
706.184,1620.93
707.161,1597.87
708.137,1577.00
709.113,1559.93
710.090,1594.90
711.068,1578.37
712.044,1549.17
713.020,1512.90
713.996,1548.60
714.971,1564.70
715.947,1541.57
716.922,1545.20
717.898,1507.07
718.873,1545.93
719.848,1467.73
720.823,1532.13
721.798,1546.73
722.773,1513.60
723.748,1491.63
724.723,1453.63
725.697,1443.70
726.672,1490.90
727.646,1493.80
728.622,1481.60
729.596,1514.57
730.570,1462.73
731.544,1445.73
732.518,1475.30
733.492,1468.40
734.466,1459.83
735.439,1447.80
736.413,1470.50
737.386,1479.47
738.359,1452.73
739.332,1444.47
740.305,1447.63
741.278,1409.67
742.251,1449.13
743.224,1447.63
744.196,1436.80
745.171,1402.93
746.143,1435.63
747.115,1420.80
748.087,1430.77
749.059,1382.47
750.031,1421.77
751.003,1381.60
751.975,1418.67
752.947,1386.23
753.918,1361.43
754.890,1388.87
755.861,1394.90
756.832,1394.40
757.803,1376.27
758.774,1376.60
759.747,1389.80
760.718,1336.90
761.689,1323.53
762.659,1324.87
763.630,1343.63
764.600,1368.57
765.570,1349.87
766.540,1337.17
767.510,1372.60
768.480,1323.67
769.450,1340.57
770.420,1328.83
771.390,1327.73
772.359,1297.93
773.329,1289.30
774.300,1321.03
775.269,1310.67
776.238,1310.23
777.207,1312.67
778.176,1297.70
779.145,1299.10
780.114,1302.37
781.083,1314.70
782.051,1320.83
783.019,1289.70
783.988,1291.83
784.956,1259.80
785.924,1274.43
786.894,1286.97
787.862,1301.77
788.830,1308.47
789.797,1263.03
790.765,1253.60
791.732,1262.53
792.700,1266.83
793.667,1266.97
794.634,1242.63
795.601,1288.97
796.568,1254.97
797.535,1229.53
798.502,1289.93
799.468,1223.10
800.437,1257.90
801.403,1216.87
802.370,1288.80
803.336,1246.33
804.302,1239.63
805.268,1229.10
806.234,1158.10
807.200,1244.27
808.166,1202.53
809.131,1202.83
810.097,1184.70
811.062,1214.10
812.027,1201.67
812.994,1180.83
813.960,1188.87
814.925,1232.47
815.889,1208.10
816.854,1240.37
817.819,1182.83
818.783,1166.87
819.748,1191.53
820.712,1180.53
821.677,1166.07
822.641,1163.20
823.605,1158.97
824.571,1195.30
825.534,1181.53
826.498,1161.17
827.462,1192.57
828.425,1158.23
829.389,1187.07
830.352,1179.13
831.315,1187.10
832.279,1195.60
833.242,1161.37
834.204,1144.60
835.167,1178.10
836.132,1173.77
837.095,1144.97
838.057,1169.17
839.020,1135.97
839.982,1148.40
840.944,1154.87
841.906,1197.33
842.868,1156.40
843.830,1133.40
844.792,1179.13
845.753,1148.00
846.715,1165.00
847.679,1132.17
848.640,1095.77
849.601,1115.33
850.562,1141.73
851.523,1162.47
852.484,1140.97
853.445,1148.27
854.406,1159.67
855.367,1163.60
856.327,1126.40
857.288,1111.83
858.248,1137.07
859.210,1159.10
860.170,1130.67
861.130,1133.23
862.090,1143.20
863.050,1138.43
864.010,1153.17
864.969,1119.80
865.929,1148.23
866.888,1105.37
867.848,1142.80
868.807,1101.97
869.766,1123.50
870.727,1110.27
871.686,1111.93
872.645,1148.47
873.604,1114.27
874.562,1147.60
875.521,1141.27
876.479,1134.90
877.437,1146.80
878.396,1176.80
879.354,1142.37
880.312,1126.33
881.270,1157.97
882.229,1126.57
883.187,1126.63
884.145,1133.03
885.102,1130.93
886.059,1136.10
887.017,1162.60
887.974,1145.63
888.931,1127.97
889.888,1177.37
890.845,1121.20
891.802,1121.10
892.758,1150.47
893.717,1168.63
894.673,1185.83
895.630,1174.47
896.586,1145.37
897.542,1148.50
898.498,1166.13
899.454,1151.03
900.410,1150.40
901.366,1205.07
902.321,1137.77
903.277,1151.03
904.232,1173.07
905.189,1206.67
906.145,1167.27
907.100,1158.17
908.055,1137.37
909.010,1165.47
909.965,1146.40
910.919,1172.17
911.874,1149.03
912.828,1188.17
913.783,1169.33
914.737,1176.23
915.693,1182.07
916.648,1197.13
917.602,1191.73
918.555,1210.23
919.509,1176.27
920.463,1194.10
921.417,1189.47
922.370,1184.87
923.324,1192.27
924.277,1170.07
925.230,1196.73
926.183,1202.77
927.138,1198.63
928.091,1175.40
929.044,1194.77
929.996,1182.83
930.949,1234.90
931.902,1224.27
932.854,1184.50
933.806,1196.63
934.758,1202.10
935.711,1211.73
936.663,1156.80
937.614,1179.97
938.568,1211.50
939.520,1187.80
940.471,1162.63
941.423,1191.17
942.374,1208.70
943.326,1212.97
944.277,1169.27
945.228,1232.83
946.179,1203.30
947.130,1193.27
948.080,1177.30
949.031,1187.30
949.984,1194.83
950.934,1217.13
951.884,1197.90
952.835,1171.20
953.785,1202.50
954.735,1188.47
955.685,1153.73
956.635,1192.73
957.585,1175.17
958.534,1161.63
959.484,1161.73
960.433,1151.77
961.383,1174.60
962.334,1148.50
963.283,1166.43
964.232,1176.43
965.181,1143.00
966.130,1164.53
967.079,1148.67
968.027,1170.07
968.976,1185.30
969.924,1134.30
970.873,1172.40
971.821,1152.60
972.769,1174.80
973.719,1145.43
974.667,1139.33
975.615,1169.50
976.562,1137.83
977.510,1158.17
978.458,1145.57
979.405,1153.10
980.352,1167.63
981.300,1157.60
982.247,1157.47
983.194,1143.30
984.141,1174.57
985.088,1160.40
986.036,1153.20
986.983,1159.87
987.930,1169.37
988.876,1139.87
989.822,1132.53
990.769,1152.90
991.715,1133.33
992.661,1130.63
993.607,1171.20
994.553,1177.20
995.498,1130.70
996.444,1108.67
997.389,1132.97
998.337,1134.30
999.282,1094.10
1000.227,1165.33
1001.173,1122.93
1002.118,1118.53
1003.062,1099.17
1004.007,1086.03
1004.952,1124.07
1005.897,1164.03
1006.841,1094.20
1007.786,1126.30
1008.730,1110.90
1009.674,1108.60
1010.618,1135.63
1011.564,1139.67
1012.508,1163.80
1013.452,1097.83
1014.396,1136.90
1015.339,1185.67
1016.283,1127.80
1017.226,1118.97
1018.170,1144.53
1019.113,1142.10
1020.056,1123.23
1020.999,1136.63
1021.942,1106.53
1022.885,1103.20
1023.828,1126.83
1024.770,1125.67
1025.715,1108.87
1026.657,1155.20
1027.600,1146.70
1028.542,1141.07
1029.484,1126.63
1030.426,1144.70
1031.368,1146.03
1032.310,1101.40
1033.251,1139.03
1034.193,1158.20
1035.135,1122.80
1036.076,1142.97
1037.017,1148.77
1037.959,1118.50
1038.900,1144.43
1039.843,1138.63
1040.784,1224.40
1041.725,1210.10
1042.665,1162.93
1043.606,1187.23
1044.547,1128.33
1045.487,1142.73
1046.427,1179.03
1047.368,1164.03
1048.308,1161.13
1049.248,1145.37
1050.188,1185.97
1051.128,1154.90
1052.067,1176.90
1053.007,1162.40
1053.947,1150.80
1054.886,1168.33
1055.827,1190.40
1056.766,1205.50
1057.706,1206.73
1058.645,1172.07
1059.584,1188.67
1060.522,1188.30
1061.461,1175.43
1062.400,1213.97
1063.338,1234.93
1064.277,1225.03
1065.215,1205.73
1066.154,1211.67
1067.092,1232.20
1068.030,1197.80
1068.968,1204.87
1069.906,1229.23
1070.843,1235.23
1071.781,1226.60
1072.720,1232.13
1073.658,1195.00
1074.595,1246.37
1075.533,1244.17
1076.470,1266.47
1077.407,1257.50
1078.344,1213.10
1079.281,1271.73
1080.217,1221.27
1081.154,1236.17
1082.091,1251.13
1083.027,1258.20
1083.964,1242.53
1084.900,1247.23
1085.836,1250.63
1086.772,1227.07
1087.708,1272.73
1088.644,1269.50
1089.580,1228.00
1090.515,1230.73
1091.451,1217.37
1092.388,1200.87
1093.324,1251.97
1094.259,1232.33
1095.194,1223.47
1096.129,1231.83
1097.064,1237.33
1097.999,1204.50
1098.934,1239.13
1099.869,1234.80
1100.803,1247.60
1101.738,1245.63
1102.672,1196.47
1103.607,1186.47
1104.541,1187.93
1105.475,1197.53
1106.409,1204.07
1107.343,1177.00
1108.277,1187.23
1109.210,1193.97
1110.144,1183.87
1111.078,1165.90
1112.011,1170.93
1112.944,1125.80
1113.878,1163.43
1114.811,1182.83
1115.744,1151.53
1116.678,1114.33
1117.611,1129.77
1118.544,1111.93
1119.477,1106.37
1120.409,1115.23
1121.342,1144.50
1122.274,1129.77
1123.206,1096.63
1124.138,1139.17
1125.070,1135.73
1126.002,1065.97
1126.934,1072.77
1127.866,1122.87
1128.798,1085.83
1129.729,1105.97
1130.661,1077.20
1131.592,1098.67
1132.523,1122.73
1133.454,1092.07
1134.385,1053.97
1135.317,1068.53
1136.247,1069.13
1137.178,1061.87
1138.109,1039.70
1139.039,1063.20
1139.970,1022.20
1140.900,1053.40
1141.831,1086.27
1142.761,1034.83
1143.691,984.90
1144.621,1029.23
1145.551,1012.07
1146.480,1007.20
1147.410,1030.27
1148.340,1018.33
1149.269,1046.83
1150.199,981.43
1151.128,1049.07
1152.057,1034.40
1152.979,1026.87
1153.898,1040.13
1154.819,990.47
1155.739,1025.07
1156.658,975.93
1157.579,1007.43
1158.498,1006.33
1159.419,989.20
1160.338,1017.90
1161.256,1022.23
1162.177,1033.33
1163.095,992.37
1164.016,974.17
1164.934,952.40
1165.852,997.20
1166.772,1025.47
1167.690,976.37
1168.610,971.53
1169.528,1018.27
1170.446,974.57
1171.365,982.73
1172.283,921.83
1173.202,977.40
1174.120,964.67
1175.037,963.30
1175.956,958.00
1176.873,962.00
1177.792,979.17
1178.709,973.13
1179.626,966.80
1180.544,959.60
1181.461,944.53
1182.379,995.93
1183.296,973.37
1184.212,974.43
1185.130,949.00
1186.046,983.20
1186.962,933.40
1187.880,947.60
1188.796,981.73
1189.714,965.13
1190.629,955.10
1191.545,1039.93
1192.462,942.20
1193.378,966.27
1194.295,974.00
1195.210,986.70
1196.125,977.87
1197.042,960.13
1197.957,984.27
1198.872,987.80
1199.788,975.00
1200.703,950.03
1201.619,973.20
1202.534,948.73
1203.448,932.83
1204.364,966.80
1205.278,955.73
1206.192,997.13
1207.108,975.03
1208.022,983.67
1208.938,970.80
1209.851,981.77
1210.765,1024.93
1211.680,968.87
1212.594,959.83
1213.507,968.90
1214.422,999.80
1215.335,1037.57
1216.248,987.70
1217.163,977.53
1218.076,943.13
1218.990,968.30
1219.903,972.87
1220.816,970.60
1221.730,948.77
1222.642,1008.00
1223.554,991.83
1224.469,963.10
1225.380,994.93
1226.292,1012.00
1227.206,987.90
1228.118,997.07
1229.032,1023.67
1229.943,1011.47
1230.855,1000.87
1231.768,1026.87
1232.679,1029.63
1233.590,962.87
1234.503,1019.33
1235.414,985.93
1236.325,996.30
1237.238,1038.20
1238.149,980.23
1239.059,1004.13
1239.972,1002.40
1240.882,1010.63
1241.793,1030.63
1242.705,993.80
1243.615,1028.10
1244.525,1040.40
1245.437,1011.67
1246.347,992.40
1247.259,1027.90
1248.168,1050.47
1249.078,1009.00
1249.989,1061.13
1250.899,1024.67
1251.808,1032.60
1252.719,1022.27
1253.628,1014.53
1254.537,1000.93
1255.448,1021.10
1256.357,1029.27
1257.266,1000.60
1258.176,1054.23
1259.085,1014.37
1259.993,1027.67
1260.904,1065.27
1261.812,1060.97
1262.720,1043.13
1263.630,1014.57
1264.538,1005.20
1265.446,1013.67
1266.356,1008.07
1267.263,1067.33
1268.171,1049.27
1269.080,1073.33
1269.988,1040.17
1270.895,1017.13
1271.804,1019.40
1272.711,1024.30
1273.619,1037.47
1274.527,1016.00
1275.434,1047.83
1276.341,995.13
1277.248,1048.73
1278.156,1053.87
1279.063,1033.40
1279.969,1021.07
1280.877,1020.30
1281.783,1036.77
1282.690,1026.47
1283.598,1031.30
1284.503,1010.73
1285.409,971.33
1286.317,1014.53
1287.223,997.53
1288.128,984.93
1289.036,1012.60
1289.941,1000.13
1290.846,974.53
1291.751,992.00
1292.658,987.97
1293.563,984.80
1294.468,980.13
1295.375,1007.60
1296.280,1013.53
1297.184,985.00
1298.091,935.83
1298.995,982.53
1299.900,1002.47
1300.806,976.23
1301.710,956.53
1302.614,976.07
1303.518,982.07
1304.424,953.70
1305.327,961.00
1306.231,947.17
1307.137,970.37
1308.040,929.87
1308.943,943.43
1309.847,988.10
1310.752,953.87
1311.655,948.97
1312.558,957.83
1313.463,936.53
1314.366,935.90
1315.269,918.00
1316.171,887.53
1317.076,911.23
1317.978,894.07
1318.881,913.67
1319.785,897.37
1320.687,911.30
1321.589,910.60
1322.491,897.57
1323.395,882.80
1324.297,921.67
1325.198,888.37
1326.102,892.20
1327.004,934.10
1327.905,911.57
1328.806,872.83
1329.709,861.80
1330.611,883.03
1331.512,851.73
1332.413,863.17
1333.316,879.10
1334.216,848.97
1335.117,842.27
1336.020,875.77
1336.920,837.67
1337.821,886.80
1338.721,829.70
1339.623,851.23
1340.523,845.07
1341.423,846.03
1342.323,882.33
1343.225,837.70
1344.125,797.50
1345.025,831.10
1345.924,815.37
1346.826,818.70
1347.725,813.07
1348.624,827.97
1349.524,805.47
1350.425,783.37
1351.324,821.40
1352.223,799.00
1353.121,804.67
1354.022,835.20
1354.921,793.57
1355.819,776.83
1356.718,776.43
1357.618,810.97
1358.516,761.53
1359.415,791.43
1360.313,813.17
1361.213,774.03
1362.111,807.67
1363.008,823.97
1363.906,781.13
1364.806,763.67
1365.703,766.27
1366.601,773.90
1367.498,765.23
1368.397,794.90
1369.295,756.60
1370.192,749.23
1371.089,779.47
1371.987,791.13
1372.884,760.40
1373.781,759.87
1374.678,744.20
1375.574,742.40
1376.473,722.87
1377.369,733.43
1378.265,717.63
1379.161,758.97
1380.059,742.47
1380.955,738.43
1381.851,722.33
1382.747,724.23
1383.643,743.60
1384.540,763.40
1385.436,731.93
1386.331,743.80
1387.227,753.20
1388.124,715.13
1389.019,725.57
1389.914,747.50
1390.809,706.63
1391.704,711.43
1392.601,709.00
1393.495,691.77
1394.390,703.03
1395.285,648.73
1396.179,713.17
1397.075,706.83
1397.969,697.80
1398.864,710.97
1399.758,696.53
1400.652,684.57
1401.547,706.33
1402.441,704.00
1403.335,689.47
1404.229,680.73
1405.122,696.83
1406.017,733.93
1406.911,687.80
1407.804,643.83
1408.697,665.60
1409.590,684.80
1410.485,672.77
1411.378,687.70
1412.271,682.10
1413.163,653.20
1414.056,700.00
1414.949,705.63
1415.843,688.50
1416.735,690.23
1417.627,629.23
1418.520,677.53
1419.412,683.13
1420.306,661.83
1421.197,698.17
1422.089,679.13
1422.981,667.13
1423.873,640.77
1424.764,622.53
1425.657,668.53
1426.549,667.70
1427.440,650.23
1428.331,674.00
1429.222,637.37
1430.113,645.00
1431.006,648.80
1431.897,616.70
1432.787,651.57
1433.678,689.90
1434.568,674.13
1435.459,634.70
1436.351,661.83
1437.241,665.90
1438.131,658.27
1439.021,635.47
1439.911,619.73
1440.801,660.53
1441.693,639.87
1442.583,625.77
1443.472,661.97
1444.362,604.93
1445.251,646.43
1446.140,656.47
1447.030,648.67
1447.921,612.23
1448.810,626.70
1449.699,633.50
1450.588,591.03
1451.476,586.73
1452.365,605.83
1453.254,617.70
1454.144,658.50
1455.032,644.07
1455.921,592.47
1456.809,583.63
1457.697,626.90
1458.585,589.23
1459.473,599.67
1460.361,627.83
1461.251,622.43
1462.138,596.47
1463.026,591.70
1463.913,653.63
1464.801,623.23
1465.688,639.13
1466.575,591.57
1467.463,610.27
1468.351,608.53
1469.238,620.43
1470.125,676.23
1471.012,578.43
1471.899,625.67
1472.785,625.93
1473.672,650.83
1474.558,598.10
1475.446,616.57
1476.333,590.60
1477.219,584.83
1478.105,626.23
1478.991,580.43
1479.877,605.93
1480.762,561.07
1481.648,593.30
1482.534,578.83
1483.419,570.43
1484.307,606.63
1485.192,550.93
1486.077,600.67
1486.962,598.53
1487.847,587.20
1488.732,568.17
1489.617,591.07
1490.502,578.87
1491.387,587.80
1492.271,585.23
1493.156,578.83
1494.042,584.93
1494.927,627.83
1495.811,563.73
1496.695,577.17
1497.579,597.47
1498.463,553.13
1499.347,575.33
1500.231,527.03
1501.114,565.17
1501.998,564.60
1502.881,595.37
1503.765,567.47
1504.648,547.03
1505.533,561.40
1506.417,592.90
1507.300,549.17
1508.183,573.93
1509.066,566.77
1509.948,557.90
1510.831,553.50
1511.714,534.43
1512.596,565.10
1513.479,563.57
1514.361,541.33
1515.243,529.87
1516.125,549.37
1517.008,555.43
1517.890,542.40
1518.771,568.87
1519.655,595.03
1520.537,516.60
1521.419,549.87
1522.300,541.13
1523.182,559.23
1524.063,562.00
1524.944,551.43
1525.825,546.63
1526.707,544.97
1527.588,508.37
1528.468,521.87
1529.349,534.27
1530.230,553.10
1531.111,551.77
1531.991,557.77
1532.872,549.67
1533.752,500.27
1534.632,526.47
1535.513,518.30
1536.393,519.60
1537.273,525.93
1538.153,546.27
1539.032,516.50
1539.912,518.20
1540.792,560.60
1541.672,531.87
1542.551,536.87
1543.430,511.00
1544.310,553.47
1545.189,535.23
1546.068,517.13
1546.947,535.37
1547.826,550.07
1548.705,510.17
1549.584,512.40
1550.462,527.93
1551.341,516.50
1552.219,520.03
1553.098,538.97
1553.976,542.73
1554.854,558.63
1555.733,515.30
1556.611,550.47
1557.489,526.93
1558.367,535.90
1559.244,509.67
1560.122,538.87
1561.000,521.00
1561.877,547.00
1562.755,533.13
1563.632,483.73
1564.509,502.20
1565.386,531.47
1566.264,504.20
1567.141,508.17
1568.017,529.00
1568.894,498.70
1569.771,527.03
1570.648,540.63
1571.524,525.37
1572.401,514.77
1573.277,504.73
1574.153,527.40
1575.029,506.73
1575.906,466.93
1576.781,532.57
1577.657,530.50
1578.533,492.47
1579.409,484.77
1580.285,487.67
1581.160,504.73
1582.036,504.50
1582.911,487.80
1583.786,489.33
1584.662,529.37
1585.537,501.00
1586.412,529.00
1587.287,494.83
1588.160,471.80
1589.035,523.23
1589.909,509.30
1590.784,475.23
1591.658,492.27
1592.533,478.00
1593.407,520.47
1594.281,486.57
1595.155,491.47
1596.029,522.67
1596.903,501.77
1597.777,491.87
1598.651,514.77
1599.525,478.53
1600.398,516.13
1601.272,468.67
1602.144,515.80
1603.017,492.40
1603.890,500.43
1604.763,497.00
1605.636,484.33
1606.509,483.33
1607.382,498.20
1608.255,498.47
1609.128,507.63
1610.000,484.07
1610.873,490.90
1611.746,509.07
1612.616,466.83
1613.488,500.57
1614.361,507.07
1615.233,459.90
1616.105,487.87
1616.977,454.13
1617.849,489.77
1618.720,485.83
1619.592,517.73
1620.464,497.33
1621.333,484.17
1622.205,463.47
1623.076,496.20
1623.947,476.03
1624.818,508.87
1625.689,486.10
1626.560,487.77
1627.431,505.27
1628.302,457.23
1629.171,475.43
1630.042,482.73
1630.912,467.53
1631.782,498.77
1632.653,451.57
1633.523,487.80
1634.393,484.00
1635.263,482.93
1636.131,472.73
1637.001,494.77
1637.871,465.67
1638.741,487.00
1639.611,447.00
1640.480,458.83
1641.350,486.33
1642.219,485.00
1643.087,466.07
1643.956,499.20
1644.825,466.80
1645.694,491.43
1646.563,452.53
1647.432,496.90
1648.299,479.87
1649.167,506.47
1650.036,463.27
1650.904,475.57
1651.773,445.27
1652.641,491.07
1653.509,463.27
1654.376,447.83
1655.244,471.73
1656.112,465.73
1656.980,493.77
1657.847,469.60
1658.715,467.23
1659.581,458.90
1660.448,471.60
1661.316,459.03
1662.183,444.00
1663.051,484.20
1663.918,454.30
1664.783,503.60
1665.650,451.53
1666.517,448.63
1667.384,435.50
1668.251,429.33
1669.115,467.27
1669.982,430.97
1670.849,466.00
1671.715,462.87
1672.581,466.13
1673.446,456.27
1674.312,444.07
1675.178,388.47
1676.044,449.30
1676.910,478.93
1677.774,412.27
1678.639,462.33
1679.505,464.00
1680.370,465.30
1681.236,524.97
1682.099,456.87
1682.965,473.20
1683.830,485.57
1684.695,434.67
1685.560,458.83
1686.423,477.63
1687.288,451.67
1688.153,466.67
1689.017,480.20
1689.880,466.27
1690.745,475.67
1691.609,413.57
1692.473,437.93
1693.338,465.53
1694.200,455.63
1695.064,451.87
1695.928,469.13
1696.792,441.30
1697.654,464.03
1698.517,475.87
1699.381,418.50
1700.245,490.43
1701.106,415.80
1701.969,454.07
1702.833,415.53
1703.696,415.00
1704.557,452.53
1705.420,439.37
1706.283,473.87
1707.146,415.30
1708.007,464.80
1708.870,448.13
1709.732,446.90
1710.595,417.47
1711.455,464.80
1712.318,485.90
1713.180,408.43
1714.040,401.73
1714.902,406.30
1715.764,447.20
1716.626,418.07
1717.486,408.97
1718.348,432.30
1719.209,451.97
1720.071,438.77
1720.930,452.33
1721.792,457.73
1722.653,424.63
1723.512,419.93
1724.374,444.00
1725.234,440.30
1726.095,444.67
1726.954,474.30
1727.815,405.83
1728.676,418.43
1729.535,429.70
1730.395,456.17
1731.256,432.80
1732.114,434.37
1732.974,444.50
1733.834,433.17
1734.693,460.60
1735.553,388.77
1736.413,425.00
1737.272,422.13
1738.130,424.83
1738.990,458.77
1739.849,441.90
1740.707,402.47
1741.566,432.93
1742.426,388.03
1743.283,449.73
1744.142,441.23
1745.001,434.57
1745.858,427.80
1746.717,428.07
1747.576,435.03
1748.433,449.43
1749.292,428.30
1750.150,404.40
1751.007,449.60
1751.865,467.33
1752.723,391.07
1753.579,425.10
1754.438,431.23
1755.296,382.63
1756.152,431.57
1757.010,447.53
1757.865,420.30
1758.723,450.70
1759.581,422.57
1760.436,412.20
1761.294,478.60
1762.151,412.57
1763.006,441.93
1763.864,418.70
1764.721,431.30
1765.576,411.77
1766.433,427.33
1767.288,422.77
1768.144,451.43
1769.001,436.43
1769.856,408.67
1770.712,430.87
1771.568,434.30
1772.423,433.40
1773.279,427.73
1774.133,372.17
1774.989,429.90
1775.845,434.37
1776.699,452.33
1777.555,406.40
1778.409,453.37
1779.265,418.70
1780.120,406.63
1780.974,441.67
1781.829,470.50
1782.682,429.03
1783.538,432.43
1784.393,427.77
1785.246,408.80
1786.101,460.60
1786.954,417.73
1787.808,417.73
1788.661,415.17
1789.516,397.90
1790.370,430.37
1791.223,396.70
1792.077,418.63
1792.930,412.13
1793.784,442.50
1794.636,458.50
1795.490,408.10
1796.344,420.67
1797.196,441.33
1798.049,424.30
1798.901,413.33
1799.755,430.50
1800.606,447.07
1801.460,395.90
1802.311,418.70
1803.165,410.57
1804.018,440.73
1804.869,415.00
1805.722,390.27
1806.573,401.40
1807.426,411.33
1808.276,414.13
1809.129,400.13
1809.980,380.77
1810.832,439.03
1811.683,430.17
1812.535,402.87
1813.385,398.87
1814.237,423.83
1815.089,397.10
1815.940,396.70
1816.791,414.27
1817.641,396.57
1818.493,410.30
1819.343,404.83
1820.194,439.57
1821.044,427.60
1821.895,409.97
1822.745,417.27
1823.596,446.30
1824.445,422.27
1825.296,385.07
1826.145,399.63
1826.996,399.27
1827.845,434.00
1828.695,389.63
1829.544,414.73
1830.395,410.87
1831.243,417.53
1832.094,393.03
1832.942,391.97
1833.792,444.53
1834.640,416.17
1835.490,441.00
1836.338,417.30
1837.186,430.67
1838.036,401.27
1838.884,432.47
1839.733,431.57
1840.581,419.50
1841.430,394.10
1842.278,416.43
1843.127,384.27
1843.974,383.90
1844.823,374.40
1845.671,407.33
1846.519,384.30
1847.366,394.77
1848.213,406.93
1849.062,399.70
1849.909,386.93
1850.757,370.87
1851.604,397.97
1852.452,370.80
1853.298,402.63
1854.146,378.13
1854.993,384.93
1855.839,425.40
1856.687,420.07
1857.532,396.57
1858.380,413.93
1859.226,374.93
1860.073,416.17
1860.919,370.10
1861.765,399.70
1862.612,400.27
1863.457,408.40
1864.304,414.57
1865.150,433.37
1865.995,423.60
1866.842,419.83
1867.686,410.67
1868.533,406.23
1869.378,378.03
1870.223,408.17
1871.069,381.63
1871.914,341.97
1872.760,404.07
1873.604,386.97
1874.448,405.47
1875.294,393.53
1876.139,430.90
1876.984,416.67
1877.828,379.20
1878.672,397.07
1879.518,393.53
1880.361,383.73
1881.205,410.30
1882.050,415.63
1882.894,393.97
1883.739,423.57
1884.582,450.17
1885.425,401.93
1886.270,400.87
1887.113,391.30
1887.956,375.70
1888.801,383.87
1889.644,427.07
1890.486,382.00
1891.331,387.77
1892.173,433.90
1893.017,409.77
1893.860,385.57
1894.702,381.00
1895.546,388.77
1896.388,390.70
1897.230,374.23
1898.074,388.37
1898.916,387.10
1899.757,391.70
1900.601,361.90
1901.443,425.63
1902.284,400.40
1903.125,374.13
1903.969,371.33
1904.810,401.17
1905.651,366.83
1906.494,414.93
1907.335,365.17
1908.176,399.67
1909.018,401.83
1909.859,418.30
1910.700,377.53
1911.542,421.63
1912.383,389.47
1913.223,387.77
1914.064,376.73
1914.906,404.03
1915.746,409.43
1916.586,365.57
1917.428,421.00
1918.268,375.13
1919.107,402.60
1919.947,399.10
1920.789,418.43
1921.628,401.17
1922.468,442.33
1923.309,407.10
1924.148,361.50
1924.988,390.80
1925.827,397.13
1926.667,382.13
1927.507,421.47
1928.345,350.30
1929.184,414.00
1930.025,403.63
1930.864,376.20
1931.702,394.00
1932.541,383.60
1933.381,388.67
1934.219,423.63
1935.057,388.40
1935.896,376.43
1936.735,401.87
1937.573,385.70
1938.411,384.03
1939.249,365.80
1940.089,392.10
1940.927,404.20
1941.764,379.03
1942.602,351.40
1943.439,393.47
1944.278,379.53
1945.115,344.97
1945.953,368.07
1946.790,360.87
1947.628,362.63
1948.465,339.53
1949.302,379.90
1950.139,376.23
1950.976,369.50
1951.814,378.03
1952.651,385.97
1953.487,368.30
1954.323,392.43
1955.160,414.40
1955.998,388.37
1956.834,386.60
1957.670,359.87
1958.506,403.67
1959.342,396.57
1960.177,436.20
1961.015,353.50
1961.850,370.57
1962.686,391.77
1963.521,384.70
1964.357,388.63
1965.192,393.90
1966.029,380.47
1966.864,396.50
1967.699,362.10
1968.534,410.70
1969.369,388.97
1970.204,403.00
1971.040,362.07
1971.875,378.73
1972.709,371.63
1973.544,364.17
1974.378,382.50
1975.212,354.13
1976.047,361.23
1976.882,367.20
1977.716,433.60
1978.550,385.17
1979.384,394.13
1980.218,420.50
1981.052,389.83
1981.885,350.30
1982.719,361.13
1983.554,359.13
1984.388,376.53
1985.221,387.10
1986.054,410.77
1986.887,390.93
1987.720,373.40
1988.553,367.27
1989.386,395.10
1990.219,386.37
1991.053,361.13
1991.886,377.10
1992.719,405.10
1993.551,379.63
1994.383,388.93
1995.216,374.67
1996.048,357.90
1996.880,399.97
1997.712,327.60
1998.544,387.17
1999.376,375.80
2000.208,396.07
2001.040,367.13
2001.873,318.83
2002.705,343.63
2003.536,363.20
2004.367,391.23
2005.199,374.70
2006.030,373.90
2006.861,343.07
2007.692,374.23
2008.523,398.83
2009.354,423.07
2010.185,372.27
2011.016,412.07
2011.846,364.67
2012.677,336.97
2013.507,389.30
2014.338,335.30
2015.168,387.97
2015.999,381.57
2016.829,370.87
2017.659,371.47
2018.489,381.17
2019.319,396.83
2020.149,364.87
2020.980,344.57
2021.810,346.17
2022.639,373.63
2023.469,405.13
2024.298,385.83
2025.128,387.73
2025.957,368.63
2026.786,362.53
2027.615,415.80
2028.444,372.20
2029.273,365.37
2030.102,385.47
2030.931,389.20
2031.758,368.43
2032.586,390.80
2033.415,375.23
2034.243,385.47
2035.072,377.90
2035.900,388.67
2036.728,371.90
2037.556,377.57
2038.385,396.80
2039.213,393.13
2040.040,410.87
2040.868,368.80
2041.696,393.50
2042.524,356.10
2043.351,376.90
2044.179,382.57
2045.006,389.40
2045.006,389.40

Max Intensity Wave.,217.871
Max Intensity Data,5576.80
Min Intensity Wave.,2001.873
Min Intensity Data,318.83
FWHM Wave.,384.818
FWHM Value,29.35
Pressure Wave.,685.574
Pressure Value [GPa],-22.56336
G/D Ratio,0.56725
G/D Gband Wave.,1540.792
G/D Gband Intensity,560.60
G/D Dband Wave.,1309.907
G/D Dband Intensity,988.28

<< BACKGROUND SPECTRUM >>
Wave[dcm-1],No19
146.591,2343.00
147.626,2220.00
148.664,2155.00
149.699,2668.00
150.737,2389.00
151.772,2514.00
152.809,2521.00
153.846,2434.00
154.881,2512.00
155.918,2078.00
156.953,2388.00
157.989,2731.00
159.026,2561.00
160.060,2768.00
161.096,3021.00
162.130,2589.00
163.167,2702.00
164.200,2582.00
165.236,2768.00
166.272,2850.00
167.305,2398.00
168.341,2693.00
169.374,2964.00
170.409,2965.00
171.445,2860.00
172.477,2656.00
173.512,2530.00
174.545,2832.00
175.580,2999.00
176.614,3168.00
177.647,2973.00
178.681,3189.00
179.713,3521.00
180.747,2974.00
181.781,2872.00
182.813,3182.00
183.847,3262.00
184.878,2898.00
185.912,3133.00
186.945,3328.00
187.976,3216.00
189.010,2884.00
190.043,2989.00
191.073,3099.00
192.106,2865.00
193.137,3388.00
194.170,2669.00
195.202,3058.00
196.232,2838.00
197.265,3146.00
198.297,3221.00
199.327,2943.00
200.359,3125.00
201.388,3493.00
202.420,3060.00
203.452,3239.00
204.481,2835.00
205.512,3514.00
206.544,3226.00
207.573,3236.00
208.604,3631.00
209.635,3747.00
210.663,3101.00
211.694,3093.00
212.725,3004.00
213.753,2958.00
214.783,3562.00
215.813,3402.00
216.841,3154.00
217.871,3356.00
218.899,3077.00
219.929,3340.00
220.959,3029.00
221.986,3328.00
223.016,2909.00
224.045,3319.00
225.072,3264.00
226.101,3403.00
227.130,3425.00
228.157,2971.00
229.185,2471.00
230.214,3377.00
231.241,2994.00
232.269,2570.00
233.297,2818.00
234.323,3454.00
235.351,2946.00
236.379,3236.00
237.407,2932.00
238.433,3097.00
239.460,3253.00
240.488,3277.00
241.513,3408.00
242.540,3256.00
243.568,3418.00
244.592,3426.00
245.619,3383.00
246.646,3072.00
247.671,3105.00
248.697,2981.00
249.724,3160.00
250.748,3150.00
251.774,3173.00
252.801,3486.00
253.827,3286.00
254.850,3277.00
255.876,2824.00
256.902,3303.00
257.925,3140.00
258.951,2901.00
259.976,2902.00
260.999,3273.00
262.024,2966.00
263.049,3825.00
264.074,3295.00
265.097,3168.00
266.122,3259.00
267.146,3196.00
268.168,3399.00
269.193,3006.00
270.217,3413.00
271.241,2851.00
272.263,3045.00
273.287,3343.00
274.311,2885.00
275.332,3486.00
276.356,3042.00
277.379,3295.00
278.402,3331.00
279.424,3103.00
280.447,3041.00
281.470,2888.00
282.492,3263.00
283.513,3054.00
284.536,3354.00
285.558,3306.00
286.581,3296.00
287.601,3007.00
288.623,2920.00
289.645,3244.00
290.665,3272.00
291.687,3292.00
292.709,3299.00
293.730,3592.00
294.750,3049.00
295.771,2925.00
296.792,3244.00
297.813,3059.00
298.832,3237.00
299.853,2890.00
300.874,3162.00
301.895,3124.00
302.913,3094.00
303.934,3486.00
304.954,3168.00
305.975,3396.00
306.993,2869.00
308.013,3328.00
309.033,3185.00
310.052,3100.00
311.072,3033.00
312.090,3206.00
313.109,3420.00
314.129,3582.00
315.148,3197.00
316.165,3235.00
317.184,3397.00
318.203,2897.00
319.222,2868.00
320.238,3355.00
321.257,2947.00
322.275,2827.00
323.294,3183.00
324.312,3305.00
325.328,3418.00
326.346,3474.00
327.364,3374.00
328.382,3331.00
329.397,3275.00
330.415,3389.00
331.432,3376.00
332.450,3445.00
333.467,3634.00
334.482,2682.00
335.499,3554.00
336.516,3024.00
337.533,2691.00
338.547,2985.00
339.564,3013.00
340.580,3253.00
341.597,3097.00
342.613,3643.00
343.627,3155.00
344.643,3174.00
345.659,3243.00
346.675,3131.00
347.690,3038.00
348.704,3263.00
349.719,3045.00
350.735,2871.00
351.750,3342.00
352.765,3200.00
353.778,3163.00
354.793,3310.00
355.808,2974.00
356.822,3404.00
357.837,2792.00
358.851,3447.00
359.864,3121.00
360.878,2905.00
361.892,3108.00
362.906,3361.00
363.920,2763.00
364.932,3262.00
365.945,3255.00
366.959,3221.00
367.972,3098.00
368.986,2875.00
369.999,3584.00
371.010,2994.00
372.023,3559.00
373.036,3097.00
374.049,3558.00
375.061,3249.00
376.072,3157.00
377.084,3051.00
378.097,2834.00
379.109,3341.00
380.121,3206.00
381.133,2835.00
382.143,3354.00
383.155,2845.00
384.166,3083.00
385.178,3280.00
386.189,3371.00
387.201,2884.00
388.212,3070.00
389.221,3035.00
390.232,3181.00
391.243,3094.00
392.254,3189.00
393.264,3012.00
394.275,3382.00
395.283,3346.00
396.294,3817.00
397.304,3706.00
398.314,3296.00
399.324,3188.00
400.334,2800.00
401.344,3322.00
402.351,2816.00
403.361,3409.00
404.370,3100.00
405.380,3037.00
406.389,3509.00
407.398,3273.00
408.407,3203.00
409.414,3365.00
410.423,3498.00
411.431,2903.00
412.440,2802.00
413.448,3559.00
414.457,3003.00
415.465,2984.00
416.471,3010.00
417.479,3173.00
418.487,2943.00
419.495,3503.00
420.503,3300.00
421.510,2749.00
422.518,3366.00
423.525,3339.00
424.530,3634.00
425.537,3009.00
426.544,3398.00
427.551,3009.00
428.558,3791.00
429.565,3657.00
430.571,3031.00
431.578,3069.00
432.582,3035.00
433.588,3147.00
434.595,2759.00
435.601,3498.00
436.607,3447.00
437.612,2922.00
438.618,3486.00
439.624,3067.00
440.627,3097.00
441.633,3255.00
442.638,3813.00
443.643,3261.00
444.648,3223.00
445.653,3350.00
446.658,3039.00
447.663,3198.00
448.667,3034.00
449.672,3114.00
450.674,3132.00
451.678,2863.00
452.682,3088.00
453.687,2992.00
454.690,3765.00
455.694,3492.00
456.698,2714.00
457.702,2781.00
458.705,2908.00
459.709,2962.00
460.710,3040.00
461.713,3164.00
462.716,3195.00
463.719,3133.00
464.722,3308.00
465.725,3133.00
466.727,3013.00
467.730,3194.00
468.732,2927.00
469.735,3497.00
470.737,3099.00
471.737,3067.00
472.739,3096.00
473.741,2982.00
474.742,3262.00
475.744,3275.00
476.746,3154.00
477.747,3125.00
478.748,3308.00
479.750,3068.00
480.751,3146.00
481.752,3961.00
482.753,3254.00
483.751,3749.00
484.752,2772.00
485.753,3141.00
486.753,3014.00
487.753,3164.00
488.754,3619.00
489.754,2821.00
490.754,3470.00
491.754,3261.00
492.754,2820.00
493.753,3218.00
494.753,3063.00
495.752,3492.00
496.752,3186.00
497.749,3100.00
498.748,2993.00
499.747,3583.00
500.746,3288.00
501.745,2872.00
502.744,2925.00
503.742,3551.00
504.741,3079.00
505.739,2588.00
506.737,3041.00
507.735,3302.00
508.734,3558.00
509.732,3290.00
510.729,3540.00
511.727,3051.00
512.725,3041.00
513.720,2920.00
514.718,3429.00
515.715,2788.00
516.712,2798.00
517.709,3134.00
518.706,3013.00
519.703,3198.00
520.700,3369.00
521.696,3512.00
522.693,3061.00
523.689,2987.00
524.686,3308.00
525.682,2934.00
526.678,3640.00
527.674,3082.00
528.670,2682.00
529.666,3620.00
530.661,3613.00
531.657,3872.00
532.652,3369.00
533.648,3156.00
534.641,3377.00
535.636,3194.00
536.631,3280.00
537.626,3283.00
538.621,2893.00
539.616,2718.00
540.610,2628.00
541.605,3140.00
542.599,3219.00
543.593,3166.00
544.587,4137.00
545.581,2965.00
546.575,3201.00
547.569,3199.00
548.563,2853.00
549.557,2794.00
550.550,2906.00
551.543,2918.00
552.537,3335.00
553.530,2863.00
554.523,2945.00
555.516,3229.00
556.509,3104.00
557.502,2739.00
558.494,3350.00
559.487,3054.00
560.479,3354.00
561.472,3429.00
562.464,3282.00
563.456,3404.00
564.448,3056.00
565.440,3133.00
566.432,3543.00
567.423,3064.00
568.415,3060.00
569.404,3277.00
570.396,2926.00
571.387,3270.00
572.378,3209.00
573.369,4196.00
574.360,3903.00
575.351,3124.00
576.341,2973.00
577.332,2959.00
578.323,2824.00
579.313,3027.00
580.303,3405.00
581.293,3303.00
582.283,3135.00
583.273,3316.00
584.263,3146.00
585.253,3278.00
586.243,3358.00
587.232,2807.00
588.222,3149.00
589.211,3357.00
590.200,3217.00
591.189,3105.00
592.178,3082.00
593.167,3610.00
594.156,3407.00
595.145,3011.00
596.133,3603.00
597.122,3289.00
598.110,3344.00
599.098,3219.00
600.086,3138.00
601.074,3330.00
602.062,2935.00
603.050,2849.00
604.038,3314.00
605.025,2941.00
606.013,3393.00
607.000,3530.00
607.987,3178.00
608.975,3204.00
609.962,2879.00
610.949,3343.00
611.936,3408.00
612.922,3309.00
613.909,2829.00
614.895,3514.00
615.882,2967.00
616.868,3132.00
617.854,2903.00
618.841,3183.00
619.826,3280.00
620.812,3127.00
621.798,2925.00
622.784,3359.00
623.769,3259.00
624.755,2856.00
625.740,3214.00
626.725,2847.00
627.711,3002.00
628.698,3275.00
629.683,2933.00
630.667,3364.00
631.652,2862.00
632.637,3100.00
633.621,3315.00
634.606,3094.00
635.590,3284.00
636.574,3116.00
637.558,3216.00
638.542,3242.00
639.526,3013.00
640.510,2768.00
641.493,3189.00
642.477,3121.00
643.460,2828.00
644.444,3398.00
645.427,3421.00
646.410,2786.00
647.393,3122.00
648.376,3229.00
649.359,3049.00
650.341,3259.00
651.324,3225.00
652.307,3192.00
653.289,3079.00
654.271,3003.00
655.253,3043.00
656.235,3262.00
657.217,3412.00
658.199,2783.00
659.181,2883.00
660.163,3171.00
661.144,2984.00
662.126,3040.00
663.107,2930.00
664.088,4910.00
665.069,3415.00
666.050,3008.00
667.033,2852.00
668.014,3232.00
668.995,2721.00
669.975,3146.00
670.956,3117.00
671.936,3268.00
672.916,3068.00
673.896,3235.00
674.876,3052.00
675.856,2978.00
676.836,2916.00
677.816,2420.00
678.795,2970.00
679.775,2788.00
680.754,3205.00
681.734,3313.00
682.713,3344.00
683.692,2945.00
684.671,2789.00
685.650,2855.00
686.629,2994.00
687.607,2892.00
688.586,2910.00
689.564,2974.00
690.543,3439.00
691.523,2513.00
692.501,2953.00
693.479,3077.00
694.457,2936.00
695.435,3003.00
696.413,2790.00
697.390,2639.00
698.368,2847.00
699.345,3285.00
700.322,3082.00
701.300,3228.00
702.277,3206.00
703.254,3411.00
704.231,2667.00
705.207,3096.00
706.184,2885.00
707.161,2764.00
708.137,2974.00
709.113,2951.00
710.090,2904.00
711.068,2707.00
712.044,2736.00
713.020,3049.00
713.996,2730.00
714.971,2916.00
715.947,2967.00
716.922,2920.00
717.898,2874.00
718.873,3028.00
719.848,2896.00
720.823,2807.00
721.798,3080.00
722.773,2872.00
723.748,2649.00
724.723,3181.00
725.697,3023.00
726.672,2880.00
727.646,2621.00
728.622,3131.00
729.596,2703.00
730.570,2871.00
731.544,3244.00
732.518,3422.00
733.492,2963.00
734.466,2999.00
735.439,3154.00
736.413,3248.00
737.386,2537.00
738.359,2527.00
739.332,2631.00
740.305,2969.00
741.278,3500.00
742.251,3058.00
743.224,2842.00
744.196,2659.00
745.171,3302.00
746.143,3165.00
747.115,2892.00
748.087,2828.00
749.059,3275.00
750.031,3020.00
751.003,3875.00
751.975,3393.00
752.947,2832.00
753.918,3259.00
754.890,2681.00
755.861,2867.00
756.832,3170.00
757.803,2969.00
758.774,2967.00
759.747,2695.00
760.718,3378.00
761.689,2885.00
762.659,2751.00
763.630,3306.00
764.600,2655.00
765.570,3188.00
766.540,3271.00
767.510,3038.00
768.480,3196.00
769.450,2834.00
770.420,2956.00
771.390,2763.00
772.359,2937.00
773.329,2820.00
774.300,2608.00
775.269,2889.00
776.238,3146.00
777.207,3303.00
778.176,2653.00
779.145,2924.00
780.114,2787.00
781.083,2656.00
782.051,2838.00
783.019,2803.00
783.988,3232.00
784.956,2991.00
785.924,3105.00
786.894,3004.00
787.862,2802.00
788.830,3249.00
789.797,2747.00
790.765,2710.00
791.732,2880.00
792.700,2768.00
793.667,2691.00
794.634,2891.00
795.601,2836.00
796.568,2901.00
797.535,2976.00
798.502,3551.00
799.468,3055.00
800.437,2493.00
801.403,2775.00
802.370,3381.00
803.336,3102.00
804.302,2979.00
805.268,2542.00
806.234,2727.00
807.200,2827.00
808.166,2909.00
809.131,2699.00
810.097,3153.00
811.062,3814.00
812.027,3146.00
812.994,2723.00
813.960,2738.00
814.925,3047.00
815.889,2608.00
816.854,3105.00
817.819,2767.00
818.783,2864.00
819.748,3238.00
820.712,2853.00
821.677,2759.00
822.641,2834.00
823.605,2841.00
824.571,3269.00
825.534,2870.00
826.498,2807.00
827.462,2916.00
828.425,2750.00
829.389,3186.00
830.352,2936.00
831.315,3030.00
832.279,2600.00
833.242,2892.00
834.204,2788.00
835.167,2741.00
836.132,3181.00
837.095,2640.00
838.057,2796.00
839.020,2957.00
839.982,2979.00
840.944,2802.00
841.906,2725.00
842.868,3096.00
843.830,2671.00
844.792,3155.00
845.753,2796.00
846.715,2530.00
847.679,2717.00
848.640,2766.00
849.601,2899.00
850.562,3401.00
851.523,2809.00
852.484,2590.00
853.445,3112.00
854.406,2810.00
855.367,2815.00
856.327,3195.00
857.288,2625.00
858.248,2808.00
859.210,2793.00
860.170,2635.00
861.130,3143.00
862.090,2506.00
863.050,2717.00
864.010,2779.00
864.969,3035.00
865.929,2699.00
866.888,2652.00
867.848,2951.00
868.807,2791.00
869.766,2987.00
870.727,2870.00
871.686,3157.00
872.645,3122.00
873.604,3470.00
874.562,2871.00
875.521,2912.00
876.479,3507.00
877.437,2700.00
878.396,2665.00
879.354,3303.00
880.312,2732.00
881.270,2763.00
882.229,3256.00
883.187,2750.00
884.145,2787.00
885.102,3072.00
886.059,2947.00
887.017,3033.00
887.974,3092.00
888.931,3211.00
889.888,2585.00
890.845,2563.00
891.802,2459.00
892.758,2765.00
893.717,2519.00
894.673,2650.00
895.630,2715.00
896.586,3030.00
897.542,2811.00
898.498,2627.00
899.454,2977.00
900.410,2803.00
901.366,2724.00
902.321,2747.00
903.277,2811.00
904.232,2859.00
905.189,2555.00
906.145,2752.00
907.100,2318.00
908.055,2851.00
909.010,3067.00
909.965,2458.00
910.919,2917.00
911.874,2708.00
912.828,2862.00
913.783,2903.00
914.737,2448.00
915.693,2886.00
916.648,2993.00
917.602,3060.00
918.555,2879.00
919.509,2973.00
920.463,2873.00
921.417,2883.00
922.370,2665.00
923.324,2791.00
924.277,2795.00
925.230,2886.00
926.183,2495.00
927.138,2803.00
928.091,3082.00
929.044,2939.00
929.996,2784.00
930.949,2735.00
931.902,2919.00
932.854,2960.00
933.806,2698.00
934.758,3097.00
935.711,3115.00
936.663,2923.00
937.614,2933.00
938.568,2840.00
939.520,2498.00
940.471,2855.00
941.423,2907.00
942.374,3010.00
943.326,2857.00
944.277,2729.00
945.228,2926.00
946.179,2807.00
947.130,3181.00
948.080,2782.00
949.031,2674.00
949.984,2801.00
950.934,2798.00
951.884,2563.00
952.835,2849.00
953.785,2853.00
954.735,2711.00
955.685,2489.00
956.635,2726.00
957.585,2754.00
958.534,2763.00
959.484,2866.00
960.433,2738.00
961.383,2561.00
962.334,3105.00
963.283,2899.00
964.232,2973.00
965.181,2853.00
966.130,2906.00
967.079,2755.00
968.027,2843.00
968.976,2815.00
969.924,2755.00
970.873,2921.00
971.821,2862.00
972.769,3042.00
973.719,2979.00
974.667,2599.00
975.615,2826.00
976.562,2849.00
977.510,2525.00
978.458,2734.00
979.405,2963.00
980.352,2864.00
981.300,3099.00
982.247,2911.00
983.194,2665.00
984.141,2722.00
985.088,2829.00
986.036,2887.00
986.983,3122.00
987.930,3239.00
988.876,2461.00
989.822,3099.00
990.769,2647.00
991.715,2717.00
992.661,2543.00
993.607,2887.00
994.553,3379.00
995.498,2710.00
996.444,2406.00
997.389,2895.00
998.337,2650.00
999.282,3031.00
1000.227,2737.00
1001.173,2820.00
1002.118,2554.00
1003.062,3053.00
1004.007,2851.00
1004.952,3122.00
1005.897,3041.00
1006.841,2849.00
1007.786,2567.00
1008.730,2547.00
1009.674,3337.00
1010.618,2754.00
1011.564,2603.00
1012.508,2463.00
1013.452,3090.00
1014.396,2847.00
1015.339,2677.00
1016.283,2814.00
1017.226,2871.00
1018.170,2805.00
1019.113,2999.00
1020.056,2866.00
1020.999,2829.00
1021.942,2718.00
1022.885,3014.00
1023.828,3131.00
1024.770,2629.00
1025.715,2899.00
1026.657,2789.00
1027.600,2865.00
1028.542,3050.00
1029.484,2879.00
1030.426,2967.00
1031.368,2894.00
1032.310,2723.00
1033.251,2641.00
1034.193,2803.00
1035.135,2619.00
1036.076,2753.00
1037.017,2638.00
1037.959,2979.00
1038.900,2899.00
1039.843,2923.00
1040.784,2799.00
1041.725,2861.00
1042.665,2727.00
1043.606,2846.00
1044.547,2883.00
1045.487,2498.00
1046.427,2771.00
1047.368,2903.00
1048.308,2340.00
1049.248,2651.00
1050.188,2805.00
1051.128,2746.00
1052.067,2782.00
1053.007,2513.00
1053.947,2518.00
1054.886,2691.00
1055.827,2585.00
1056.766,3076.00
1057.706,2531.00
1058.645,2785.00
1059.584,2878.00
1060.522,3110.00
1061.461,2577.00
1062.400,2566.00
1063.338,2730.00
1064.277,2589.00
1065.215,2616.00
1066.154,2498.00
1067.092,2668.00
1068.030,2768.00
1068.968,3003.00
1069.906,3140.00
1070.843,3060.00
1071.781,2864.00
1072.720,2936.00
1073.658,2978.00
1074.595,2705.00
1075.533,2649.00
1076.470,2656.00
1077.407,3088.00
1078.344,2905.00
1079.281,2890.00
1080.217,2415.00
1081.154,2773.00
1082.091,2840.00
1083.027,2546.00
1083.964,3048.00
1084.900,2658.00
1085.836,2711.00
1086.772,3009.00
1087.708,2520.00
1088.644,2932.00
1089.580,2812.00
1090.515,2859.00
1091.451,2731.00
1092.388,2864.00
1093.324,2540.00
1094.259,3380.00
1095.194,2863.00
1096.129,2719.00
1097.064,2661.00
1097.999,2937.00
1098.934,2621.00
1099.869,2634.00
1100.803,2790.00
1101.738,2787.00
1102.672,2491.00
1103.607,2950.00
1104.541,2657.00
1105.475,2636.00
1106.409,2507.00
1107.343,2718.00
1108.277,2525.00
1109.210,2799.00
1110.144,2772.00
1111.078,2778.00
1112.011,2540.00
1112.944,2895.00
1113.878,2826.00
1114.811,2240.00
1115.744,2688.00
1116.678,2437.00
1117.611,2687.00
1118.544,2720.00
1119.477,2897.00
1120.409,2661.00
1121.342,3242.00
1122.274,2823.00
1123.206,3172.00
1124.138,2755.00
1125.070,3071.00
1126.002,2996.00
1126.934,2402.00
1127.866,2637.00
1128.798,2423.00
1129.729,2462.00
1130.661,2776.00
1131.592,2661.00
1132.523,2806.00
1133.454,2843.00
1134.385,2392.00
1135.317,2749.00
1136.247,2687.00
1137.178,2977.00
1138.109,2482.00
1139.039,3124.00
1139.970,2971.00
1140.900,2678.00
1141.831,2407.00
1142.761,2333.00
1143.691,2916.00
1144.621,2766.00
1145.551,2829.00
1146.480,2835.00
1147.410,2966.00
1148.340,2397.00
1149.269,2448.00
1150.199,2739.00
1151.128,3147.00
1152.057,2528.00
1152.979,2674.00
1153.898,2692.00
1154.819,2862.00
1155.739,2727.00
1156.658,2680.00
1157.579,2785.00
1158.498,2745.00
1159.419,2284.00
1160.338,2763.00
1161.256,2788.00
1162.177,2567.00
1163.095,2727.00
1164.016,2845.00
1164.934,3051.00
1165.852,2929.00
1166.772,2690.00
1167.690,2770.00
1168.610,2811.00
1169.528,2726.00
1170.446,2279.00
1171.365,2645.00
1172.283,2673.00
1173.202,2731.00
1174.120,2805.00
1175.037,2602.00
1175.956,2578.00
1176.873,2614.00
1177.792,2627.00
1178.709,3238.00
1179.626,2641.00
1180.544,2969.00
1181.461,2632.00
1182.379,2822.00
1183.296,2725.00
1184.212,2363.00
1185.130,2606.00
1186.046,3073.00
1186.962,2765.00
1187.880,3058.00
1188.796,2775.00
1189.714,2536.00
1190.629,2887.00
1191.545,2739.00
1192.462,2693.00
1193.378,2707.00
1194.295,2429.00
1195.210,2739.00
1196.125,2879.00
1197.042,2831.00
1197.957,2730.00
1198.872,2590.00
1199.788,2638.00
1200.703,3094.00
1201.619,2755.00
1202.534,2620.00
1203.448,2864.00
1204.364,2696.00
1205.278,2405.00
1206.192,2762.00
1207.108,3260.00
1208.022,3104.00
1208.938,2584.00
1209.851,2886.00
1210.765,2937.00
1211.680,2656.00
1212.594,2521.00
1213.507,2685.00
1214.422,3136.00
1215.335,2819.00
1216.248,2665.00
1217.163,2754.00
1218.076,3399.00
1218.990,2869.00
1219.903,2530.00
1220.816,2574.00
1221.730,2740.00
1222.642,2599.00
1223.554,2643.00
1224.469,2848.00
1225.380,2684.00
1226.292,2356.00
1227.206,2875.00
1228.118,3074.00
1229.032,2329.00
1229.943,2612.00
1230.855,2685.00
1231.768,2446.00
1232.679,2801.00
1233.590,2751.00
1234.503,2945.00
1235.414,2611.00
1236.325,2613.00
1237.238,2774.00
1238.149,2863.00
1239.059,2563.00
1239.972,2935.00
1240.882,2543.00
1241.793,2853.00
1242.705,3122.00
1243.615,2682.00
1244.525,2798.00
1245.437,2298.00
1246.347,2826.00
1247.259,2909.00
1248.168,3161.00
1249.078,3001.00
1249.989,2981.00
1250.899,2536.00
1251.808,2599.00
1252.719,2678.00
1253.628,2610.00
1254.537,3154.00
1255.448,2568.00
1256.357,2566.00
1257.266,2768.00
1258.176,2436.00
1259.085,2448.00
1259.993,2545.00
1260.904,2536.00
1261.812,2532.00
1262.720,3273.00
1263.630,2928.00
1264.538,2586.00
1265.446,2864.00
1266.356,2725.00
1267.263,2987.00
1268.171,2521.00
1269.080,2764.00
1269.988,2905.00
1270.895,2663.00
1271.804,2714.00
1272.711,2935.00
1273.619,2884.00
1274.527,2562.00
1275.434,2838.00
1276.341,2565.00
1277.248,2743.00
1278.156,3021.00
1279.063,2580.00
1279.969,2844.00
1280.877,3662.00
1281.783,2923.00
1282.690,2794.00
1283.598,2693.00
1284.503,2580.00
1285.409,2596.00
1286.317,3102.00
1287.223,3165.00
1288.128,2815.00
1289.036,2616.00
1289.941,2677.00
1290.846,2761.00
1291.751,2543.00
1292.658,2671.00
1293.563,3217.00
1294.468,2774.00
1295.375,2883.00
1296.280,2958.00
1297.184,3483.00
1298.091,2886.00
1298.995,2892.00
1299.900,3107.00
1300.806,2628.00
1301.710,2483.00
1302.614,2284.00
1303.518,2977.00
1304.424,2691.00
1305.327,2945.00
1306.231,2739.00
1307.137,2884.00
1308.040,2818.00
1308.943,2778.00
1309.847,2922.00
1310.752,2926.00
1311.655,2377.00
1312.558,2488.00
1313.463,2668.00
1314.366,2621.00
1315.269,2792.00
1316.171,2750.00
1317.076,2636.00
1317.978,2564.00
1318.881,2327.00
1319.785,2612.00
1320.687,2601.00
1321.589,2316.00
1322.491,2572.00
1323.395,2842.00
1324.297,3296.00
1325.198,2879.00
1326.102,2540.00
1327.004,2508.00
1327.905,3117.00
1328.806,2708.00
1329.709,2835.00
1330.611,2668.00
1331.512,2581.00
1332.413,3206.00
1333.316,2781.00
1334.216,2927.00
1335.117,2493.00
1336.020,2770.00
1336.920,2765.00
1337.821,2554.00
1338.721,3027.00
1339.623,2802.00
1340.523,2697.00
1341.423,2599.00
1342.323,2977.00
1343.225,2827.00
1344.125,2588.00
1345.025,2614.00
1345.924,2394.00
1346.826,3107.00
1347.725,3182.00
1348.624,2973.00
1349.524,2616.00
1350.425,2728.00
1351.324,2826.00
1352.223,2936.00
1353.121,2723.00
1354.022,2916.00
1354.921,3161.00
1355.819,2869.00
1356.718,2816.00
1357.618,2455.00
1358.516,2884.00
1359.415,3142.00
1360.313,2810.00
1361.213,2708.00
1362.111,3015.00
1363.008,3376.00
1363.906,2720.00
1364.806,2753.00
1365.703,2844.00
1366.601,2543.00
1367.498,2564.00
1368.397,2905.00
1369.295,2803.00
1370.192,2565.00
1371.089,2799.00
1371.987,2692.00
1372.884,3026.00
1373.781,2522.00
1374.678,2751.00
1375.574,2578.00
1376.473,2897.00
1377.369,2993.00
1378.265,2592.00
1379.161,2690.00
1380.059,2413.00
1380.955,2851.00
1381.851,2519.00
1382.747,2632.00
1383.643,2664.00
1384.540,2491.00
1385.436,2623.00
1386.331,2791.00
1387.227,2885.00
1388.124,2860.00
1389.019,2527.00
1389.914,2694.00
1390.809,2370.00
1391.704,3175.00
1392.601,2656.00
1393.495,3054.00
1394.390,2920.00
1395.285,3049.00
1396.179,2819.00
1397.075,2712.00
1397.969,2796.00
1398.864,2417.00
1399.758,2698.00
1400.652,2783.00
1401.547,2544.00
1402.441,2504.00
1403.335,3119.00
1404.229,2792.00
1405.122,2811.00
1406.017,2676.00
1406.911,2892.00
1407.804,3211.00
1408.697,2756.00
1409.590,2562.00
1410.485,2932.00
1411.378,2816.00
1412.271,2427.00
1413.163,2833.00
1414.056,2880.00
1414.949,3112.00
1415.843,2764.00
1416.735,2683.00
1417.627,2798.00
1418.520,2704.00
1419.412,2976.00
1420.306,2921.00
1421.197,3006.00
1422.089,2957.00
1422.981,3229.00
1423.873,2957.00
1424.764,2906.00
1425.657,2781.00
1426.549,2886.00
1427.440,2974.00
1428.331,2638.00
1429.222,2445.00
1430.113,2814.00
1431.006,2949.00
1431.897,2684.00
1432.787,2777.00
1433.678,2646.00
1434.568,2544.00
1435.459,2999.00
1436.351,2937.00
1437.241,2875.00
1438.131,2908.00
1439.021,2509.00
1439.911,2738.00
1440.801,2807.00
1441.693,2990.00
1442.583,2812.00
1443.472,2734.00
1444.362,2916.00
1445.251,2690.00
1446.140,2656.00
1447.030,2941.00
1447.921,2988.00
1448.810,2577.00
1449.699,3144.00
1450.588,2837.00
1451.476,2699.00
1452.365,2893.00
1453.254,2663.00
1454.144,2600.00
1455.032,2875.00
1455.921,2514.00
1456.809,3107.00
1457.697,2543.00
1458.585,2728.00
1459.473,2719.00
1460.361,2576.00
1461.251,2830.00
1462.138,2866.00
1463.026,2752.00
1463.913,2975.00
1464.801,2661.00
1465.688,2837.00
1466.575,2808.00
1467.463,3232.00
1468.351,2622.00
1469.238,2718.00
1470.125,2283.00
1471.012,2844.00
1471.899,2829.00
1472.785,2553.00
1473.672,2728.00
1474.558,2995.00
1475.446,2897.00
1476.333,2955.00
1477.219,2575.00
1478.105,2712.00
1478.991,2731.00
1479.877,3071.00
1480.762,2783.00
1481.648,2611.00
1482.534,2924.00
1483.419,2850.00
1484.307,2874.00
1485.192,2775.00
1486.077,2598.00
1486.962,2608.00
1487.847,2501.00
1488.732,2613.00
1489.617,2767.00
1490.502,3056.00
1491.387,2900.00
1492.271,2583.00
1493.156,2599.00
1494.042,2558.00
1494.927,2945.00
1495.811,2660.00
1496.695,2914.00
1497.579,3055.00
1498.463,2788.00
1499.347,2814.00
1500.231,2832.00
1501.114,2844.00
1501.998,3066.00
1502.881,2784.00
1503.765,3076.00
1504.648,3209.00
1505.533,2893.00
1506.417,2761.00
1507.300,2741.00
1508.183,2832.00
1509.066,2234.00
1509.948,3031.00
1510.831,3154.00
1511.714,2582.00
1512.596,2912.00
1513.479,3033.00
1514.361,2998.00
1515.243,2828.00
1516.125,2952.00
1517.008,3064.00
1517.890,2743.00
1518.771,2793.00
1519.655,2952.00
1520.537,2748.00
1521.419,2604.00
1522.300,2827.00
1523.182,2915.00
1524.063,2917.00
1524.944,3080.00
1525.825,2972.00
1526.707,2579.00
1527.588,2586.00
1528.468,2886.00
1529.349,2433.00
1530.230,2681.00
1531.111,2943.00
1531.991,2817.00
1532.872,2468.00
1533.752,2786.00
1534.632,2638.00
1535.513,2658.00
1536.393,2955.00
1537.273,3117.00
1538.153,3461.00
1539.032,2524.00
1539.912,2765.00
1540.792,2759.00
1541.672,2807.00
1542.551,2894.00
1543.430,3412.00
1544.310,2783.00
1545.189,2670.00
1546.068,3234.00
1546.947,2884.00
1547.826,3093.00
1548.705,2806.00
1549.584,3029.00
1550.462,2732.00
1551.341,2960.00
1552.219,2859.00
1553.098,2924.00
1553.976,2998.00
1554.854,3176.00
1555.733,3013.00
1556.611,2679.00
1557.489,2581.00
1558.367,2765.00
1559.244,2961.00
1560.122,2751.00
1561.000,2862.00
1561.877,3067.00
1562.755,2643.00
1563.632,2778.00
1564.509,3066.00
1565.386,3156.00
1566.264,2546.00
1567.141,2403.00
1568.017,2929.00
1568.894,2789.00
1569.771,2821.00
1570.648,2876.00
1571.524,2795.00
1572.401,2522.00
1573.277,2555.00
1574.153,2827.00
1575.029,2649.00
1575.906,3586.00
1576.781,2944.00
1577.657,2707.00
1578.533,3054.00
1579.409,2438.00
1580.285,2757.00
1581.160,3236.00
1582.036,2982.00
1582.911,2616.00
1583.786,3160.00
1584.662,2546.00
1585.537,2757.00
1586.412,2809.00
1587.287,2617.00
1588.160,3008.00
1589.035,2409.00
1589.909,2799.00
1590.784,2782.00
1591.658,2587.00
1592.533,2872.00
1593.407,2786.00
1594.281,2690.00
1595.155,3216.00
1596.029,2686.00
1596.903,2732.00
1597.777,2721.00
1598.651,3033.00
1599.525,2500.00
1600.398,2808.00
1601.272,2776.00
1602.144,3338.00
1603.017,2759.00
1603.890,3049.00
1604.763,2877.00
1605.636,2948.00
1606.509,2492.00
1607.382,2615.00
1608.255,2858.00
1609.128,2998.00
1610.000,2752.00
1610.873,2480.00
1611.746,2674.00
1612.616,2737.00
1613.488,2356.00
1614.361,2777.00
1615.233,2776.00
1616.105,3013.00
1616.977,2718.00
1617.849,2625.00
1618.720,3126.00
1619.592,3092.00
1620.464,2875.00
1621.333,3281.00
1622.205,2799.00
1623.076,2760.00
1623.947,2792.00
1624.818,3031.00
1625.689,2922.00
1626.560,2694.00
1627.431,2816.00
1628.302,3249.00
1629.171,2922.00
1630.042,3117.00
1630.912,3844.00
1631.782,3381.00
1632.653,2614.00
1633.523,2961.00
1634.393,3039.00
1635.263,2657.00
1636.131,2779.00
1637.001,2692.00
1637.871,2419.00
1638.741,2406.00
1639.611,2554.00
1640.480,2930.00
1641.350,2645.00
1642.219,2598.00
1643.087,2280.00
1643.956,3217.00
1644.825,3057.00
1645.694,3003.00
1646.563,2989.00
1647.432,2804.00
1648.299,2814.00
1649.167,2898.00
1650.036,2614.00
1650.904,2927.00
1651.773,3060.00
1652.641,2781.00
1653.509,2989.00
1654.376,2677.00
1655.244,2835.00
1656.112,2849.00
1656.980,2791.00
1657.847,2651.00
1658.715,2986.00
1659.581,2695.00
1660.448,3042.00
1661.316,2295.00
1662.183,2858.00
1663.051,2824.00
1663.918,2842.00
1664.783,2773.00
1665.650,2902.00
1666.517,2988.00
1667.384,2849.00
1668.251,2872.00
1669.115,3035.00
1669.982,2796.00
1670.849,3085.00
1671.715,2778.00
1672.581,2948.00
1673.446,2942.00
1674.312,2840.00
1675.178,3298.00
1676.044,2908.00
1676.910,2868.00
1677.774,2892.00
1678.639,2448.00
1679.505,2784.00
1680.370,2949.00
1681.236,3400.00
1682.099,2753.00
1682.965,2813.00
1683.830,2357.00
1684.695,2634.00
1685.560,2720.00
1686.423,2923.00
1687.288,2943.00
1688.153,2847.00
1689.017,2705.00
1689.880,2864.00
1690.745,2943.00
1691.609,2674.00
1692.473,2986.00
1693.338,3022.00
1694.200,3085.00
1695.064,2823.00
1695.928,2685.00
1696.792,2820.00
1697.654,3320.00
1698.517,2818.00
1699.381,2583.00
1700.245,2395.00
1701.106,3157.00
1701.969,2705.00
1702.833,2996.00
1703.696,2747.00
1704.557,2763.00
1705.420,2682.00
1706.283,2810.00
1707.146,2984.00
1708.007,2586.00
1708.870,2594.00
1709.732,2464.00
1710.595,2732.00
1711.455,2537.00
1712.318,2684.00
1713.180,3117.00
1714.040,2896.00
1714.902,3033.00
1715.764,2811.00
1716.626,2608.00
1717.486,2835.00
1718.348,3100.00
1719.209,4183.00
1720.071,2466.00
1720.930,2540.00
1721.792,2639.00
1722.653,2668.00
1723.512,2722.00
1724.374,2752.00
1725.234,2884.00
1726.095,2830.00
1726.954,2781.00
1727.815,2981.00
1728.676,2829.00
1729.535,3060.00
1730.395,2768.00
1731.256,2722.00
1732.114,2875.00
1732.974,2254.00
1733.834,3205.00
1734.693,2961.00
1735.553,2881.00
1736.413,3271.00
1737.272,2705.00
1738.130,2750.00
1738.990,2871.00
1739.849,2694.00
1740.707,3894.00
1741.566,2854.00
1742.426,2901.00
1743.283,3218.00
1744.142,2697.00
1745.001,2464.00
1745.858,3013.00
1746.717,2906.00
1747.576,2913.00
1748.433,2967.00
1749.292,3464.00
1750.150,3495.00
1751.007,3012.00
1751.865,3011.00
1752.723,2866.00
1753.579,2744.00
1754.438,3050.00
1755.296,3088.00
1756.152,2362.00
1757.010,2468.00
1757.865,3048.00
1758.723,2452.00
1759.581,3157.00
1760.436,2816.00
1761.294,3145.00
1762.151,2820.00
1763.006,2725.00
1763.864,2463.00
1764.721,3029.00
1765.576,2891.00
1766.433,2992.00
1767.288,2731.00
1768.144,2862.00
1769.001,2758.00
1769.856,2939.00
1770.712,3045.00
1771.568,2590.00
1772.423,2712.00
1773.279,2733.00
1774.133,2775.00
1774.989,3227.00
1775.845,3204.00
1776.699,3052.00
1777.555,2822.00
1778.409,3347.00
1779.265,2775.00
1780.120,2785.00
1780.974,2785.00
1781.829,2364.00
1782.682,2879.00
1783.538,2634.00
1784.393,2862.00
1785.246,2719.00
1786.101,2884.00
1786.954,2958.00
1787.808,3040.00
1788.661,2540.00
1789.516,2759.00
1790.370,2741.00
1791.223,3052.00
1792.077,2821.00
1792.930,2924.00
1793.784,2675.00
1794.636,2807.00
1795.490,2800.00
1796.344,2855.00
1797.196,2788.00
1798.049,2979.00
1798.901,2710.00
1799.755,3056.00
1800.606,2583.00
1801.460,3400.00
1802.311,3146.00
1803.165,3264.00
1804.018,3172.00
1804.869,2915.00
1805.722,3345.00
1806.573,2884.00
1807.426,2648.00
1808.276,2812.00
1809.129,2735.00
1809.980,3075.00
1810.832,3108.00
1811.683,2745.00
1812.535,3196.00
1813.385,2774.00
1814.237,3110.00
1815.089,2880.00
1815.940,3142.00
1816.791,2773.00
1817.641,2700.00
1818.493,2989.00
1819.343,2901.00
1820.194,2665.00
1821.044,2922.00
1821.895,3065.00
1822.745,2538.00
1823.596,2679.00
1824.445,3250.00
1825.296,2973.00
1826.145,2807.00
1826.996,3048.00
1827.845,2854.00
1828.695,2916.00
1829.544,2819.00
1830.395,2882.00
1831.243,2736.00
1832.094,2592.00
1832.942,3484.00
1833.792,2939.00
1834.640,2897.00
1835.490,2817.00
1836.338,2900.00
1837.186,2700.00
1838.036,2699.00
1838.884,2815.00
1839.733,3154.00
1840.581,3029.00
1841.430,2969.00
1842.278,3187.00
1843.127,2747.00
1843.974,2528.00
1844.823,3315.00
1845.671,3014.00
1846.519,2870.00
1847.366,2911.00
1848.213,2457.00
1849.062,2655.00
1849.909,2584.00
1850.757,3561.00
1851.604,2958.00
1852.452,2787.00
1853.298,3034.00
1854.146,2921.00
1854.993,2903.00
1855.839,3348.00
1856.687,2947.00
1857.532,2968.00
1858.380,2839.00
1859.226,2939.00
1860.073,2952.00
1860.919,2690.00
1861.765,2733.00
1862.612,3082.00
1863.457,3070.00
1864.304,2785.00
1865.150,2945.00
1865.995,2790.00
1866.842,2952.00
1867.686,3084.00
1868.533,2922.00
1869.378,2930.00
1870.223,2856.00
1871.069,2761.00
1871.914,2928.00
1872.760,2829.00
1873.604,2637.00
1874.448,2981.00
1875.294,3039.00
1876.139,2685.00
1876.984,2958.00
1877.828,2515.00
1878.672,2342.00
1879.518,2714.00
1880.361,3055.00
1881.205,2997.00
1882.050,2627.00
1882.894,3381.00
1883.739,2688.00
1884.582,2546.00
1885.425,2663.00
1886.270,3106.00
1887.113,2583.00
1887.956,2976.00
1888.801,2913.00
1889.644,2622.00
1890.486,2445.00
1891.331,2766.00
1892.173,2856.00
1893.017,2910.00
1893.860,3160.00
1894.702,3174.00
1895.546,2868.00
1896.388,3572.00
1897.230,3248.00
1898.074,2745.00
1898.916,2640.00
1899.757,2677.00
1900.601,3584.00
1901.443,3128.00
1902.284,3171.00
1903.125,3376.00
1903.969,3066.00
1904.810,3096.00
1905.651,2965.00
1906.494,3162.00
1907.335,3349.00
1908.176,2969.00
1909.018,2933.00
1909.859,2799.00
1910.700,2728.00
1911.542,3387.00
1912.383,2942.00
1913.223,2467.00
1914.064,3014.00
1914.906,3129.00
1915.746,3198.00
1916.586,3373.00
1917.428,2822.00
1918.268,2917.00
1919.107,2735.00
1919.947,2597.00
1920.789,2755.00
1921.628,3108.00
1922.468,2810.00
1923.309,2687.00
1924.148,3215.00
1924.988,2943.00
1925.827,2840.00
1926.667,2745.00
1927.507,2874.00
1928.345,2726.00
1929.184,3011.00
1930.025,2656.00
1930.864,3146.00
1931.702,3172.00
1932.541,2768.00
1933.381,3007.00
1934.219,3000.00
1935.057,3173.00
1935.896,2561.00
1936.735,2813.00
1937.573,2763.00
1938.411,2656.00
1939.249,3063.00
1940.089,2731.00
1940.927,3118.00
1941.764,3179.00
1942.602,2832.00
1943.439,2739.00
1944.278,2843.00
1945.115,2828.00
1945.953,2619.00
1946.790,2964.00
1947.628,3254.00
1948.465,3022.00
1949.302,3021.00
1950.139,3010.00
1950.976,2753.00
1951.814,3056.00
1952.651,2933.00
1953.487,2674.00
1954.323,3140.00
1955.160,2818.00
1955.998,3252.00
1956.834,2854.00
1957.670,2968.00
1958.506,3088.00
1959.342,2961.00
1960.177,2868.00
1961.015,3044.00
1961.850,2924.00
1962.686,2908.00
1963.521,2919.00
1964.357,3160.00
1965.192,2628.00
1966.029,3032.00
1966.864,2772.00
1967.699,3123.00
1968.534,2881.00
1969.369,3161.00
1970.204,2805.00
1971.040,2928.00
1971.875,2807.00
1972.709,2922.00
1973.544,2718.00
1974.378,2766.00
1975.212,3017.00
1976.047,2787.00
1976.882,2749.00
1977.716,3248.00
1978.550,2560.00
1979.384,2798.00
1980.218,2790.00
1981.052,2799.00
1981.885,2937.00
1982.719,2905.00
1983.554,3072.00
1984.388,3205.00
1985.221,2946.00
1986.054,3119.00
1986.887,2914.00
1987.720,2709.00
1988.553,3219.00
1989.386,2964.00
1990.219,3015.00
1991.053,3213.00
1991.886,2743.00
1992.719,3059.00
1993.551,2384.00
1994.383,3022.00
1995.216,2798.00
1996.048,2598.00
1996.880,3046.00
1997.712,2796.00
1998.544,2865.00
1999.376,2961.00
2000.208,3157.00
2001.040,3364.00
2001.873,2757.00
2002.705,2735.00
2003.536,2958.00
2004.367,2914.00
2005.199,2929.00
2006.030,2771.00
2006.861,2710.00
2007.692,2904.00
2008.523,2713.00
2009.354,2878.00
2010.185,2683.00
2011.016,3005.00
2011.846,3120.00
2012.677,2863.00
2013.507,3241.00
2014.338,3163.00
2015.168,2806.00
2015.999,3428.00
2016.829,2830.00
2017.659,3123.00
2018.489,3431.00
2019.319,2672.00
2020.149,3093.00
2020.980,2945.00
2021.810,2719.00
2022.639,2771.00
2023.469,2753.00
2024.298,2562.00
2025.128,2482.00
2025.957,2499.00
2026.786,2326.00
2027.615,2479.00
2028.444,2724.00
2029.273,2924.00
2030.102,2490.00
2030.931,2720.00
2031.758,3042.00
2032.586,2661.00
2033.415,2748.00
2034.243,2328.00
2035.072,2125.00
2035.900,2613.00
2036.728,2451.00
2037.556,2472.00
2038.385,2477.00
2039.213,2291.00
2040.040,2255.00
2040.868,2267.00
2041.696,2305.00
2042.524,2351.00
2043.351,2539.00
2044.179,2335.00
2045.006,2086.00
