RamanScope Measure Spectrum Data V3.72

<< MEASURE CONDITION >>
Exposure Type,Aver
Exposure Time [sec],15
Exposure Count,30
Measure Time,2023/07/12 11:54:40
Data Name,""
Data Comment,""
Rayleigh Wave[nm],532.0

<< SAMPLE SPECTRUM >>
Wave[dcm-1],No13
146.591,1223.17
147.626,1432.57
148.664,1652.07
149.699,1863.07
150.737,2098.07
151.772,2334.77
152.809,2521.00
153.846,2710.37
154.881,2880.63
155.918,3027.90
156.953,3122.60
157.989,3253.70
159.026,3311.43
160.060,3386.03
161.096,3437.93
162.130,3511.50
163.167,3547.20
164.200,3645.40
165.236,3625.23
166.272,3736.10
167.305,3841.27
168.341,3886.93
169.374,3966.10
170.409,4027.20
171.445,4096.10
172.477,4189.33
173.512,4217.57
174.545,4245.83
175.580,4227.60
176.614,4219.17
177.647,4254.67
178.681,4230.20
179.713,4147.67
180.747,4147.03
181.781,4080.77
182.813,4097.60
183.847,4107.87
184.878,4116.53
185.912,4106.37
186.945,4138.00
187.976,4121.03
189.010,4127.57
190.043,4167.67
191.073,4174.47
192.106,4230.53
193.137,4249.47
194.170,4312.93
195.202,4334.37
196.232,4303.80
197.265,4426.83
198.297,4536.23
199.327,4541.90
200.359,4587.13
201.388,4678.63
202.420,4708.53
203.452,4843.53
204.481,4940.17
205.512,4983.20
206.544,5084.63
207.573,5208.47
208.604,5289.40
209.635,5428.83
210.663,5491.60
211.694,5572.23
212.725,5763.30
213.753,5815.50
214.783,5907.33
215.813,5854.37
216.841,5847.17
217.871,5854.13
218.899,5742.63
219.929,5716.10
220.959,5606.30
221.986,5562.17
223.016,5451.80
224.045,5398.33
225.072,5315.93
226.101,5243.07
227.130,5134.97
228.157,5137.93
229.185,5094.07
230.214,5099.87
231.241,5016.53
232.269,5012.17
233.297,4996.93
234.323,5017.07
235.351,4973.40
236.379,5003.73
237.407,5015.83
238.433,5027.10
239.460,5063.57
240.488,5117.97
241.513,5154.47
242.540,5253.00
243.568,5288.70
244.592,5341.57
245.619,5305.57
246.646,5268.20
247.671,5221.87
248.697,5163.57
249.724,5239.80
250.748,5136.87
251.774,5109.63
252.801,5117.90
253.827,5139.67
254.850,5210.83
255.876,5150.37
256.902,5113.87
257.925,5158.40
258.951,5188.83
259.976,5261.73
260.999,5249.00
262.024,5229.23
263.049,5281.03
264.074,5356.10
265.097,5357.93
266.122,5404.33
267.146,5466.03
268.168,5484.67
269.193,5547.97
270.217,5529.40
271.241,5589.77
272.263,5594.03
273.287,5605.33
274.311,5665.33
275.332,5669.57
276.356,5558.40
277.379,5534.23
278.402,5506.33
279.424,5481.13
280.447,5428.40
281.470,5351.50
282.492,5280.13
283.513,5254.40
284.536,5191.93
285.558,5169.33
286.581,5075.60
287.601,4980.63
288.623,4953.77
289.645,4879.77
290.665,4833.10
291.687,4771.17
292.709,4704.73
293.730,4668.23
294.750,4661.73
295.771,4672.60
296.792,4565.00
297.813,4479.97
298.832,4495.73
299.853,4443.27
300.874,4402.27
301.895,4363.33
302.913,4322.43
303.934,4252.53
304.954,4299.47
305.975,4060.17
306.993,4289.30
308.013,4195.20
309.033,4167.57
310.052,4186.03
311.072,4155.87
312.090,4134.17
313.109,4079.80
314.129,4054.03
315.148,4096.07
316.165,4088.77
317.184,4104.33
318.203,4031.93
319.222,4019.60
320.238,4020.27
321.257,4082.73
322.275,3999.40
323.294,4001.37
324.312,3981.80
325.328,3944.53
326.346,3976.17
327.364,3959.53
328.382,3954.37
329.397,3938.90
330.415,3935.80
331.432,3925.40
332.450,3925.73
333.467,3882.00
334.482,3902.03
335.499,3886.77
336.516,3907.47
337.533,3891.47
338.547,3868.37
339.564,3841.23
340.580,3858.47
341.597,3859.33
342.613,3852.23
343.627,3848.20
344.643,3817.73
345.659,3842.30
346.675,3824.47
347.690,3838.67
348.704,3804.27
349.719,3849.40
350.735,3799.07
351.750,3835.90
352.765,3773.93
353.778,3809.23
354.793,3736.00
355.808,3817.53
356.822,3801.17
357.837,3826.07
358.851,3801.13
359.864,3806.60
360.878,3820.83
361.892,3810.93
362.906,3838.53
363.920,3848.47
364.932,3817.10
365.945,3795.40
366.959,3846.67
367.972,3814.40
368.986,3844.93
369.999,3823.93
371.010,3832.43
372.023,3846.13
373.036,3868.20
374.049,3851.03
375.061,3890.73
376.072,3873.80
377.084,3886.33
378.097,3837.93
379.109,3884.77
380.121,3871.40
381.133,3892.60
382.143,3907.13
383.155,3864.20
384.166,3884.87
385.178,3864.73
386.189,3826.90
387.201,3862.93
388.212,3875.87
389.221,3817.30
390.232,3835.77
391.243,3858.13
392.254,3782.63
393.264,3817.17
394.275,3776.53
395.283,3799.37
396.294,3699.40
397.304,3719.73
398.314,3782.83
399.324,3759.97
400.334,3715.27
401.344,3708.70
402.351,3728.43
403.361,3683.60
404.370,3726.53
405.380,3674.63
406.389,3686.93
407.398,3627.53
408.407,3630.50
409.414,3637.13
410.423,3605.53
411.431,3635.73
412.440,3603.67
413.448,3606.67
414.457,3634.17
415.465,3562.30
416.471,3576.73
417.479,3565.33
418.487,3610.00
419.495,3590.87
420.503,3568.90
421.510,3580.53
422.518,3544.93
423.525,3572.80
424.530,3550.43
425.537,3579.53
426.544,3512.03
427.551,3532.40
428.558,3553.00
429.565,3565.90
430.571,3547.17
431.578,3530.53
432.582,3485.23
433.588,3606.13
434.595,3535.40
435.601,3503.83
436.607,3513.13
437.612,3514.80
438.618,3533.23
439.624,3520.63
440.627,3566.63
441.633,3548.03
442.638,3512.03
443.643,3523.17
444.648,3507.83
445.653,3550.27
446.658,3516.10
447.663,3557.63
448.667,3502.27
449.672,3562.47
450.674,3556.10
451.678,3555.57
452.682,3541.60
453.687,3571.70
454.690,3570.60
455.694,3617.57
456.698,3582.63
457.702,3583.03
458.705,3575.70
459.709,3540.57
460.710,3550.27
461.713,3616.77
462.716,3553.30
463.719,3567.77
464.722,3548.60
465.725,3590.87
466.727,3604.67
467.730,3558.57
468.732,3564.83
469.735,3611.97
470.737,3601.97
471.737,3661.87
472.739,3580.27
473.741,3614.23
474.742,3652.73
475.744,3630.43
476.746,3648.07
477.747,3631.13
478.748,3597.13
479.750,3603.47
480.751,3623.37
481.752,3648.37
482.753,3635.83
483.751,3594.53
484.752,3619.87
485.753,3645.37
486.753,3643.30
487.753,3648.70
488.754,3625.33
489.754,3644.57
490.754,3612.17
491.754,3632.80
492.754,3670.93
493.753,3645.53
494.753,3601.83
495.752,3607.43
496.752,3635.67
497.749,3645.50
498.748,3621.80
499.747,3593.87
500.746,3566.33
501.745,3615.60
502.744,3581.73
503.742,3539.93
504.741,3529.33
505.739,3499.43
506.737,3506.10
507.735,3472.30
508.734,3469.17
509.732,3478.83
510.729,3487.53
511.727,3468.53
512.725,3474.13
513.720,3452.40
514.718,3419.03
515.715,3392.57
516.712,3411.27
517.709,3432.90
518.706,3446.83
519.703,3430.37
520.700,3397.20
521.696,3444.90
522.693,3468.33
523.689,3442.13
524.686,3402.50
525.682,3407.00
526.678,3430.60
527.674,3444.10
528.670,3457.60
529.666,3436.00
530.661,3462.80
531.657,3714.63
532.652,3521.30
533.648,3487.57
534.641,3440.87
535.636,3433.30
536.631,3498.30
537.626,3530.53
538.621,3492.30
539.616,3512.93
540.610,3485.30
541.605,3445.70
542.599,3437.30
543.593,3449.20
544.587,3459.73
545.581,3445.43
546.575,3447.37
547.569,3446.60
548.563,3463.90
549.557,3466.93
550.550,3458.67
551.543,3422.43
552.537,3458.30
553.530,3464.47
554.523,3432.30
555.516,3434.83
556.509,3451.50
557.502,3433.87
558.494,3455.47
559.487,3489.70
560.479,3446.17
561.472,3437.50
562.464,3445.03
563.456,3410.13
564.448,3500.30
565.440,3486.33
566.432,3477.03
567.423,3502.60
568.415,3484.47
569.404,3512.97
570.396,3526.70
571.387,3518.50
572.378,3554.63
573.369,3518.00
574.360,3550.70
575.351,3559.30
576.341,3553.90
577.332,3541.33
578.323,3579.03
579.313,3630.73
580.303,3538.23
581.293,3599.87
582.283,3615.80
583.273,3631.17
584.263,3661.30
585.253,3636.77
586.243,3699.87
587.232,3704.60
588.222,3670.63
589.211,3710.17
590.200,3689.20
591.189,3735.47
592.178,3698.17
593.167,3706.07
594.156,3715.37
595.145,3731.40
596.133,3754.10
597.122,3724.80
598.110,3759.80
599.098,3758.27
600.086,3793.57
601.074,3761.70
602.062,3786.00
603.050,3751.73
604.038,3744.50
605.025,3731.43
606.013,3734.73
607.000,3684.83
607.987,3713.07
608.975,3688.43
609.962,3671.67
610.949,3628.27
611.936,3680.63
612.922,3575.23
613.909,3622.17
614.895,3569.77
615.882,3540.03
616.868,3554.33
617.854,3513.10
618.841,3487.93
619.826,3459.13
620.812,3423.53
621.798,3458.80
622.784,3398.60
623.769,3344.00
624.755,3365.03
625.740,3338.17
626.725,3298.73
627.711,3347.03
628.698,3278.07
629.683,3234.43
630.667,3262.30
631.652,3228.97
632.637,3192.30
633.621,3153.33
634.606,3117.97
635.590,3137.03
636.574,3149.77
637.558,3078.47
638.542,3055.27
639.526,3043.53
640.510,3061.97
641.493,3042.27
642.477,3018.77
643.460,3023.37
644.444,3015.53
645.427,2987.03
646.410,2957.17
647.393,3017.53
648.376,2956.63
649.359,2933.13
650.341,2936.63
651.324,2924.63
652.307,2915.90
653.289,2894.23
654.271,2919.87
655.253,2906.60
656.235,2862.60
657.217,2879.23
658.199,2862.60
659.181,2870.37
660.163,2852.07
661.144,2826.97
662.126,2846.57
663.107,2819.93
664.088,2824.10
665.069,2805.13
666.050,2789.80
667.033,2805.67
668.014,2816.57
668.995,2755.87
669.975,2757.70
670.956,2776.20
671.936,2710.67
672.916,2726.13
673.896,2736.07
674.876,2641.97
675.856,2657.57
676.836,2651.70
677.816,2665.27
678.795,2653.97
679.775,2593.03
680.754,2606.60
681.734,2562.67
682.713,2517.77
683.692,2530.57
684.671,2541.20
685.650,2520.87
686.629,2487.40
687.607,2461.00
688.586,2480.03
689.564,2469.67
690.543,2479.47
691.523,2406.10
692.501,2437.30
693.479,2419.60
694.457,2406.07
695.435,2470.30
696.413,2344.47
697.390,2363.27
698.368,2380.03
699.345,2362.70
700.322,2341.43
701.300,2306.60
702.277,2351.30
703.254,2294.20
704.231,2293.30
705.207,2328.03
706.184,2275.00
707.161,2287.93
708.137,2260.33
709.113,2273.80
710.090,2275.13
711.068,2282.33
712.044,2260.67
713.020,2231.57
713.996,2259.73
714.971,2200.80
715.947,2229.27
716.922,2214.83
717.898,2212.93
718.873,2197.27
719.848,2196.33
720.823,2209.33
721.798,2190.80
722.773,2162.77
723.748,2178.63
724.723,2156.90
725.697,2152.90
726.672,2161.67
727.646,2130.23
728.622,2159.60
729.596,2140.17
730.570,2144.97
731.544,2135.53
732.518,2114.03
733.492,2115.23
734.466,2113.47
735.439,2101.57
736.413,2129.50
737.386,2073.03
738.359,2110.77
739.332,2108.30
740.305,2066.97
741.278,2055.47
742.251,2057.50
743.224,2077.57
744.196,2084.53
745.171,2028.57
746.143,2046.63
747.115,2056.90
748.087,2028.00
749.059,1989.67
750.031,2041.87
751.003,1976.67
751.975,1987.77
752.947,1990.53
753.918,1972.83
754.890,1960.00
755.861,1968.13
756.832,1976.47
757.803,1982.03
758.774,1978.07
759.747,1947.63
760.718,1928.40
761.689,1919.57
762.659,1957.67
763.630,1904.70
764.600,1915.73
765.570,1926.73
766.540,1954.73
767.510,1907.70
768.480,1878.67
769.450,1902.10
770.420,1888.73
771.390,1865.17
772.359,1881.83
773.329,1920.27
774.300,1884.10
775.269,1878.97
776.238,1911.23
777.207,1917.63
778.176,1857.27
779.145,1825.30
780.114,1833.97
781.083,1802.20
782.051,1839.80
783.019,1815.90
783.988,1848.97
784.956,1818.53
785.924,1867.53
786.894,1831.97
787.862,1780.63
788.830,1785.73
789.797,1811.17
790.765,1815.03
791.732,1785.30
792.700,1775.43
793.667,1789.00
794.634,1774.90
795.601,1797.13
796.568,1713.97
797.535,1782.70
798.502,1728.30
799.468,1785.67
800.437,1752.47
801.403,1756.07
802.370,1766.47
803.336,1729.90
804.302,1726.97
805.268,1735.40
806.234,1754.70
807.200,1709.67
808.166,1733.37
809.131,1698.97
810.097,1707.20
811.062,1727.73
812.027,1691.87
812.994,1727.67
813.960,1693.90
814.925,1685.17
815.889,1683.70
816.854,1692.40
817.819,1684.10
818.783,1685.73
819.748,1662.07
820.712,1711.07
821.677,1672.77
822.641,1686.77
823.605,1667.27
824.571,1627.70
825.534,1699.37
826.498,1690.13
827.462,1672.60
828.425,1666.27
829.389,1667.33
830.352,1649.97
831.315,1638.60
832.279,1653.10
833.242,1649.07
834.204,1653.60
835.167,1641.30
836.132,1651.20
837.095,1618.47
838.057,1633.53
839.020,1630.63
839.982,1588.97
840.944,1624.33
841.906,1619.27
842.868,1598.37
843.830,1630.27
844.792,1612.20
845.753,1588.33
846.715,1639.77
847.679,1614.80
848.640,1616.43
849.601,1623.33
850.562,1594.20
851.523,1584.63
852.484,1607.67
853.445,1597.93
854.406,1623.73
855.367,1562.27
856.327,1575.90
857.288,1606.40
858.248,1589.47
859.210,1583.53
860.170,1567.73
861.130,1578.87
862.090,1568.13
863.050,1581.17
864.010,1585.97
864.969,1563.93
865.929,1568.50
866.888,1542.40
867.848,1598.67
868.807,1552.77
869.766,1584.20
870.727,1575.10
871.686,1596.43
872.645,1557.30
873.604,1549.17
874.562,1579.10
875.521,1530.87
876.479,1607.50
877.437,1524.77
878.396,1540.80
879.354,1573.70
880.312,1603.67
881.270,1567.00
882.229,1546.70
883.187,1539.33
884.145,1522.53
885.102,1546.30
886.059,1537.13
887.017,1598.83
887.974,1602.67
888.931,1573.20
889.888,1577.00
890.845,1551.40
891.802,1572.87
892.758,1550.70
893.717,1524.73
894.673,1545.77
895.630,1557.53
896.586,1553.83
897.542,1532.87
898.498,1535.23
899.454,1589.63
900.410,1544.17
901.366,1562.93
902.321,1588.90
903.277,1582.67
904.232,1563.20
905.189,1587.77
906.145,1571.03
907.100,1559.13
908.055,1596.23
909.010,1602.67
909.965,1564.40
910.919,1585.33
911.874,1583.73
912.828,1593.40
913.783,1600.47
914.737,1588.13
915.693,1575.60
916.648,1586.90
917.602,1589.33
918.555,1592.17
919.509,1580.50
920.463,1596.03
921.417,1595.10
922.370,1580.07
923.324,1579.07
924.277,1599.27
925.230,1577.93
926.183,1557.63
927.138,1634.00
928.091,1602.00
929.044,1600.27
929.996,1599.17
930.949,1588.73
931.902,1612.10
932.854,1613.63
933.806,1556.20
934.758,1605.03
935.711,1600.57
936.663,1652.00
937.614,1615.90
938.568,1578.63
939.520,1618.80
940.471,1574.07
941.423,1592.77
942.374,1576.23
943.326,1603.37
944.277,1577.87
945.228,1607.67
946.179,1606.97
947.130,1593.13
948.080,1598.00
949.031,1601.30
949.984,1572.50
950.934,1572.67
951.884,1603.83
952.835,1571.37
953.785,1618.37
954.735,1587.57
955.685,1581.33
956.635,1605.73
957.585,1588.90
958.534,1589.30
959.484,1552.17
960.433,1563.63
961.383,1578.40
962.334,1564.93
963.283,1582.50
964.232,1528.60
965.181,1582.50
966.130,1603.87
967.079,1581.37
968.027,1585.17
968.976,1545.87
969.924,1578.80
970.873,1578.30
971.821,1545.93
972.769,1592.77
973.719,1613.53
974.667,1563.67
975.615,1543.07
976.562,1521.83
977.510,1579.77
978.458,1604.17
979.405,1529.23
980.352,1552.77
981.300,1524.80
982.247,1558.47
983.194,1552.53
984.141,1542.30
985.088,1533.33
986.036,1536.73
986.983,1545.33
987.930,1578.73
988.876,1570.77
989.822,1524.53
990.769,1549.10
991.715,1561.33
992.661,1565.60
993.607,1545.97
994.553,1552.30
995.498,1536.60
996.444,1551.27
997.389,1494.90
998.337,1560.47
999.282,1596.13
1000.227,1511.20
1001.173,1543.03
1002.118,1528.23
1003.062,1585.70
1004.007,1538.07
1004.952,1531.17
1005.897,1527.37
1006.841,1522.00
1007.786,1507.53
1008.730,1578.17
1009.674,1546.13
1010.618,1544.20
1011.564,1533.70
1012.508,1527.43
1013.452,1518.47
1014.396,1541.13
1015.339,1516.03
1016.283,1536.00
1017.226,1535.90
1018.170,1552.53
1019.113,1546.47
1020.056,1526.30
1020.999,1545.43
1021.942,1509.60
1022.885,1518.97
1023.828,1513.57
1024.770,1595.23
1025.715,1494.00
1026.657,1531.87
1027.600,1562.03
1028.542,1496.70
1029.484,1550.57
1030.426,1582.23
1031.368,1555.43
1032.310,1547.67
1033.251,1557.03
1034.193,1542.30
1035.135,1558.50
1036.076,1556.53
1037.017,1554.23
1037.959,1567.30
1038.900,1571.50
1039.843,1557.77
1040.784,1573.00
1041.725,1550.90
1042.665,1552.37
1043.606,1587.10
1044.547,1575.80
1045.487,1610.77
1046.427,1616.13
1047.368,1578.57
1048.308,1568.27
1049.248,1608.00
1050.188,1562.70
1051.128,1559.50
1052.067,1603.77
1053.007,1602.27
1053.947,1637.27
1054.886,1603.73
1055.827,1599.87
1056.766,1608.97
1057.706,1622.17
1058.645,1647.50
1059.584,1645.97
1060.522,1636.13
1061.461,1589.27
1062.400,1614.40
1063.338,1617.50
1064.277,1659.53
1065.215,1626.37
1066.154,1655.87
1067.092,1619.90
1068.030,1655.57
1068.968,1615.70
1069.906,1654.63
1070.843,1642.40
1071.781,1683.37
1072.720,1664.90
1073.658,1676.30
1074.595,1669.07
1075.533,1655.80
1076.470,1687.10
1077.407,1673.67
1078.344,1645.80
1079.281,1684.83
1080.217,1671.57
1081.154,1658.83
1082.091,1716.33
1083.027,1700.93
1083.964,1658.97
1084.900,1707.00
1085.836,1632.93
1086.772,1670.20
1087.708,1645.73
1088.644,1682.83
1089.580,1660.53
1090.515,1657.23
1091.451,1641.00
1092.388,1701.30
1093.324,1657.73
1094.259,1666.60
1095.194,1676.93
1096.129,1677.97
1097.064,1618.10
1097.999,1670.80
1098.934,1649.83
1099.869,1622.87
1100.803,1673.40
1101.738,1616.43
1102.672,1633.17
1103.607,1628.50
1104.541,1633.33
1105.475,1635.57
1106.409,1631.70
1107.343,1555.03
1108.277,1575.37
1109.210,1631.37
1110.144,1596.77
1111.078,1578.03
1112.011,1555.20
1112.944,1555.43
1113.878,1562.87
1114.811,1597.00
1115.744,1585.87
1116.678,1542.60
1117.611,1517.53
1118.544,1527.07
1119.477,1524.03
1120.409,1535.03
1121.342,1543.67
1122.274,1500.60
1123.206,1650.97
1124.138,1481.20
1125.070,1489.23
1126.002,1517.40
1126.934,1484.70
1127.866,1533.43
1128.798,1498.83
1129.729,1481.87
1130.661,1489.07
1131.592,1507.20
1132.523,1470.77
1133.454,1450.43
1134.385,1437.43
1135.317,1439.43
1136.247,1462.93
1137.178,1459.03
1138.109,1437.90
1139.039,1440.20
1139.970,1438.43
1140.900,1418.97
1141.831,1410.00
1142.761,1390.80
1143.691,1421.27
1144.621,1420.80
1145.551,1422.53
1146.480,1415.97
1147.410,1434.07
1148.340,1400.83
1149.269,1386.23
1150.199,1405.70
1151.128,1385.87
1152.057,1375.07
1152.979,1377.17
1153.898,1355.27
1154.819,1351.60
1155.739,1354.07
1156.658,1364.70
1157.579,1358.90
1158.498,1325.37
1159.419,1343.50
1160.338,1361.20
1161.256,1344.60
1162.177,1367.83
1163.095,1362.50
1164.016,1346.83
1164.934,1303.90
1165.852,1349.17
1166.772,1333.77
1167.690,1382.63
1168.610,1349.57
1169.528,1315.27
1170.446,1290.77
1171.365,1282.93
1172.283,1303.83
1173.202,1361.07
1174.120,1329.93
1175.037,1292.10
1175.956,1313.37
1176.873,1272.20
1177.792,1294.63
1178.709,1306.37
1179.626,1277.83
1180.544,1271.27
1181.461,1310.93
1182.379,1309.27
1183.296,1324.27
1184.212,1296.87
1185.130,1277.57
1186.046,1317.63
1186.962,1315.23
1187.880,1249.53
1188.796,1302.60
1189.714,1303.60
1190.629,1284.57
1191.545,1273.70
1192.462,1300.87
1193.378,1290.00
1194.295,1329.77
1195.210,1299.17
1196.125,1343.87
1197.042,1268.17
1197.957,1271.93
1198.872,1271.57
1199.788,1307.30
1200.703,1221.77
1201.619,1312.53
1202.534,1249.07
1203.448,1275.97
1204.364,1260.00
1205.278,1288.47
1206.192,1277.17
1207.108,1230.33
1208.022,1266.17
1208.938,1286.13
1209.851,1292.37
1210.765,1216.43
1211.680,1308.07
1212.594,1274.77
1213.507,1278.00
1214.422,1279.50
1215.335,1278.17
1216.248,1267.73
1217.163,1230.47
1218.076,1251.13
1218.990,1287.53
1219.903,1280.83
1220.816,1277.40
1221.730,1255.77
1222.642,1286.87
1223.554,1280.30
1224.469,1265.03
1225.380,1251.33
1226.292,1282.00
1227.206,1261.70
1228.118,1261.33
1229.032,1274.23
1229.943,1263.70
1230.855,1279.50
1231.768,1273.70
1232.679,1280.13
1233.590,1273.87
1234.503,1226.90
1235.414,1288.83
1236.325,1265.53
1237.238,1210.80
1238.149,1217.33
1239.059,1274.40
1239.972,1269.80
1240.882,1262.13
1241.793,1304.20
1242.705,1265.43
1243.615,1294.40
1244.525,1248.23
1245.437,1300.37
1246.347,1272.37
1247.259,1287.80
1248.168,1299.17
1249.078,1316.90
1249.989,1270.03
1250.899,1294.23
1251.808,1252.80
1252.719,1306.73
1253.628,1281.73
1254.537,1261.03
1255.448,1258.47
1256.357,1260.73
1257.266,1269.13
1258.176,1260.57
1259.085,1270.07
1259.993,1267.20
1260.904,1258.50
1261.812,1309.67
1262.720,1295.47
1263.630,1276.63
1264.538,1297.93
1265.446,1292.23
1266.356,1300.77
1267.263,1267.63
1268.171,1276.60
1269.080,1257.60
1269.988,1261.83
1270.895,1266.83
1271.804,1265.97
1272.711,1266.07
1273.619,1254.27
1274.527,1271.63
1275.434,1277.00
1276.341,1291.93
1277.248,1247.47
1278.156,1237.93
1279.063,1276.60
1279.969,1214.73
1280.877,1254.50
1281.783,1281.47
1282.690,1249.73
1283.598,1269.53
1284.503,1242.80
1285.409,1251.33
1286.317,1255.57
1287.223,1244.33
1288.128,1244.57
1289.036,1261.53
1289.941,1250.83
1290.846,1237.70
1291.751,1196.07
1292.658,1239.67
1293.563,1250.13
1294.468,1185.30
1295.375,1240.07
1296.280,1235.60
1297.184,1206.00
1298.091,1237.87
1298.995,1223.80
1299.900,1197.87
1300.806,1226.53
1301.710,1196.00
1302.614,1212.60
1303.518,1242.23
1304.424,1222.53
1305.327,1218.40
1306.231,1186.50
1307.137,1164.93
1308.040,1174.13
1308.943,1217.13
1309.847,1213.13
1310.752,1173.30
1311.655,1187.67
1312.558,1182.30
1313.463,1174.73
1314.366,1200.53
1315.269,1158.10
1316.171,1190.80
1317.076,1158.30
1317.978,1144.57
1318.881,1155.80
1319.785,1172.43
1320.687,1136.70
1321.589,1119.53
1322.491,1161.23
1323.395,1149.10
1324.297,1148.40
1325.198,1138.57
1326.102,1148.53
1327.004,1175.47
1327.905,1175.77
1328.806,1152.37
1329.709,1184.60
1330.611,1141.90
1331.512,1165.57
1332.413,1142.73
1333.316,1175.47
1334.216,1157.77
1335.117,1120.50
1336.020,1126.47
1336.920,1124.70
1337.821,1115.13
1338.721,1088.13
1339.623,1159.13
1340.523,1154.83
1341.423,1104.60
1342.323,1059.37
1343.225,1133.20
1344.125,1136.60
1345.025,1112.27
1345.924,1088.23
1346.826,1100.13
1347.725,1136.50
1348.624,1101.97
1349.524,1074.33
1350.425,1096.60
1351.324,1044.80
1352.223,1094.47
1353.121,1095.17
1354.022,1070.97
1354.921,1100.87
1355.819,1061.63
1356.718,1089.33
1357.618,1122.70
1358.516,1090.17
1359.415,1065.03
1360.313,1047.43
1361.213,1054.37
1362.111,1092.43
1363.008,1039.80
1363.906,1083.30
1364.806,1041.00
1365.703,1096.87
1366.601,1049.50
1367.498,1076.80
1368.397,1062.50
1369.295,1028.17
1370.192,1072.43
1371.089,1057.67
1371.987,1033.90
1372.884,1039.03
1373.781,1014.33
1374.678,1047.90
1375.574,1025.00
1376.473,1001.97
1377.369,1011.77
1378.265,1030.83
1379.161,1017.03
1380.059,1031.00
1380.955,1004.80
1381.851,1041.80
1382.747,1049.97
1383.643,1052.83
1384.540,1035.90
1385.436,1023.97
1386.331,1017.93
1387.227,1056.63
1388.124,1026.77
1389.019,1011.97
1389.914,1018.83
1390.809,1002.40
1391.704,1035.53
1392.601,1006.47
1393.495,1031.73
1394.390,991.10
1395.285,1009.57
1396.179,1012.53
1397.075,1009.47
1397.969,996.50
1398.864,989.77
1399.758,987.63
1400.652,974.53
1401.547,1001.87
1402.441,994.83
1403.335,978.33
1404.229,948.40
1405.122,991.40
1406.017,1038.90
1406.911,957.57
1407.804,982.10
1408.697,959.97
1409.590,990.40
1410.485,960.33
1411.378,966.00
1412.271,981.90
1413.163,1020.47
1414.056,992.47
1414.949,970.90
1415.843,977.67
1416.735,991.63
1417.627,1023.60
1418.520,972.13
1419.412,965.97
1420.306,968.77
1421.197,978.10
1422.089,988.87
1422.981,946.10
1423.873,955.43
1424.764,921.57
1425.657,1006.30
1426.549,958.90
1427.440,1002.57
1428.331,946.47
1429.222,930.60
1430.113,954.20
1431.006,986.63
1431.897,920.20
1432.787,951.67
1433.678,962.83
1434.568,966.43
1435.459,936.80
1436.351,920.97
1437.241,975.07
1438.131,940.00
1439.021,936.93
1439.911,974.00
1440.801,938.40
1441.693,943.10
1442.583,949.43
1443.472,947.30
1444.362,963.63
1445.251,941.00
1446.140,907.47
1447.030,947.20
1447.921,955.10
1448.810,949.57
1449.699,931.63
1450.588,905.50
1451.476,932.97
1452.365,934.17
1453.254,912.93
1454.144,908.50
1455.032,905.83
1455.921,895.23
1456.809,892.93
1457.697,933.30
1458.585,953.53
1459.473,919.00
1460.361,923.90
1461.251,915.00
1462.138,903.93
1463.026,915.03
1463.913,874.70
1464.801,904.50
1465.688,945.27
1466.575,925.67
1467.463,888.43
1468.351,886.47
1469.238,904.60
1470.125,915.73
1471.012,908.97
1471.899,886.57
1472.785,902.03
1473.672,880.07
1474.558,954.00
1475.446,969.50
1476.333,924.77
1477.219,879.30
1478.105,900.80
1478.991,894.63
1479.877,899.87
1480.762,866.93
1481.648,895.10
1482.534,882.83
1483.419,858.20
1484.307,871.97
1485.192,900.73
1486.077,877.70
1486.962,868.47
1487.847,897.07
1488.732,869.50
1489.617,903.30
1490.502,834.00
1491.387,872.83
1492.271,889.17
1493.156,864.50
1494.042,905.13
1494.927,866.33
1495.811,878.03
1496.695,885.27
1497.579,846.30
1498.463,824.40
1499.347,829.50
1500.231,862.10
1501.114,855.63
1501.998,865.37
1502.881,837.70
1503.765,821.73
1504.648,832.07
1505.533,874.70
1506.417,877.57
1507.300,868.73
1508.183,872.33
1509.066,864.43
1509.948,877.13
1510.831,850.63
1511.714,824.67
1512.596,845.20
1513.479,813.40
1514.361,862.50
1515.243,840.37
1516.125,909.67
1517.008,844.23
1517.890,827.87
1518.771,844.93
1519.655,852.00
1520.537,859.07
1521.419,865.17
1522.300,838.43
1523.182,884.03
1524.063,859.53
1524.944,840.87
1525.825,822.23
1526.707,844.33
1527.588,826.10
1528.468,803.67
1529.349,825.60
1530.230,831.43
1531.111,820.30
1531.991,824.13
1532.872,823.67
1533.752,815.43
1534.632,836.33
1535.513,838.40
1536.393,789.73
1537.273,801.90
1538.153,808.33
1539.032,823.90
1539.912,824.03
1540.792,784.07
1541.672,835.70
1542.551,841.17
1543.430,801.50
1544.310,784.07
1545.189,805.27
1546.068,839.83
1546.947,822.13
1547.826,765.70
1548.705,815.90
1549.584,806.83
1550.462,786.30
1551.341,821.63
1552.219,819.87
1553.098,799.60
1553.976,819.90
1554.854,785.53
1555.733,858.90
1556.611,785.70
1557.489,793.53
1558.367,751.70
1559.244,799.33
1560.122,807.07
1561.000,797.33
1561.877,797.77
1562.755,795.33
1563.632,770.10
1564.509,775.93
1565.386,780.23
1566.264,812.03
1567.141,793.40
1568.017,790.00
1568.894,779.57
1569.771,802.03
1570.648,820.03
1571.524,795.80
1572.401,784.47
1573.277,799.53
1574.153,769.53
1575.029,766.93
1575.906,828.57
1576.781,773.40
1577.657,796.57
1578.533,784.80
1579.409,807.60
1580.285,797.27
1581.160,793.33
1582.036,762.80
1582.911,810.73
1583.786,802.63
1584.662,818.67
1585.537,744.63
1586.412,779.97
1587.287,775.43
1588.160,782.07
1589.035,742.10
1589.909,768.70
1590.784,789.17
1591.658,792.73
1592.533,782.47
1593.407,769.43
1594.281,781.87
1595.155,766.00
1596.029,797.23
1596.903,781.00
1597.777,811.30
1598.651,736.70
1599.525,761.97
1600.398,791.50
1601.272,761.77
1602.144,780.10
1603.017,772.10
1603.890,761.23
1604.763,748.90
1605.636,787.00
1606.509,777.17
1607.382,783.27
1608.255,791.37
1609.128,746.73
1610.000,745.60
1610.873,766.27
1611.746,747.17
1612.616,753.90
1613.488,761.40
1614.361,753.10
1615.233,742.07
1616.105,719.33
1616.977,769.17
1617.849,764.10
1618.720,723.47
1619.592,735.87
1620.464,759.53
1621.333,725.03
1622.205,748.77
1623.076,758.70
1623.947,740.93
1624.818,745.40
1625.689,739.27
1626.560,794.70
1627.431,749.93
1628.302,712.30
1629.171,771.43
1630.042,752.17
1630.912,715.57
1631.782,771.77
1632.653,717.83
1633.523,783.13
1634.393,741.93
1635.263,796.90
1636.131,789.83
1637.001,745.07
1637.871,714.77
1638.741,734.93
1639.611,762.57
1640.480,734.83
1641.350,707.47
1642.219,737.70
1643.087,764.93
1643.956,738.70
1644.825,734.60
1645.694,720.27
1646.563,678.23
1647.432,762.80
1648.299,754.37
1649.167,735.43
1650.036,747.97
1650.904,739.33
1651.773,733.87
1652.641,748.93
1653.509,734.23
1654.376,746.03
1655.244,708.60
1656.112,725.77
1656.980,705.47
1657.847,681.77
1658.715,719.97
1659.581,722.90
1660.448,749.17
1661.316,719.40
1662.183,703.33
1663.051,745.63
1663.918,702.83
1664.783,723.67
1665.650,725.73
1666.517,731.50
1667.384,727.47
1668.251,711.10
1669.115,717.10
1669.982,732.83
1670.849,740.67
1671.715,732.13
1672.581,761.23
1673.446,704.93
1674.312,722.07
1675.178,717.80
1676.044,721.90
1676.910,665.60
1677.774,715.10
1678.639,691.17
1679.505,741.50
1680.370,714.27
1681.236,703.07
1682.099,749.07
1682.965,686.40
1683.830,745.33
1684.695,735.63
1685.560,749.43
1686.423,706.73
1687.288,739.83
1688.153,716.33
1689.017,706.07
1689.880,726.47
1690.745,691.63
1691.609,710.23
1692.473,730.13
1693.338,712.77
1694.200,739.67
1695.064,724.67
1695.928,718.70
1696.792,678.07
1697.654,714.03
1698.517,707.50
1699.381,705.17
1700.245,701.67
1701.106,675.87
1701.969,688.10
1702.833,696.87
1703.696,687.40
1704.557,686.57
1705.420,743.47
1706.283,680.10
1707.146,666.13
1708.007,695.20
1708.870,700.00
1709.732,688.67
1710.595,715.73
1711.455,659.60
1712.318,663.77
1713.180,671.37
1714.040,689.07
1714.902,676.00
1715.764,681.10
1716.626,698.73
1717.486,733.63
1718.348,693.23
1719.209,549.10
1720.071,670.60
1720.930,709.27
1721.792,684.30
1722.653,693.00
1723.512,714.63
1724.374,657.70
1725.234,646.73
1726.095,662.67
1726.954,694.83
1727.815,722.97
1728.676,712.27
1729.535,665.10
1730.395,695.83
1731.256,713.47
1732.114,733.83
1732.974,704.43
1733.834,691.97
1734.693,661.00
1735.553,690.30
1736.413,706.03
1737.272,698.03
1738.130,713.30
1738.990,721.73
1739.849,679.20
1740.707,710.73
1741.566,708.80
1742.426,710.27
1743.283,687.50
1744.142,682.53
1745.001,722.37
1745.858,652.40
1746.717,727.73
1747.576,700.43
1748.433,709.83
1749.292,691.43
1750.150,689.63
1751.007,702.60
1751.865,614.27
1752.723,685.90
1753.579,664.23
1754.438,671.10
1755.296,667.87
1756.152,680.30
1757.010,706.40
1757.865,688.17
1758.723,680.07
1759.581,712.90
1760.436,670.50
1761.294,666.67
1762.151,688.97
1763.006,672.50
1763.864,688.33
1764.721,694.73
1765.576,716.03
1766.433,714.77
1767.288,704.33
1768.144,655.57
1769.001,662.87
1769.856,728.57
1770.712,747.00
1771.568,686.30
1772.423,702.57
1773.279,675.33
1774.133,660.20
1774.989,699.40
1775.845,727.17
1776.699,693.13
1777.555,638.83
1778.409,704.37
1779.265,680.23
1780.120,682.03
1780.974,672.80
1781.829,664.67
1782.682,669.97
1783.538,674.37
1784.393,676.30
1785.246,675.03
1786.101,668.43
1786.954,694.87
1787.808,694.60
1788.661,680.23
1789.516,668.57
1790.370,698.27
1791.223,692.20
1792.077,684.70
1792.930,680.77
1793.784,715.63
1794.636,709.97
1795.490,689.77
1796.344,655.70
1797.196,682.20
1798.049,662.77
1798.901,670.87
1799.755,667.77
1800.606,667.20
1801.460,683.03
1802.311,632.23
1803.165,715.33
1804.018,663.80
1804.869,654.93
1805.722,653.23
1806.573,689.70
1807.426,667.30
1808.276,689.10
1809.129,686.10
1809.980,685.67
1810.832,663.87
1811.683,639.30
1812.535,684.27
1813.385,694.57
1814.237,648.00
1815.089,672.70
1815.940,664.53
1816.791,680.17
1817.641,688.80
1818.493,695.40
1819.343,657.60
1820.194,652.00
1821.044,675.50
1821.895,657.47
1822.745,661.10
1823.596,638.27
1824.445,693.53
1825.296,694.17
1826.145,675.13
1826.996,684.57
1827.845,633.87
1828.695,681.90
1829.544,647.67
1830.395,667.63
1831.243,663.57
1832.094,634.60
1832.942,658.33
1833.792,694.90
1834.640,668.50
1835.490,621.07
1836.338,663.93
1837.186,632.97
1838.036,632.10
1838.884,673.80
1839.733,626.70
1840.581,684.50
1841.430,654.60
1842.278,684.20
1843.127,684.10
1843.974,682.97
1844.823,670.00
1845.671,644.97
1846.519,664.60
1847.366,639.40
1848.213,650.00
1849.062,669.07
1849.909,650.70
1850.757,630.93
1851.604,624.77
1852.452,652.47
1853.298,655.07
1854.146,697.97
1854.993,624.97
1855.839,611.37
1856.687,656.23
1857.532,656.43
1858.380,707.33
1859.226,644.53
1860.073,650.70
1860.919,641.77
1861.765,652.83
1862.612,641.43
1863.457,648.70
1864.304,650.73
1865.150,620.73
1865.995,635.77
1866.842,666.83
1867.686,617.13
1868.533,638.23
1869.378,608.37
1870.223,655.40
1871.069,650.73
1871.914,627.63
1872.760,633.03
1873.604,648.67
1874.448,641.57
1875.294,647.73
1876.139,635.30
1876.984,624.40
1877.828,613.57
1878.672,679.33
1879.518,679.33
1880.361,640.50
1881.205,626.97
1882.050,664.23
1882.894,626.67
1883.739,638.60
1884.582,665.07
1885.425,642.13
1886.270,629.47
1887.113,628.23
1887.956,659.17
1888.801,647.47
1889.644,653.87
1890.486,626.87
1891.331,648.33
1892.173,639.20
1893.017,640.77
1893.860,678.37
1894.702,639.80
1895.546,647.33
1896.388,641.97
1897.230,621.37
1898.074,638.87
1898.916,639.73
1899.757,661.90
1900.601,631.33
1901.443,623.57
1902.284,626.33
1903.125,567.63
1903.969,649.63
1904.810,639.07
1905.651,642.83
1906.494,638.83
1907.335,659.80
1908.176,622.20
1909.018,665.40
1909.859,655.80
1910.700,618.53
1911.542,658.07
1912.383,638.07
1913.223,665.53
1914.064,620.57
1914.906,629.57
1915.746,677.93
1916.586,635.83
1917.428,641.20
1918.268,667.03
1919.107,630.83
1919.947,594.00
1920.789,640.33
1921.628,636.97
1922.468,607.83
1923.309,626.80
1924.148,625.47
1924.988,634.80
1925.827,643.13
1926.667,654.70
1927.507,626.30
1928.345,650.93
1929.184,628.77
1930.025,641.17
1930.864,641.93
1931.702,641.63
1932.541,631.83
1933.381,620.53
1934.219,601.17
1935.057,675.47
1935.896,629.03
1936.735,628.90
1937.573,666.57
1938.411,645.70
1939.249,613.13
1940.089,654.27
1940.927,621.37
1941.764,644.87
1942.602,626.37
1943.439,653.13
1944.278,616.73
1945.115,635.57
1945.953,626.47
1946.790,621.60
1947.628,635.53
1948.465,610.37
1949.302,645.07
1950.139,635.83
1950.976,612.93
1951.814,619.27
1952.651,587.67
1953.487,643.37
1954.323,638.33
1955.160,629.43
1955.998,642.10
1956.834,632.63
1957.670,622.60
1958.506,607.93
1959.342,631.93
1960.177,652.20
1961.015,643.20
1961.850,599.50
1962.686,626.20
1963.521,626.63
1964.357,609.17
1965.192,624.00
1966.029,631.40
1966.864,647.50
1967.699,643.60
1968.534,614.20
1969.369,624.27
1970.204,645.33
1971.040,679.57
1971.875,658.60
1972.709,619.13
1973.544,644.97
1974.378,624.77
1975.212,650.47
1976.047,587.07
1976.882,625.27
1977.716,633.90
1978.550,626.40
1979.384,615.13
1980.218,585.03
1981.052,596.87
1981.885,655.93
1982.719,633.87
1983.554,629.80
1984.388,618.17
1985.221,609.63
1986.054,655.33
1986.887,618.50
1987.720,613.13
1988.553,619.13
1989.386,591.50
1990.219,634.73
1991.053,603.07
1991.886,560.33
1992.719,598.73
1993.551,613.87
1994.383,617.10
1995.216,604.37
1996.048,637.33
1996.880,599.30
1997.712,609.03
1998.544,580.17
1999.376,626.10
2000.208,632.43
2001.040,650.87
2001.873,602.77
2002.705,632.03
2003.536,591.67
2004.367,615.70
2005.199,604.87
2006.030,619.30
2006.861,593.90
2007.692,609.03
2008.523,623.57
2009.354,602.57
2010.185,603.87
2011.016,608.17
2011.846,626.50
2012.677,643.20
2013.507,621.83
2014.338,633.17
2015.168,630.97
2015.999,564.27
2016.829,624.10
2017.659,633.80
2018.489,574.30
2019.319,628.73
2020.149,634.70
2020.980,639.67
2021.810,625.67
2022.639,606.20
2023.469,649.63
2024.298,638.40
2025.128,632.43
2025.957,625.43
2026.786,665.23
2027.615,593.87
2028.444,622.93
2029.273,646.07
2030.102,609.70
2030.931,631.80
2031.758,666.17
2032.586,617.47
2033.415,625.13
2034.243,639.87
2035.072,636.90
2035.900,641.03
2036.728,676.13
2037.556,634.20
2038.385,626.03
2039.213,656.30
2040.040,614.00
2040.868,630.33
2041.696,623.37
2042.524,635.73
2043.351,619.67
2044.179,637.73
2045.006,615.40
2045.006,615.40

Max Intensity Wave.,214.783
Max Intensity Data,5907.33
Min Intensity Wave.,1719.209
Min Intensity Data,549.10
FWHM Wave.,597.346
FWHM Value,30.44
Pressure Wave.,684.671
Pressure Value [GPa],-24.91530
G/D Ratio,0.69127
G/D Gband Wave.,1555.733
G/D Gband Intensity,858.90
G/D Dband Wave.,1303.610
G/D Dband Intensity,1242.49

<< BACKGROUND SPECTRUM >>
Wave[dcm-1],No13
146.591,2403.00
147.626,2240.00
148.664,2190.00
149.699,2723.00
150.737,2435.00
151.772,2574.00
152.809,2564.00
153.846,2460.00
154.881,2555.00
155.918,2074.00
156.953,2436.00
157.989,2760.00
159.026,2625.00
160.060,2822.00
161.096,3076.00
162.130,2676.00
163.167,2765.00
164.200,2583.00
165.236,2865.00
166.272,2872.00
167.305,2417.00
168.341,2698.00
169.374,2954.00
170.409,2983.00
171.445,2936.00
172.477,2694.00
173.512,2564.00
174.545,2865.00
175.580,3082.00
176.614,3288.00
177.647,3000.00
178.681,3221.00
179.713,3599.00
180.747,3004.00
181.781,2952.00
182.813,3208.00
183.847,3303.00
184.878,2882.00
185.912,3165.00
186.945,3336.00
187.976,3317.00
189.010,2923.00
190.043,3028.00
191.073,3143.00
192.106,2912.00
193.137,3438.00
194.170,2722.00
195.202,3113.00
196.232,2938.00
197.265,3209.00
198.297,3280.00
199.327,2981.00
200.359,3179.00
201.388,3565.00
202.420,3170.00
203.452,3320.00
204.481,2843.00
205.512,3582.00
206.544,3323.00
207.573,3284.00
208.604,3657.00
209.635,3779.00
210.663,3193.00
211.694,3247.00
212.725,3016.00
213.753,3019.00
214.783,3607.00
215.813,3507.00
216.841,3231.00
217.871,3408.00
218.899,3178.00
219.929,3386.00
220.959,3126.00
221.986,3355.00
223.016,2968.00
224.045,3365.00
225.072,3337.00
226.101,3424.00
227.130,3511.00
228.157,3028.00
229.185,2507.00
230.214,3383.00
231.241,3021.00
232.269,2623.00
233.297,2876.00
234.323,3463.00
235.351,3023.00
236.379,3310.00
237.407,2951.00
238.433,3164.00
239.460,3374.00
240.488,3379.00
241.513,3472.00
242.540,3314.00
243.568,3432.00
244.592,3429.00
245.619,3431.00
246.646,3121.00
247.671,3157.00
248.697,3064.00
249.724,3199.00
250.748,3247.00
251.774,3239.00
252.801,3555.00
253.827,3356.00
254.850,3255.00
255.876,2871.00
256.902,3406.00
257.925,3203.00
258.951,2968.00
259.976,2946.00
260.999,3327.00
262.024,3033.00
263.049,3922.00
264.074,3332.00
265.097,3280.00
266.122,3346.00
267.146,3215.00
268.168,3449.00
269.193,3049.00
270.217,3481.00
271.241,2893.00
272.263,3111.00
273.287,3411.00
274.311,2934.00
275.332,3507.00
276.356,3095.00
277.379,3334.00
278.402,3371.00
279.424,3148.00
280.447,3106.00
281.470,2903.00
282.492,3317.00
283.513,3078.00
284.536,3392.00
285.558,3348.00
286.581,3330.00
287.601,3046.00
288.623,2993.00
289.645,3305.00
290.665,3353.00
291.687,3380.00
292.709,3369.00
293.730,3675.00
294.750,3098.00
295.771,2911.00
296.792,3313.00
297.813,3166.00
298.832,3255.00
299.853,2932.00
300.874,3238.00
301.895,3191.00
302.913,3217.00
303.934,3570.00
304.954,3256.00
305.975,4608.00
306.993,2902.00
308.013,3362.00
309.033,3257.00
310.052,3141.00
311.072,3117.00
312.090,3276.00
313.109,3548.00
314.129,3699.00
315.148,3222.00
316.165,3298.00
317.184,3448.00
318.203,2964.00
319.222,2966.00
320.238,3381.00
321.257,2968.00
322.275,2908.00
323.294,3176.00
324.312,3364.00
325.328,3519.00
326.346,3545.00
327.364,3464.00
328.382,3389.00
329.397,3356.00
330.415,3483.00
331.432,3474.00
332.450,3501.00
333.467,3750.00
334.482,2756.00
335.499,3623.00
336.516,3072.00
337.533,2751.00
338.547,3056.00
339.564,3072.00
340.580,3346.00
341.597,3193.00
342.613,3727.00
343.627,3193.00
344.643,3256.00
345.659,3337.00
346.675,3218.00
347.690,3095.00
348.704,3330.00
349.719,3041.00
350.735,2963.00
351.750,3400.00
352.765,3266.00
353.778,3197.00
354.793,3451.00
355.808,3042.00
356.822,3452.00
357.837,2825.00
358.851,3503.00
359.864,3159.00
360.878,2929.00
361.892,3172.00
362.906,3383.00
363.920,2758.00
364.932,3307.00
365.945,3338.00
366.959,3212.00
367.972,3175.00
368.986,2900.00
369.999,3635.00
371.010,3061.00
372.023,3613.00
373.036,3167.00
374.049,3652.00
375.061,3291.00
376.072,3199.00
377.084,3087.00
378.097,2950.00
379.109,3449.00
380.121,3227.00
381.133,2867.00
382.143,3366.00
383.155,2937.00
384.166,3115.00
385.178,3338.00
386.189,3459.00
387.201,2932.00
388.212,3138.00
389.221,3170.00
390.232,3244.00
391.243,3115.00
392.254,3281.00
393.264,3048.00
394.275,3480.00
395.283,3405.00
396.294,3962.00
397.304,3790.00
398.314,3325.00
399.324,3249.00
400.334,2850.00
401.344,3393.00
402.351,2837.00
403.361,3483.00
404.370,3155.00
405.380,3121.00
406.389,3559.00
407.398,3366.00
408.407,3327.00
409.414,3395.00
410.423,3583.00
411.431,2963.00
412.440,2880.00
413.448,3602.00
414.457,3058.00
415.465,3055.00
416.471,3090.00
417.479,3256.00
418.487,3004.00
419.495,3525.00
420.503,3350.00
421.510,2785.00
422.518,3380.00
423.525,3396.00
424.530,3667.00
425.537,3093.00
426.544,3498.00
427.551,3069.00
428.558,3845.00
429.565,3678.00
430.571,3075.00
431.578,3101.00
432.582,3123.00
433.588,3103.00
434.595,2801.00
435.601,3579.00
436.607,3475.00
437.612,2958.00
438.618,3586.00
439.624,3162.00
440.627,3114.00
441.633,3311.00
442.638,3869.00
443.643,3333.00
444.648,3273.00
445.653,3412.00
446.658,3123.00
447.663,3218.00
448.667,3127.00
449.672,3115.00
450.674,3180.00
451.678,2898.00
452.682,3085.00
453.687,3030.00
454.690,3871.00
455.694,3465.00
456.698,2732.00
457.702,2827.00
458.705,2981.00
459.709,3034.00
460.710,3115.00
461.713,3209.00
462.716,3291.00
463.719,3222.00
464.722,3436.00
465.725,3166.00
466.727,3034.00
467.730,3286.00
468.732,2992.00
469.735,3512.00
470.737,3133.00
471.737,3056.00
472.739,3117.00
473.741,2993.00
474.742,3244.00
475.744,3326.00
476.746,3228.00
477.747,3146.00
478.748,3391.00
479.750,3140.00
480.751,3208.00
481.752,4020.00
482.753,3300.00
483.751,3826.00
484.752,2821.00
485.753,3176.00
486.753,3068.00
487.753,3197.00
488.754,3677.00
489.754,2867.00
490.754,3560.00
491.754,3356.00
492.754,2866.00
493.753,3207.00
494.753,3139.00
495.752,3580.00
496.752,3232.00
497.749,3165.00
498.748,3054.00
499.747,3619.00
500.746,3340.00
501.745,2949.00
502.744,2966.00
503.742,3580.00
504.741,3150.00
505.739,2685.00
506.737,3131.00
507.735,3429.00
508.734,3656.00
509.732,3385.00
510.729,3570.00
511.727,3111.00
512.725,3135.00
513.720,2988.00
514.718,3511.00
515.715,2888.00
516.712,2843.00
517.709,3206.00
518.706,3084.00
519.703,3247.00
520.700,3445.00
521.696,3591.00
522.693,3121.00
523.689,3056.00
524.686,3427.00
525.682,3018.00
526.678,3722.00
527.674,3126.00
528.670,2785.00
529.666,3795.00
530.661,3712.00
531.657,3385.00
532.652,3361.00
533.648,3219.00
534.641,3491.00
535.636,3284.00
536.631,3311.00
537.626,3343.00
538.621,2951.00
539.616,2747.00
540.610,2664.00
541.605,3239.00
542.599,3306.00
543.593,3251.00
544.587,4191.00
545.581,3052.00
546.575,3263.00
547.569,3261.00
548.563,2895.00
549.557,2847.00
550.550,2964.00
551.543,2974.00
552.537,3374.00
553.530,2962.00
554.523,3002.00
555.516,3337.00
556.509,3160.00
557.502,2832.00
558.494,3417.00
559.487,3104.00
560.479,3423.00
561.472,3477.00
562.464,3380.00
563.456,3575.00
564.448,3117.00
565.440,3199.00
566.432,3639.00
567.423,3112.00
568.415,3115.00
569.404,3343.00
570.396,3011.00
571.387,3359.00
572.378,3205.00
573.369,4263.00
574.360,3971.00
575.351,3194.00
576.341,3070.00
577.332,3106.00
578.323,2879.00
579.313,3047.00
580.303,3544.00
581.293,3340.00
582.283,3200.00
583.273,3342.00
584.263,3215.00
585.253,3364.00
586.243,3380.00
587.232,2808.00
588.222,3172.00
589.211,3398.00
590.200,3284.00
591.189,3148.00
592.178,3193.00
593.167,3680.00
594.156,3504.00
595.145,3117.00
596.133,3720.00
597.122,3362.00
598.110,3417.00
599.098,3276.00
600.086,3195.00
601.074,3420.00
602.062,3017.00
603.050,2931.00
604.038,3324.00
605.025,3010.00
606.013,3440.00
607.000,3667.00
607.987,3223.00
608.975,3284.00
609.962,2988.00
610.949,3420.00
611.936,3463.00
612.922,3431.00
613.909,2853.00
614.895,3600.00
615.882,3064.00
616.868,3223.00
617.854,2975.00
618.841,3227.00
619.826,3337.00
620.812,3208.00
621.798,2950.00
622.784,3419.00
623.769,3331.00
624.755,2894.00
625.740,3284.00
626.725,2941.00
627.711,3022.00
628.698,3267.00
629.683,3008.00
630.667,3357.00
631.652,2919.00
632.637,3164.00
633.621,3394.00
634.606,3156.00
635.590,3351.00
636.574,3134.00
637.558,3320.00
638.542,3285.00
639.526,3053.00
640.510,2791.00
641.493,3265.00
642.477,3217.00
643.460,2879.00
644.444,3447.00
645.427,3478.00
646.410,2858.00
647.393,3119.00
648.376,3282.00
649.359,3123.00
650.341,3304.00
651.324,3304.00
652.307,3270.00
653.289,3156.00
654.271,3055.00
655.253,3096.00
656.235,3348.00
657.217,3492.00
658.199,2845.00
659.181,2959.00
660.163,3208.00
661.144,3088.00
662.126,3092.00
663.107,3010.00
664.088,5066.00
665.069,3496.00
666.050,3044.00
667.033,2916.00
668.014,3248.00
668.995,2796.00
669.975,3213.00
670.956,3185.00
671.936,3384.00
672.916,3160.00
673.896,3293.00
674.876,3159.00
675.856,3059.00
676.836,2916.00
677.816,2440.00
678.795,2995.00
679.775,2883.00
680.754,3231.00
681.734,3368.00
682.713,3393.00
683.692,2963.00
684.671,2799.00
685.650,2930.00
686.629,3052.00
687.607,2954.00
688.586,2963.00
689.564,3035.00
690.543,3437.00
691.523,2556.00
692.501,3008.00
693.479,3142.00
694.457,2982.00
695.435,2986.00
696.413,2877.00
697.390,2681.00
698.368,2836.00
699.345,3321.00
700.322,3161.00
701.300,3315.00
702.277,3246.00
703.254,3501.00
704.231,2763.00
705.207,3138.00
706.184,2990.00
707.161,2841.00
708.137,3050.00
709.113,3002.00
710.090,2976.00
711.068,2745.00
712.044,2771.00
713.020,3080.00
713.996,2761.00
714.971,3033.00
715.947,3027.00
716.922,2994.00
717.898,2908.00
718.873,3094.00
719.848,2903.00
720.823,2866.00
721.798,3168.00
722.773,2936.00
723.748,2680.00
724.723,3218.00
725.697,3044.00
726.672,2941.00
727.646,2688.00
728.622,3168.00
729.596,2784.00
730.570,2913.00
731.544,3278.00
732.518,3505.00
733.492,3016.00
734.466,3065.00
735.439,3199.00
736.413,3312.00
737.386,2630.00
738.359,2553.00
739.332,2654.00
740.305,3038.00
741.278,3556.00
742.251,3137.00
743.224,2871.00
744.196,2696.00
745.171,3376.00
746.143,3232.00
747.115,2931.00
748.087,2895.00
749.059,3337.00
750.031,3056.00
751.003,3957.00
751.975,3514.00
752.947,2883.00
753.918,3318.00
754.890,2764.00
755.861,2942.00
756.832,3232.00
757.803,3015.00
758.774,3020.00
759.747,2780.00
760.718,3436.00
761.689,2925.00
762.659,2758.00
763.630,3401.00
764.600,2740.00
765.570,3249.00
766.540,3295.00
767.510,3128.00
768.480,3266.00
769.450,2904.00
770.420,3023.00
771.390,2846.00
772.359,2964.00
773.329,2801.00
774.300,2649.00
775.269,2926.00
776.238,3168.00
777.207,3321.00
778.176,2687.00
779.145,2995.00
780.114,2860.00
781.083,2764.00
782.051,2931.00
783.019,2887.00
783.988,3275.00
784.956,3036.00
785.924,3121.00
786.894,3058.00
787.862,2914.00
788.830,3378.00
789.797,2788.00
790.765,2734.00
791.732,2945.00
792.700,2849.00
793.667,2753.00
794.634,2941.00
795.601,2912.00
796.568,3010.00
797.535,3007.00
798.502,3698.00
799.468,3075.00
800.437,2568.00
801.403,2812.00
802.370,3483.00
803.336,3196.00
804.302,3055.00
805.268,2592.00
806.234,2680.00
807.200,2923.00
808.166,2948.00
809.131,2759.00
810.097,3193.00
811.062,3885.00
812.027,3214.00
812.994,2736.00
813.960,2786.00
814.925,3163.00
815.889,2686.00
816.854,3212.00
817.819,2817.00
818.783,2900.00
819.748,3339.00
820.712,2884.00
821.677,2796.00
822.641,2854.00
823.605,2896.00
824.571,3391.00
825.534,2909.00
826.498,2828.00
827.462,2980.00
828.425,2789.00
829.389,3259.00
830.352,3015.00
831.315,3113.00
832.279,2676.00
833.242,2947.00
834.204,2815.00
835.167,2814.00
836.132,3246.00
837.095,2696.00
838.057,2863.00
839.020,2994.00
839.982,3081.00
840.944,2848.00
841.906,2824.00
842.868,3186.00
843.830,2676.00
844.792,3247.00
845.753,2881.00
846.715,2573.00
847.679,2748.00
848.640,2765.00
849.601,2907.00
850.562,3471.00
851.523,2890.00
852.484,2621.00
853.445,3171.00
854.406,2846.00
855.367,2923.00
856.327,3252.00
857.288,2634.00
858.248,2847.00
859.210,2865.00
860.170,2687.00
861.130,3204.00
862.090,2573.00
863.050,2778.00
864.010,2834.00
864.969,3094.00
865.929,2749.00
866.888,2711.00
867.848,2973.00
868.807,2821.00
869.766,3005.00
870.727,2887.00
871.686,3146.00
872.645,3199.00
873.604,3515.00
874.562,2910.00
875.521,3002.00
876.479,3537.00
877.437,2782.00
878.396,2775.00
879.354,3353.00
880.312,2721.00
881.270,2830.00
882.229,3321.00
883.187,2807.00
884.145,2874.00
885.102,3130.00
886.059,3013.00
887.017,3059.00
887.974,3107.00
888.931,3252.00
889.888,2641.00
890.845,2587.00
891.802,2458.00
892.758,2835.00
893.717,2617.00
894.673,2750.00
895.630,2778.00
896.586,3089.00
897.542,2878.00
898.498,2715.00
899.454,3000.00
900.410,2868.00
901.366,2826.00
902.321,2768.00
903.277,2838.00
904.232,2916.00
905.189,2625.00
906.145,2800.00
907.100,2368.00
908.055,2852.00
909.010,3097.00
909.965,2498.00
910.919,2968.00
911.874,2729.00
912.828,2933.00
913.783,2934.00
914.737,2481.00
915.693,2936.00
916.648,3070.00
917.602,3135.00
918.555,2949.00
919.509,3027.00
920.463,2925.00
921.417,2932.00
922.370,2719.00
923.324,2850.00
924.277,2811.00
925.230,2946.00
926.183,2577.00
927.138,2826.00
928.091,3109.00
929.044,2999.00
929.996,2821.00
930.949,2826.00
931.902,2996.00
932.854,3003.00
933.806,2799.00
934.758,3151.00
935.711,3197.00
936.663,2897.00
937.614,2958.00
938.568,2951.00
939.520,2522.00
940.471,2911.00
941.423,2971.00
942.374,3108.00
943.326,2923.00
944.277,2789.00
945.228,3011.00
946.179,2859.00
947.130,3244.00
948.080,2827.00
949.031,2714.00
949.984,2870.00
950.934,2906.00
951.884,2616.00
952.835,2898.00
953.785,2908.00
954.735,2769.00
955.685,2505.00
956.635,2772.00
957.585,2797.00
958.534,2797.00
959.484,2934.00
960.433,2783.00
961.383,2612.00
962.334,3154.00
963.283,2938.00
964.232,3076.00
965.181,2870.00
966.130,2941.00
967.079,2784.00
968.027,2876.00
968.976,2917.00
969.924,2760.00
970.873,2967.00
971.821,2921.00
972.769,3085.00
973.719,2986.00
974.667,2620.00
975.615,2910.00
976.562,2923.00
977.510,2559.00
978.458,2732.00
979.405,3033.00
980.352,2944.00
981.300,3190.00
982.247,2967.00
983.194,2697.00
984.141,2798.00
985.088,2912.00
986.036,2956.00
986.983,3215.00
987.930,3299.00
988.876,2477.00
989.822,3177.00
990.769,2712.00
991.715,2750.00
992.661,2555.00
993.607,2967.00
994.553,3470.00
995.498,2757.00
996.444,2425.00
997.389,2995.00
998.337,2670.00
999.282,3000.00
1000.227,2835.00
1001.173,2866.00
1002.118,2611.00
1003.062,3041.00
1004.007,2853.00
1004.952,3174.00
1005.897,3153.00
1006.841,2879.00
1007.786,2631.00
1008.730,2534.00
1009.674,3364.00
1010.618,2795.00
1011.564,2650.00
1012.508,2538.00
1013.452,3133.00
1014.396,2889.00
1015.339,2799.00
1016.283,2857.00
1017.226,2905.00
1018.170,2854.00
1019.113,3055.00
1020.056,2915.00
1020.999,2870.00
1021.942,2766.00
1022.885,3052.00
1023.828,3210.00
1024.770,2611.00
1025.715,2968.00
1026.657,2864.00
1027.600,2909.00
1028.542,3145.00
1029.484,2914.00
1030.426,2989.00
1031.368,2945.00
1032.310,2731.00
1033.251,2686.00
1034.193,2869.00
1035.135,2638.00
1036.076,2795.00
1037.017,2695.00
1037.959,2996.00
1038.900,2923.00
1039.843,2973.00
1040.784,2906.00
1041.725,2990.00
1042.665,2801.00
1043.606,2906.00
1044.547,2899.00
1045.487,2468.00
1046.427,2797.00
1047.368,2942.00
1048.308,2388.00
1049.248,2654.00
1050.188,2901.00
1051.128,2810.00
1052.067,2824.00
1053.007,2540.00
1053.947,2492.00
1054.886,2714.00
1055.827,2632.00
1056.766,3149.00
1057.706,2588.00
1058.645,2793.00
1059.584,2897.00
1060.522,3148.00
1061.461,2634.00
1062.400,2641.00
1063.338,2822.00
1064.277,2631.00
1065.215,2668.00
1066.154,2532.00
1067.092,2770.00
1068.030,2780.00
1068.968,3067.00
1069.906,3200.00
1070.843,3145.00
1071.781,2888.00
1072.720,3001.00
1073.658,2975.00
1074.595,2765.00
1075.533,2730.00
1076.470,2724.00
1077.407,3166.00
1078.344,2971.00
1079.281,2967.00
1080.217,2440.00
1081.154,2836.00
1082.091,2865.00
1083.027,2578.00
1083.964,3119.00
1084.900,2696.00
1085.836,2812.00
1086.772,3058.00
1087.708,2636.00
1088.644,3003.00
1089.580,2873.00
1090.515,2925.00
1091.451,2788.00
1092.388,2857.00
1093.324,2598.00
1094.259,3446.00
1095.194,2898.00
1096.129,2752.00
1097.064,2762.00
1097.999,2976.00
1098.934,2681.00
1099.869,2713.00
1100.803,2849.00
1101.738,2893.00
1102.672,2541.00
1103.607,2982.00
1104.541,2690.00
1105.475,2679.00
1106.409,2551.00
1107.343,2794.00
1108.277,2600.00
1109.210,2828.00
1110.144,2815.00
1111.078,2835.00
1112.011,2620.00
1112.944,2937.00
1113.878,2901.00
1114.811,2275.00
1115.744,2699.00
1116.678,2456.00
1117.611,2754.00
1118.544,2750.00
1119.477,2931.00
1120.409,2691.00
1121.342,3309.00
1122.274,2925.00
1123.206,3249.00
1124.138,2863.00
1125.070,3171.00
1126.002,2995.00
1126.934,2430.00
1127.866,2662.00
1128.798,2447.00
1129.729,2522.00
1130.661,2795.00
1131.592,2672.00
1132.523,2893.00
1133.454,2927.00
1134.385,2428.00
1135.317,2806.00
1136.247,2717.00
1137.178,3006.00
1138.109,2510.00
1139.039,3181.00
1139.970,2993.00
1140.900,2735.00
1141.831,2496.00
1142.761,2385.00
1143.691,3355.00
1144.621,2794.00
1145.551,2843.00
1146.480,2841.00
1147.410,2982.00
1148.340,2427.00
1149.269,2521.00
1150.199,2723.00
1151.128,3222.00
1152.057,2585.00
1152.979,2738.00
1153.898,2786.00
1154.819,2906.00
1155.739,2796.00
1156.658,2694.00
1157.579,2837.00
1158.498,2825.00
1159.419,2324.00
1160.338,2840.00
1161.256,2864.00
1162.177,2630.00
1163.095,2758.00
1164.016,2868.00
1164.934,3101.00
1165.852,2976.00
1166.772,2764.00
1167.690,2764.00
1168.610,2840.00
1169.528,2826.00
1170.446,2353.00
1171.365,2736.00
1172.283,2672.00
1173.202,2745.00
1174.120,2817.00
1175.037,2654.00
1175.956,2600.00
1176.873,2684.00
1177.792,2699.00
1178.709,3287.00
1179.626,2709.00
1180.544,3041.00
1181.461,2657.00
1182.379,2882.00
1183.296,2758.00
1184.212,2406.00
1185.130,2643.00
1186.046,3119.00
1186.962,2761.00
1187.880,3121.00
1188.796,2824.00
1189.714,2558.00
1190.629,2918.00
1191.545,2867.00
1192.462,2703.00
1193.378,2752.00
1194.295,2440.00
1195.210,2792.00
1196.125,2878.00
1197.042,2890.00
1197.957,2801.00
1198.872,2669.00
1199.788,2657.00
1200.703,3193.00
1201.619,2769.00
1202.534,2675.00
1203.448,2871.00
1204.364,2759.00
1205.278,2414.00
1206.192,2830.00
1207.108,3358.00
1208.022,3182.00
1208.938,2610.00
1209.851,2940.00
1210.765,3080.00
1211.680,2657.00
1212.594,2549.00
1213.507,2725.00
1214.422,3209.00
1215.335,2917.00
1216.248,2722.00
1217.163,2846.00
1218.076,3438.00
1218.990,2895.00
1219.903,2555.00
1220.816,2596.00
1221.730,2761.00
1222.642,2649.00
1223.554,2682.00
1224.469,2895.00
1225.380,2761.00
1226.292,2406.00
1227.206,2939.00
1228.118,3132.00
1229.032,2399.00
1229.943,2670.00
1230.855,2725.00
1231.768,2518.00
1232.679,2865.00
1233.590,2758.00
1234.503,3060.00
1235.414,2623.00
1236.325,2660.00
1237.238,2938.00
1238.149,2945.00
1239.059,2589.00
1239.972,2983.00
1240.882,2580.00
1241.793,2901.00
1242.705,3171.00
1243.615,2731.00
1244.525,2899.00
1245.437,2305.00
1246.347,2854.00
1247.259,2951.00
1248.168,3219.00
1249.078,3011.00
1249.989,3079.00
1250.899,2564.00
1251.808,2671.00
1252.719,2686.00
1253.628,2642.00
1254.537,3202.00
1255.448,2620.00
1256.357,2623.00
1257.266,2789.00
1258.176,2516.00
1259.085,2484.00
1259.993,2584.00
1260.904,2634.00
1261.812,2562.00
1262.720,3320.00
1263.630,2969.00
1264.538,2580.00
1265.446,2880.00
1266.356,2721.00
1267.263,3080.00
1268.171,2570.00
1269.080,2876.00
1269.988,2972.00
1270.895,2698.00
1271.804,2752.00
1272.711,2980.00
1273.619,2961.00
1274.527,2584.00
1275.434,2893.00
1276.341,2548.00
1277.248,2845.00
1278.156,3122.00
1279.063,2628.00
1279.969,2935.00
1280.877,3729.00
1281.783,2979.00
1282.690,2864.00
1283.598,2736.00
1284.503,2638.00
1285.409,2595.00
1286.317,3158.00
1287.223,3213.00
1288.128,2844.00
1289.036,2660.00
1289.941,2714.00
1290.846,2789.00
1291.751,2627.00
1292.658,2697.00
1293.563,3244.00
1294.468,2860.00
1295.375,2946.00
1296.280,3034.00
1297.184,3571.00
1298.091,2884.00
1298.995,2957.00
1299.900,3213.00
1300.806,2673.00
1301.710,2534.00
1302.614,2337.00
1303.518,3027.00
1304.424,2714.00
1305.327,2990.00
1306.231,2792.00
1307.137,2983.00
1308.040,2870.00
1308.943,2809.00
1309.847,3001.00
1310.752,3013.00
1311.655,2430.00
1312.558,2560.00
1313.463,2723.00
1314.366,2658.00
1315.269,2858.00
1316.171,2756.00
1317.076,2685.00
1317.978,2595.00
1318.881,2381.00
1319.785,2633.00
1320.687,2668.00
1321.589,2399.00
1322.491,2607.00
1323.395,2874.00
1324.297,3390.00
1325.198,2945.00
1326.102,2586.00
1327.004,2575.00
1327.905,3184.00
1328.806,2749.00
1329.709,2827.00
1330.611,2721.00
1331.512,2591.00
1332.413,3257.00
1333.316,2807.00
1334.216,2954.00
1335.117,2546.00
1336.020,2831.00
1336.920,2807.00
1337.821,2643.00
1338.721,3108.00
1339.623,2813.00
1340.523,2711.00
1341.423,2654.00
1342.323,3131.00
1343.225,2864.00
1344.125,2574.00
1345.025,2651.00
1345.924,2453.00
1346.826,3167.00
1347.725,3181.00
1348.624,3024.00
1349.524,2667.00
1350.425,2750.00
1351.324,2930.00
1352.223,2967.00
1353.121,2760.00
1354.022,3010.00
1354.921,3189.00
1355.819,2932.00
1356.718,2831.00
1357.618,2484.00
1358.516,2908.00
1359.415,3207.00
1360.313,2900.00
1361.213,2755.00
1362.111,3073.00
1363.008,3524.00
1363.906,2758.00
1364.806,2821.00
1365.703,2855.00
1366.601,2603.00
1367.498,2593.00
1368.397,2985.00
1369.295,2863.00
1370.192,2587.00
1371.089,2874.00
1371.987,2787.00
1372.884,3098.00
1373.781,2599.00
1374.678,2791.00
1375.574,2641.00
1376.473,2966.00
1377.369,3049.00
1378.265,2634.00
1379.161,2762.00
1380.059,2462.00
1380.955,2929.00
1381.851,2526.00
1382.747,2657.00
1383.643,2697.00
1384.540,2564.00
1385.436,2682.00
1386.331,2864.00
1387.227,2926.00
1388.124,2906.00
1389.019,2592.00
1389.914,2776.00
1390.809,2424.00
1391.704,3208.00
1392.601,2704.00
1393.495,3073.00
1394.390,2984.00
1395.285,3057.00
1396.179,2869.00
1397.075,2760.00
1397.969,2855.00
1398.864,2488.00
1399.758,2750.00
1400.652,2838.00
1401.547,2601.00
1402.441,2563.00
1403.335,3196.00
1404.229,2872.00
1405.122,2877.00
1406.017,2734.00
1406.911,2979.00
1407.804,3248.00
1408.697,2805.00
1409.590,2614.00
1410.485,2997.00
1411.378,2882.00
1412.271,2477.00
1413.163,2826.00
1414.056,2941.00
1414.949,3206.00
1415.843,2836.00
1416.735,2730.00
1417.627,2772.00
1418.520,2758.00
1419.412,3049.00
1420.306,2968.00
1421.197,3101.00
1422.089,3016.00
1422.981,3317.00
1423.873,2999.00
1424.764,2952.00
1425.657,2798.00
1426.549,2960.00
1427.440,2982.00
1428.331,2719.00
1429.222,2504.00
1430.113,2861.00
1431.006,2965.00
1431.897,2721.00
1432.787,2827.00
1433.678,2724.00
1434.568,2607.00
1435.459,3062.00
1436.351,3038.00
1437.241,2930.00
1438.131,2977.00
1439.021,2563.00
1439.911,2737.00
1440.801,2884.00
1441.693,3057.00
1442.583,2838.00
1443.472,2802.00
1444.362,2914.00
1445.251,2744.00
1446.140,2758.00
1447.030,3009.00
1447.921,3005.00
1448.810,2609.00
1449.699,3208.00
1450.588,2873.00
1451.476,2714.00
1452.365,2934.00
1453.254,2731.00
1454.144,2708.00
1455.032,2958.00
1455.921,2564.00
1456.809,3164.00
1457.697,2583.00
1458.585,2717.00
1459.473,2753.00
1460.361,2633.00
1461.251,2901.00
1462.138,2907.00
1463.026,2790.00
1463.913,3103.00
1464.801,2726.00
1465.688,2883.00
1466.575,2826.00
1467.463,3313.00
1468.351,2682.00
1469.238,2788.00
1470.125,2395.00
1471.012,2864.00
1471.899,2919.00
1472.785,2621.00
1473.672,2841.00
1474.558,2994.00
1475.446,2901.00
1476.333,2966.00
1477.219,2635.00
1478.105,2778.00
1478.991,2761.00
1479.877,3135.00
1480.762,2824.00
1481.648,2663.00
1482.534,2965.00
1483.419,2914.00
1484.307,2947.00
1485.192,2776.00
1486.077,2662.00
1486.962,2690.00
1487.847,2524.00
1488.732,2655.00
1489.617,2800.00
1490.502,3145.00
1491.387,2968.00
1492.271,2620.00
1493.156,2662.00
1494.042,2584.00
1494.927,3054.00
1495.811,2688.00
1496.695,2949.00
1497.579,3152.00
1498.463,2857.00
1499.347,2913.00
1500.231,2849.00
1501.114,2899.00
1501.998,3109.00
1502.881,2886.00
1503.765,3171.00
1504.648,3279.00
1505.533,2923.00
1506.417,2823.00
1507.300,2768.00
1508.183,2878.00
1509.066,2262.00
1509.948,3063.00
1510.831,3202.00
1511.714,2625.00
1512.596,2965.00
1513.479,3137.00
1514.361,3034.00
1515.243,2844.00
1516.125,2926.00
1517.008,3107.00
1517.890,2795.00
1518.771,2856.00
1519.655,3024.00
1520.537,2749.00
1521.419,2622.00
1522.300,2870.00
1523.182,2929.00
1524.063,2960.00
1524.944,3135.00
1525.825,3037.00
1526.707,2608.00
1527.588,2603.00
1528.468,2945.00
1529.349,2471.00
1530.230,2746.00
1531.111,3016.00
1531.991,2883.00
1532.872,2519.00
1533.752,2802.00
1534.632,2661.00
1535.513,2669.00
1536.393,3019.00
1537.273,3178.00
1538.153,3540.00
1539.032,2543.00
1539.912,2798.00
1540.792,2871.00
1541.672,2844.00
1542.551,2932.00
1543.430,3466.00
1544.310,2889.00
1545.189,2726.00
1546.068,3261.00
1546.947,2933.00
1547.826,3208.00
1548.705,2818.00
1549.584,3073.00
1550.462,2806.00
1551.341,2990.00
1552.219,2888.00
1553.098,2993.00
1553.976,3050.00
1554.854,3296.00
1555.733,2996.00
1556.611,2780.00
1557.489,2638.00
1558.367,2880.00
1559.244,3009.00
1560.122,2813.00
1561.000,2916.00
1561.877,3148.00
1562.755,2709.00
1563.632,2823.00
1564.509,3135.00
1565.386,3248.00
1566.264,2573.00
1567.141,2434.00
1568.017,2998.00
1568.894,2847.00
1569.771,2877.00
1570.648,2931.00
1571.524,2853.00
1572.401,2576.00
1573.277,2590.00
1574.153,2910.00
1575.029,2718.00
1575.906,3579.00
1576.781,3037.00
1577.657,2773.00
1578.533,3096.00
1579.409,2420.00
1580.285,2766.00
1581.160,3270.00
1582.036,3046.00
1582.911,2621.00
1583.786,3177.00
1584.662,2584.00
1585.537,2837.00
1586.412,2873.00
1587.287,2663.00
1588.160,3023.00
1589.035,2500.00
1589.909,2878.00
1590.784,2791.00
1591.658,2614.00
1592.533,2894.00
1593.407,2857.00
1594.281,2721.00
1595.155,3279.00
1596.029,2728.00
1596.903,2776.00
1597.777,2723.00
1598.651,3150.00
1599.525,2522.00
1600.398,2848.00
1601.272,2813.00
1602.144,3415.00
1603.017,2793.00
1603.890,3104.00
1604.763,2953.00
1605.636,2971.00
1606.509,2515.00
1607.382,2651.00
1608.255,2889.00
1609.128,3091.00
1610.000,2815.00
1610.873,2518.00
1611.746,2754.00
1612.616,2775.00
1613.488,2399.00
1614.361,2855.00
1615.233,2825.00
1616.105,3105.00
1616.977,2719.00
1617.849,2658.00
1618.720,3210.00
1619.592,3199.00
1620.464,2931.00
1621.333,3375.00
1622.205,2844.00
1623.076,2813.00
1623.947,2851.00
1624.818,3118.00
1625.689,2990.00
1626.560,2721.00
1627.431,2894.00
1628.302,3322.00
1629.171,2953.00
1630.042,3180.00
1630.912,3574.00
1631.782,3441.00
1632.653,2665.00
1633.523,2987.00
1634.393,3105.00
1635.263,2669.00
1636.131,2799.00
1637.001,2767.00
1637.871,2475.00
1638.741,2471.00
1639.611,2550.00
1640.480,2982.00
1641.350,2735.00
1642.219,2666.00
1643.087,2286.00
1643.956,3308.00
1644.825,3120.00
1645.694,3098.00
1646.563,3093.00
1647.432,2861.00
1648.299,2860.00
1649.167,2996.00
1650.036,2648.00
1650.904,2986.00
1651.773,3099.00
1652.641,2849.00
1653.509,3048.00
1654.376,2701.00
1655.244,2913.00
1656.112,2902.00
1656.980,2887.00
1657.847,2753.00
1658.715,3042.00
1659.581,2755.00
1660.448,3089.00
1661.316,2335.00
1662.183,2930.00
1663.051,2881.00
1663.918,2914.00
1664.783,2871.00
1665.650,2950.00
1666.517,3029.00
1667.384,2874.00
1668.251,2904.00
1669.115,3099.00
1669.982,2805.00
1670.849,3135.00
1671.715,2828.00
1672.581,2960.00
1673.446,3011.00
1674.312,2886.00
1675.178,3307.00
1676.044,2957.00
1676.910,3004.00
1677.774,2910.00
1678.639,2513.00
1679.505,2834.00
1680.370,3011.00
1681.236,3553.00
1682.099,2776.00
1682.965,2911.00
1683.830,2404.00
1684.695,2654.00
1685.560,2746.00
1686.423,3004.00
1687.288,2967.00
1688.153,2916.00
1689.017,2805.00
1689.880,2936.00
1690.745,3040.00
1691.609,2679.00
1692.473,3012.00
1693.338,3091.00
1694.200,3120.00
1695.064,2860.00
1695.928,2750.00
1696.792,2896.00
1697.654,3402.00
1698.517,2905.00
1699.381,2605.00
1700.245,2500.00
1701.106,3228.00
1701.969,2781.00
1702.833,3038.00
1703.696,2791.00
1704.557,2849.00
1705.420,2689.00
1706.283,2922.00
1707.146,3056.00
1708.007,2662.00
1708.870,2654.00
1709.732,2531.00
1710.595,2748.00
1711.455,2645.00
1712.318,2816.00
1713.180,3176.00
1714.040,2922.00
1714.902,3084.00
1715.764,2895.00
1716.626,2641.00
1717.486,2829.00
1718.348,3156.00
1719.209,4544.00
1720.071,2535.00
1720.930,2590.00
1721.792,2711.00
1722.653,2704.00
1723.512,2740.00
1724.374,2854.00
1725.234,2988.00
1726.095,2914.00
1726.954,2868.00
1727.815,2985.00
1728.676,2845.00
1729.535,3141.00
1730.395,2836.00
1731.256,2761.00
1732.114,2890.00
1732.974,2290.00
1733.834,3266.00
1734.693,3073.00
1735.553,2895.00
1736.413,3301.00
1737.272,2745.00
1738.130,2777.00
1738.990,2923.00
1739.849,2770.00
1740.707,3918.00
1741.566,2891.00
1742.426,2911.00
1743.283,3310.00
1744.142,2768.00
1745.001,2488.00
1745.858,3103.00
1746.717,2911.00
1747.576,2977.00
1748.433,3020.00
1749.292,3513.00
1750.150,3543.00
1751.007,3062.00
1751.865,3166.00
1752.723,2889.00
1753.579,2811.00
1754.438,3139.00
1755.296,3132.00
1756.152,2417.00
1757.010,2507.00
1757.865,3094.00
1758.723,2511.00
1759.581,3193.00
1760.436,2874.00
1761.294,3270.00
1762.151,2852.00
1763.006,2810.00
1763.864,2506.00
1764.721,3085.00
1765.576,2889.00
1766.433,3017.00
1767.288,2757.00
1768.144,2965.00
1769.001,2847.00
1769.856,2930.00
1770.712,3039.00
1771.568,2639.00
1772.423,2755.00
1773.279,2786.00
1774.133,2797.00
1774.989,3287.00
1775.845,3242.00
1776.699,3134.00
1777.555,2897.00
1778.409,3414.00
1779.265,2827.00
1780.120,2829.00
1780.974,2860.00
1781.829,2466.00
1782.682,2952.00
1783.538,2691.00
1784.393,2927.00
1785.246,2761.00
1786.101,2993.00
1786.954,3001.00
1787.808,3083.00
1788.661,2555.00
1789.516,2791.00
1790.370,2791.00
1791.223,3066.00
1792.077,2867.00
1792.930,2971.00
1793.784,2706.00
1794.636,2862.00
1795.490,2821.00
1796.344,2926.00
1797.196,2859.00
1798.049,3052.00
1798.901,2764.00
1799.755,3134.00
1800.606,2660.00
1801.460,3442.00
1802.311,3249.00
1803.165,3277.00
1804.018,3261.00
1804.869,2985.00
1805.722,3389.00
1806.573,2915.00
1807.426,2695.00
1808.276,2851.00
1809.129,2767.00
1809.980,3091.00
1810.832,3195.00
1811.683,2839.00
1812.535,3226.00
1813.385,2795.00
1814.237,3203.00
1815.089,2923.00
1815.940,3182.00
1816.791,2817.00
1817.641,2726.00
1818.493,3014.00
1819.343,2966.00
1820.194,2757.00
1821.044,2995.00
1821.895,3117.00
1822.745,2596.00
1823.596,2797.00
1824.445,3291.00
1825.296,2970.00
1826.145,2835.00
1826.996,3077.00
1827.845,2962.00
1828.695,2939.00
1829.544,2897.00
1830.395,2926.00
1831.243,2803.00
1832.094,2645.00
1832.942,3538.00
1833.792,2986.00
1834.640,2957.00
1835.490,2938.00
1836.338,2954.00
1837.186,2808.00
1838.036,2768.00
1838.884,2867.00
1839.733,3269.00
1840.581,3065.00
1841.430,3025.00
1842.278,3229.00
1843.127,2755.00
1843.974,2530.00
1844.823,3331.00
1845.671,3079.00
1846.519,2903.00
1847.366,2975.00
1848.213,2509.00
1849.062,2690.00
1849.909,2611.00
1850.757,3615.00
1851.604,3047.00
1852.452,2807.00
1853.298,3093.00
1854.146,2910.00
1854.993,2962.00
1855.839,3487.00
1856.687,3011.00
1857.532,3011.00
1858.380,2868.00
1859.226,2980.00
1860.073,3031.00
1860.919,2718.00
1861.765,2778.00
1862.612,3161.00
1863.457,3140.00
1864.304,2850.00
1865.150,3064.00
1865.995,2888.00
1866.842,3006.00
1867.686,3180.00
1868.533,2992.00
1869.378,2996.00
1870.223,2905.00
1871.069,2792.00
1871.914,2960.00
1872.760,2905.00
1873.604,2680.00
1874.448,3050.00
1875.294,3092.00
1876.139,2785.00
1876.984,3054.00
1877.828,2572.00
1878.672,2353.00
1879.518,2737.00
1880.361,3103.00
1881.205,3085.00
1882.050,2680.00
1882.894,3462.00
1883.739,2763.00
1884.582,2619.00
1885.425,2715.00
1886.270,3184.00
1887.113,2640.00
1887.956,2994.00
1888.801,2959.00
1889.644,2699.00
1890.486,2481.00
1891.331,2813.00
1892.173,2960.00
1893.017,2978.00
1893.860,3171.00
1894.702,3223.00
1895.546,2915.00
1896.388,3648.00
1897.230,3305.00
1898.074,2802.00
1898.916,2683.00
1899.757,2707.00
1900.601,3636.00
1901.443,3235.00
1902.284,3241.00
1903.125,3487.00
1903.969,3106.00
1904.810,3161.00
1905.651,3003.00
1906.494,3254.00
1907.335,3370.00
1908.176,3056.00
1909.018,2979.00
1909.859,2858.00
1910.700,2792.00
1911.542,3465.00
1912.383,2988.00
1913.223,2483.00
1914.064,3076.00
1914.906,3212.00
1915.746,3243.00
1916.586,3412.00
1917.428,2899.00
1918.268,2925.00
1919.107,2809.00
1919.947,2695.00
1920.789,2841.00
1921.628,3170.00
1922.468,2943.00
1923.309,2763.00
1924.148,3266.00
1924.988,3002.00
1925.827,2897.00
1926.667,2782.00
1927.507,2971.00
1928.345,2732.00
1929.184,3097.00
1930.025,2711.00
1930.864,3189.00
1931.702,3242.00
1932.541,2829.00
1933.381,3078.00
1934.219,3118.00
1935.057,3186.00
1935.896,2609.00
1936.735,2886.00
1937.573,2777.00
1938.411,2689.00
1939.249,3112.00
1940.089,2775.00
1940.927,3197.00
1941.764,3214.00
1942.602,2846.00
1943.439,2789.00
1944.278,2898.00
1945.115,2847.00
1945.953,2656.00
1946.790,3008.00
1947.628,3298.00
1948.465,3060.00
1949.302,3071.00
1950.139,3040.00
1950.976,2800.00
1951.814,3105.00
1952.651,3029.00
1953.487,2694.00
1954.323,3200.00
1955.160,2900.00
1955.998,3299.00
1956.834,2906.00
1957.670,3001.00
1958.506,3189.00
1959.342,3036.00
1960.177,2954.00
1961.015,3061.00
1961.850,3006.00
1962.686,2983.00
1963.521,2980.00
1964.357,3248.00
1965.192,2706.00
1966.029,3088.00
1966.864,2819.00
1967.699,3145.00
1968.534,2985.00
1969.369,3224.00
1970.204,2861.00
1971.040,2910.00
1971.875,2827.00
1972.709,2983.00
1973.544,2732.00
1974.378,2818.00
1975.212,3024.00
1976.047,2863.00
1976.882,2790.00
1977.716,3349.00
1978.550,2597.00
1979.384,2880.00
1980.218,2930.00
1981.052,2880.00
1981.885,2934.00
1982.719,2935.00
1983.554,3084.00
1984.388,3277.00
1985.221,3024.00
1986.054,3177.00
1986.887,2990.00
1987.720,2780.00
1988.553,3267.00
1989.386,3064.00
1990.219,3071.00
1991.053,3285.00
1991.886,2865.00
1992.719,3175.00
1993.551,2445.00
1994.383,3094.00
1995.216,2862.00
1996.048,2614.00
1996.880,3134.00
1997.712,2807.00
1998.544,2968.00
1999.376,3012.00
2000.208,3224.00
2001.040,3393.00
2001.873,2771.00
2002.705,2749.00
2003.536,3029.00
2004.367,2992.00
2005.199,2995.00
2006.030,2826.00
2006.861,2750.00
2007.692,2966.00
2008.523,2793.00
2009.354,2998.00
2010.185,2745.00
2011.016,3093.00
2011.846,3152.00
2012.677,2863.00
2013.507,3305.00
2014.338,3174.00
2015.168,2858.00
2015.999,3560.00
2016.829,2871.00
2017.659,3171.00
2018.489,3544.00
2019.319,2740.00
2020.149,3124.00
2020.980,2955.00
2021.810,2730.00
2022.639,2836.00
2023.469,2801.00
2024.298,2600.00
2025.128,2523.00
2025.957,2533.00
2026.786,2313.00
2027.615,2598.00
2028.444,2780.00
2029.273,2947.00
2030.102,2555.00
2030.931,2782.00
2031.758,3049.00
2032.586,2724.00
2033.415,2790.00
2034.243,2363.00
2035.072,2145.00
2035.900,2663.00
2036.728,2436.00
2037.556,2517.00
2038.385,2559.00
2039.213,2327.00
2040.040,2346.00
2040.868,2292.00
2041.696,2363.00
2042.524,2363.00
2043.351,2583.00
2044.179,2373.00
2045.006,2140.00
