RamanScope Measure Spectrum Data V3.72

<< MEASURE CONDITION >>
Exposure Type,Aver
Exposure Time [sec],15
Exposure Count,4
Measure Time,2023/07/14 22:23:55
Data Name,""
Data Comment,""
Rayleigh Wave[nm],532.0

<< SAMPLE SPECTRUM >>
Wave[dcm-1],No121
146.591,540.50
147.626,671.50
148.664,800.75
149.699,956.75
150.737,1114.50
151.772,1227.75
152.809,1461.75
153.846,1588.75
154.881,1710.50
155.918,1836.75
156.953,1917.00
157.989,1994.00
159.026,2102.75
160.060,2221.25
161.096,2230.00
162.130,2329.75
163.167,2373.25
164.200,2366.00
165.236,2439.75
166.272,2492.00
167.305,2516.50
168.341,2562.75
169.374,2594.75
170.409,2621.00
171.445,2676.25
172.477,2705.25
173.512,2775.50
174.545,2825.00
175.580,2866.50
176.614,2841.00
177.647,2868.75
178.681,2862.25
179.713,2873.25
180.747,2874.25
181.781,2889.50
182.813,2846.25
183.847,2834.25
184.878,2844.25
185.912,2844.00
186.945,2853.75
187.976,2818.50
189.010,2893.75
190.043,2919.75
191.073,2933.25
192.106,2928.25
193.137,2972.75
194.170,3015.50
195.202,2985.00
196.232,3054.25
197.265,3076.75
198.297,3107.25
199.327,3151.75
200.359,3210.25
201.388,3276.25
202.420,3298.75
203.452,3351.00
204.481,3461.00
205.512,3523.00
206.544,3618.75
207.573,3679.00
208.604,3735.75
209.635,3874.50
210.663,3986.75
211.694,4084.75
212.725,4188.25
213.753,4343.25
214.783,4483.50
215.813,4614.50
216.841,4683.50
217.871,4763.25
218.899,4840.25
219.929,4858.00
220.959,4907.75
221.986,4879.50
223.016,4825.25
224.045,4778.00
225.072,4703.75
226.101,4602.00
227.130,4492.75
228.157,4420.00
229.185,4280.50
230.214,4149.25
231.241,4155.00
232.269,4040.75
233.297,3962.75
234.323,3864.25
235.351,3892.25
236.379,3853.00
237.407,3787.00
238.433,3708.00
239.460,3723.25
240.488,3725.00
241.513,3743.50
242.540,3797.25
243.568,3754.25
244.592,3828.75
245.619,3839.75
246.646,3913.50
247.671,3878.25
248.697,3917.00
249.724,3844.00
250.748,3830.00
251.774,3866.50
252.801,3819.75
253.827,3772.50
254.850,3803.50
255.876,3795.50
256.902,3840.50
257.925,3811.25
258.951,3860.75
259.976,3863.75
260.999,3902.50
262.024,3908.75
263.049,3924.75
264.074,3960.00
265.097,4015.00
266.122,4079.75
267.146,4086.00
268.168,4151.75
269.193,4249.50
270.217,4283.25
271.241,4274.00
272.263,4338.50
273.287,4336.00
274.311,4433.50
275.332,4485.50
276.356,4543.50
277.379,4568.00
278.402,4595.25
279.424,4611.00
280.447,4607.50
281.470,4566.75
282.492,4562.50
283.513,4502.25
284.536,4456.50
285.558,4404.75
286.581,4304.75
287.601,4249.75
288.623,4234.00
289.645,4184.25
290.665,4091.75
291.687,4029.25
292.709,4003.75
293.730,3956.50
294.750,3853.25
295.771,3838.50
296.792,3794.00
297.813,3728.75
298.832,3662.50
299.853,3607.00
300.874,3579.25
301.895,3489.50
302.913,3470.00
303.934,3403.00
304.954,3394.50
305.975,3280.50
306.993,3246.75
308.013,3230.50
309.033,3198.25
310.052,3138.75
311.072,3133.75
312.090,3147.00
313.109,3076.50
314.129,3024.25
315.148,3036.25
316.165,2981.25
317.184,2971.00
318.203,2926.00
319.222,2962.75
320.238,2851.25
321.257,2888.50
322.275,2846.25
323.294,2875.50
324.312,2815.00
325.328,2750.75
326.346,2806.75
327.364,2808.00
328.382,2793.75
329.397,2817.75
330.415,2749.00
331.432,2715.75
332.450,2696.50
333.467,2698.50
334.482,2710.50
335.499,2701.75
336.516,2703.25
337.533,2686.50
338.547,2700.75
339.564,2689.50
340.580,2653.75
341.597,2628.00
342.613,2639.50
343.627,2633.25
344.643,2621.75
345.659,2602.75
346.675,2632.25
347.690,2617.50
348.704,2626.25
349.719,2624.25
350.735,2603.75
351.750,2632.50
352.765,2595.75
353.778,2649.00
354.793,2594.25
355.808,2608.75
356.822,2554.75
357.837,2606.25
358.851,2570.25
359.864,2555.25
360.878,2588.50
361.892,2603.00
362.906,2574.75
363.920,2606.25
364.932,2606.00
365.945,2582.50
366.959,2583.75
367.972,2678.00
368.986,2640.25
369.999,2609.50
371.010,2680.75
372.023,2677.00
373.036,2653.50
374.049,2675.00
375.061,2663.75
376.072,2660.75
377.084,2732.50
378.097,2739.50
379.109,2692.25
380.121,2767.25
381.133,2726.75
382.143,2764.50
383.155,2751.00
384.166,2768.00
385.178,2742.75
386.189,2815.50
387.201,2748.50
388.212,2733.00
389.221,2774.75
390.232,2786.00
391.243,2770.50
392.254,2675.50
393.264,2729.00
394.275,2746.25
395.283,2741.50
396.294,2736.25
397.304,2684.25
398.314,2705.50
399.324,2705.75
400.334,2763.50
401.344,2617.25
402.351,2673.75
403.361,2674.00
404.370,2660.50
405.380,2659.00
406.389,2649.25
407.398,2640.00
408.407,2596.00
409.414,2622.75
410.423,2545.25
411.431,2587.50
412.440,2541.75
413.448,2567.25
414.457,2489.75
415.465,2524.75
416.471,2500.25
417.479,2461.75
418.487,2483.25
419.495,2415.00
420.503,2465.25
421.510,2479.00
422.518,2422.25
423.525,2446.25
424.530,2437.25
425.537,2407.25
426.544,2404.50
427.551,2382.00
428.558,2408.75
429.565,2439.00
430.571,2363.00
431.578,2395.50
432.582,2365.50
433.588,2417.00
434.595,2373.75
435.601,2380.75
436.607,2419.50
437.612,2365.50
438.618,2384.50
439.624,2302.75
440.627,2389.25
441.633,2369.25
442.638,2378.00
443.643,2388.50
444.648,2357.75
445.653,2337.25
446.658,2346.00
447.663,2404.50
448.667,2354.50
449.672,2360.25
450.674,2377.75
451.678,2391.50
452.682,2379.75
453.687,2393.50
454.690,2411.00
455.694,2392.75
456.698,2353.50
457.702,2397.50
458.705,2375.25
459.709,2405.25
460.710,2395.25
461.713,2416.75
462.716,2421.75
463.719,2411.75
464.722,2437.00
465.725,2371.50
466.727,2417.00
467.730,2440.00
468.732,2414.00
469.735,2463.75
470.737,2396.25
471.737,2374.50
472.739,2436.75
473.741,2461.75
474.742,2443.75
475.744,2407.00
476.746,2417.25
477.747,2464.00
478.748,2478.00
479.750,2439.25
480.751,2450.25
481.752,2418.50
482.753,2426.75
483.751,2454.50
484.752,2422.25
485.753,2458.00
486.753,2428.25
487.753,2509.00
488.754,2424.25
489.754,2424.25
490.754,2438.50
491.754,2421.25
492.754,2426.25
493.753,2472.50
494.753,2465.50
495.752,2443.00
496.752,2438.00
497.749,2447.25
498.748,2442.75
499.747,2450.75
500.746,2424.25
501.745,2439.50
502.744,2467.25
503.742,2422.75
504.741,2420.25
505.739,2409.50
506.737,2382.75
507.735,2411.00
508.734,2433.00
509.732,2398.50
510.729,2418.50
511.727,2404.75
512.725,2325.50
513.720,2372.25
514.718,2434.00
515.715,2376.00
516.712,2341.50
517.709,2335.75
518.706,2325.50
519.703,2370.00
520.700,2386.75
521.696,2329.50
522.693,2365.75
523.689,2352.50
524.686,2388.25
525.682,2327.00
526.678,2381.50
527.674,2360.00
528.670,2323.75
529.666,2379.75
530.661,2433.50
531.657,2448.50
532.652,2362.75
533.648,2417.00
534.641,2423.00
535.636,2401.25
536.631,2440.25
537.626,2465.00
538.621,2406.50
539.616,2409.75
540.610,2437.00
541.605,2391.00
542.599,2448.50
543.593,2426.50
544.587,2459.00
545.581,2465.75
546.575,2399.00
547.569,2386.75
548.563,2428.25
549.557,2444.25
550.550,2410.75
551.543,2377.25
552.537,2444.25
553.530,2417.00
554.523,2393.00
555.516,2458.25
556.509,2442.50
557.502,2423.25
558.494,2406.25
559.487,2445.50
560.479,2418.00
561.472,2457.50
562.464,2496.00
563.456,2464.00
564.448,2499.75
565.440,2445.50
566.432,2488.50
567.423,2455.25
568.415,2400.50
569.404,2454.00
570.396,2469.50
571.387,2502.50
572.378,2512.25
573.369,2506.75
574.360,2512.75
575.351,2518.00
576.341,2550.50
577.332,2604.00
578.323,2532.00
579.313,2538.50
580.303,2532.25
581.293,2549.50
582.283,2530.25
583.273,2524.50
584.263,2507.00
585.253,2510.25
586.243,2535.50
587.232,2563.00
588.222,2535.75
589.211,2513.25
590.200,2535.00
591.189,2496.25
592.178,2591.50
593.167,2553.00
594.156,2526.75
595.145,2571.50
596.133,2610.00
597.122,2550.50
598.110,2603.25
599.098,2544.25
600.086,2569.50
601.074,2538.25
602.062,2588.75
603.050,2575.50
604.038,2550.25
605.025,2541.50
606.013,2568.00
607.000,2522.00
607.987,2576.00
608.975,2518.00
609.962,2465.25
610.949,2451.50
611.936,2577.50
612.922,2518.50
613.909,2527.25
614.895,2479.50
615.882,2479.25
616.868,2424.75
617.854,2445.50
618.841,2508.00
619.826,2441.25
620.812,2403.00
621.798,2417.00
622.784,2450.00
623.769,2373.75
624.755,2376.00
625.740,2340.25
626.725,2340.50
627.711,2353.50
628.698,2332.50
629.683,2354.00
630.667,2334.00
631.652,2296.50
632.637,2253.00
633.621,2279.50
634.606,2258.25
635.590,2285.50
636.574,2287.50
637.558,2215.25
638.542,2254.25
639.526,2197.00
640.510,2218.50
641.493,2170.50
642.477,2161.50
643.460,2168.00
644.444,2168.75
645.427,2192.50
646.410,2119.50
647.393,2107.75
648.376,2144.25
649.359,2115.50
650.341,2125.50
651.324,2076.75
652.307,2111.00
653.289,2089.00
654.271,2114.25
655.253,2037.50
656.235,2079.50
657.217,2062.25
658.199,2024.50
659.181,2073.75
660.163,2078.25
661.144,2036.50
662.126,2051.00
663.107,2008.50
664.088,1990.00
665.069,2026.50
666.050,1992.50
667.033,2016.50
668.014,1966.50
668.995,1972.25
669.975,2010.50
670.956,1992.50
671.936,1975.50
672.916,1947.25
673.896,1953.00
674.876,1909.50
675.856,1937.00
676.836,1895.50
677.816,1916.00
678.795,1878.75
679.775,1874.00
680.754,1904.50
681.734,1924.00
682.713,1818.50
683.692,1799.25
684.671,1789.75
685.650,1820.50
686.629,1811.75
687.607,1771.75
688.586,1766.00
689.564,1772.25
690.543,1800.75
691.523,1787.00
692.501,1733.75
693.479,1754.50
694.457,1736.50
695.435,1734.75
696.413,1715.50
697.390,1742.75
698.368,1683.25
699.345,1636.50
700.322,1689.25
701.300,1700.75
702.277,1709.50
703.254,1649.50
704.231,1674.25
705.207,1693.00
706.184,1617.50
707.161,1642.75
708.137,1658.25
709.113,1567.75
710.090,1600.25
711.068,1608.00
712.044,1584.00
713.020,1566.25
713.996,1624.75
714.971,1532.25
715.947,1612.25
716.922,1546.50
717.898,1556.25
718.873,1519.75
719.848,1560.25
720.823,1546.75
721.798,1558.50
722.773,1521.00
723.748,1512.75
724.723,1552.25
725.697,1512.25
726.672,1581.25
727.646,1535.75
728.622,1525.00
729.596,1520.75
730.570,1499.75
731.544,1480.25
732.518,1565.00
733.492,1494.00
734.466,1465.00
735.439,1465.00
736.413,1426.00
737.386,1460.75
738.359,1466.75
739.332,1537.75
740.305,1470.50
741.278,1447.75
742.251,1422.00
743.224,1407.25
744.196,1476.00
745.171,1410.75
746.143,1415.25
747.115,1435.50
748.087,1380.50
749.059,1455.00
750.031,1437.25
751.003,1397.25
751.975,1402.75
752.947,1394.75
753.918,1392.50
754.890,1402.50
755.861,1412.50
756.832,1375.00
757.803,1367.50
758.774,1337.50
759.747,1378.50
760.718,1366.50
761.689,1344.75
762.659,1356.75
763.630,1329.25
764.600,1370.75
765.570,1350.50
766.540,1316.25
767.510,1350.00
768.480,1385.00
769.450,1364.00
770.420,1356.25
771.390,1289.50
772.359,1364.50
773.329,1345.25
774.300,1324.75
775.269,1320.75
776.238,1348.50
777.207,1333.50
778.176,1285.25
779.145,1321.00
780.114,1342.00
781.083,1290.25
782.051,1311.50
783.019,1266.00
783.988,1261.75
784.956,1331.50
785.924,1293.25
786.894,1229.50
787.862,1254.25
788.830,1249.00
789.797,1270.50
790.765,1312.50
791.732,1283.50
792.700,1264.00
793.667,1219.50
794.634,1305.75
795.601,1264.50
796.568,1219.00
797.535,1236.50
798.502,1240.25
799.468,1232.75
800.437,1242.50
801.403,1254.25
802.370,1220.50
803.336,1255.00
804.302,1214.75
805.268,1190.25
806.234,1219.00
807.200,1177.25
808.166,1220.00
809.131,1179.50
810.097,1191.00
811.062,1189.50
812.027,1208.25
812.994,1220.50
813.960,1188.50
814.925,1227.25
815.889,1190.00
816.854,1171.50
817.819,1204.75
818.783,1153.75
819.748,1210.00
820.712,1182.75
821.677,1166.25
822.641,1183.75
823.605,1166.00
824.571,1154.75
825.534,1160.50
826.498,1153.50
827.462,1195.75
828.425,1110.25
829.389,1184.75
830.352,1154.75
831.315,1215.50
832.279,1196.25
833.242,1146.75
834.204,1183.50
835.167,1128.75
836.132,1142.50
837.095,1159.00
838.057,1153.25
839.020,1173.75
839.982,1149.00
840.944,1166.25
841.906,1171.00
842.868,1173.25
843.830,1184.25
844.792,1115.75
845.753,1175.50
846.715,1134.50
847.679,1118.75
848.640,1182.75
849.601,1172.00
850.562,1147.25
851.523,1142.50
852.484,1148.75
853.445,1148.00
854.406,1126.25
855.367,1150.75
856.327,1152.75
857.288,1128.00
858.248,1135.75
859.210,1167.00
860.170,1157.00
861.130,1115.75
862.090,1152.75
863.050,1112.25
864.010,1099.75
864.969,1130.50
865.929,1094.25
866.888,1133.00
867.848,1104.25
868.807,1127.00
869.766,260.50
870.727,652.25
871.686,1114.75
872.645,1142.75
873.604,1097.75
874.562,1123.50
875.521,1078.25
876.479,1095.00
877.437,1129.00
878.396,1109.50
879.354,1096.75
880.312,1067.25
881.270,1092.50
882.229,1074.50
883.187,1058.25
884.145,1075.00
885.102,1082.25
886.059,1059.50
887.017,1081.25
887.974,1101.00
888.931,1106.50
889.888,1125.00
890.845,1073.50
891.802,1069.25
892.758,1075.50
893.717,1066.50
894.673,1054.00
895.630,1095.25
896.586,1127.25
897.542,1104.75
898.498,1070.25
899.454,1073.50
900.410,1078.75
901.366,1083.25
902.321,1070.00
903.277,1088.50
904.232,1098.50
905.189,1105.00
906.145,1059.00
907.100,1110.75
908.055,1112.00
909.010,1050.75
909.965,1092.25
910.919,1137.25
911.874,1094.75
912.828,1056.25
913.783,1076.25
914.737,1096.75
915.693,1061.50
916.648,1096.25
917.602,1052.25
918.555,1109.50
919.509,1073.00
920.463,1064.00
921.417,1058.75
922.370,1079.75
923.324,1060.50
924.277,1079.50
925.230,1069.00
926.183,1092.50
927.138,1065.00
928.091,1082.50
929.044,1090.50
929.996,1061.00
930.949,1062.75
931.902,1042.50
932.854,1086.75
933.806,1127.00
934.758,1066.25
935.711,1091.00
936.663,1105.75
937.614,1093.50
938.568,1046.25
939.520,1070.75
940.471,1066.25
941.423,1076.50
942.374,1090.75
943.326,1099.25
944.277,1095.50
945.228,1095.00
946.179,1119.50
947.130,1053.00
948.080,1099.50
949.031,1099.50
949.984,1106.50
950.934,1043.50
951.884,1048.00
952.835,1084.50
953.785,1059.50
954.735,1082.25
955.685,1073.50
956.635,1062.25
957.585,1089.75
958.534,1103.75
959.484,1076.75
960.433,1037.50
961.383,1085.75
962.334,1037.50
963.283,1103.75
964.232,1071.00
965.181,1057.00
966.130,1085.00
967.079,1063.75
968.027,1062.50
968.976,1069.00
969.924,1057.75
970.873,1023.50
971.821,1055.50
972.769,1040.25
973.719,1065.00
974.667,1047.00
975.615,1107.75
976.562,1084.50
977.510,1027.50
978.458,1072.00
979.405,1078.50
980.352,1048.25
981.300,1070.25
982.247,1095.75
983.194,1080.50
984.141,1090.25
985.088,1045.00
986.036,1057.00
986.983,1070.00
987.930,1080.00
988.876,1022.00
989.822,1077.00
990.769,1054.25
991.715,1067.50
992.661,1106.00
993.607,1117.50
994.553,1086.50
995.498,1032.50
996.444,1068.75
997.389,1058.50
998.337,1028.50
999.282,1063.50
1000.227,1037.00
1001.173,1050.00
1002.118,1064.50
1003.062,1064.50
1004.007,1088.25
1004.952,1086.75
1005.897,1056.75
1006.841,1109.25
1007.786,1049.50
1008.730,1063.75
1009.674,1044.75
1010.618,1027.00
1011.564,1081.25
1012.508,1063.75
1013.452,1068.00
1014.396,1070.50
1015.339,1085.25
1016.283,1098.00
1017.226,1101.00
1018.170,1094.25
1019.113,1024.50
1020.056,1071.25
1020.999,1028.75
1021.942,1066.50
1022.885,1082.25
1023.828,1087.75
1024.770,1073.00
1025.715,1114.75
1026.657,1098.25
1027.600,1118.75
1028.542,1068.00
1029.484,1087.50
1030.426,1094.00
1031.368,1096.00
1032.310,1099.75
1033.251,1089.75
1034.193,1094.50
1035.135,1084.50
1036.076,1108.50
1037.017,1106.00
1037.959,1118.00
1038.900,1115.75
1039.843,1149.50
1040.784,1113.00
1041.725,1079.00
1042.665,1110.50
1043.606,1128.25
1044.547,1153.25
1045.487,1071.50
1046.427,1114.50
1047.368,1115.00
1048.308,1139.50
1049.248,1159.75
1050.188,1132.75
1051.128,1118.75
1052.067,1171.75
1053.007,1208.25
1053.947,1141.25
1054.886,1151.25
1055.827,1167.00
1056.766,1133.00
1057.706,1140.75
1058.645,1168.00
1059.584,1186.50
1060.522,1150.25
1061.461,1182.50
1062.400,1148.25
1063.338,1209.75
1064.277,1169.50
1065.215,1148.75
1066.154,1159.25
1067.092,1192.25
1068.030,1178.00
1068.968,1192.25
1069.906,1203.75
1070.843,1164.00
1071.781,1195.25
1072.720,1195.50
1073.658,1164.25
1074.595,1180.00
1075.533,1191.25
1076.470,1203.50
1077.407,1210.25
1078.344,1232.50
1079.281,1192.50
1080.217,1253.25
1081.154,1182.75
1082.091,1208.00
1083.027,1213.75
1083.964,1243.50
1084.900,1184.00
1085.836,1225.50
1086.772,1242.75
1087.708,1223.00
1088.644,1208.25
1089.580,1246.00
1090.515,1227.25
1091.451,1233.75
1092.388,1221.75
1093.324,1210.50
1094.259,1261.75
1095.194,1207.50
1096.129,1222.00
1097.064,1227.00
1097.999,1206.50
1098.934,1205.25
1099.869,1221.50
1100.803,1208.75
1101.738,1185.25
1102.672,1164.50
1103.607,1203.00
1104.541,1204.50
1105.475,1166.50
1106.409,1187.25
1107.343,1150.50
1108.277,1165.50
1109.210,1176.75
1110.144,1105.25
1111.078,1189.00
1112.011,1146.50
1112.944,1160.75
1113.878,1117.25
1114.811,1122.75
1115.744,1138.50
1116.678,1131.75
1117.611,1131.00
1118.544,1141.00
1119.477,1105.25
1120.409,1090.00
1121.342,1143.00
1122.274,1065.50
1123.206,-201.50
1124.138,1075.75
1125.070,1078.25
1126.002,1106.50
1126.934,1109.75
1127.866,1094.25
1128.798,1070.00
1129.729,1087.00
1130.661,1055.75
1131.592,1084.00
1132.523,1064.25
1133.454,1086.00
1134.385,1074.50
1135.317,1032.25
1136.247,1050.25
1137.178,1031.75
1138.109,1042.00
1139.039,1057.25
1139.970,1037.00
1140.900,1023.00
1141.831,963.75
1142.761,1044.75
1143.691,1039.00
1144.621,998.25
1145.551,1017.75
1146.480,1041.50
1147.410,1040.00
1148.340,1000.00
1149.269,1016.00
1150.199,992.75
1151.128,980.75
1152.057,981.00
1152.979,982.25
1153.898,991.50
1154.819,997.00
1155.739,960.50
1156.658,983.50
1157.579,1010.00
1158.498,1027.25
1159.419,1004.75
1160.338,986.75
1161.256,1015.75
1162.177,995.50
1163.095,977.25
1164.016,966.25
1164.934,989.75
1165.852,942.00
1166.772,985.25
1167.690,957.50
1168.610,1012.25
1169.528,980.25
1170.446,989.50
1171.365,942.75
1172.283,965.25
1173.202,949.25
1174.120,958.00
1175.037,994.75
1175.956,889.50
1176.873,907.00
1177.792,970.25
1178.709,933.00
1179.626,964.00
1180.544,949.25
1181.461,952.25
1182.379,964.25
1183.296,962.50
1184.212,987.00
1185.130,937.25
1186.046,920.25
1186.962,950.75
1187.880,965.50
1188.796,926.25
1189.714,931.00
1190.629,927.00
1191.545,940.00
1192.462,978.75
1193.378,935.00
1194.295,936.75
1195.210,920.50
1196.125,931.25
1197.042,932.75
1197.957,919.25
1198.872,943.25
1199.788,968.75
1200.703,957.50
1201.619,923.25
1202.534,949.75
1203.448,957.25
1204.364,950.50
1205.278,892.50
1206.192,966.75
1207.108,951.50
1208.022,974.25
1208.938,943.50
1209.851,930.25
1210.765,959.25
1211.680,949.25
1212.594,942.75
1213.507,929.75
1214.422,916.75
1215.335,948.00
1216.248,942.25
1217.163,991.00
1218.076,947.00
1218.990,929.00
1219.903,953.25
1220.816,957.25
1221.730,968.25
1222.642,929.50
1223.554,965.25
1224.469,956.00
1225.380,987.25
1226.292,973.50
1227.206,939.50
1228.118,960.25
1229.032,998.75
1229.943,985.00
1230.855,982.00
1231.768,987.25
1232.679,969.75
1233.590,999.25
1234.503,971.50
1235.414,951.00
1236.325,998.00
1237.238,977.75
1238.149,1005.00
1239.059,1010.25
1239.972,1002.25
1240.882,962.50
1241.793,1003.75
1242.705,1012.50
1243.615,1015.25
1244.525,946.00
1245.437,978.50
1246.347,983.00
1247.259,993.50
1248.168,1007.75
1249.078,975.50
1249.989,1015.50
1250.899,940.50
1251.808,1041.25
1252.719,962.00
1253.628,1011.50
1254.537,993.00
1255.448,957.75
1256.357,980.25
1257.266,1011.50
1258.176,967.75
1259.085,1024.25
1259.993,1021.75
1260.904,985.25
1261.812,991.50
1262.720,1006.00
1263.630,991.75
1264.538,1026.25
1265.446,1046.00
1266.356,1041.50
1267.263,1048.25
1268.171,977.00
1269.080,1031.00
1269.988,988.25
1270.895,1007.75
1271.804,1010.00
1272.711,1009.75
1273.619,1017.75
1274.527,1030.25
1275.434,1025.75
1276.341,1028.75
1277.248,995.25
1278.156,1048.00
1279.063,1035.00
1279.969,1041.75
1280.877,1016.75
1281.783,999.25
1282.690,1015.50
1283.598,972.50
1284.503,1020.75
1285.409,1024.50
1286.317,1051.75
1287.223,1051.00
1288.128,1017.50
1289.036,973.75
1289.941,1014.75
1290.846,973.00
1291.751,1022.75
1292.658,1003.50
1293.563,991.25
1294.468,992.25
1295.375,1008.75
1296.280,1027.00
1297.184,984.50
1298.091,980.50
1298.995,990.75
1299.900,991.25
1300.806,988.50
1301.710,957.75
1302.614,966.00
1303.518,963.75
1304.424,949.50
1305.327,953.50
1306.231,991.75
1307.137,946.25
1308.040,1045.00
1308.943,973.50
1309.847,959.75
1310.752,896.00
1311.655,938.25
1312.558,944.50
1313.463,941.50
1314.366,937.50
1315.269,954.50
1316.171,969.75
1317.076,934.75
1317.978,915.25
1318.881,907.75
1319.785,922.75
1320.687,906.25
1321.589,952.00
1322.491,914.00
1323.395,901.75
1324.297,875.25
1325.198,918.00
1326.102,956.50
1327.004,909.75
1327.905,918.00
1328.806,926.25
1329.709,902.50
1330.611,912.50
1331.512,928.75
1332.413,947.25
1333.316,889.00
1334.216,846.50
1335.117,856.25
1336.020,865.00
1336.920,899.00
1337.821,887.75
1338.721,899.75
1339.623,838.25
1340.523,871.00
1341.423,834.00
1342.323,864.50
1343.225,846.75
1344.125,838.00
1345.025,851.50
1345.924,824.50
1346.826,866.75
1347.725,838.50
1348.624,860.50
1349.524,806.50
1350.425,788.50
1351.324,846.75
1352.223,834.50
1353.121,812.50
1354.022,805.00
1354.921,819.25
1355.819,794.50
1356.718,787.50
1357.618,812.50
1358.516,787.50
1359.415,831.50
1360.313,779.75
1361.213,801.75
1362.111,836.75
1363.008,805.25
1363.906,766.75
1364.806,806.25
1365.703,780.00
1366.601,781.75
1367.498,772.25
1368.397,758.00
1369.295,799.00
1370.192,741.25
1371.089,750.50
1371.987,798.00
1372.884,789.25
1373.781,749.75
1374.678,792.00
1375.574,747.75
1376.473,771.75
1377.369,795.25
1378.265,763.75
1379.161,769.25
1380.059,745.25
1380.955,794.25
1381.851,751.75
1382.747,782.00
1383.643,732.00
1384.540,706.00
1385.436,750.75
1386.331,737.25
1387.227,719.25
1388.124,669.25
1389.019,740.50
1389.914,710.00
1390.809,685.75
1391.704,751.00
1392.601,735.25
1393.495,716.75
1394.390,695.50
1395.285,669.50
1396.179,723.00
1397.075,748.00
1397.969,704.75
1398.864,712.75
1399.758,732.25
1400.652,684.00
1401.547,661.50
1402.441,720.00
1403.335,683.25
1404.229,705.25
1405.122,661.50
1406.017,674.75
1406.911,678.75
1407.804,700.75
1408.697,698.00
1409.590,675.50
1410.485,681.00
1411.378,684.00
1412.271,662.50
1413.163,706.75
1414.056,674.00
1414.949,688.75
1415.843,684.50
1416.735,670.50
1417.627,694.75
1418.520,663.50
1419.412,640.00
1420.306,675.50
1421.197,653.75
1422.089,684.75
1422.981,658.50
1423.873,676.75
1424.764,688.25
1425.657,681.75
1426.549,684.00
1427.440,687.75
1428.331,665.50
1429.222,650.75
1430.113,646.00
1431.006,672.50
1431.897,643.25
1432.787,673.50
1433.678,634.00
1434.568,660.75
1435.459,628.75
1436.351,660.00
1437.241,667.50
1438.131,663.25
1439.021,628.00
1439.911,681.75
1440.801,671.75
1441.693,620.00
1442.583,637.25
1443.472,655.50
1444.362,649.25
1445.251,622.75
1446.140,606.75
1447.030,629.00
1447.921,622.00
1448.810,606.75
1449.699,636.25
1450.588,638.50
1451.476,580.00
1452.365,620.75
1453.254,617.00
1454.144,634.25
1455.032,647.25
1455.921,604.50
1456.809,635.50
1457.697,608.50
1458.585,622.00
1459.473,621.00
1460.361,644.25
1461.251,607.50
1462.138,636.25
1463.026,606.50
1463.913,627.50
1464.801,623.00
1465.688,621.00
1466.575,583.25
1467.463,626.25
1468.351,608.25
1469.238,613.75
1470.125,601.25
1471.012,607.00
1471.899,617.00
1472.785,589.25
1473.672,612.00
1474.558,603.75
1475.446,607.25
1476.333,619.75
1477.219,565.00
1478.105,620.25
1478.991,594.25
1479.877,588.50
1480.762,590.75
1481.648,618.75
1482.534,621.25
1483.419,617.75
1484.307,580.50
1485.192,605.75
1486.077,594.25
1486.962,600.00
1487.847,616.25
1488.732,557.50
1489.617,563.25
1490.502,574.00
1491.387,545.75
1492.271,595.00
1493.156,570.50
1494.042,571.25
1494.927,609.25
1495.811,619.00
1496.695,547.50
1497.579,606.00
1498.463,587.25
1499.347,590.50
1500.231,625.25
1501.114,581.50
1501.998,583.00
1502.881,619.00
1503.765,605.25
1504.648,512.25
1505.533,589.75
1506.417,585.25
1507.300,566.50
1508.183,552.00
1509.066,582.75
1509.948,556.75
1510.831,569.00
1511.714,575.50
1512.596,523.75
1513.479,566.25
1514.361,556.00
1515.243,560.25
1516.125,583.50
1517.008,545.25
1517.890,530.75
1518.771,553.00
1519.655,596.25
1520.537,557.00
1521.419,539.50
1522.300,569.00
1523.182,553.50
1524.063,537.50
1524.944,571.00
1525.825,555.25
1526.707,554.75
1527.588,554.25
1528.468,512.50
1529.349,548.25
1530.230,566.75
1531.111,511.75
1531.991,501.00
1532.872,540.75
1533.752,522.75
1534.632,543.25
1535.513,512.00
1536.393,574.25
1537.273,555.00
1538.153,492.00
1539.032,525.00
1539.912,499.25
1540.792,534.00
1541.672,523.25
1542.551,530.75
1543.430,526.50
1544.310,521.25
1545.189,482.75
1546.068,560.00
1546.947,549.75
1547.826,534.00
1548.705,576.25
1549.584,522.00
1550.462,495.50
1551.341,555.50
1552.219,512.25
1553.098,520.25
1553.976,537.50
1554.854,520.50
1555.733,550.50
1556.611,523.75
1557.489,538.50
1558.367,485.75
1559.244,520.25
1560.122,539.50
1561.000,547.25
1561.877,524.50
1562.755,524.50
1563.632,505.00
1564.509,501.75
1565.386,532.00
1566.264,504.75
1567.141,534.50
1568.017,503.00
1568.894,519.00
1569.771,493.50
1570.648,528.25
1571.524,544.00
1572.401,535.00
1573.277,520.25
1574.153,528.75
1575.029,469.25
1575.906,516.75
1576.781,513.25
1577.657,522.75
1578.533,506.00
1579.409,526.25
1580.285,509.50
1581.160,526.75
1582.036,485.75
1582.911,501.25
1583.786,481.25
1584.662,506.25
1585.537,512.25
1586.412,490.00
1587.287,445.25
1588.160,515.00
1589.035,490.50
1589.909,492.25
1590.784,526.50
1591.658,524.00
1592.533,508.50
1593.407,473.50
1594.281,517.00
1595.155,467.25
1596.029,499.25
1596.903,494.25
1597.777,518.50
1598.651,535.00
1599.525,487.00
1600.398,488.00
1601.272,502.25
1602.144,496.50
1603.017,479.25
1603.890,525.50
1604.763,442.25
1605.636,526.00
1606.509,477.75
1607.382,479.50
1608.255,512.50
1609.128,475.50
1610.000,500.50
1610.873,517.00
1611.746,468.75
1612.616,504.50
1613.488,503.50
1614.361,478.75
1615.233,497.50
1616.105,481.00
1616.977,513.50
1617.849,491.75
1618.720,465.25
1619.592,491.50
1620.464,468.75
1621.333,466.75
1622.205,473.00
1623.076,482.00
1623.947,512.25
1624.818,535.25
1625.689,497.50
1626.560,467.50
1627.431,480.75
1628.302,492.75
1629.171,504.00
1630.042,474.75
1630.912,508.25
1631.782,456.50
1632.653,458.25
1633.523,450.00
1634.393,492.00
1635.263,478.75
1636.131,475.25
1637.001,480.00
1637.871,464.75
1638.741,476.75
1639.611,493.25
1640.480,502.50
1641.350,509.25
1642.219,494.00
1643.087,465.25
1643.956,465.25
1644.825,494.50
1645.694,500.00
1646.563,460.50
1647.432,481.00
1648.299,491.00
1649.167,506.25
1650.036,484.75
1650.904,527.50
1651.773,488.00
1652.641,473.50
1653.509,455.00
1654.376,458.75
1655.244,412.50
1656.112,497.00
1656.980,439.50
1657.847,455.75
1658.715,486.00
1659.581,459.25
1660.448,434.50
1661.316,480.75
1662.183,477.75
1663.051,430.25
1663.918,420.25
1664.783,496.50
1665.650,439.00
1666.517,481.25
1667.384,422.00
1668.251,471.00
1669.115,467.25
1669.982,465.50
1670.849,443.75
1671.715,472.00
1672.581,403.00
1673.446,449.25
1674.312,434.50
1675.178,430.00
1676.044,457.50
1676.910,484.00
1677.774,428.00
1678.639,487.50
1679.505,444.75
1680.370,475.50
1681.236,395.25
1682.099,466.75
1682.965,462.75
1683.830,438.00
1684.695,454.00
1685.560,452.00
1686.423,472.00
1687.288,471.00
1688.153,470.75
1689.017,431.00
1689.880,454.50
1690.745,439.00
1691.609,437.50
1692.473,472.25
1693.338,443.00
1694.200,477.50
1695.064,456.50
1695.928,471.50
1696.792,417.50
1697.654,403.50
1698.517,474.50
1699.381,427.50
1700.245,423.50
1701.106,459.25
1701.969,443.50
1702.833,447.25
1703.696,422.50
1704.557,413.75
1705.420,438.25
1706.283,445.50
1707.146,439.75
1708.007,452.25
1708.870,409.50
1709.732,440.00
1710.595,440.25
1711.455,452.00
1712.318,424.00
1713.180,447.25
1714.040,411.25
1714.902,486.00
1715.764,456.75
1716.626,422.25
1717.486,422.00
1718.348,427.75
1719.209,422.75
1720.071,439.00
1720.930,438.25
1721.792,449.75
1722.653,399.25
1723.512,454.75
1724.374,434.00
1725.234,446.75
1726.095,430.00
1726.954,419.75
1727.815,454.75
1728.676,442.75
1729.535,437.00
1730.395,477.25
1731.256,406.25
1732.114,460.75
1732.974,446.75
1733.834,420.25
1734.693,474.00
1735.553,445.00
1736.413,451.25
1737.272,423.75
1738.130,434.25
1738.990,466.75
1739.849,456.50
1740.707,440.50
1741.566,406.25
1742.426,449.75
1743.283,415.25
1744.142,438.50
1745.001,426.00
1745.858,449.75
1746.717,440.25
1747.576,437.00
1748.433,451.50
1749.292,412.50
1750.150,403.75
1751.007,425.00
1751.865,435.75
1752.723,412.50
1753.579,439.75
1754.438,415.00
1755.296,419.25
1756.152,412.25
1757.010,448.50
1757.865,431.00
1758.723,388.50
1759.581,430.25
1760.436,433.25
1761.294,430.50
1762.151,397.75
1763.006,433.50
1763.864,432.25
1764.721,431.00
1765.576,412.50
1766.433,414.25
1767.288,429.25
1768.144,420.75
1769.001,458.75
1769.856,390.75
1770.712,383.75
1771.568,411.00
1772.423,395.25
1773.279,463.00
1774.133,435.00
1774.989,443.00
1775.845,397.50
1776.699,410.75
1777.555,432.25
1778.409,439.50
1779.265,442.75
1780.120,440.25
1780.974,437.75
1781.829,411.00
1782.682,412.25
1783.538,426.00
1784.393,444.50
1785.246,408.00
1786.101,383.50
1786.954,393.00
1787.808,438.25
1788.661,392.25
1789.516,401.75
1790.370,431.50
1791.223,413.00
1792.077,413.00
1792.930,463.00
1793.784,384.75
1794.636,450.00
1795.490,380.00
1796.344,337.25
1797.196,437.50
1798.049,414.25
1798.901,391.50
1799.755,412.50
1800.606,439.00
1801.460,464.25
1802.311,416.25
1803.165,400.50
1804.018,341.50
1804.869,422.75
1805.722,460.00
1806.573,432.50
1807.426,436.75
1808.276,421.00
1809.129,439.25
1809.980,431.50
1810.832,422.75
1811.683,429.75
1812.535,415.50
1813.385,435.75
1814.237,455.75
1815.089,406.25
1815.940,422.75
1816.791,427.25
1817.641,459.00
1818.493,433.75
1819.343,408.50
1820.194,423.00
1821.044,452.75
1821.895,418.50
1822.745,404.25
1823.596,410.50
1824.445,400.50
1825.296,437.75
1826.145,410.25
1826.996,431.00
1827.845,434.75
1828.695,395.50
1829.544,403.00
1830.395,426.00
1831.243,391.50
1832.094,417.25
1832.942,398.25
1833.792,388.50
1834.640,416.00
1835.490,399.50
1836.338,404.75
1837.186,418.25
1838.036,442.75
1838.884,416.25
1839.733,396.50
1840.581,390.75
1841.430,412.75
1842.278,412.75
1843.127,434.75
1843.974,397.50
1844.823,430.75
1845.671,443.75
1846.519,396.25
1847.366,410.00
1848.213,375.75
1849.062,407.00
1849.909,370.50
1850.757,365.75
1851.604,390.50
1852.452,397.00
1853.298,421.50
1854.146,393.25
1854.993,385.00
1855.839,407.50
1856.687,399.25
1857.532,441.75
1858.380,388.25
1859.226,385.50
1860.073,410.50
1860.919,409.25
1861.765,387.25
1862.612,425.25
1863.457,449.00
1864.304,404.50
1865.150,390.25
1865.995,388.25
1866.842,404.75
1867.686,408.50
1868.533,354.75
1869.378,410.00
1870.223,390.00
1871.069,389.75
1871.914,424.25
1872.760,412.50
1873.604,355.75
1874.448,406.25
1875.294,404.25
1876.139,400.75
1876.984,417.75
1877.828,355.00
1878.672,395.50
1879.518,358.00
1880.361,380.00
1881.205,363.00
1882.050,412.75
1882.894,467.25
1883.739,402.75
1884.582,409.25
1885.425,382.25
1886.270,379.00
1887.113,417.00
1887.956,388.50
1888.801,413.00
1889.644,410.25
1890.486,388.50
1891.331,391.50
1892.173,383.50
1893.017,360.25
1893.860,423.00
1894.702,394.75
1895.546,384.50
1896.388,397.25
1897.230,428.50
1898.074,371.25
1898.916,387.75
1899.757,420.00
1900.601,380.25
1901.443,422.25
1902.284,412.00
1903.125,403.00
1903.969,367.50
1904.810,394.25
1905.651,388.75
1906.494,385.75
1907.335,389.25
1908.176,399.75
1909.018,416.25
1909.859,364.75
1910.700,368.00
1911.542,388.75
1912.383,407.25
1913.223,382.00
1914.064,404.00
1914.906,407.75
1915.746,407.25
1916.586,393.00
1917.428,361.50
1918.268,424.25
1919.107,421.75
1919.947,368.75
1920.789,368.25
1921.628,361.00
1922.468,364.50
1923.309,374.25
1924.148,377.00
1924.988,379.00
1925.827,364.50
1926.667,379.75
1927.507,342.75
1928.345,351.75
1929.184,406.00
1930.025,401.50
1930.864,385.50
1931.702,346.00
1932.541,327.25
1933.381,392.25
1934.219,407.50
1935.057,370.25
1935.896,346.50
1936.735,359.75
1937.573,387.25
1938.411,394.50
1939.249,388.00
1940.089,358.50
1940.927,406.25
1941.764,419.75
1942.602,359.50
1943.439,376.75
1944.278,392.50
1945.115,391.50
1945.953,414.75
1946.790,443.00
1947.628,415.75
1948.465,322.00
1949.302,372.25
1950.139,355.75
1950.976,401.50
1951.814,361.25
1952.651,358.25
1953.487,410.75
1954.323,382.00
1955.160,358.75
1955.998,396.00
1956.834,367.50
1957.670,402.50
1958.506,349.25
1959.342,352.00
1960.177,345.50
1961.015,400.75
1961.850,376.25
1962.686,385.25
1963.521,355.75
1964.357,394.50
1965.192,368.25
1966.029,410.75
1966.864,344.75
1967.699,416.75
1968.534,369.50
1969.369,359.75
1970.204,379.50
1971.040,385.75
1971.875,437.75
1972.709,377.75
1973.544,382.00
1974.378,394.50
1975.212,407.75
1976.047,425.75
1976.882,362.50
1977.716,346.25
1978.550,395.75
1979.384,364.75
1980.218,331.75
1981.052,394.75
1981.885,411.00
1982.719,346.00
1983.554,407.00
1984.388,403.75
1985.221,382.00
1986.054,388.75
1986.887,342.50
1987.720,355.75
1988.553,387.00
1989.386,425.00
1990.219,405.00
1991.053,349.50
1991.886,367.75
1992.719,372.25
1993.551,355.25
1994.383,384.25
1995.216,380.25
1996.048,381.00
1996.880,334.00
1997.712,345.75
1998.544,405.75
1999.376,339.25
2000.208,378.50
2001.040,393.50
2001.873,358.00
2002.705,339.00
2003.536,402.50
2004.367,380.00
2005.199,356.75
2006.030,351.50
2006.861,400.75
2007.692,346.25
2008.523,369.25
2009.354,394.75
2010.185,365.25
2011.016,399.25
2011.846,382.25
2012.677,383.00
2013.507,385.00
2014.338,404.50
2015.168,366.25
2015.999,388.75
2016.829,393.50
2017.659,388.75
2018.489,315.50
2019.319,375.25
2020.149,419.50
2020.980,413.50
2021.810,395.75
2022.639,353.50
2023.469,408.00
2024.298,379.25
2025.128,411.50
2025.957,377.75
2026.786,367.75
2027.615,396.75
2028.444,337.00
2029.273,367.00
2030.102,405.50
2030.931,347.75
2031.758,364.75
2032.586,344.25
2033.415,371.25
2034.243,363.75
2035.072,383.25
2035.900,342.00
2036.728,387.00
2037.556,396.75
2038.385,386.25
2039.213,396.00
2040.040,384.00
2040.868,376.75
2041.696,416.50
2042.524,360.25
2043.351,398.75
2044.179,350.50
2045.006,381.50
2045.006,381.50

Max Intensity Wave.,220.959
Max Intensity Data,4907.75
Min Intensity Wave.,1123.206
Min Intensity Data,-201.50
FWHM Wave.,400.138
FWHM Value,0.90
Pressure Wave.,685.922
Pressure Value [GPa],-21.65103
G/D Ratio,0.55133
G/D Gband Wave.,1548.650
G/D Gband Intensity,576.44
G/D Dband Wave.,1308.112
G/D Dband Intensity,1045.55

<< BACKGROUND SPECTRUM >>
Wave[dcm-1],No121
146.591,2380.00
147.626,2211.00
148.664,2173.00
149.699,2675.00
150.737,2385.00
151.772,2548.00
152.809,2495.00
153.846,2407.00
154.881,2535.00
155.918,2075.00
156.953,2408.00
157.989,2787.00
159.026,2599.00
160.060,2787.00
161.096,3075.00
162.130,2636.00
163.167,2723.00
164.200,2619.00
165.236,2818.00
166.272,2822.00
167.305,2380.00
168.341,2674.00
169.374,2947.00
170.409,2980.00
171.445,2901.00
172.477,2704.00
173.512,2524.00
174.545,2843.00
175.580,3024.00
176.614,3218.00
177.647,2984.00
178.681,3236.00
179.713,3566.00
180.747,2988.00
181.781,2876.00
182.813,3177.00
183.847,3288.00
184.878,2872.00
185.912,3137.00
186.945,3356.00
187.976,3267.00
189.010,2877.00
190.043,3016.00
191.073,3058.00
192.106,2908.00
193.137,3391.00
194.170,2671.00
195.202,3124.00
196.232,2840.00
197.265,3177.00
198.297,3259.00
199.327,2963.00
200.359,3149.00
201.388,3548.00
202.420,3110.00
203.452,3282.00
204.481,2823.00
205.512,3527.00
206.544,3273.00
207.573,3240.00
208.604,3605.00
209.635,3730.00
210.663,3135.00
211.694,3175.00
212.725,2993.00
213.753,2943.00
214.783,3593.00
215.813,3442.00
216.841,3146.00
217.871,3378.00
218.899,3082.00
219.929,3382.00
220.959,3097.00
221.986,3365.00
223.016,2960.00
224.045,3329.00
225.072,3321.00
226.101,3394.00
227.130,3454.00
228.157,2996.00
229.185,2499.00
230.214,3438.00
231.241,2996.00
232.269,2577.00
233.297,2877.00
234.323,3458.00
235.351,2988.00
236.379,3281.00
237.407,2946.00
238.433,3154.00
239.460,3309.00
240.488,3316.00
241.513,3411.00
242.540,3244.00
243.568,3429.00
244.592,3410.00
245.619,3397.00
246.646,3095.00
247.671,3120.00
248.697,2942.00
249.724,3197.00
250.748,3214.00
251.774,3179.00
252.801,3492.00
253.827,3293.00
254.850,3275.00
255.876,2825.00
256.902,3294.00
257.925,3181.00
258.951,2895.00
259.976,2943.00
260.999,3266.00
262.024,2977.00
263.049,3918.00
264.074,3303.00
265.097,3227.00
266.122,3261.00
267.146,3215.00
268.168,3412.00
269.193,2991.00
270.217,3406.00
271.241,2874.00
272.263,3071.00
273.287,3397.00
274.311,2943.00
275.332,3505.00
276.356,3044.00
277.379,3299.00
278.402,3314.00
279.424,3110.00
280.447,3031.00
281.470,2904.00
282.492,3267.00
283.513,3093.00
284.536,3388.00
285.558,3323.00
286.581,3348.00
287.601,3038.00
288.623,2990.00
289.645,3220.00
290.665,3314.00
291.687,3308.00
292.709,3300.00
293.730,3581.00
294.750,3088.00
295.771,2901.00
296.792,3216.00
297.813,3088.00
298.832,3215.00
299.853,2908.00
300.874,3134.00
301.895,3128.00
302.913,3148.00
303.934,3463.00
304.954,3193.00
305.975,3392.00
306.993,2928.00
308.013,3313.00
309.033,3202.00
310.052,3111.00
311.072,3049.00
312.090,3197.00
313.109,3482.00
314.129,3624.00
315.148,3178.00
316.165,3263.00
317.184,3443.00
318.203,2953.00
319.222,2885.00
320.238,3356.00
321.257,2967.00
322.275,2890.00
323.294,3139.00
324.312,3343.00
325.328,3509.00
326.346,3466.00
327.364,3432.00
328.382,3346.00
329.397,3278.00
330.415,3458.00
331.432,3449.00
332.450,3497.00
333.467,3716.00
334.482,2736.00
335.499,3573.00
336.516,3042.00
337.533,2702.00
338.547,2968.00
339.564,3001.00
340.580,3251.00
341.597,3168.00
342.613,3669.00
343.627,3173.00
344.643,3222.00
345.659,3330.00
346.675,3177.00
347.690,3083.00
348.704,3278.00
349.719,3045.00
350.735,2925.00
351.750,3331.00
352.765,3186.00
353.778,3128.00
354.793,3350.00
355.808,3003.00
356.822,3398.00
357.837,2804.00
358.851,3484.00
359.864,3165.00
360.878,2922.00
361.892,3149.00
362.906,3372.00
363.920,2717.00
364.932,3291.00
365.945,3324.00
366.959,3218.00
367.972,3069.00
368.986,2858.00
369.999,3619.00
371.010,2988.00
372.023,3532.00
373.036,3147.00
374.049,3605.00
375.061,3306.00
376.072,3193.00
377.084,3017.00
378.097,2871.00
379.109,3386.00
380.121,3128.00
381.133,2827.00
382.143,3323.00
383.155,2875.00
384.166,3036.00
385.178,3305.00
386.189,3374.00
387.201,2894.00
388.212,3110.00
389.221,3108.00
390.232,3178.00
391.243,3097.00
392.254,3273.00
393.264,3016.00
394.275,3416.00
395.283,3393.00
396.294,3859.00
397.304,3739.00
398.314,3305.00
399.324,3221.00
400.334,2754.00
401.344,3383.00
402.351,2823.00
403.361,3418.00
404.370,3102.00
405.380,3064.00
406.389,3538.00
407.398,3302.00
408.407,3280.00
409.414,3321.00
410.423,3540.00
411.431,2905.00
412.440,2824.00
413.448,3529.00
414.457,3054.00
415.465,2961.00
416.471,3039.00
417.479,3220.00
418.487,2962.00
419.495,3520.00
420.503,3302.00
421.510,2750.00
422.518,3376.00
423.525,3348.00
424.530,3600.00
425.537,3065.00
426.544,3480.00
427.551,3056.00
428.558,3804.00
429.565,3609.00
430.571,3063.00
431.578,3069.00
432.582,3092.00
433.588,3152.00
434.595,2763.00
435.601,3511.00
436.607,3406.00
437.612,2932.00
438.618,3517.00
439.624,3131.00
440.627,3090.00
441.633,3293.00
442.638,3816.00
443.643,3295.00
444.648,3214.00
445.653,3413.00
446.658,3098.00
447.663,3185.00
448.667,3070.00
449.672,3085.00
450.674,3147.00
451.678,2861.00
452.682,3054.00
453.687,2996.00
454.690,3839.00
455.694,3462.00
456.698,2758.00
457.702,2844.00
458.705,2961.00
459.709,2974.00
460.710,3052.00
461.713,3208.00
462.716,3233.00
463.719,3186.00
464.722,3396.00
465.725,3128.00
466.727,2996.00
467.730,3215.00
468.732,2960.00
469.735,3465.00
470.737,3097.00
471.737,3089.00
472.739,3047.00
473.741,2976.00
474.742,3247.00
475.744,3299.00
476.746,3206.00
477.747,3114.00
478.748,3340.00
479.750,3086.00
480.751,3159.00
481.752,4005.00
482.753,3289.00
483.751,3769.00
484.752,2804.00
485.753,3122.00
486.753,3054.00
487.753,3142.00
488.754,3655.00
489.754,2889.00
490.754,3517.00
491.754,3320.00
492.754,2853.00
493.753,3178.00
494.753,3090.00
495.752,3523.00
496.752,3208.00
497.749,3182.00
498.748,3024.00
499.747,3580.00
500.746,3278.00
501.745,2913.00
502.744,2897.00
503.742,3525.00
504.741,3108.00
505.739,2637.00
506.737,3099.00
507.735,3346.00
508.734,3559.00
509.732,3344.00
510.729,3523.00
511.727,3046.00
512.725,3125.00
513.720,2939.00
514.718,3416.00
515.715,2815.00
516.712,2792.00
517.709,3170.00
518.706,3086.00
519.703,3205.00
520.700,3354.00
521.696,3577.00
522.693,3088.00
523.689,3021.00
524.686,3318.00
525.682,2969.00
526.678,3655.00
527.674,3080.00
528.670,2735.00
529.666,3716.00
530.661,3650.00
531.657,3827.00
532.652,3349.00
533.648,3138.00
534.641,3424.00
535.636,3261.00
536.631,3239.00
537.626,3314.00
538.621,2869.00
539.616,2740.00
540.610,2658.00
541.605,3202.00
542.599,3237.00
543.593,3179.00
544.587,4124.00
545.581,3020.00
546.575,3237.00
547.569,3243.00
548.563,2854.00
549.557,2796.00
550.550,2921.00
551.543,2946.00
552.537,3339.00
553.530,2937.00
554.523,2981.00
555.516,3298.00
556.509,3121.00
557.502,2791.00
558.494,3371.00
559.487,3078.00
560.479,3397.00
561.472,3427.00
562.464,3283.00
563.456,3503.00
564.448,3096.00
565.440,3174.00
566.432,3550.00
567.423,3066.00
568.415,3102.00
569.404,3305.00
570.396,2993.00
571.387,3296.00
572.378,3189.00
573.369,4192.00
574.360,3891.00
575.351,3123.00
576.341,2989.00
577.332,3003.00
578.323,2829.00
579.313,3055.00
580.303,3422.00
581.293,3299.00
582.283,3187.00
583.273,3326.00
584.263,3226.00
585.253,3305.00
586.243,3370.00
587.232,2802.00
588.222,3157.00
589.211,3405.00
590.200,3271.00
591.189,3152.00
592.178,3096.00
593.167,3654.00
594.156,3478.00
595.145,3058.00
596.133,3641.00
597.122,3316.00
598.110,3353.00
599.098,3285.00
600.086,3156.00
601.074,3383.00
602.062,2973.00
603.050,2922.00
604.038,3295.00
605.025,2956.00
606.013,3378.00
607.000,3599.00
607.987,3189.00
608.975,3247.00
609.962,2973.00
610.949,3360.00
611.936,3418.00
612.922,3347.00
613.909,2850.00
614.895,3586.00
615.882,2992.00
616.868,3221.00
617.854,2923.00
618.841,3153.00
619.826,3296.00
620.812,3161.00
621.798,2942.00
622.784,3334.00
623.769,3287.00
624.755,2857.00
625.740,3258.00
626.725,2893.00
627.711,3024.00
628.698,3246.00
629.683,2946.00
630.667,3329.00
631.652,2894.00
632.637,3144.00
633.621,3337.00
634.606,3104.00
635.590,3287.00
636.574,3068.00
637.558,3268.00
638.542,3186.00
639.526,3001.00
640.510,2735.00
641.493,3196.00
642.477,3165.00
643.460,2837.00
644.444,3443.00
645.427,3435.00
646.410,2844.00
647.393,3174.00
648.376,3243.00
649.359,3082.00
650.341,3267.00
651.324,3281.00
652.307,3201.00
653.289,3142.00
654.271,3008.00
655.253,3079.00
656.235,3283.00
657.217,3427.00
658.199,2769.00
659.181,2880.00
660.163,3119.00
661.144,3042.00
662.126,3019.00
663.107,2962.00
664.088,5024.00
665.069,3419.00
666.050,2973.00
667.033,2854.00
668.014,3229.00
668.995,2693.00
669.975,3130.00
670.956,3166.00
671.936,3304.00
672.916,3114.00
673.896,3283.00
674.876,3100.00
675.856,3000.00
676.836,2909.00
677.816,2433.00
678.795,2959.00
679.775,2837.00
680.754,3181.00
681.734,3295.00
682.713,3331.00
683.692,2946.00
684.671,2803.00
685.650,2910.00
686.629,3026.00
687.607,2890.00
688.586,2933.00
689.564,3002.00
690.543,3432.00
691.523,2480.00
692.501,2996.00
693.479,3102.00
694.457,2945.00
695.435,3013.00
696.413,2801.00
697.390,2620.00
698.368,2837.00
699.345,3298.00
700.322,3083.00
701.300,3223.00
702.277,3188.00
703.254,3479.00
704.231,2681.00
705.207,3074.00
706.184,2943.00
707.161,2785.00
708.137,2983.00
709.113,2967.00
710.090,2968.00
711.068,2710.00
712.044,2750.00
713.020,3062.00
713.996,2723.00
714.971,2969.00
715.947,2961.00
716.922,2992.00
717.898,2896.00
718.873,3079.00
719.848,2846.00
720.823,2830.00
721.798,3128.00
722.773,2924.00
723.748,2691.00
724.723,3160.00
725.697,3008.00
726.672,2848.00
727.646,2624.00
728.622,3150.00
729.596,2733.00
730.570,2884.00
731.544,3228.00
732.518,3401.00
733.492,2964.00
734.466,3027.00
735.439,3164.00
736.413,3277.00
737.386,2562.00
738.359,2528.00
739.332,2615.00
740.305,2980.00
741.278,3479.00
742.251,3096.00
743.224,2900.00
744.196,2658.00
745.171,3329.00
746.143,3207.00
747.115,2881.00
748.087,2885.00
749.059,3260.00
750.031,3046.00
751.003,3898.00
751.975,3407.00
752.947,2859.00
753.918,3256.00
754.890,2716.00
755.861,2896.00
756.832,3230.00
757.803,3003.00
758.774,3028.00
759.747,2729.00
760.718,3385.00
761.689,2877.00
762.659,2714.00
763.630,3337.00
764.600,2682.00
765.570,3234.00
766.540,3310.00
767.510,3089.00
768.480,3191.00
769.450,2832.00
770.420,2953.00
771.390,2837.00
772.359,2878.00
773.329,2782.00
774.300,2664.00
775.269,2911.00
776.238,3118.00
777.207,3320.00
778.176,2632.00
779.145,2925.00
780.114,2815.00
781.083,2713.00
782.051,2877.00
783.019,2820.00
783.988,3267.00
784.956,2971.00
785.924,3118.00
786.894,3086.00
787.862,2861.00
788.830,3311.00
789.797,2747.00
790.765,2708.00
791.732,2901.00
792.700,2771.00
793.667,2743.00
794.634,2863.00
795.601,2869.00
796.568,2954.00
797.535,3006.00
798.502,3610.00
799.468,3066.00
800.437,2515.00
801.403,2773.00
802.370,3469.00
803.336,3101.00
804.302,3013.00
805.268,2591.00
806.234,2699.00
807.200,2906.00
808.166,2923.00
809.131,2727.00
810.097,3147.00
811.062,3854.00
812.027,3141.00
812.994,2707.00
813.960,2746.00
814.925,3058.00
815.889,2637.00
816.854,3194.00
817.819,2786.00
818.783,2897.00
819.748,3240.00
820.712,2859.00
821.677,2756.00
822.641,2837.00
823.605,2838.00
824.571,3316.00
825.534,2891.00
826.498,2800.00
827.462,2954.00
828.425,2805.00
829.389,3200.00
830.352,2994.00
831.315,3024.00
832.279,2604.00
833.242,2902.00
834.204,2764.00
835.167,2813.00
836.132,3216.00
837.095,2644.00
838.057,2836.00
839.020,2941.00
839.982,3006.00
840.944,2769.00
841.906,2748.00
842.868,3084.00
843.830,2638.00
844.792,3240.00
845.753,2803.00
846.715,2560.00
847.679,2733.00
848.640,2728.00
849.601,2852.00
850.562,3426.00
851.523,2837.00
852.484,2590.00
853.445,3149.00
854.406,2828.00
855.367,2853.00
856.327,3194.00
857.288,2641.00
858.248,2806.00
859.210,2804.00
860.170,2622.00
861.130,3181.00
862.090,2515.00
863.050,2744.00
864.010,2824.00
864.969,3049.00
865.929,2731.00
866.888,2619.00
867.848,2972.00
868.807,2780.00
869.766,3859.00
870.727,3307.00
871.686,3146.00
872.645,3160.00
873.604,3488.00
874.562,2891.00
875.521,2958.00
876.479,3553.00
877.437,2697.00
878.396,2705.00
879.354,3335.00
880.312,2772.00
881.270,2819.00
882.229,3290.00
883.187,2759.00
884.145,2838.00
885.102,3076.00
886.059,3015.00
887.017,3049.00
887.974,3103.00
888.931,3213.00
889.888,2589.00
890.845,2547.00
891.802,2466.00
892.758,2774.00
893.717,2559.00
894.673,2710.00
895.630,2739.00
896.586,3040.00
897.542,2825.00
898.498,2647.00
899.454,2989.00
900.410,2815.00
901.366,2821.00
902.321,3963.00
903.277,2819.00
904.232,2858.00
905.189,2579.00
906.145,2786.00
907.100,2282.00
908.055,2854.00
909.010,3077.00
909.965,2438.00
910.919,2896.00
911.874,2689.00
912.828,2952.00
913.783,2930.00
914.737,2437.00
915.693,2901.00
916.648,3039.00
917.602,3129.00
918.555,2900.00
919.509,2983.00
920.463,2914.00
921.417,2926.00
922.370,2679.00
923.324,2840.00
924.277,2810.00
925.230,2889.00
926.183,2496.00
927.138,2826.00
928.091,3104.00
929.044,2948.00
929.996,2799.00
930.949,2793.00
931.902,3013.00
932.854,2977.00
933.806,2712.00
934.758,3138.00
935.711,3123.00
936.663,2915.00
937.614,2931.00
938.568,2901.00
939.520,2513.00
940.471,2827.00
941.423,2919.00
942.374,3022.00
943.326,2879.00
944.277,2726.00
945.228,2951.00
946.179,2783.00
947.130,3225.00
948.080,2778.00
949.031,2669.00
949.984,2798.00
950.934,2887.00
951.884,2606.00
952.835,2857.00
953.785,2911.00
954.735,2740.00
955.685,2467.00
956.635,2761.00
957.585,2751.00
958.534,2742.00
959.484,2865.00
960.433,2771.00
961.383,2554.00
962.334,3135.00
963.283,2893.00
964.232,2998.00
965.181,2843.00
966.130,2896.00
967.079,2742.00
968.027,2854.00
968.976,2856.00
969.924,2750.00
970.873,2972.00
971.821,2881.00
972.769,3084.00
973.719,2985.00
974.667,2597.00
975.615,2825.00
976.562,2855.00
977.510,2557.00
978.458,2750.00
979.405,2983.00
980.352,2891.00
981.300,3138.00
982.247,2930.00
983.194,2633.00
984.141,2722.00
985.088,2875.00
986.036,2921.00
986.983,3148.00
987.930,3258.00
988.876,2517.00
989.822,3107.00
990.769,2671.00
991.715,2724.00
992.661,2524.00
993.607,2870.00
994.553,3427.00
995.498,2742.00
996.444,2405.00
997.389,2929.00
998.337,2680.00
999.282,3011.00
1000.227,2825.00
1001.173,2850.00
1002.118,2578.00
1003.062,3033.00
1004.007,2794.00
1004.952,3123.00
1005.897,3112.00
1006.841,2824.00
1007.786,2590.00
1008.730,2548.00
1009.674,3342.00
1010.618,2805.00
1011.564,2613.00
1012.508,2536.00
1013.452,3073.00
1014.396,2853.00
1015.339,2739.00
1016.283,2798.00
1017.226,2860.00
1018.170,2823.00
1019.113,3111.00
1020.056,2870.00
1020.999,2873.00
1021.942,2744.00
1022.885,3006.00
1023.828,3147.00
1024.770,2621.00
1025.715,2859.00
1026.657,2805.00
1027.600,2892.00
1028.542,3123.00
1029.484,2870.00
1030.426,2979.00
1031.368,2926.00
1032.310,2705.00
1033.251,2662.00
1034.193,2832.00
1035.135,2611.00
1036.076,2729.00
1037.017,2642.00
1037.959,2965.00
1038.900,2929.00
1039.843,2911.00
1040.784,2890.00
1041.725,2953.00
1042.665,2743.00
1043.606,2879.00
1044.547,2863.00
1045.487,2508.00
1046.427,2790.00
1047.368,2927.00
1048.308,2334.00
1049.248,2642.00
1050.188,2817.00
1051.128,2765.00
1052.067,2782.00
1053.007,2492.00
1053.947,2517.00
1054.886,2695.00
1055.827,2590.00
1056.766,3128.00
1057.706,2580.00
1058.645,2766.00
1059.584,2878.00
1060.522,3141.00
1061.461,2556.00
1062.400,2612.00
1063.338,2753.00
1064.277,2649.00
1065.215,2646.00
1066.154,2529.00
1067.092,2713.00
1068.030,2766.00
1068.968,3018.00
1069.906,3132.00
1070.843,3122.00
1071.781,2891.00
1072.720,2969.00
1073.658,2988.00
1074.595,2749.00
1075.533,2700.00
1076.470,2723.00
1077.407,3131.00
1078.344,2892.00
1079.281,2958.00
1080.217,2396.00
1081.154,2815.00
1082.091,2895.00
1083.027,2561.00
1083.964,3045.00
1084.900,2708.00
1085.836,2730.00
1086.772,3023.00
1087.708,2546.00
1088.644,2975.00
1089.580,2797.00
1090.515,2876.00
1091.451,2718.00
1092.388,2828.00
1093.324,2567.00
1094.259,3355.00
1095.194,2896.00
1096.129,2745.00
1097.064,2732.00
1097.999,2974.00
1098.934,2654.00
1099.869,2636.00
1100.803,2850.00
1101.738,2837.00
1102.672,2501.00
1103.607,2941.00
1104.541,2653.00
1105.475,2689.00
1106.409,2539.00
1107.343,2735.00
1108.277,2542.00
1109.210,2818.00
1110.144,2839.00
1111.078,2775.00
1112.011,2578.00
1112.944,2889.00
1113.878,2872.00
1114.811,2291.00
1115.744,2694.00
1116.678,2416.00
1117.611,2683.00
1118.544,2717.00
1119.477,2902.00
1120.409,2692.00
1121.342,3280.00
1122.274,2903.00
1123.206,4487.00
1124.138,2825.00
1125.070,3161.00
1126.002,2989.00
1126.934,2375.00
1127.866,2667.00
1128.798,2427.00
1129.729,2459.00
1130.661,2795.00
1131.592,2666.00
1132.523,2866.00
1133.454,2891.00
1134.385,2394.00
1135.317,2787.00
1136.247,2713.00
1137.178,2993.00
1138.109,2491.00
1139.039,3136.00
1139.970,2966.00
1140.900,2699.00
1141.831,2498.00
1142.761,2339.00
1143.691,2880.00
1144.621,2793.00
1145.551,2839.00
1146.480,2812.00
1147.410,2983.00
1148.340,2405.00
1149.269,2490.00
1150.199,2711.00
1151.128,3221.00
1152.057,2562.00
1152.979,2743.00
1153.898,2749.00
1154.819,2839.00
1155.739,2790.00
1156.658,2673.00
1157.579,2802.00
1158.498,2730.00
1159.419,2263.00
1160.338,2784.00
1161.256,2786.00
1162.177,2596.00
1163.095,2733.00
1164.016,2850.00
1164.934,3025.00
1165.852,3005.00
1166.772,2717.00
1167.690,2771.00
1168.610,2789.00
1169.528,2770.00
1170.446,2267.00
1171.365,2683.00
1172.283,2599.00
1173.202,2759.00
1174.120,2785.00
1175.037,2566.00
1175.956,2623.00
1176.873,2663.00
1177.792,2622.00
1178.709,3266.00
1179.626,2629.00
1180.544,2971.00
1181.461,2619.00
1182.379,2845.00
1183.296,2752.00
1184.212,2350.00
1185.130,2606.00
1186.046,3130.00
1186.962,2763.00
1187.880,3032.00
1188.796,2820.00
1189.714,2553.00
1190.629,2884.00
1191.545,2838.00
1192.462,2664.00
1193.378,2748.00
1194.295,2454.00
1195.210,2792.00
1196.125,2920.00
1197.042,2852.00
1197.957,2757.00
1198.872,2612.00
1199.788,2644.00
1200.703,3112.00
1201.619,2793.00
1202.534,2598.00
1203.448,2820.00
1204.364,2705.00
1205.278,2436.00
1206.192,2767.00
1207.108,3300.00
1208.022,3109.00
1208.938,2602.00
1209.851,2916.00
1210.765,2998.00
1211.680,2641.00
1212.594,2526.00
1213.507,2725.00
1214.422,3212.00
1215.335,2881.00
1216.248,2698.00
1217.163,2733.00
1218.076,3374.00
1218.990,2909.00
1219.903,2526.00
1220.816,2548.00
1221.730,2718.00
1222.642,2641.00
1223.554,2679.00
1224.469,2832.00
1225.380,2688.00
1226.292,2388.00
1227.206,2918.00
1228.118,3095.00
1229.032,2352.00
1229.943,2625.00
1230.855,2693.00
1231.768,2477.00
1232.679,2858.00
1233.590,2728.00
1234.503,2983.00
1235.414,2627.00
1236.325,2614.00
1237.238,2832.00
1238.149,2841.00
1239.059,2539.00
1239.972,2930.00
1240.882,2564.00
1241.793,2869.00
1242.705,3099.00
1243.615,2679.00
1244.525,2872.00
1245.437,2317.00
1246.347,2803.00
1247.259,2935.00
1248.168,3190.00
1249.078,2996.00
1249.989,3018.00
1250.899,2562.00
1251.808,2575.00
1252.719,2728.00
1253.628,2600.00
1254.537,3141.00
1255.448,2601.00
1256.357,2575.00
1257.266,2737.00
1258.176,2497.00
1259.085,2438.00
1259.993,2542.00
1260.904,2575.00
1261.812,2574.00
1262.720,3359.00
1263.630,2940.00
1264.538,2560.00
1265.446,2839.00
1266.356,2728.00
1267.263,2999.00
1268.171,2573.00
1269.080,2796.00
1269.988,2967.00
1270.895,2664.00
1271.804,2707.00
1272.711,2942.00
1273.619,2909.00
1274.527,2543.00
1275.434,2865.00
1276.341,2542.00
1277.248,2793.00
1278.156,3019.00
1279.063,2594.00
1279.969,2811.00
1280.877,3701.00
1281.783,2967.00
1282.690,2834.00
1283.598,2749.00
1284.503,2594.00
1285.409,2558.00
1286.317,3098.00
1287.223,3145.00
1288.128,2798.00
1289.036,2649.00
1289.941,2665.00
1290.846,2772.00
1291.751,2558.00
1292.658,2673.00
1293.563,3227.00
1294.468,2782.00
1295.375,2904.00
1296.280,2993.00
1297.184,3486.00
1298.091,2846.00
1298.995,2916.00
1299.900,3140.00
1300.806,2654.00
1301.710,2509.00
1302.614,2320.00
1303.518,3032.00
1304.424,2709.00
1305.327,2961.00
1306.231,2722.00
1307.137,2944.00
1308.040,2776.00
1308.943,2763.00
1309.847,2974.00
1310.752,2993.00
1311.655,2401.00
1312.558,2524.00
1313.463,2682.00
1314.366,2640.00
1315.269,2786.00
1316.171,2714.00
1317.076,2625.00
1317.978,2557.00
1318.881,2360.00
1319.785,2620.00
1320.687,2640.00
1321.589,2331.00
1322.491,2587.00
1323.395,2865.00
1324.297,3365.00
1325.198,2892.00
1326.102,2486.00
1327.004,2567.00
1327.905,3158.00
1328.806,2715.00
1329.709,2804.00
1330.611,2661.00
1331.512,2555.00
1332.413,3189.00
1333.316,2811.00
1334.216,2985.00
1335.117,2518.00
1336.020,2806.00
1336.920,2746.00
1337.821,2563.00
1338.721,3007.00
1339.623,2816.00
1340.523,2721.00
1341.423,2636.00
1342.323,3047.00
1343.225,2842.00
1344.125,2580.00
1345.025,2623.00
1345.924,2408.00
1346.826,3102.00
1347.725,3180.00
1348.624,2981.00
1349.524,2650.00
1350.425,2745.00
1351.324,2857.00
1352.223,2925.00
1353.121,2743.00
1354.022,2957.00
1354.921,3155.00
1355.819,2883.00
1356.718,2807.00
1357.618,2494.00
1358.516,2898.00
1359.415,3138.00
1360.313,2886.00
1361.213,2706.00
1362.111,3009.00
1363.008,3424.00
1363.906,2757.00
1364.806,2769.00
1365.703,2849.00
1366.601,2582.00
1367.498,2605.00
1368.397,2962.00
1369.295,2803.00
1370.192,2578.00
1371.089,2872.00
1371.987,2726.00
1372.884,3004.00
1373.781,2570.00
1374.678,2712.00
1375.574,2596.00
1376.473,2904.00
1377.369,2972.00
1378.265,2592.00
1379.161,2712.00
1380.059,2441.00
1380.955,2837.00
1381.851,2517.00
1382.747,2620.00
1383.643,2700.00
1384.540,2559.00
1385.436,2627.00
1386.331,2834.00
1387.227,2933.00
1388.124,2921.00
1389.019,2547.00
1389.914,2755.00
1390.809,2428.00
1391.704,3155.00
1392.601,2646.00
1393.495,3051.00
1394.390,2942.00
1395.285,3061.00
1396.179,2850.00
1397.075,2709.00
1397.969,2822.00
1398.864,2429.00
1399.758,2690.00
1400.652,2813.00
1401.547,2602.00
1402.441,2520.00
1403.335,3167.00
1404.229,2924.00
1405.122,2883.00
1406.017,2760.00
1406.911,2928.00
1407.804,3195.00
1408.697,2741.00
1409.590,2586.00
1410.485,2925.00
1411.378,2837.00
1412.271,2474.00
1413.163,2822.00
1414.056,2933.00
1414.949,3147.00
1415.843,2802.00
1416.735,2728.00
1417.627,2773.00
1418.520,2735.00
1419.412,3018.00
1420.306,2920.00
1421.197,3085.00
1422.089,2975.00
1422.981,3286.00
1423.873,2956.00
1424.764,2884.00
1425.657,2786.00
1426.549,2915.00
1427.440,2940.00
1428.331,2677.00
1429.222,2432.00
1430.113,2856.00
1431.006,2943.00
1431.897,2685.00
1432.787,2786.00
1433.678,2729.00
1434.568,2576.00
1435.459,3027.00
1436.351,2955.00
1437.241,2900.00
1438.131,2922.00
1439.021,2536.00
1439.911,2698.00
1440.801,2826.00
1441.693,3017.00
1442.583,2805.00
1443.472,2748.00
1444.362,2861.00
1445.251,2744.00
1446.140,2719.00
1447.030,3006.00
1447.921,2985.00
1448.810,2599.00
1449.699,3153.00
1450.588,2819.00
1451.476,2724.00
1452.365,2894.00
1453.254,2691.00
1454.144,2662.00
1455.032,2895.00
1455.921,2521.00
1456.809,3077.00
1457.697,2575.00
1458.585,2725.00
1459.473,2730.00
1460.361,2586.00
1461.251,2858.00
1462.138,2855.00
1463.026,2759.00
1463.913,3008.00
1464.801,2657.00
1465.688,2896.00
1466.575,2838.00
1467.463,3270.00
1468.351,2632.00
1469.238,2751.00
1470.125,2352.00
1471.012,2820.00
1471.899,2849.00
1472.785,2596.00
1473.672,2779.00
1474.558,3012.00
1475.446,2932.00
1476.333,2962.00
1477.219,2604.00
1478.105,2742.00
1478.991,2728.00
1479.877,3080.00
1480.762,2772.00
1481.648,2629.00
1482.534,2905.00
1483.419,2821.00
1484.307,2913.00
1485.192,2753.00
1486.077,2630.00
1486.962,2611.00
1487.847,2494.00
1488.732,2639.00
1489.617,2806.00
1490.502,3069.00
1491.387,2935.00
1492.271,2589.00
1493.156,2618.00
1494.042,2589.00
1494.927,2982.00
1495.811,2630.00
1496.695,2974.00
1497.579,3069.00
1498.463,2755.00
1499.347,2829.00
1500.231,2760.00
1501.114,2828.00
1501.998,3062.00
1502.881,2787.00
1503.765,3066.00
1504.648,3248.00
1505.533,2893.00
1506.417,2788.00
1507.300,2762.00
1508.183,2872.00
1509.066,2236.00
1509.948,3027.00
1510.831,3176.00
1511.714,2537.00
1512.596,2973.00
1513.479,3048.00
1514.361,3003.00
1515.243,2808.00
1516.125,2938.00
1517.008,3078.00
1517.890,2781.00
1518.771,2835.00
1519.655,2976.00
1520.537,2729.00
1521.419,2625.00
1522.300,2835.00
1523.182,2934.00
1524.063,2944.00
1524.944,3083.00
1525.825,3007.00
1526.707,2607.00
1527.588,2553.00
1528.468,2916.00
1529.349,2418.00
1530.230,2678.00
1531.111,2991.00
1531.991,2878.00
1532.872,2481.00
1533.752,2789.00
1534.632,2640.00
1535.513,2678.00
1536.393,2925.00
1537.273,3123.00
1538.153,3519.00
1539.032,2528.00
1539.912,2797.00
1540.792,2811.00
1541.672,2827.00
1542.551,2927.00
1543.430,3421.00
1544.310,2835.00
1545.189,2738.00
1546.068,3226.00
1546.947,2899.00
1547.826,3134.00
1548.705,2754.00
1549.584,3041.00
1550.462,2769.00
1551.341,2967.00
1552.219,2864.00
1553.098,2957.00
1553.976,3022.00
1554.854,3218.00
1555.733,2987.00
1556.611,2721.00
1557.489,2575.00
1558.367,2821.00
1559.244,3001.00
1560.122,2791.00
1561.000,2854.00
1561.877,3119.00
1562.755,2651.00
1563.632,2766.00
1564.509,3111.00
1565.386,3185.00
1566.264,2546.00
1567.141,2382.00
1568.017,2968.00
1568.894,2782.00
1569.771,2859.00
1570.648,2913.00
1571.524,2792.00
1572.401,2541.00
1573.277,2549.00
1574.153,2831.00
1575.029,2707.00
1575.906,3560.00
1576.781,2990.00
1577.657,2723.00
1578.533,3070.00
1579.409,2414.00
1580.285,2769.00
1581.160,3236.00
1582.036,3010.00
1582.911,2608.00
1583.786,3196.00
1584.662,2570.00
1585.537,2757.00
1586.412,2884.00
1587.287,2664.00
1588.160,2976.00
1589.035,2429.00
1589.909,2827.00
1590.784,2761.00
1591.658,2557.00
1592.533,2861.00
1593.407,2838.00
1594.281,2687.00
1595.155,3247.00
1596.029,2726.00
1596.903,2763.00
1597.777,2700.00
1598.651,3039.00
1599.525,2487.00
1600.398,2837.00
1601.272,2754.00
1602.144,3377.00
1603.017,2766.00
1603.890,3047.00
1604.763,2926.00
1605.636,2933.00
1606.509,2506.00
1607.382,2648.00
1608.255,2890.00
1609.128,3041.00
1610.000,2767.00
1610.873,2464.00
1611.746,2709.00
1612.616,2733.00
1613.488,2358.00
1614.361,2827.00
1615.233,2748.00
1616.105,3046.00
1616.977,2703.00
1617.849,2629.00
1618.720,3162.00
1619.592,3112.00
1620.464,2917.00
1621.333,3306.00
1622.205,2830.00
1623.076,2792.00
1623.947,2768.00
1624.818,3035.00
1625.689,2916.00
1626.560,2729.00
1627.431,2893.00
1628.302,3237.00
1629.171,2930.00
1630.042,3160.00
1630.912,3483.00
1631.782,3446.00
1632.653,2623.00
1633.523,3009.00
1634.393,3068.00
1635.263,2670.00
1636.131,2813.00
1637.001,2723.00
1637.871,2427.00
1638.741,2445.00
1639.611,2529.00
1640.480,2922.00
1641.350,2646.00
1642.219,2623.00
1643.087,2295.00
1643.956,3287.00
1644.825,3068.00
1645.694,3008.00
1646.563,2999.00
1647.432,2859.00
1648.299,2826.00
1649.167,2929.00
1650.036,2593.00
1650.904,2895.00
1651.773,3050.00
1652.641,2825.00
1653.509,3018.00
1654.376,2674.00
1655.244,2911.00
1656.112,2829.00
1656.980,2839.00
1657.847,2661.00
1658.715,2989.00
1659.581,2715.00
1660.448,3087.00
1661.316,2279.00
1662.183,2834.00
1663.051,2898.00
1663.918,2875.00
1664.783,2786.00
1665.650,2946.00
1666.517,2992.00
1667.384,2869.00
1668.251,2854.00
1669.115,3064.00
1669.982,2792.00
1670.849,3120.00
1671.715,2786.00
1672.581,3028.00
1673.446,2949.00
1674.312,2848.00
1675.178,3285.00
1676.044,2912.00
1676.910,2892.00
1677.774,2883.00
1678.639,2456.00
1679.505,2818.00
1680.370,2953.00
1681.236,3540.00
1682.099,2766.00
1682.965,2817.00
1683.830,2413.00
1684.695,2631.00
1685.560,2769.00
1686.423,2948.00
1687.288,2958.00
1688.153,2850.00
1689.017,2766.00
1689.880,2911.00
1690.745,2985.00
1691.609,2645.00
1692.473,2964.00
1693.338,3052.00
1694.200,3118.00
1695.064,2818.00
1695.928,2711.00
1696.792,2856.00
1697.654,3397.00
1698.517,2860.00
1699.381,2580.00
1700.245,2486.00
1701.106,3137.00
1701.969,2734.00
1702.833,2981.00
1703.696,2760.00
1704.557,2804.00
1705.420,2715.00
1706.283,2872.00
1707.146,2986.00
1708.007,2628.00
1708.870,2641.00
1709.732,2499.00
1710.595,2729.00
1711.455,2597.00
1712.318,2757.00
1713.180,3111.00
1714.040,2902.00
1714.902,2986.00
1715.764,2834.00
1716.626,2619.00
1717.486,2822.00
1718.348,3105.00
1719.209,4277.00
1720.071,2485.00
1720.930,2574.00
1721.792,2664.00
1722.653,2687.00
1723.512,2715.00
1724.374,2786.00
1725.234,2872.00
1726.095,2872.00
1726.954,2842.00
1727.815,2975.00
1728.676,2813.00
1729.535,3073.00
1730.395,2773.00
1731.256,2757.00
1732.114,2891.00
1732.974,2275.00
1733.834,3235.00
1734.693,2971.00
1735.553,2862.00
1736.413,3270.00
1737.272,2730.00
1738.130,2766.00
1738.990,2887.00
1739.849,2704.00
1740.707,3896.00
1741.566,2901.00
1742.426,2873.00
1743.283,3271.00
1744.142,2713.00
1745.001,2485.00
1745.858,2994.00
1746.717,2890.00
1747.576,2930.00
1748.433,2979.00
1749.292,3458.00
1750.150,3512.00
1751.007,3037.00
1751.865,3064.00
1752.723,2874.00
1753.579,2753.00
1754.438,3096.00
1755.296,3098.00
1756.152,2385.00
1757.010,2493.00
1757.865,3055.00
1758.723,2512.00
1759.581,3196.00
1760.436,2827.00
1761.294,3207.00
1762.151,2847.00
1763.006,2757.00
1763.864,2457.00
1764.721,3063.00
1765.576,2855.00
1766.433,3027.00
1767.288,2722.00
1768.144,2926.00
1769.001,2774.00
1769.856,2970.00
1770.712,3119.00
1771.568,2621.00
1772.423,2772.00
1773.279,2712.00
1774.133,2736.00
1774.989,3246.00
1775.845,3271.00
1776.699,3113.00
1777.555,2800.00
1778.409,3381.00
1779.265,2773.00
1780.120,2807.00
1780.974,2838.00
1781.829,2445.00
1782.682,2907.00
1783.538,2642.00
1784.393,2903.00
1785.246,2741.00
1786.101,2978.00
1786.954,3011.00
1787.808,3049.00
1788.661,2571.00
1789.516,2766.00
1790.370,2768.00
1791.223,3062.00
1792.077,2850.00
1792.930,2894.00
1793.784,2729.00
1794.636,2845.00
1795.490,2845.00
1796.344,2936.00
1797.196,2821.00
1798.049,3019.00
1798.901,2731.00
1799.755,3099.00
1800.606,2605.00
1801.460,3363.00
1802.311,3182.00
1803.165,3291.00
1804.018,3271.00
1804.869,2947.00
1805.722,3295.00
1806.573,2881.00
1807.426,2650.00
1808.276,2823.00
1809.129,2691.00
1809.980,3050.00
1810.832,3138.00
1811.683,2756.00
1812.535,3199.00
1813.385,2763.00
1814.237,3121.00
1815.089,2897.00
1815.940,3137.00
1816.791,2763.00
1817.641,2678.00
1818.493,2979.00
1819.343,2927.00
1820.194,2710.00
1821.044,2943.00
1821.895,3081.00
1822.745,2562.00
1823.596,2746.00
1824.445,3309.00
1825.296,2934.00
1826.145,2790.00
1826.996,3053.00
1827.845,2880.00
1828.695,2911.00
1829.544,2873.00
1830.395,2864.00
1831.243,2794.00
1832.094,2584.00
1832.942,3507.00
1833.792,2998.00
1834.640,2932.00
1835.490,2865.00
1836.338,2924.00
1837.186,2722.00
1838.036,2685.00
1838.884,2845.00
1839.733,3226.00
1840.581,3057.00
1841.430,2980.00
1842.278,3202.00
1843.127,2727.00
1843.974,2529.00
1844.823,3291.00
1845.671,3005.00
1846.519,2876.00
1847.366,2914.00
1848.213,2515.00
1849.062,2659.00
1849.909,2602.00
1850.757,3589.00
1851.604,2984.00
1852.452,2779.00
1853.298,3042.00
1854.146,2924.00
1854.993,2910.00
1855.839,3405.00
1856.687,2990.00
1857.532,2965.00
1858.380,2856.00
1859.226,2960.00
1860.073,2991.00
1860.919,2669.00
1861.765,2762.00
1862.612,3100.00
1863.457,3068.00
1864.304,2790.00
1865.150,3006.00
1865.995,2832.00
1866.842,2980.00
1867.686,3117.00
1868.533,2965.00
1869.378,2920.00
1870.223,2881.00
1871.069,2760.00
1871.914,2886.00
1872.760,2850.00
1873.604,2696.00
1874.448,3015.00
1875.294,3045.00
1876.139,2717.00
1876.984,3001.00
1877.828,2528.00
1878.672,2355.00
1879.518,2774.00
1880.361,3059.00
1881.205,3063.00
1882.050,2648.00
1882.894,3358.00
1883.739,2712.00
1884.582,2615.00
1885.425,2707.00
1886.270,3141.00
1887.113,2600.00
1887.956,2980.00
1888.801,2919.00
1889.644,2646.00
1890.486,2455.00
1891.331,2805.00
1892.173,2901.00
1893.017,2974.00
1893.860,3156.00
1894.702,3186.00
1895.546,2890.00
1896.388,3582.00
1897.230,3240.00
1898.074,2784.00
1898.916,2661.00
1899.757,2676.00
1900.601,3605.00
1901.443,3177.00
1902.284,3184.00
1903.125,3370.00
1903.969,3120.00
1904.810,3139.00
1905.651,2994.00
1906.494,3216.00
1907.335,3365.00
1908.176,2981.00
1909.018,2959.00
1909.859,2865.00
1910.700,2732.00
1911.542,3419.00
1912.383,2947.00
1913.223,2474.00
1914.064,3006.00
1914.906,3144.00
1915.746,3211.00
1916.586,3379.00
1917.428,2901.00
1918.268,2880.00
1919.107,2744.00
1919.947,2635.00
1920.789,2819.00
1921.628,3162.00
1922.468,2909.00
1923.309,2736.00
1924.148,3223.00
1924.988,2962.00
1925.827,2876.00
1926.667,2754.00
1927.507,2949.00
1928.345,2730.00
1929.184,3036.00
1930.025,2685.00
1930.864,3148.00
1931.702,3227.00
1932.541,2821.00
1933.381,3004.00
1934.219,3034.00
1935.057,3220.00
1935.896,2611.00
1936.735,2874.00
1937.573,2784.00
1938.411,2653.00
1939.249,3077.00
1940.089,2803.00
1940.927,3129.00
1941.764,3173.00
1942.602,2838.00
1943.439,2775.00
1944.278,2838.00
1945.115,2810.00
1945.953,2578.00
1946.790,2937.00
1947.628,3223.00
1948.465,3056.00
1949.302,3032.00
1950.139,3028.00
1950.976,2746.00
1951.814,3079.00
1952.651,2948.00
1953.487,2648.00
1954.323,3156.00
1955.160,2881.00
1955.998,3299.00
1956.834,2876.00
1957.670,2944.00
1958.506,3156.00
1959.342,3010.00
1960.177,2990.00
1961.015,3020.00
1961.850,2948.00
1962.686,2936.00
1963.521,2941.00
1964.357,3176.00
1965.192,2661.00
1966.029,3028.00
1966.864,2833.00
1967.699,3087.00
1968.534,2928.00
1969.369,3206.00
1970.204,2868.00
1971.040,2911.00
1971.875,2775.00
1972.709,2932.00
1973.544,2716.00
1974.378,2768.00
1975.212,2995.00
1976.047,2758.00
1976.882,2772.00
1977.716,3344.00
1978.550,2585.00
1979.384,2855.00
1980.218,2877.00
1981.052,2820.00
1981.885,2892.00
1982.719,2914.00
1983.554,3035.00
1984.388,3214.00
1985.221,2989.00
1986.054,3161.00
1986.887,2981.00
1987.720,2751.00
1988.553,3213.00
1989.386,2958.00
1990.219,3018.00
1991.053,3254.00
1991.886,2742.00
1992.719,3114.00
1993.551,2409.00
1994.383,3041.00
1995.216,2833.00
1996.048,2601.00
1996.880,3104.00
1997.712,2786.00
1998.544,2874.00
1999.376,3026.00
2000.208,3210.00
2001.040,3356.00
2001.873,2737.00
2002.705,2745.00
2003.536,2929.00
2004.367,2945.00
2005.199,2964.00
2006.030,2815.00
2006.861,2679.00
2007.692,2938.00
2008.523,2763.00
2009.354,2933.00
2010.185,2707.00
2011.016,3034.00
2011.846,3116.00
2012.677,2842.00
2013.507,3251.00
2014.338,3122.00
2015.168,2816.00
2015.999,3457.00
2016.829,2832.00
2017.659,3131.00
2018.489,3516.00
2019.319,2717.00
2020.149,3066.00
2020.980,2909.00
2021.810,2678.00
2022.639,2808.00
2023.469,2767.00
2024.298,2572.00
2025.128,2478.00
2025.957,2504.00
2026.786,2328.00
2027.615,2502.00
2028.444,2781.00
2029.273,2956.00
2030.102,2460.00
2030.931,2777.00
2031.758,3061.00
2032.586,2707.00
2033.415,2788.00
2034.243,2357.00
2035.072,2114.00
2035.900,2659.00
2036.728,2459.00
2037.556,2493.00
2038.385,2503.00
2039.213,2308.00
2040.040,2299.00
2040.868,2270.00
2041.696,2298.00
2042.524,2358.00
2043.351,2533.00
2044.179,2346.00
2045.006,2105.00
