RamanScope Measure Spectrum Data V3.72

<< MEASURE CONDITION >>
Exposure Type,Aver
Exposure Time [sec],15
Exposure Count,30
Measure Time,2023/07/04 15:50:56
Data Name,""
Data Comment,""
Rayleigh Wave[nm],532.0

<< SAMPLE SPECTRUM >>
Wave[dcm-1],No273
146.591,462.87
147.626,555.03
148.664,658.60
149.699,753.23
150.737,888.50
151.772,1007.00
152.809,1152.93
153.846,1294.57
154.881,1400.87
155.918,1475.57
156.953,1604.93
157.989,1699.23
159.026,1742.97
160.060,1787.43
161.096,1842.53
162.130,1928.73
163.167,1972.17
164.200,2028.03
165.236,2037.83
166.272,2073.20
167.305,2124.37
168.341,2142.70
169.374,2159.70
170.409,2224.47
171.445,2208.83
172.477,2255.17
173.512,2278.83
174.545,2275.10
175.580,2334.33
176.614,2332.73
177.647,2319.50
178.681,2295.73
179.713,2336.30
180.747,2445.70
181.781,2391.23
182.813,2376.50
183.847,2451.00
184.878,2413.33
185.912,2441.33
186.945,2456.27
187.976,2461.67
189.010,2431.17
190.043,2487.83
191.073,2480.17
192.106,2495.63
193.137,2519.00
194.170,2529.73
195.202,2569.27
196.232,2609.67
197.265,2617.17
198.297,2640.50
199.327,2647.83
200.359,2714.07
201.388,2716.57
202.420,2734.03
203.452,2748.03
204.481,2797.30
205.512,2855.67
206.544,2880.47
207.573,2941.07
208.604,2982.03
209.635,3050.07
210.663,3098.47
211.694,3209.50
212.725,3287.33
213.753,3410.07
214.783,3580.53
215.813,3724.83
216.841,3877.10
217.871,4030.63
218.899,4290.03
219.929,4582.97
220.959,4908.37
221.986,5178.23
223.016,5487.60
224.045,5756.07
225.072,5954.40
226.101,6045.47
227.130,5961.63
228.157,5787.83
229.185,5522.37
230.214,5206.60
231.241,4883.63
232.269,4591.77
233.297,4305.73
234.323,4060.40
235.351,3871.30
236.379,3754.27
237.407,3642.17
238.433,3529.77
239.460,3443.20
240.488,3404.10
241.513,3371.73
242.540,3311.77
243.568,3358.73
244.592,3312.37
245.619,3296.20
246.646,3307.97
247.671,3277.60
248.697,3316.53
249.724,3336.57
250.748,3330.27
251.774,3359.20
252.801,3320.07
253.827,3290.50
254.850,3226.77
255.876,3269.20
256.902,3230.80
257.925,3248.53
258.951,3209.60
259.976,3252.80
260.999,3295.37
262.024,3312.67
263.049,3329.30
264.074,3352.53
265.097,3332.80
266.122,3397.80
267.146,3454.40
268.168,3462.30
269.193,3526.93
270.217,3624.63
271.241,3633.83
272.263,3752.50
273.287,3810.63
274.311,3907.70
275.332,3993.27
276.356,4122.83
277.379,4270.10
278.402,4381.20
279.424,4472.13
280.447,4606.87
281.470,4717.13
282.492,4896.87
283.513,4960.33
284.536,5021.80
285.558,5124.47
286.581,5168.77
287.601,5173.07
288.623,5142.10
289.645,5082.23
290.665,5010.00
291.687,4931.23
292.709,4837.50
293.730,4785.90
294.750,4627.90
295.771,4476.27
296.792,4372.00
297.813,4272.33
298.832,4166.70
299.853,4035.83
300.874,3902.20
301.895,3821.87
302.913,3680.67
303.934,3602.93
304.954,3474.73
305.975,3400.60
306.993,3290.60
308.013,3265.00
309.033,3170.07
310.052,3088.53
311.072,3014.67
312.090,2924.77
313.109,2900.93
314.129,2794.57
315.148,2819.07
316.165,2776.13
317.184,2740.07
318.203,2705.50
319.222,2633.97
320.238,2569.83
321.257,2591.97
322.275,2568.70
323.294,2565.10
324.312,2567.13
325.328,2523.20
326.346,2521.70
327.364,2456.20
328.382,2475.93
329.397,2470.10
330.415,2423.73
331.432,2440.13
332.450,2414.30
333.467,2453.07
334.482,2404.00
335.499,2351.57
336.516,2402.20
337.533,2345.03
338.547,2381.70
339.564,2364.37
340.580,2380.10
341.597,2363.63
342.613,2359.37
343.627,2326.87
344.643,2300.13
345.659,2329.00
346.675,2303.23
347.690,2357.30
348.704,2341.77
349.719,2350.43
350.735,2338.97
351.750,2268.53
352.765,2315.30
353.778,2283.37
354.793,2308.37
355.808,2290.63
356.822,2281.37
357.837,2280.33
358.851,2326.43
359.864,2270.23
360.878,2334.63
361.892,2287.37
362.906,2331.67
363.920,2351.40
364.932,2340.93
365.945,2339.77
366.959,2373.77
367.972,2360.50
368.986,2355.23
369.999,2405.90
371.010,2456.70
372.023,2430.20
373.036,2422.80
374.049,2462.33
375.061,2514.83
376.072,2528.97
377.084,2553.53
378.097,2556.73
379.109,2590.67
380.121,2590.97
381.133,2642.03
382.143,2663.30
383.155,2692.57
384.166,2792.47
385.178,2781.27
386.189,2830.20
387.201,2878.03
388.212,2862.20
389.221,2931.93
390.232,2950.63
391.243,3001.97
392.254,2991.17
393.264,3025.73
394.275,3032.73
395.283,3061.93
396.294,3100.57
397.304,3068.33
398.314,3067.33
399.324,3101.90
400.334,3087.17
401.344,3049.63
402.351,3076.63
403.361,3016.23
404.370,2991.30
405.380,2964.53
406.389,2977.13
407.398,2875.87
408.407,2856.90
409.414,2816.07
410.423,2766.53
411.431,2732.77
412.440,2693.03
413.448,2686.47
414.457,2575.23
415.465,2576.73
416.471,2575.23
417.479,2527.80
418.487,2476.13
419.495,2494.37
420.503,2462.27
421.510,2397.10
422.518,2419.57
423.525,2378.13
424.530,2340.80
425.537,2354.87
426.544,2321.10
427.551,2325.77
428.558,2277.43
429.565,2288.07
430.571,2285.03
431.578,2243.70
432.582,2263.93
433.588,2255.87
434.595,2217.50
435.601,2183.33
436.607,2237.77
437.612,2241.87
438.618,2232.80
439.624,2186.00
440.627,2173.13
441.633,2202.83
442.638,2209.33
443.643,2187.33
444.648,2163.67
445.653,2214.20
446.658,2188.90
447.663,2189.50
448.667,2206.20
449.672,2156.63
450.674,2195.70
451.678,2154.90
452.682,2196.27
453.687,2183.80
454.690,2121.77
455.694,2184.63
456.698,2200.37
457.702,2211.90
458.705,2203.83
459.709,2173.93
460.710,2202.63
461.713,2194.60
462.716,2209.67
463.719,2219.10
464.722,2242.27
465.725,2228.87
466.727,2228.53
467.730,2231.67
468.732,2227.73
469.735,2287.33
470.737,2211.40
471.737,2256.30
472.739,2299.70
473.741,2247.67
474.742,2260.80
475.744,2326.53
476.746,2284.70
477.747,2293.13
478.748,2282.60
479.750,2311.93
480.751,2295.03
481.752,2326.10
482.753,2302.17
483.751,2299.20
484.752,2302.10
485.753,2311.27
486.753,2312.87
487.753,2321.90
488.754,2335.37
489.754,2335.27
490.754,2322.23
491.754,2307.30
492.754,2328.93
493.753,2257.10
494.753,2310.03
495.752,2332.80
496.752,2297.00
497.749,2292.73
498.748,2247.93
499.747,2347.80
500.746,2308.80
501.745,2263.37
502.744,2276.33
503.742,2299.67
504.741,2269.97
505.739,2239.90
506.737,2268.10
507.735,2204.73
508.734,2229.50
509.732,2199.13
510.729,2208.93
511.727,2166.50
512.725,2215.23
513.720,2194.10
514.718,2198.83
515.715,2183.20
516.712,2177.53
517.709,2150.17
518.706,2179.17
519.703,2191.50
520.700,2160.77
521.696,2127.70
522.693,2154.10
523.689,2177.83
524.686,2130.50
525.682,2167.03
526.678,2137.33
527.674,2173.23
528.670,2158.50
529.666,2156.10
530.661,2134.60
531.657,2180.07
532.652,2187.97
533.648,2184.97
534.641,2202.33
535.636,2156.43
536.631,2231.13
537.626,2194.17
538.621,2232.53
539.616,2234.97
540.610,2280.17
541.605,2250.07
542.599,2263.80
543.593,2226.00
544.587,2263.83
545.581,2312.90
546.575,2264.50
547.569,2302.53
548.563,2290.20
549.557,2275.67
550.550,2271.03
551.543,2288.20
552.537,2322.63
553.530,2317.20
554.523,2282.77
555.516,2311.57
556.509,2279.40
557.502,2337.07
558.494,2339.47
559.487,2311.53
560.479,2360.17
561.472,2299.67
562.464,2402.30
563.456,2307.17
564.448,2339.63
565.440,2328.87
566.432,2366.03
567.423,2404.30
568.415,2384.93
569.404,2388.40
570.396,2386.73
571.387,2441.23
572.378,2408.40
573.369,2392.40
574.360,2373.97
575.351,2473.97
576.341,2476.60
577.332,2509.40
578.323,2478.77
579.313,2495.77
580.303,2472.90
581.293,2497.30
582.283,2548.97
583.273,2590.43
584.263,2553.57
585.253,2542.60
586.243,2633.97
587.232,2615.60
588.222,2608.63
589.211,2610.73
590.200,2678.93
591.189,2624.40
592.178,2616.10
593.167,2641.13
594.156,2625.53
595.145,2664.23
596.133,2661.70
597.122,2610.67
598.110,2616.10
599.098,2592.87
600.086,2603.17
601.074,2631.10
602.062,2576.13
603.050,2578.73
604.038,2596.07
605.025,2526.17
606.013,2566.57
607.000,2520.37
607.987,2524.80
608.975,2478.47
609.962,2479.70
610.949,2494.70
611.936,2510.00
612.922,2452.53
613.909,2496.90
614.895,2444.33
615.882,2396.00
616.868,2402.33
617.854,2418.80
618.841,2335.53
619.826,2372.70
620.812,2368.03
621.798,2356.87
622.784,2358.60
623.769,2277.50
624.755,2306.90
625.740,2287.37
626.725,2291.37
627.711,2260.10
628.698,2289.77
629.683,2257.13
630.667,2227.27
631.652,2219.93
632.637,2183.93
633.621,2192.53
634.606,2216.30
635.590,2156.10
636.574,2170.53
637.558,2180.37
638.542,2121.13
639.526,2111.33
640.510,2103.97
641.493,2066.20
642.477,2066.47
643.460,2074.37
644.444,2135.77
645.427,2101.10
646.410,2052.30
647.393,2042.50
648.376,2051.47
649.359,2024.00
650.341,2004.67
651.324,1955.43
652.307,1948.37
653.289,1950.57
654.271,1979.43
655.253,1967.03
656.235,1931.23
657.217,1920.97
658.199,1905.23
659.181,1917.73
660.163,1942.40
661.144,1916.83
662.126,1879.30
663.107,1909.20
664.088,1947.43
665.069,1883.47
666.050,1843.47
667.033,1862.43
668.014,1833.97
668.995,1814.83
669.975,1836.60
670.956,1827.40
671.936,1799.93
672.916,1782.87
673.896,1827.33
674.876,1822.13
675.856,1799.70
676.836,1790.10
677.816,1773.50
678.795,1745.33
679.775,1787.53
680.754,1729.27
681.734,1732.77
682.713,1696.77
683.692,1681.60
684.671,1658.37
685.650,1702.47
686.629,1704.30
687.607,1635.63
688.586,1672.03
689.564,1604.37
690.543,1695.10
691.523,1635.33
692.501,1642.93
693.479,1629.20
694.457,1619.93
695.435,1568.33
696.413,1605.20
697.390,1602.13
698.368,1611.60
699.345,1578.00
700.322,1575.83
701.300,1544.90
702.277,1527.10
703.254,1588.83
704.231,1567.57
705.207,1524.10
706.184,1548.93
707.161,1539.07
708.137,1559.10
709.113,1530.77
710.090,1543.20
711.068,1469.27
712.044,1526.40
713.020,1516.30
713.996,1539.37
714.971,1445.03
715.947,1481.43
716.922,1498.97
717.898,1495.37
718.873,1459.57
719.848,1457.23
720.823,1488.77
721.798,1471.90
722.773,1425.57
723.748,1466.30
724.723,1435.80
725.697,1429.40
726.672,1431.60
727.646,1470.70
728.622,1463.03
729.596,1437.17
730.570,1390.77
731.544,1439.43
732.518,1374.80
733.492,1387.67
734.466,1413.03
735.439,1358.20
736.413,1393.53
737.386,1412.20
738.359,1397.23
739.332,1392.90
740.305,1384.43
741.278,1367.00
742.251,1405.47
743.224,1366.53
744.196,1377.37
745.171,1373.23
746.143,1372.37
747.115,1376.53
748.087,1366.47
749.059,1391.50
750.031,1352.53
751.003,1322.00
751.975,1316.53
752.947,1364.17
753.918,1357.23
754.890,1335.43
755.861,1341.73
756.832,1276.77
757.803,1344.63
758.774,1367.30
759.747,1315.17
760.718,1316.77
761.689,1297.17
762.659,1297.53
763.630,1302.33
764.600,1299.60
765.570,1327.80
766.540,1310.20
767.510,1303.33
768.480,1272.30
769.450,1348.50
770.420,1335.90
771.390,1299.30
772.359,1309.23
773.329,1313.87
774.300,1258.97
775.269,1299.37
776.238,1260.00
777.207,1309.53
778.176,1278.33
779.145,1274.57
780.114,1305.47
781.083,1272.23
782.051,1269.93
783.019,1237.70
783.988,1279.40
784.956,1280.63
785.924,1266.73
786.894,1275.13
787.862,1247.70
788.830,1282.00
789.797,1279.80
790.765,1259.23
791.732,1274.67
792.700,1282.90
793.667,1291.40
794.634,1265.63
795.601,1267.53
796.568,1220.57
797.535,1253.50
798.502,1242.77
799.468,1200.87
800.437,1236.10
801.403,1243.90
802.370,1247.47
803.336,1251.47
804.302,1231.63
805.268,1222.10
806.234,1226.80
807.200,1223.40
808.166,1191.70
809.131,1203.30
810.097,1205.53
811.062,1177.43
812.027,1196.07
812.994,1178.53
813.960,1198.43
814.925,1198.37
815.889,1186.47
816.854,1171.53
817.819,1193.57
818.783,1172.17
819.748,1157.13
820.712,1159.73
821.677,1181.27
822.641,1216.17
823.605,1219.40
824.571,1171.17
825.534,1117.07
826.498,1170.67
827.462,1164.03
828.425,1153.10
829.389,1149.70
830.352,1137.23
831.315,1150.70
832.279,1146.40
833.242,1138.07
834.204,1175.50
835.167,1152.97
836.132,1123.40
837.095,1166.17
838.057,1139.20
839.020,1135.83
839.982,1145.90
840.944,1136.20
841.906,1087.87
842.868,1127.47
843.830,1114.87
844.792,1156.93
845.753,1125.00
846.715,1118.97
847.679,1135.87
848.640,1097.50
849.601,1122.37
850.562,1160.73
851.523,1101.40
852.484,1089.73
853.445,1107.03
854.406,1130.17
855.367,1097.97
856.327,1077.10
857.288,1081.90
858.248,1095.60
859.210,1082.87
860.170,1112.30
861.130,1087.43
862.090,1093.60
863.050,1112.80
864.010,1098.00
864.969,1144.07
865.929,1114.13
866.888,1120.00
867.848,1088.13
868.807,1116.80
869.766,1117.27
870.727,1116.97
871.686,1088.27
872.645,1069.10
873.604,1132.73
874.562,1107.80
875.521,1075.43
876.479,1105.60
877.437,1084.83
878.396,1073.27
879.354,1095.77
880.312,1081.67
881.270,1095.57
882.229,1081.70
883.187,1076.13
884.145,1094.93
885.102,1083.60
886.059,1060.33
887.017,1112.33
887.974,1082.53
888.931,1078.13
889.888,1077.87
890.845,1104.13
891.802,1100.80
892.758,1058.47
893.717,1068.00
894.673,1075.03
895.630,1104.13
896.586,1046.70
897.542,1091.17
898.498,1109.00
899.454,1104.87
900.410,1099.83
901.366,1052.30
902.321,1090.67
903.277,1099.27
904.232,1107.50
905.189,1088.70
906.145,1131.63
907.100,1108.90
908.055,1075.90
909.010,1093.43
909.965,1073.30
910.919,1102.57
911.874,1060.10
912.828,1083.63
913.783,1111.37
914.737,1070.77
915.693,1099.37
916.648,1104.17
917.602,1117.37
918.555,1075.33
919.509,1099.90
920.463,1094.07
921.417,1115.70
922.370,1117.30
923.324,1094.13
924.277,1095.07
925.230,1088.27
926.183,1112.33
927.138,1135.40
928.091,1111.50
929.044,1072.23
929.996,1132.57
930.949,1130.13
931.902,1124.60
932.854,1128.73
933.806,1074.37
934.758,1130.83
935.711,1135.83
936.663,1116.13
937.614,1120.73
938.568,1099.87
939.520,1112.77
940.471,1124.83
941.423,1126.30
942.374,1123.97
943.326,1143.20
944.277,1139.30
945.228,1155.33
946.179,1133.90
947.130,1139.57
948.080,1135.87
949.031,1152.37
949.984,1130.83
950.934,1139.00
951.884,1167.13
952.835,1163.20
953.785,1144.90
954.735,1157.13
955.685,1148.00
956.635,1103.37
957.585,1148.50
958.534,1103.17
959.484,1149.87
960.433,1153.97
961.383,1119.90
962.334,1102.27
963.283,1149.27
964.232,1147.13
965.181,1136.83
966.130,1157.90
967.079,1115.20
968.027,1167.13
968.976,1138.50
969.924,1097.37
970.873,1171.97
971.821,1110.17
972.769,1109.27
973.719,1132.60
974.667,1152.77
975.615,1131.87
976.562,1180.40
977.510,1158.40
978.458,1137.80
979.405,1180.00
980.352,1111.03
981.300,1164.77
982.247,1194.37
983.194,1130.77
984.141,1156.07
985.088,1162.20
986.036,1181.50
986.983,1166.53
987.930,1163.47
988.876,1157.87
989.822,1160.70
990.769,1180.40
991.715,1195.67
992.661,1163.13
993.607,1187.50
994.553,1164.30
995.498,1194.43
996.444,1205.90
997.389,1195.23
998.337,1169.73
999.282,1163.17
1000.227,1190.70
1001.173,1218.00
1002.118,1150.37
1003.062,1203.83
1004.007,1180.17
1004.952,1183.73
1005.897,1183.60
1006.841,1197.47
1007.786,1204.40
1008.730,1200.07
1009.674,1180.03
1010.618,1180.73
1011.564,1211.73
1012.508,1198.97
1013.452,1207.70
1014.396,1171.33
1015.339,1195.30
1016.283,1260.83
1017.226,1222.90
1018.170,1231.27
1019.113,1196.60
1020.056,1208.60
1020.999,1222.63
1021.942,1203.53
1022.885,1255.37
1023.828,1218.13
1024.770,1222.60
1025.715,1193.27
1026.657,1260.70
1027.600,1259.97
1028.542,1215.80
1029.484,1281.10
1030.426,1271.97
1031.368,1224.40
1032.310,1286.83
1033.251,1261.80
1034.193,1273.20
1035.135,1265.50
1036.076,1250.90
1037.017,1258.23
1037.959,1270.37
1038.900,1296.40
1039.843,1284.80
1040.784,1331.53
1041.725,1273.67
1042.665,1285.00
1043.606,1307.33
1044.547,1294.23
1045.487,1289.07
1046.427,1325.30
1047.368,1312.97
1048.308,1291.67
1049.248,1353.50
1050.188,1351.93
1051.128,1370.70
1052.067,1330.97
1053.007,1324.90
1053.947,1325.67
1054.886,1350.70
1055.827,1337.33
1056.766,1337.87
1057.706,1348.97
1058.645,1368.03
1059.584,1353.57
1060.522,1328.20
1061.461,1362.53
1062.400,1371.50
1063.338,1386.53
1064.277,1385.73
1065.215,1369.37
1066.154,1404.13
1067.092,1417.80
1068.030,1371.67
1068.968,1381.07
1069.906,1436.83
1070.843,1403.23
1071.781,1420.07
1072.720,1407.87
1073.658,1390.30
1074.595,1429.90
1075.533,1459.23
1076.470,1433.47
1077.407,1453.30
1078.344,1441.20
1079.281,1458.47
1080.217,1458.77
1081.154,1475.50
1082.091,1427.70
1083.027,1458.27
1083.964,1475.83
1084.900,1432.03
1085.836,1475.63
1086.772,1501.30
1087.708,1449.63
1088.644,1443.67
1089.580,1491.37
1090.515,1486.90
1091.451,1478.53
1092.388,1499.10
1093.324,1501.60
1094.259,1504.17
1095.194,1486.10
1096.129,1497.73
1097.064,1477.40
1097.999,1527.33
1098.934,1462.90
1099.869,1483.07
1100.803,1456.37
1101.738,1508.83
1102.672,1426.67
1103.607,1457.13
1104.541,1417.47
1105.475,1439.97
1106.409,1468.47
1107.343,1488.77
1108.277,1444.73
1109.210,1438.70
1110.144,1402.20
1111.078,1418.30
1112.011,1396.50
1112.944,1430.63
1113.878,1421.53
1114.811,1382.37
1115.744,1401.13
1116.678,1406.33
1117.611,1385.40
1118.544,1352.03
1119.477,1365.27
1120.409,1370.93
1121.342,1301.37
1122.274,1344.63
1123.206,1332.27
1124.138,1321.60
1125.070,1321.33
1126.002,1360.00
1126.934,1312.07
1127.866,1307.53
1128.798,1305.30
1129.729,1320.13
1130.661,1296.63
1131.592,1327.83
1132.523,1290.17
1133.454,1308.63
1134.385,1277.67
1135.317,1291.80
1136.247,1274.33
1137.178,1269.20
1138.109,1236.23
1139.039,1292.07
1139.970,1252.53
1140.900,1231.17
1141.831,1257.83
1142.761,1253.87
1143.691,1260.83
1144.621,1263.47
1145.551,1251.17
1146.480,1210.03
1147.410,1283.13
1148.340,1254.90
1149.269,1227.50
1150.199,1240.00
1151.128,1247.97
1152.057,1233.87
1152.979,1206.07
1153.898,1236.87
1154.819,1199.30
1155.739,1216.43
1156.658,1201.23
1157.579,1195.97
1158.498,1210.70
1159.419,1185.23
1160.338,1195.10
1161.256,1238.20
1162.177,1200.30
1163.095,1196.57
1164.016,1190.43
1164.934,1208.20
1165.852,1215.17
1166.772,1165.60
1167.690,1193.00
1168.610,1183.13
1169.528,1208.97
1170.446,1176.60
1171.365,1153.37
1172.283,1133.87
1173.202,1182.00
1174.120,1170.33
1175.037,1178.60
1175.956,1176.80
1176.873,1174.13
1177.792,1196.43
1178.709,1150.03
1179.626,1177.17
1180.544,1204.60
1181.461,1161.00
1182.379,1194.13
1183.296,1135.23
1184.212,1161.87
1185.130,1162.03
1186.046,1134.60
1186.962,1189.17
1187.880,1189.97
1188.796,1164.23
1189.714,1170.03
1190.629,1177.30
1191.545,1191.83
1192.462,1180.00
1193.378,1143.23
1194.295,1177.07
1195.210,1169.87
1196.125,1176.03
1197.042,1159.80
1197.957,1123.60
1198.872,1178.50
1199.788,1159.53
1200.703,1133.77
1201.619,1196.47
1202.534,1201.50
1203.448,1179.03
1204.364,1198.33
1205.278,1178.17
1206.192,1170.00
1207.108,1225.67
1208.022,1190.73
1208.938,1188.60
1209.851,1174.17
1210.765,1212.23
1211.680,1195.97
1212.594,1206.07
1213.507,1230.20
1214.422,1185.47
1215.335,1232.67
1216.248,1199.90
1217.163,1255.00
1218.076,1216.40
1218.990,1233.33
1219.903,1201.87
1220.816,1233.73
1221.730,1224.83
1222.642,1265.73
1223.554,1236.23
1224.469,1272.97
1225.380,1261.77
1226.292,1240.67
1227.206,1274.37
1228.118,1285.33
1229.032,1234.00
1229.943,1258.37
1230.855,1265.07
1231.768,1286.67
1232.679,1281.40
1233.590,1320.30
1234.503,1294.50
1235.414,1283.73
1236.325,1300.30
1237.238,1320.50
1238.149,1313.00
1239.059,1328.87
1239.972,1351.30
1240.882,1275.27
1241.793,1344.67
1242.705,1331.37
1243.615,1375.13
1244.525,1359.83
1245.437,1345.70
1246.347,1358.70
1247.259,1377.07
1248.168,1394.07
1249.078,1384.97
1249.989,1359.77
1250.899,1397.60
1251.808,1400.63
1252.719,1430.13
1253.628,1414.33
1254.537,1442.83
1255.448,1405.47
1256.357,1409.57
1257.266,1445.20
1258.176,1444.53
1259.085,1463.20
1259.993,1470.30
1260.904,1455.47
1261.812,1484.40
1262.720,1444.60
1263.630,1451.47
1264.538,1445.80
1265.446,1517.30
1266.356,1423.40
1267.263,1483.03
1268.171,1514.93
1269.080,1508.70
1269.988,1529.90
1270.895,1515.67
1271.804,1495.13
1272.711,1474.07
1273.619,1529.53
1274.527,1544.43
1275.434,1520.33
1276.341,1523.07
1277.248,1503.07
1278.156,1545.87
1279.063,1522.23
1279.969,1511.67
1280.877,1545.33
1281.783,1531.70
1282.690,1554.70
1283.598,1535.67
1284.503,1556.77
1285.409,1527.10
1286.317,1512.13
1287.223,1573.30
1288.128,1559.93
1289.036,1565.93
1289.941,1555.20
1290.846,1531.13
1291.751,1522.70
1292.658,1517.90
1293.563,1521.67
1294.468,1532.90
1295.375,1524.03
1296.280,1507.80
1297.184,1550.80
1298.091,1548.77
1298.995,1524.33
1299.900,1505.00
1300.806,1521.23
1301.710,1495.03
1302.614,1523.87
1303.518,1481.30
1304.424,1455.00
1305.327,1515.17
1306.231,1485.77
1307.137,1436.70
1308.040,1470.00
1308.943,1450.77
1309.847,1454.67
1310.752,1466.00
1311.655,1423.77
1312.558,1445.93
1313.463,1445.47
1314.366,1381.00
1315.269,1388.70
1316.171,1399.73
1317.076,1390.37
1317.978,1359.47
1318.881,1354.93
1319.785,1328.03
1320.687,1345.77
1321.589,1348.67
1322.491,1311.30
1323.395,1319.33
1324.297,1359.03
1325.198,1276.63
1326.102,1319.03
1327.004,1326.83
1327.905,1274.67
1328.806,1284.80
1329.709,1297.00
1330.611,1273.33
1331.512,1309.63
1332.413,1239.47
1333.316,1294.40
1334.216,1223.13
1335.117,1244.33
1336.020,1241.47
1336.920,1195.33
1337.821,1194.17
1338.721,1218.00
1339.623,1211.30
1340.523,1198.17
1341.423,1204.13
1342.323,1180.00
1343.225,1178.07
1344.125,1143.93
1345.025,1149.10
1345.924,1140.60
1346.826,1126.50
1347.725,1123.27
1348.624,1110.43
1349.524,1130.60
1350.425,1080.00
1351.324,1096.23
1352.223,1118.07
1353.121,1068.93
1354.022,1064.33
1354.921,1040.13
1355.819,1054.60
1356.718,1053.67
1357.618,1030.93
1358.516,1008.13
1359.415,1056.27
1360.313,1059.57
1361.213,1026.80
1362.111,993.23
1363.008,1008.53
1363.906,1037.60
1364.806,1013.10
1365.703,982.00
1366.601,976.00
1367.498,991.93
1368.397,1011.20
1369.295,988.37
1370.192,988.40
1371.089,982.63
1371.987,963.77
1372.884,970.20
1373.781,970.87
1374.678,946.30
1375.574,922.13
1376.473,966.80
1377.369,930.23
1378.265,908.13
1379.161,961.00
1380.059,943.50
1380.955,930.07
1381.851,876.87
1382.747,900.13
1383.643,900.53
1384.540,902.17
1385.436,918.53
1386.331,914.27
1387.227,901.20
1388.124,930.13
1389.019,902.47
1389.914,879.00
1390.809,916.73
1391.704,911.43
1392.601,929.13
1393.495,865.50
1394.390,867.67
1395.285,864.20
1396.179,891.97
1397.075,866.23
1397.969,848.07
1398.864,851.50
1399.758,845.53
1400.652,855.40
1401.547,878.23
1402.441,855.50
1403.335,856.20
1404.229,824.63
1405.122,841.50
1406.017,827.87
1406.911,829.47
1407.804,825.03
1408.697,840.13
1409.590,842.93
1410.485,844.90
1411.378,826.60
1412.271,801.13
1413.163,817.77
1414.056,837.37
1414.949,809.20
1415.843,806.07
1416.735,805.77
1417.627,820.33
1418.520,802.43
1419.412,800.00
1420.306,789.00
1421.197,782.73
1422.089,786.07
1422.981,792.80
1423.873,806.97
1424.764,791.63
1425.657,810.07
1426.549,740.60
1427.440,820.67
1428.331,780.27
1429.222,769.00
1430.113,785.57
1431.006,813.13
1431.897,762.13
1432.787,761.47
1433.678,787.00
1434.568,791.27
1435.459,785.83
1436.351,737.90
1437.241,786.27
1438.131,772.23
1439.021,798.53
1439.911,767.20
1440.801,757.53
1441.693,758.60
1442.583,759.40
1443.472,722.80
1444.362,748.33
1445.251,731.07
1446.140,756.37
1447.030,807.83
1447.921,745.47
1448.810,761.57
1449.699,713.50
1450.588,764.20
1451.476,745.63
1452.365,682.27
1453.254,735.53
1454.144,703.03
1455.032,722.40
1455.921,698.87
1456.809,730.77
1457.697,715.97
1458.585,688.90
1459.473,678.57
1460.361,707.27
1461.251,721.03
1462.138,719.97
1463.026,718.87
1463.913,680.63
1464.801,677.83
1465.688,716.40
1466.575,675.77
1467.463,713.03
1468.351,702.63
1469.238,694.00
1470.125,665.17
1471.012,688.40
1471.899,662.43
1472.785,663.77
1473.672,667.17
1474.558,676.30
1475.446,681.63
1476.333,676.33
1477.219,710.37
1478.105,649.10
1478.991,665.97
1479.877,632.40
1480.762,666.40
1481.648,671.67
1482.534,685.13
1483.419,676.70
1484.307,653.90
1485.192,653.27
1486.077,666.87
1486.962,658.87
1487.847,667.53
1488.732,653.23
1489.617,641.03
1490.502,662.83
1491.387,650.90
1492.271,640.60
1493.156,673.57
1494.042,704.07
1494.927,631.10
1495.811,663.40
1496.695,677.10
1497.579,648.20
1498.463,611.40
1499.347,644.60
1500.231,626.03
1501.114,603.17
1501.998,626.27
1502.881,623.37
1503.765,629.70
1504.648,606.20
1505.533,650.80
1506.417,646.20
1507.300,606.60
1508.183,601.73
1509.066,631.33
1509.948,660.33
1510.831,687.97
1511.714,625.43
1512.596,621.77
1513.479,621.60
1514.361,619.57
1515.243,597.13
1516.125,622.13
1517.008,645.67
1517.890,620.20
1518.771,610.10
1519.655,624.33
1520.537,595.13
1521.419,621.30
1522.300,596.90
1523.182,605.30
1524.063,632.90
1524.944,613.20
1525.825,637.40
1526.707,608.77
1527.588,591.80
1528.468,592.20
1529.349,602.90
1530.230,615.07
1531.111,604.27
1531.991,622.37
1532.872,567.90
1533.752,608.97
1534.632,594.73
1535.513,588.90
1536.393,582.33
1537.273,573.80
1538.153,612.77
1539.032,572.53
1539.912,573.07
1540.792,569.87
1541.672,593.80
1542.551,576.60
1543.430,572.03
1544.310,535.50
1545.189,585.43
1546.068,590.53
1546.947,591.23
1547.826,561.90
1548.705,577.03
1549.584,588.10
1550.462,577.70
1551.341,593.47
1552.219,587.50
1553.098,583.50
1553.976,600.17
1554.854,567.13
1555.733,562.47
1556.611,584.63
1557.489,605.23
1558.367,559.67
1559.244,587.37
1560.122,571.67
1561.000,547.33
1561.877,562.70
1562.755,610.53
1563.632,562.13
1564.509,557.83
1565.386,554.23
1566.264,557.83
1567.141,583.20
1568.017,529.37
1568.894,543.27
1569.771,579.23
1570.648,545.73
1571.524,578.43
1572.401,573.00
1573.277,556.13
1574.153,569.87
1575.029,543.10
1575.906,538.63
1576.781,531.47
1577.657,575.70
1578.533,564.53
1579.409,566.90
1580.285,555.50
1581.160,532.83
1582.036,547.97
1582.911,549.37
1583.786,537.00
1584.662,565.23
1585.537,537.70
1586.412,563.63
1587.287,500.60
1588.160,575.73
1589.035,546.50
1589.909,550.23
1590.784,548.40
1591.658,616.47
1592.533,551.83
1593.407,549.97
1594.281,538.07
1595.155,535.17
1596.029,540.23
1596.903,546.77
1597.777,513.40
1598.651,555.43
1599.525,526.53
1600.398,553.00
1601.272,534.53
1602.144,533.23
1603.017,541.50
1603.890,489.97
1604.763,509.00
1605.636,513.90
1606.509,549.67
1607.382,516.77
1608.255,550.93
1609.128,502.07
1610.000,512.50
1610.873,514.83
1611.746,507.10
1612.616,513.97
1613.488,560.37
1614.361,524.33
1615.233,506.80
1616.105,574.37
1616.977,533.70
1617.849,514.90
1618.720,513.20
1619.592,504.97
1620.464,545.07
1621.333,525.27
1622.205,504.23
1623.076,535.33
1623.947,522.50
1624.818,506.33
1625.689,518.63
1626.560,467.23
1627.431,520.30
1628.302,542.17
1629.171,511.53
1630.042,535.77
1630.912,594.77
1631.782,483.43
1632.653,526.67
1633.523,478.47
1634.393,463.07
1635.263,500.57
1636.131,502.47
1637.001,488.87
1637.871,508.13
1638.741,517.50
1639.611,515.70
1640.480,564.07
1641.350,541.67
1642.219,557.03
1643.087,501.27
1643.956,503.43
1644.825,501.57
1645.694,479.03
1646.563,479.23
1647.432,479.33
1648.299,515.53
1649.167,521.67
1650.036,487.83
1650.904,534.60
1651.773,514.77
1652.641,501.53
1653.509,483.77
1654.376,538.83
1655.244,487.33
1656.112,538.83
1656.980,509.80
1657.847,500.13
1658.715,505.17
1659.581,490.93
1660.448,482.83
1661.316,499.73
1662.183,511.93
1663.051,511.70
1663.918,501.70
1664.783,446.60
1665.650,490.67
1666.517,488.47
1667.384,512.50
1668.251,488.03
1669.115,482.53
1669.982,504.57
1670.849,507.70
1671.715,522.23
1672.581,494.97
1673.446,487.73
1674.312,495.17
1675.178,490.20
1676.044,519.90
1676.910,520.63
1677.774,466.30
1678.639,491.37
1679.505,485.77
1680.370,470.67
1681.236,498.77
1682.099,482.80
1682.965,497.47
1683.830,478.77
1684.695,487.57
1685.560,501.17
1686.423,510.30
1687.288,483.43
1688.153,481.37
1689.017,478.13
1689.880,485.53
1690.745,522.90
1691.609,483.30
1692.473,467.90
1693.338,481.27
1694.200,455.13
1695.064,496.77
1695.928,463.50
1696.792,475.67
1697.654,464.27
1698.517,514.00
1699.381,487.97
1700.245,520.97
1701.106,495.30
1701.969,509.90
1702.833,475.87
1703.696,506.90
1704.557,475.03
1705.420,462.37
1706.283,477.13
1707.146,481.73
1708.007,454.27
1708.870,484.03
1709.732,459.57
1710.595,460.60
1711.455,452.10
1712.318,449.20
1713.180,505.83
1714.040,482.80
1714.902,453.73
1715.764,450.10
1716.626,471.57
1717.486,451.70
1718.348,480.10
1719.209,600.37
1720.071,460.70
1720.930,479.47
1721.792,460.73
1722.653,430.00
1723.512,434.50
1724.374,459.07
1725.234,482.97
1726.095,469.20
1726.954,465.37
1727.815,448.63
1728.676,461.87
1729.535,441.03
1730.395,464.07
1731.256,481.97
1732.114,484.97
1732.974,439.83
1733.834,445.10
1734.693,473.93
1735.553,453.97
1736.413,448.57
1737.272,443.70
1738.130,430.20
1738.990,451.00
1739.849,482.73
1740.707,473.70
1741.566,460.77
1742.426,454.67
1743.283,464.57
1744.142,460.70
1745.001,465.90
1745.858,426.63
1746.717,430.80
1747.576,468.50
1748.433,481.13
1749.292,463.43
1750.150,443.63
1751.007,471.70
1751.865,452.63
1752.723,459.53
1753.579,430.40
1754.438,443.87
1755.296,486.03
1756.152,482.40
1757.010,445.50
1757.865,467.80
1758.723,465.97
1759.581,462.30
1760.436,469.53
1761.294,439.23
1762.151,468.40
1763.006,420.43
1763.864,454.83
1764.721,483.57
1765.576,457.60
1766.433,456.20
1767.288,421.53
1768.144,440.40
1769.001,453.23
1769.856,475.60
1770.712,463.97
1771.568,424.47
1772.423,485.17
1773.279,477.60
1774.133,458.80
1774.989,416.63
1775.845,438.80
1776.699,455.17
1777.555,440.83
1778.409,436.97
1779.265,453.70
1780.120,428.27
1780.974,425.60
1781.829,443.90
1782.682,396.77
1783.538,430.13
1784.393,442.40
1785.246,462.40
1786.101,409.23
1786.954,431.53
1787.808,423.07
1788.661,458.50
1789.516,451.87
1790.370,428.97
1791.223,430.17
1792.077,474.57
1792.930,464.37
1793.784,427.73
1794.636,467.70
1795.490,439.23
1796.344,445.77
1797.196,449.30
1798.049,463.60
1798.901,437.27
1799.755,437.40
1800.606,442.83
1801.460,450.67
1802.311,432.33
1803.165,412.80
1804.018,507.50
1804.869,432.20
1805.722,448.87
1806.573,447.90
1807.426,441.63
1808.276,457.53
1809.129,444.43
1809.980,443.40
1810.832,450.07
1811.683,470.33
1812.535,447.23
1813.385,437.63
1814.237,442.30
1815.089,424.77
1815.940,403.67
1816.791,447.33
1817.641,405.27
1818.493,425.03
1819.343,459.93
1820.194,431.53
1821.044,437.70
1821.895,437.17
1822.745,460.33
1823.596,466.03
1824.445,445.10
1825.296,434.57
1826.145,437.63
1826.996,420.43
1827.845,421.80
1828.695,447.60
1829.544,438.77
1830.395,448.97
1831.243,445.60
1832.094,432.57
1832.942,404.83
1833.792,404.37
1834.640,449.87
1835.490,461.60
1836.338,410.07
1837.186,396.87
1838.036,443.67
1838.884,470.93
1839.733,425.97
1840.581,448.00
1841.430,408.20
1842.278,387.33
1843.127,422.30
1843.974,415.07
1844.823,421.43
1845.671,446.00
1846.519,418.23
1847.366,425.07
1848.213,436.03
1849.062,420.77
1849.909,407.07
1850.757,425.33
1851.604,433.07
1852.452,390.00
1853.298,432.63
1854.146,438.97
1854.993,413.90
1855.839,441.90
1856.687,447.97
1857.532,450.17
1858.380,416.37
1859.226,439.63
1860.073,456.43
1860.919,428.67
1861.765,401.17
1862.612,425.03
1863.457,412.00
1864.304,422.67
1865.150,388.90
1865.995,440.57
1866.842,466.80
1867.686,418.47
1868.533,414.17
1869.378,429.03
1870.223,406.03
1871.069,436.70
1871.914,424.30
1872.760,398.77
1873.604,404.37
1874.448,433.87
1875.294,398.93
1876.139,386.93
1876.984,435.10
1877.828,417.50
1878.672,439.43
1879.518,403.20
1880.361,402.07
1881.205,381.20
1882.050,402.40
1882.894,440.30
1883.739,434.37
1884.582,421.80
1885.425,404.57
1886.270,370.53
1887.113,405.77
1887.956,437.97
1888.801,397.73
1889.644,446.13
1890.486,426.00
1891.331,430.77
1892.173,424.90
1893.017,408.30
1893.860,444.13
1894.702,409.33
1895.546,427.70
1896.388,424.20
1897.230,420.60
1898.074,445.60
1898.916,421.83
1899.757,434.70
1900.601,419.53
1901.443,415.03
1902.284,422.10
1903.125,407.73
1903.969,417.80
1904.810,420.53
1905.651,415.73
1906.494,430.23
1907.335,404.07
1908.176,383.03
1909.018,392.27
1909.859,391.87
1910.700,410.83
1911.542,399.47
1912.383,412.10
1913.223,401.00
1914.064,442.03
1914.906,405.23
1915.746,414.00
1916.586,407.73
1917.428,391.63
1918.268,414.60
1919.107,395.40
1919.947,387.80
1920.789,419.70
1921.628,386.07
1922.468,418.10
1923.309,390.07
1924.148,400.93
1924.988,429.57
1925.827,389.73
1926.667,407.80
1927.507,430.80
1928.345,359.33
1929.184,430.37
1930.025,421.93
1930.864,382.80
1931.702,398.87
1932.541,403.67
1933.381,413.70
1934.219,421.20
1935.057,403.77
1935.896,397.80
1936.735,432.27
1937.573,405.90
1938.411,435.43
1939.249,407.00
1940.089,395.57
1940.927,402.10
1941.764,393.23
1942.602,384.57
1943.439,395.33
1944.278,430.83
1945.115,372.17
1945.953,386.70
1946.790,414.03
1947.628,417.23
1948.465,373.23
1949.302,373.90
1950.139,371.80
1950.976,377.57
1951.814,407.63
1952.651,386.53
1953.487,392.57
1954.323,395.80
1955.160,397.40
1955.998,417.13
1956.834,397.20
1957.670,397.73
1958.506,421.63
1959.342,390.97
1960.177,380.60
1961.015,410.93
1961.850,410.00
1962.686,409.23
1963.521,393.70
1964.357,427.13
1965.192,393.07
1966.029,386.13
1966.864,392.30
1967.699,393.70
1968.534,374.57
1969.369,389.67
1970.204,388.00
1971.040,325.37
1971.875,408.50
1972.709,365.10
1973.544,396.37
1974.378,412.00
1975.212,450.37
1976.047,399.97
1976.882,397.13
1977.716,389.90
1978.550,408.50
1979.384,422.70
1980.218,351.73
1981.052,432.10
1981.885,393.70
1982.719,406.60
1983.554,389.47
1984.388,407.00
1985.221,372.07
1986.054,392.80
1986.887,387.87
1987.720,387.70
1988.553,417.77
1989.386,402.50
1990.219,389.97
1991.053,418.63
1991.886,405.67
1992.719,409.07
1993.551,408.47
1994.383,362.57
1995.216,384.27
1996.048,418.17
1996.880,392.60
1997.712,411.47
1998.544,390.60
1999.376,396.70
2000.208,403.63
2000.208,403.63

Max Intensity Wave.,226.101
Max Intensity Data,6045.47
Min Intensity Wave.,1971.040
Min Intensity Data,325.37
FWHM Wave.,398.139
FWHM Value,5.88
Pressure Wave.,686.165
Pressure Value [GPa],-21.01626
G/D Ratio,0.40446
G/D Gband Wave.,1591.670
G/D Gband Intensity,616.48
G/D Dband Wave.,1302.527
G/D Dband Intensity,1524.20

<< BACKGROUND SPECTRUM >>
Wave[dcm-1],No273
146.591,2238.00
147.626,2088.00
148.664,2039.00
149.699,2526.00
150.737,2242.00
151.772,2404.00
152.809,2376.00
153.846,2270.00
154.881,2372.00
155.918,1981.00
156.953,2257.00
157.989,2552.00
159.026,2448.00
160.060,2644.00
161.096,2862.00
162.130,2463.00
163.167,2529.00
164.200,2408.00
165.236,2633.00
166.272,2648.00
167.305,2234.00
168.341,2510.00
169.374,2748.00
170.409,2734.00
171.445,2704.00
172.477,2489.00
173.512,2353.00
174.545,2672.00
175.580,2820.00
176.614,3004.00
177.647,2799.00
178.681,3075.00
179.713,3349.00
180.747,2744.00
181.781,2705.00
182.813,2987.00
183.847,3027.00
184.878,2690.00
185.912,2940.00
186.945,3090.00
187.976,2998.00
189.010,2706.00
190.043,2781.00
191.073,2908.00
192.106,2709.00
193.137,3148.00
194.170,2541.00
195.202,2886.00
196.232,2653.00
197.265,2954.00
198.297,3024.00
199.327,2755.00
200.359,2893.00
201.388,3283.00
202.420,2884.00
203.452,3085.00
204.481,2679.00
205.512,3274.00
206.544,3046.00
207.573,3009.00
208.604,3334.00
209.635,3466.00
210.663,2948.00
211.694,2941.00
212.725,2811.00
213.753,2749.00
214.783,3296.00
215.813,3185.00
216.841,2954.00
217.871,3162.00
218.899,2882.00
219.929,3116.00
220.959,2863.00
221.986,3160.00
223.016,2765.00
224.045,3112.00
225.072,3088.00
226.101,3155.00
227.130,3216.00
228.157,2791.00
229.185,2333.00
230.214,3164.00
231.241,2818.00
232.269,2436.00
233.297,2674.00
234.323,3191.00
235.351,2789.00
236.379,3053.00
237.407,2729.00
238.433,2901.00
239.460,3087.00
240.488,3078.00
241.513,3175.00
242.540,3110.00
243.568,3107.00
244.592,3194.00
245.619,3181.00
246.646,2907.00
247.671,2989.00
248.697,2795.00
249.724,2996.00
250.748,2994.00
251.774,2963.00
252.801,3255.00
253.827,3082.00
254.850,3077.00
255.876,2632.00
256.902,3115.00
257.925,2946.00
258.951,2745.00
259.976,2743.00
260.999,3036.00
262.024,2755.00
263.049,3589.00
264.074,3066.00
265.097,3019.00
266.122,3044.00
267.146,3006.00
268.168,3198.00
269.193,2824.00
270.217,3147.00
271.241,2712.00
272.263,2848.00
273.287,3157.00
274.311,2748.00
275.332,3251.00
276.356,2820.00
277.379,3044.00
278.402,3083.00
279.424,2933.00
280.447,2858.00
281.470,2708.00
282.492,3033.00
283.513,2883.00
284.536,3146.00
285.558,3101.00
286.581,3084.00
287.601,2818.00
288.623,2799.00
289.645,3065.00
290.665,3118.00
291.687,3104.00
292.709,3112.00
293.730,3327.00
294.750,2855.00
295.771,2748.00
296.792,3040.00
297.813,2908.00
298.832,3002.00
299.853,2711.00
300.874,2968.00
301.895,2905.00
302.913,2976.00
303.934,3232.00
304.954,3023.00
305.975,3165.00
306.993,2739.00
308.013,3069.00
309.033,2989.00
310.052,2890.00
311.072,2875.00
312.090,3050.00
313.109,3255.00
314.129,3443.00
315.148,2988.00
316.165,3018.00
317.184,3220.00
318.203,2739.00
319.222,2774.00
320.238,3168.00
321.257,2788.00
322.275,2689.00
323.294,2951.00
324.312,3093.00
325.328,3213.00
326.346,3232.00
327.364,3215.00
328.382,3130.00
329.397,3095.00
330.415,3219.00
331.432,3164.00
332.450,3211.00
333.467,3389.00
334.482,2566.00
335.499,3346.00
336.516,2821.00
337.533,2583.00
338.547,2794.00
339.564,2833.00
340.580,3040.00
341.597,2919.00
342.613,3366.00
343.627,2968.00
344.643,3018.00
345.659,3081.00
346.675,2975.00
347.690,2820.00
348.704,3037.00
349.719,2845.00
350.735,2706.00
351.750,3214.00
352.765,2981.00
353.778,2991.00
354.793,3142.00
355.808,2841.00
356.822,3192.00
357.837,2658.00
358.851,3231.00
359.864,2993.00
360.878,2719.00
361.892,2973.00
362.906,3149.00
363.920,2570.00
364.932,3091.00
365.945,3082.00
366.959,2978.00
367.972,2914.00
368.986,2737.00
369.999,3343.00
371.010,2780.00
372.023,3325.00
373.036,2944.00
374.049,3354.00
375.061,3051.00
376.072,2977.00
377.084,2827.00
378.097,2701.00
379.109,3169.00
380.121,3010.00
381.133,2671.00
382.143,3142.00
383.155,2707.00
384.166,2819.00
385.178,3072.00
386.189,3167.00
387.201,2677.00
388.212,2894.00
389.221,2890.00
390.232,2993.00
391.243,2879.00
392.254,3011.00
393.264,2812.00
394.275,3209.00
395.283,3151.00
396.294,3575.00
397.304,3467.00
398.314,3088.00
399.324,2994.00
400.334,2635.00
401.344,3146.00
402.351,2614.00
403.361,3185.00
404.370,2936.00
405.380,2887.00
406.389,3265.00
407.398,3113.00
408.407,3075.00
409.414,3117.00
410.423,3302.00
411.431,2763.00
412.440,2663.00
413.448,3287.00
414.457,2882.00
415.465,2801.00
416.471,2851.00
417.479,2990.00
418.487,2810.00
419.495,3261.00
420.503,3074.00
421.510,2634.00
422.518,3121.00
423.525,3149.00
424.530,3371.00
425.537,2865.00
426.544,3216.00
427.551,2834.00
428.558,3571.00
429.565,3391.00
430.571,2850.00
431.578,2901.00
432.582,2837.00
433.588,2918.00
434.595,2619.00
435.601,3308.00
436.607,3210.00
437.612,2711.00
438.618,3292.00
439.624,2935.00
440.627,2941.00
441.633,3096.00
442.638,3562.00
443.643,3076.00
444.648,3010.00
445.653,3127.00
446.658,2857.00
447.663,2992.00
448.667,2837.00
449.672,2901.00
450.674,2938.00
451.678,2718.00
452.682,2848.00
453.687,2814.00
454.690,3610.00
455.694,3249.00
456.698,2536.00
457.702,2628.00
458.705,2756.00
459.709,2804.00
460.710,2839.00
461.713,3013.00
462.716,3052.00
463.719,2976.00
464.722,3129.00
465.725,2930.00
466.727,2803.00
467.730,3020.00
468.732,2765.00
469.735,3214.00
470.737,2900.00
471.737,2855.00
472.739,2833.00
473.741,2802.00
474.742,3065.00
475.744,3016.00
476.746,2999.00
477.747,2934.00
478.748,3153.00
479.750,2894.00
480.751,2984.00
481.752,3658.00
482.753,3069.00
483.751,3531.00
484.752,2625.00
485.753,2929.00
486.753,2841.00
487.753,2970.00
488.754,3394.00
489.754,2675.00
490.754,3279.00
491.754,3098.00
492.754,2652.00
493.753,3049.00
494.753,2903.00
495.752,3283.00
496.752,3005.00
497.749,2953.00
498.748,2886.00
499.747,3319.00
500.746,3050.00
501.745,2746.00
502.744,2706.00
503.742,3260.00
504.741,2907.00
505.739,2477.00
506.737,2845.00
507.735,3109.00
508.734,3341.00
509.732,3143.00
510.729,3311.00
511.727,2883.00
512.725,2850.00
513.720,2762.00
514.718,3223.00
515.715,2678.00
516.712,2599.00
517.709,2984.00
518.706,2856.00
519.703,2995.00
520.700,3184.00
521.696,3350.00
522.693,2881.00
523.689,2789.00
524.686,3158.00
525.682,2784.00
526.678,3452.00
527.674,2879.00
528.670,2583.00
529.666,3492.00
530.661,3497.00
531.657,3637.00
532.652,3122.00
533.648,2975.00
534.641,3189.00
535.636,3054.00
536.631,3067.00
537.626,3152.00
538.621,2711.00
539.616,2575.00
540.610,2461.00
541.605,2979.00
542.599,3024.00
543.593,2990.00
544.587,3855.00
545.581,2787.00
546.575,3051.00
547.569,2997.00
548.563,2669.00
549.557,2658.00
550.550,2786.00
551.543,2734.00
552.537,3110.00
553.530,2738.00
554.523,2789.00
555.516,3100.00
556.509,3000.00
557.502,2612.00
558.494,3164.00
559.487,2910.00
560.479,3141.00
561.472,3272.00
562.464,3081.00
563.456,3309.00
564.448,2928.00
565.440,3007.00
566.432,3369.00
567.423,2843.00
568.415,2870.00
569.404,3085.00
570.396,2815.00
571.387,3070.00
572.378,3019.00
573.369,3957.00
574.360,3703.00
575.351,2906.00
576.341,2820.00
577.332,2822.00
578.323,2679.00
579.313,2874.00
580.303,3237.00
581.293,3140.00
582.283,2965.00
583.273,3078.00
584.263,2993.00
585.253,3091.00
586.243,3077.00
587.232,2635.00
588.222,2941.00
589.211,3162.00
590.200,2991.00
591.189,2923.00
592.178,2970.00
593.167,3398.00
594.156,3269.00
595.145,2862.00
596.133,3399.00
597.122,3145.00
598.110,3196.00
599.098,3071.00
600.086,2988.00
601.074,3127.00
602.062,2842.00
603.050,2732.00
604.038,3074.00
605.025,2800.00
606.013,3159.00
607.000,3360.00
607.987,3009.00
608.975,3073.00
609.962,2760.00
610.949,3087.00
611.936,3185.00
612.922,3154.00
613.909,2638.00
614.895,3321.00
615.882,2846.00
616.868,2983.00
617.854,2712.00
618.841,3060.00
619.826,3094.00
620.812,2964.00
621.798,2794.00
622.784,3141.00
623.769,3140.00
624.755,2713.00
625.740,3041.00
626.725,2705.00
627.711,2854.00
628.698,3048.00
629.683,2802.00
630.667,3162.00
631.652,2731.00
632.637,2948.00
633.621,3160.00
634.606,2872.00
635.590,3108.00
636.574,2906.00
637.558,3005.00
638.542,3037.00
639.526,2844.00
640.510,2636.00
641.493,3045.00
642.477,2987.00
643.460,2679.00
644.444,3140.00
645.427,3196.00
646.410,2646.00
647.393,2938.00
648.376,3007.00
649.359,2872.00
650.341,3068.00
651.324,3101.00
652.307,3053.00
653.289,2943.00
654.271,2844.00
655.253,2884.00
656.235,3123.00
657.217,3247.00
658.199,2631.00
659.181,2748.00
660.163,2968.00
661.144,2842.00
662.126,2894.00
663.107,2734.00
664.088,6109.00
665.069,3209.00
666.050,2824.00
667.033,2701.00
668.014,3033.00
668.995,2599.00
669.975,2966.00
670.956,2972.00
671.936,3130.00
672.916,2958.00
673.896,3031.00
674.876,2877.00
675.856,2840.00
676.836,2725.00
677.816,2289.00
678.795,2807.00
679.775,2626.00
680.754,3029.00
681.734,3135.00
682.713,3170.00
683.692,2798.00
684.671,2684.00
685.650,2739.00
686.629,2843.00
687.607,2789.00
688.586,2741.00
689.564,2889.00
690.543,3194.00
691.523,2387.00
692.501,2815.00
693.479,2914.00
694.457,2778.00
695.435,2884.00
696.413,2655.00
697.390,2499.00
698.368,2656.00
699.345,3085.00
700.322,2908.00
701.300,3066.00
702.277,3067.00
703.254,3200.00
704.231,2535.00
705.207,2965.00
706.184,2744.00
707.161,2642.00
708.137,2788.00
709.113,2779.00
710.090,2754.00
711.068,2616.00
712.044,2589.00
713.020,2864.00
713.996,2562.00
714.971,2832.00
715.947,2832.00
716.922,2778.00
717.898,2721.00
718.873,2893.00
719.848,2721.00
720.823,2657.00
721.798,2949.00
722.773,2786.00
723.748,2527.00
724.723,3014.00
725.697,2823.00
726.672,2751.00
727.646,2477.00
728.622,2947.00
729.596,2577.00
730.570,2742.00
731.544,3030.00
732.518,3290.00
733.492,2834.00
734.466,2859.00
735.439,3029.00
736.413,3104.00
737.386,2440.00
738.359,2408.00
739.332,2523.00
740.305,2835.00
741.278,3289.00
742.251,2865.00
743.224,2725.00
744.196,2543.00
745.171,3111.00
746.143,2995.00
747.115,2742.00
748.087,2699.00
749.059,3034.00
750.031,2902.00
751.003,3679.00
751.975,3268.00
752.947,2670.00
753.918,3069.00
754.890,2577.00
755.861,2755.00
756.832,3068.00
757.803,2816.00
758.774,2791.00
759.747,2622.00
760.718,3203.00
761.689,2752.00
762.659,2597.00
763.630,3143.00
764.600,2568.00
765.570,3031.00
766.540,3121.00
767.510,2934.00
768.480,3059.00
769.450,2665.00
770.420,2790.00
771.390,2646.00
772.359,2737.00
773.329,2639.00
774.300,2543.00
775.269,2733.00
776.238,3000.00
777.207,3118.00
778.176,2491.00
779.145,2798.00
780.114,2654.00
781.083,2576.00
782.051,2749.00
783.019,2714.00
783.988,3049.00
784.956,2849.00
785.924,2977.00
786.894,2843.00
787.862,2705.00
788.830,3102.00
789.797,2591.00
790.765,2599.00
791.732,2739.00
792.700,2615.00
793.667,2541.00
794.634,2714.00
795.601,2714.00
796.568,2791.00
797.535,2814.00
798.502,3410.00
799.468,2921.00
800.437,2377.00
801.403,2635.00
802.370,3237.00
803.336,2940.00
804.302,2842.00
805.268,2430.00
806.234,2538.00
807.200,2723.00
808.166,2792.00
809.131,2560.00
810.097,2961.00
811.062,3660.00
812.027,3010.00
812.994,2616.00
813.960,2596.00
814.925,2914.00
815.889,2508.00
816.854,3016.00
817.819,2628.00
818.783,2725.00
819.748,3093.00
820.712,2728.00
821.677,2652.00
822.641,2648.00
823.605,2642.00
824.571,3094.00
825.534,2764.00
826.498,2656.00
827.462,2781.00
828.425,2605.00
829.389,3041.00
830.352,2828.00
831.315,2877.00
832.279,2494.00
833.242,2747.00
834.204,2607.00
835.167,2617.00
836.132,3050.00
837.095,2476.00
838.057,2686.00
839.020,2807.00
839.982,2823.00
840.944,2665.00
841.906,2660.00
842.868,2933.00
843.830,2543.00
844.792,2999.00
845.753,2662.00
846.715,2416.00
847.679,2562.00
848.640,2631.00
849.601,2735.00
850.562,3177.00
851.523,2701.00
852.484,2493.00
853.445,2983.00
854.406,2678.00
855.367,2715.00
856.327,3054.00
857.288,2522.00
858.248,2683.00
859.210,2720.00
860.170,2515.00
861.130,3016.00
862.090,2429.00
863.050,2607.00
864.010,2680.00
864.969,2855.00
865.929,2564.00
866.888,2498.00
867.848,2831.00
868.807,2636.00
869.766,2835.00
870.727,2696.00
871.686,2985.00
872.645,3015.00
873.604,3240.00
874.562,2735.00
875.521,2809.00
876.479,3330.00
877.437,2583.00
878.396,2596.00
879.354,3166.00
880.312,2598.00
881.270,2657.00
882.229,3082.00
883.187,2629.00
884.145,2657.00
885.102,2929.00
886.059,2855.00
887.017,2869.00
887.974,2946.00
888.931,3067.00
889.888,2530.00
890.845,2427.00
891.802,2343.00
892.758,2657.00
893.717,2447.00
894.673,2572.00
895.630,2607.00
896.586,2943.00
897.542,2667.00
898.498,2507.00
899.454,2841.00
900.410,2654.00
901.366,2703.00
902.321,2614.00
903.277,2667.00
904.232,2718.00
905.189,2476.00
906.145,2614.00
907.100,2212.00
908.055,2722.00
909.010,2916.00
909.965,2360.00
910.919,2788.00
911.874,2597.00
912.828,2780.00
913.783,2745.00
914.737,2373.00
915.693,2752.00
916.648,2911.00
917.602,2933.00
918.555,2799.00
919.509,2835.00
920.463,2749.00
921.417,2743.00
922.370,2567.00
923.324,2687.00
924.277,2670.00
925.230,2775.00
926.183,2406.00
927.138,2666.00
928.091,2946.00
929.044,2849.00
929.996,2635.00
930.949,2633.00
931.902,2820.00
932.854,2828.00
933.806,2634.00
934.758,2955.00
935.711,2966.00
936.663,2793.00
937.614,2797.00
938.568,2768.00
939.520,2406.00
940.471,2713.00
941.423,2786.00
942.374,2898.00
943.326,2745.00
944.277,2588.00
945.228,2830.00
946.179,2705.00
947.130,3020.00
948.080,2667.00
949.031,2549.00
949.984,2685.00
950.934,2698.00
951.884,2440.00
952.835,2679.00
953.785,2746.00
954.735,2594.00
955.685,2344.00
956.635,2661.00
957.585,2619.00
958.534,2664.00
959.484,2732.00
960.433,2593.00
961.383,2482.00
962.334,2983.00
963.283,2760.00
964.232,2848.00
965.181,2718.00
966.130,2761.00
967.079,2630.00
968.027,2677.00
968.976,2740.00
969.924,2648.00
970.873,2770.00
971.821,2764.00
972.769,2946.00
973.719,2852.00
974.667,2477.00
975.615,2725.00
976.562,2680.00
977.510,2396.00
978.458,2608.00
979.405,2791.00
980.352,2802.00
981.300,2948.00
982.247,2752.00
983.194,2557.00
984.141,2638.00
985.088,2725.00
986.036,2757.00
986.983,3001.00
987.930,3122.00
988.876,2380.00
989.822,2951.00
990.769,2535.00
991.715,2582.00
992.661,2448.00
993.607,2772.00
994.553,3275.00
995.498,2583.00
996.444,2261.00
997.389,2768.00
998.337,2533.00
999.282,2875.00
1000.227,2651.00
1001.173,2682.00
1002.118,2484.00
1003.062,2883.00
1004.007,2691.00
1004.952,2987.00
1005.897,2944.00
1006.841,2693.00
1007.786,2458.00
1008.730,2430.00
1009.674,3183.00
1010.618,2668.00
1011.564,2515.00
1012.508,2408.00
1013.452,2936.00
1014.396,2771.00
1015.339,2633.00
1016.283,2651.00
1017.226,2740.00
1018.170,2705.00
1019.113,2919.00
1020.056,2746.00
1020.999,2722.00
1021.942,2637.00
1022.885,2846.00
1023.828,3006.00
1024.770,2516.00
1025.715,2793.00
1026.657,2682.00
1027.600,2740.00
1028.542,2961.00
1029.484,2713.00
1030.426,2846.00
1031.368,2808.00
1032.310,2544.00
1033.251,2546.00
1034.193,2699.00
1035.135,2504.00
1036.076,2657.00
1037.017,2548.00
1037.959,2836.00
1038.900,2763.00
1039.843,2800.00
1040.784,2699.00
1041.725,2817.00
1042.665,2624.00
1043.606,2762.00
1044.547,2760.00
1045.487,2386.00
1046.427,2663.00
1047.368,2765.00
1048.308,2261.00
1049.248,2485.00
1050.188,2672.00
1051.128,2566.00
1052.067,2651.00
1053.007,2410.00
1053.947,2411.00
1054.886,2568.00
1055.827,2497.00
1056.766,2902.00
1057.706,2452.00
1058.645,2654.00
1059.584,2772.00
1060.522,3011.00
1061.461,2457.00
1062.400,2480.00
1063.338,2636.00
1064.277,2505.00
1065.215,2538.00
1066.154,2395.00
1067.092,2568.00
1068.030,2657.00
1068.968,2878.00
1069.906,2972.00
1070.843,2967.00
1071.781,2740.00
1072.720,2818.00
1073.658,2844.00
1074.595,2601.00
1075.533,2542.00
1076.470,2589.00
1077.407,2961.00
1078.344,2761.00
1079.281,2787.00
1080.217,2308.00
1081.154,2662.00
1082.091,2762.00
1083.027,2451.00
1083.964,2906.00
1084.900,2592.00
1085.836,2604.00
1086.772,2861.00
1087.708,2494.00
1088.644,2845.00
1089.580,2669.00
1090.515,2745.00
1091.451,2615.00
1092.388,2696.00
1093.324,2434.00
1094.259,3211.00
1095.194,2751.00
1096.129,2595.00
1097.064,2572.00
1097.999,2765.00
1098.934,2558.00
1099.869,2546.00
1100.803,2727.00
1101.738,2664.00
1102.672,2434.00
1103.607,2808.00
1104.541,2585.00
1105.475,2551.00
1106.409,2408.00
1107.343,2556.00
1108.277,2436.00
1109.210,2695.00
1110.144,2698.00
1111.078,2681.00
1112.011,2469.00
1112.944,2760.00
1113.878,2727.00
1114.811,2209.00
1115.744,2571.00
1116.678,2294.00
1117.611,2577.00
1118.544,2627.00
1119.477,2750.00
1120.409,2554.00
1121.342,3177.00
1122.274,2751.00
1123.206,4243.00
1124.138,2705.00
1125.070,2980.00
1126.002,2798.00
1126.934,2314.00
1127.866,2590.00
1128.798,2338.00
1129.729,2377.00
1130.661,2661.00
1131.592,2537.00
1132.523,2749.00
1133.454,2748.00
1134.385,2311.00
1135.317,2643.00
1136.247,2575.00
1137.178,2867.00
1138.109,2409.00
1139.039,2987.00
1139.970,2838.00
1140.900,2587.00
1141.831,2335.00
1142.761,2235.00
1143.691,2758.00
1144.621,2633.00
1145.551,2695.00
1146.480,2718.00
1147.410,2807.00
1148.340,2284.00
1149.269,2367.00
1150.199,2570.00
1151.128,3013.00
1152.057,2430.00
1152.979,2592.00
1153.898,2607.00
1154.819,2740.00
1155.739,2626.00
1156.658,2564.00
1157.579,2676.00
1158.498,2626.00
1159.419,2204.00
1160.338,2688.00
1161.256,2656.00
1162.177,2492.00
1163.095,2617.00
1164.016,2708.00
1164.934,2884.00
1165.852,2801.00
1166.772,2641.00
1167.690,2634.00
1168.610,2701.00
1169.528,2616.00
1170.446,2210.00
1171.365,2586.00
1172.283,2556.00
1173.202,2631.00
1174.120,2676.00
1175.037,2493.00
1175.956,2456.00
1176.873,2504.00
1177.792,2506.00
1178.709,3129.00
1179.626,2523.00
1180.544,2817.00
1181.461,2524.00
1182.379,2700.00
1183.296,2658.00
1184.212,2283.00
1185.130,2491.00
1186.046,2992.00
1186.962,2612.00
1187.880,2880.00
1188.796,2682.00
1189.714,2438.00
1190.629,2753.00
1191.545,2668.00
1192.462,2549.00
1193.378,2628.00
1194.295,2337.00
1195.210,2642.00
1196.125,2768.00
1197.042,2722.00
1197.957,2684.00
1198.872,2511.00
1199.788,2565.00
1200.703,2989.00
1201.619,2629.00
1202.534,2477.00
1203.448,2715.00
1204.364,2554.00
1205.278,2306.00
1206.192,2694.00
1207.108,3110.00
1208.022,2994.00
1208.938,2481.00
1209.851,2797.00
1210.765,2853.00
1211.680,2532.00
1212.594,2416.00
1213.507,2547.00
1214.422,3035.00
1215.335,2730.00
1216.248,2576.00
1217.163,2613.00
1218.076,3227.00
1218.990,2739.00
1219.903,2420.00
1220.816,2460.00
1221.730,2615.00
1222.642,2482.00
1223.554,2558.00
1224.469,2685.00
1225.380,2568.00
1226.292,2310.00
1227.206,2752.00
1228.118,2925.00
1229.032,2287.00
1229.943,2525.00
1230.855,2588.00
1231.768,2373.00
1232.679,2715.00
1233.590,2574.00
1234.503,2850.00
1235.414,2504.00
1236.325,2510.00
1237.238,2682.00
1238.149,2737.00
1239.059,2441.00
1239.972,2784.00
1240.882,2497.00
1241.793,2749.00
1242.705,2995.00
1243.615,2558.00
1244.525,2717.00
1245.437,2222.00
1246.347,2703.00
1247.259,2771.00
1248.168,3045.00
1249.078,2882.00
1249.989,2920.00
1250.899,2435.00
1251.808,2490.00
1252.719,2538.00
1253.628,2492.00
1254.537,2968.00
1255.448,2470.00
1256.357,2477.00
1257.266,2621.00
1258.176,2365.00
1259.085,2332.00
1259.993,2424.00
1260.904,2463.00
1261.812,2434.00
1262.720,3239.00
1263.630,2813.00
1264.538,2492.00
1265.446,2691.00
1266.356,2676.00
1267.263,2902.00
1268.171,2406.00
1269.080,2684.00
1269.988,2774.00
1270.895,2536.00
1271.804,2601.00
1272.711,2841.00
1273.619,2756.00
1274.527,2420.00
1275.434,2748.00
1276.341,2435.00
1277.248,2679.00
1278.156,2893.00
1279.063,2501.00
1279.969,2745.00
1280.877,3499.00
1281.783,2842.00
1282.690,2666.00
1283.598,2591.00
1284.503,2479.00
1285.409,2478.00
1286.317,3017.00
1287.223,3000.00
1288.128,2666.00
1289.036,2498.00
1289.941,2553.00
1290.846,2639.00
1291.751,2469.00
1292.658,2544.00
1293.563,3068.00
1294.468,2643.00
1295.375,2786.00
1296.280,2879.00
1297.184,3304.00
1298.091,2689.00
1298.995,2771.00
1299.900,3000.00
1300.806,2515.00
1301.710,2389.00
1302.614,2174.00
1303.518,2875.00
1304.424,2600.00
1305.327,2775.00
1306.231,2595.00
1307.137,2808.00
1308.040,2670.00
1308.943,2653.00
1309.847,2831.00
1310.752,2779.00
1311.655,2304.00
1312.558,2385.00
1313.463,2531.00
1314.366,2538.00
1315.269,2690.00
1316.171,2604.00
1317.076,2510.00
1317.978,2439.00
1318.881,2248.00
1319.785,2505.00
1320.687,2493.00
1321.589,2228.00
1322.491,2478.00
1323.395,2709.00
1324.297,3134.00
1325.198,2787.00
1326.102,2429.00
1327.004,2421.00
1327.905,3031.00
1328.806,2593.00
1329.709,2666.00
1330.611,2542.00
1331.512,2391.00
1332.413,3086.00
1333.316,2626.00
1334.216,2808.00
1335.117,2352.00
1336.020,2638.00
1336.920,2645.00
1337.821,2513.00
1338.721,2857.00
1339.623,2660.00
1340.523,2565.00
1341.423,2466.00
1342.323,2878.00
1343.225,2683.00
1344.125,2465.00
1345.025,2495.00
1345.924,2301.00
1346.826,2956.00
1347.725,3031.00
1348.624,2863.00
1349.524,2474.00
1350.425,2595.00
1351.324,2721.00
1352.223,2767.00
1353.121,2622.00
1354.022,2837.00
1354.921,3042.00
1355.819,2763.00
1356.718,2674.00
1357.618,2397.00
1358.516,2770.00
1359.415,2996.00
1360.313,2695.00
1361.213,2584.00
1362.111,2923.00
1363.008,3265.00
1363.906,2577.00
1364.806,2626.00
1365.703,2741.00
1366.601,2483.00
1367.498,2446.00
1368.397,2779.00
1369.295,2676.00
1370.192,2454.00
1371.089,2703.00
1371.987,2621.00
1372.884,2866.00
1373.781,2417.00
1374.678,2637.00
1375.574,2491.00
1376.473,2723.00
1377.369,2852.00
1378.265,2499.00
1379.161,2558.00
1380.059,2330.00
1380.955,2746.00
1381.851,2449.00
1382.747,2538.00
1383.643,2581.00
1384.540,2441.00
1385.436,2500.00
1386.331,2687.00
1387.227,2780.00
1388.124,2710.00
1389.019,2431.00
1389.914,2609.00
1390.809,2246.00
1391.704,3016.00
1392.601,2496.00
1393.495,2922.00
1394.390,2798.00
1395.285,2893.00
1396.179,2676.00
1397.075,2580.00
1397.969,2705.00
1398.864,2328.00
1399.758,2599.00
1400.652,2649.00
1401.547,2437.00
1402.441,2398.00
1403.335,2948.00
1404.229,2683.00
1405.122,2715.00
1406.017,2626.00
1406.911,2785.00
1407.804,3044.00
1408.697,2602.00
1409.590,2462.00
1410.485,2789.00
1411.378,2682.00
1412.271,2356.00
1413.163,2692.00
1414.056,2753.00
1414.949,3023.00
1415.843,2685.00
1416.735,2600.00
1417.627,2633.00
1418.520,2618.00
1419.412,2855.00
1420.306,2815.00
1421.197,2921.00
1422.089,2855.00
1422.981,3077.00
1423.873,2799.00
1424.764,2746.00
1425.657,2638.00
1426.549,2807.00
1427.440,2790.00
1428.331,2543.00
1429.222,2337.00
1430.113,2665.00
1431.006,2774.00
1431.897,2556.00
1432.787,2659.00
1433.678,2539.00
1434.568,2431.00
1435.459,2832.00
1436.351,2825.00
1437.241,2755.00
1438.131,2774.00
1439.021,2354.00
1439.911,2589.00
1440.801,2679.00
1441.693,2850.00
1442.583,2641.00
1443.472,2653.00
1444.362,2734.00
1445.251,2595.00
1446.140,2537.00
1447.030,2751.00
1447.921,2830.00
1448.810,2437.00
1449.699,3006.00
1450.588,2634.00
1451.476,2523.00
1452.365,2780.00
1453.254,2527.00
1454.144,2536.00
1455.032,2780.00
1455.921,2379.00
1456.809,2924.00
1457.697,2431.00
1458.585,2593.00
1459.473,2604.00
1460.361,2478.00
1461.251,2692.00
1462.138,2698.00
1463.026,2574.00
1463.913,2881.00
1464.801,2556.00
1465.688,2704.00
1466.575,2672.00
1467.463,3072.00
1468.351,2490.00
1469.238,2604.00
1470.125,2273.00
1471.012,2688.00
1471.899,2737.00
1472.785,2476.00
1473.672,2648.00
1474.558,2858.00
1475.446,2780.00
1476.333,2795.00
1477.219,2413.00
1478.105,2628.00
1478.991,2608.00
1479.877,2973.00
1480.762,2634.00
1481.648,2503.00
1482.534,2756.00
1483.419,2681.00
1484.307,2762.00
1485.192,2621.00
1486.077,2475.00
1486.962,2501.00
1487.847,2382.00
1488.732,2496.00
1489.617,2662.00
1490.502,2887.00
1491.387,2771.00
1492.271,2488.00
1493.156,2456.00
1494.042,2389.00
1494.927,2847.00
1495.811,2515.00
1496.695,2752.00
1497.579,2916.00
1498.463,2671.00
1499.347,2674.00
1500.231,2683.00
1501.114,2732.00
1501.998,2904.00
1502.881,2682.00
1503.765,2940.00
1504.648,3055.00
1505.533,2736.00
1506.417,2633.00
1507.300,2621.00
1508.183,2740.00
1509.066,2131.00
1509.948,2852.00
1510.831,2923.00
1511.714,2426.00
1512.596,2784.00
1513.479,2879.00
1514.361,2853.00
1515.243,2679.00
1516.125,2797.00
1517.008,2865.00
1517.890,2595.00
1518.771,2678.00
1519.655,2850.00
1520.537,2611.00
1521.419,2475.00
1522.300,2690.00
1523.182,2784.00
1524.063,2752.00
1524.944,2911.00
1525.825,2795.00
1526.707,2468.00
1527.588,2448.00
1528.468,2729.00
1529.349,2322.00
1530.230,2547.00
1531.111,2825.00
1531.991,2673.00
1532.872,2391.00
1533.752,2596.00
1534.632,2506.00
1535.513,2527.00
1536.393,2802.00
1537.273,2962.00
1538.153,3269.00
1539.032,2420.00
1539.912,2634.00
1540.792,2672.00
1541.672,2637.00
1542.551,2754.00
1543.430,3240.00
1544.310,2712.00
1545.189,2545.00
1546.068,3055.00
1546.947,2748.00
1547.826,2977.00
1548.705,2652.00
1549.584,2855.00
1550.462,2615.00
1551.341,2793.00
1552.219,2699.00
1553.098,2789.00
1553.976,2839.00
1554.854,3055.00
1555.733,2858.00
1556.611,2566.00
1557.489,2419.00
1558.367,2667.00
1559.244,2799.00
1560.122,2633.00
1561.000,2736.00
1561.877,2946.00
1562.755,2490.00
1563.632,2622.00
1564.509,2923.00
1565.386,3021.00
1566.264,2413.00
1567.141,2269.00
1568.017,2821.00
1568.894,2662.00
1569.771,2675.00
1570.648,2774.00
1571.524,2650.00
1572.401,2403.00
1573.277,2440.00
1574.153,2686.00
1575.029,2537.00
1575.906,3372.00
1576.781,2842.00
1577.657,2576.00
1578.533,2869.00
1579.409,2286.00
1580.285,2616.00
1581.160,3073.00
1582.036,2820.00
1582.911,2475.00
1583.786,3004.00
1584.662,2449.00
1585.537,2622.00
1586.412,2676.00
1587.287,2539.00
1588.160,2796.00
1589.035,2314.00
1589.909,2677.00
1590.784,2613.00
1591.658,2382.00
1592.533,2692.00
1593.407,2660.00
1594.281,2542.00
1595.155,3047.00
1596.029,2573.00
1596.903,2592.00
1597.777,2600.00
1598.651,2892.00
1599.525,2375.00
1600.398,2658.00
1601.272,2625.00
1602.144,3180.00
1603.017,2592.00
1603.890,2930.00
1604.763,2776.00
1605.636,2823.00
1606.509,2344.00
1607.382,2505.00
1608.255,2700.00
1609.128,2896.00
1610.000,2642.00
1610.873,2365.00
1611.746,2578.00
1612.616,2608.00
1613.488,2208.00
1614.361,2653.00
1615.233,2615.00
1616.105,2813.00
1616.977,2557.00
1617.849,2501.00
1618.720,2962.00
1619.592,2978.00
1620.464,2718.00
1621.333,3094.00
1622.205,2667.00
1623.076,2620.00
1623.947,2633.00
1624.818,2896.00
1625.689,2773.00
1626.560,2614.00
1627.431,2704.00
1628.302,3010.00
1629.171,2784.00
1630.042,2959.00
1630.912,3325.00
1631.782,3257.00
1632.653,2469.00
1633.523,2840.00
1634.393,2934.00
1635.263,2546.00
1636.131,2642.00
1637.001,2602.00
1637.871,2300.00
1638.741,2300.00
1639.611,2400.00
1640.480,2717.00
1641.350,2489.00
1642.219,2449.00
1643.087,2180.00
1643.956,3077.00
1644.825,2906.00
1645.694,2874.00
1646.563,2846.00
1647.432,2732.00
1648.299,2667.00
1649.167,2773.00
1650.036,2481.00
1650.904,2764.00
1651.773,2869.00
1652.641,2687.00
1653.509,2870.00
1654.376,2491.00
1655.244,2708.00
1656.112,2663.00
1656.980,2658.00
1657.847,2517.00
1658.715,2822.00
1659.581,2569.00
1660.448,2894.00
1661.316,2181.00
1662.183,2675.00
1663.051,2696.00
1663.918,2679.00
1664.783,2720.00
1665.650,2750.00
1666.517,2826.00
1667.384,2657.00
1668.251,2703.00
1669.115,2877.00
1669.982,2613.00
1670.849,2917.00
1671.715,2599.00
1672.581,2802.00
1673.446,2771.00
1674.312,2675.00
1675.178,3043.00
1676.044,2715.00
1676.910,2712.00
1677.774,2715.00
1678.639,2322.00
1679.505,2654.00
1680.370,2806.00
1681.236,3288.00
1682.099,2619.00
1682.965,2672.00
1683.830,2280.00
1684.695,2480.00
1685.560,2568.00
1686.423,2775.00
1687.288,2789.00
1688.153,2709.00
1689.017,2601.00
1689.880,2745.00
1690.745,2771.00
1691.609,2511.00
1692.473,2831.00
1693.338,2871.00
1694.200,2946.00
1695.064,2647.00
1695.928,2587.00
1696.792,2674.00
1697.654,3175.00
1698.517,2656.00
1699.381,2410.00
1700.245,2290.00
1701.106,2925.00
1701.969,2531.00
1702.833,2797.00
1703.696,2549.00
1704.557,2628.00
1705.420,2546.00
1706.283,2678.00
1707.146,2799.00
1708.007,2494.00
1708.870,2460.00
1709.732,2369.00
1710.595,2572.00
1711.455,2450.00
1712.318,2601.00
1713.180,2896.00
1714.040,2698.00
1714.902,2849.00
1715.764,2693.00
1716.626,2458.00
1717.486,2629.00
1718.348,2920.00
1719.209,4926.00
1720.071,2338.00
1720.930,2405.00
1721.792,2519.00
1722.653,2556.00
1723.512,2597.00
1724.374,2629.00
1725.234,2698.00
1726.095,2682.00
1726.954,2660.00
1727.815,2807.00
1728.676,2658.00
1729.535,2901.00
1730.395,2640.00
1731.256,2564.00
1732.114,2690.00
1732.974,2177.00
1733.834,3042.00
1734.693,2821.00
1735.553,2684.00
1736.413,3088.00
1737.272,2579.00
1738.130,2633.00
1738.990,2754.00
1739.849,2552.00
1740.707,3628.00
1741.566,2691.00
1742.426,2718.00
1743.283,3048.00
1744.142,2552.00
1745.001,2344.00
1745.858,2870.00
1746.717,2753.00
1747.576,2761.00
1748.433,2793.00
1749.292,3225.00
1750.150,3280.00
1751.007,2851.00
1751.865,2882.00
1752.723,2683.00
1753.579,2614.00
1754.438,2896.00
1755.296,2846.00
1756.152,2220.00
1757.010,2375.00
1757.865,2845.00
1758.723,2324.00
1759.581,2965.00
1760.436,2620.00
1761.294,3035.00
1762.151,2634.00
1763.006,2624.00
1763.864,2318.00
1764.721,2829.00
1765.576,2687.00
1766.433,2809.00
1767.288,2604.00
1768.144,2733.00
1769.001,2627.00
1769.856,2722.00
1770.712,2867.00
1771.568,2492.00
1772.423,2538.00
1773.279,2558.00
1774.133,2568.00
1774.989,3087.00
1775.845,3061.00
1776.699,2905.00
1777.555,2660.00
1778.409,3213.00
1779.265,2631.00
1780.120,2651.00
1780.974,2679.00
1781.829,2288.00
1782.682,2779.00
1783.538,2506.00
1784.393,2719.00
1785.246,2550.00
1786.101,2808.00
1786.954,2815.00
1787.808,2896.00
1788.661,2387.00
1789.516,2593.00
1790.370,2628.00
1791.223,2874.00
1792.077,2641.00
1792.930,2731.00
1793.784,2567.00
1794.636,2664.00
1795.490,2648.00
1796.344,2687.00
1797.196,2658.00
1798.049,2806.00
1798.901,2572.00
1799.755,2908.00
1800.606,2466.00
1801.460,3180.00
1802.311,2976.00
1803.165,3093.00
1804.018,2956.00
1804.869,2761.00
1805.722,3121.00
1806.573,2705.00
1807.426,2498.00
1808.276,2645.00
1809.129,2582.00
1809.980,2866.00
1810.832,2955.00
1811.683,2557.00
1812.535,2991.00
1813.385,2617.00
1814.237,2945.00
1815.089,2719.00
1815.940,2978.00
1816.791,2606.00
1817.641,2571.00
1818.493,2831.00
1819.343,2739.00
1820.194,2556.00
1821.044,2776.00
1821.895,2886.00
1822.745,2387.00
1823.596,2535.00
1824.445,3072.00
1825.296,2776.00
1826.145,2641.00
1826.996,2882.00
1827.845,2734.00
1828.695,2728.00
1829.544,2664.00
1830.395,2699.00
1831.243,2585.00
1832.094,2420.00
1832.942,3305.00
1833.792,2825.00
1834.640,2718.00
1835.490,2659.00
1836.338,2761.00
1837.186,2607.00
1838.036,2534.00
1838.884,2637.00
1839.733,3003.00
1840.581,2838.00
1841.430,2818.00
1842.278,3052.00
1843.127,2583.00
1843.974,2382.00
1844.823,3112.00
1845.671,2804.00
1846.519,2701.00
1847.366,2746.00
1848.213,2329.00
1849.062,2512.00
1849.909,2441.00
1850.757,3310.00
1851.604,2780.00
1852.452,2647.00
1853.298,2857.00
1854.146,2722.00
1854.993,2733.00
1855.839,3156.00
1856.687,2782.00
1857.532,2771.00
1858.380,2700.00
1859.226,2727.00
1860.073,2769.00
1860.919,2516.00
1861.765,2598.00
1862.612,2912.00
1863.457,2915.00
1864.304,2642.00
1865.150,2837.00
1865.995,2644.00
1866.842,2749.00
1867.686,2915.00
1868.533,2765.00
1869.378,2735.00
1870.223,2724.00
1871.069,2567.00
1871.914,2686.00
1872.760,2699.00
1873.604,2499.00
1874.448,2816.00
1875.294,2894.00
1876.139,2597.00
1876.984,2787.00
1877.828,2359.00
1878.672,2193.00
1879.518,2580.00
1880.361,2887.00
1881.205,2875.00
1882.050,2519.00
1882.894,3154.00
1883.739,2548.00
1884.582,2467.00
1885.425,2535.00
1886.270,2974.00
1887.113,2464.00
1887.956,2761.00
1888.801,2766.00
1889.644,2478.00
1890.486,2285.00
1891.331,2617.00
1892.173,2730.00
1893.017,2764.00
1893.860,2937.00
1894.702,2982.00
1895.546,2687.00
1896.388,3364.00
1897.230,3036.00
1898.074,2571.00
1898.916,2480.00
1899.757,2510.00
1900.601,3344.00
1901.443,2968.00
1902.284,2966.00
1903.125,3164.00
1903.969,2873.00
1904.810,2921.00
1905.651,2772.00
1906.494,2989.00
1907.335,3136.00
1908.176,2839.00
1909.018,2799.00
1909.859,2681.00
1910.700,2566.00
1911.542,3237.00
1912.383,2763.00
1913.223,2355.00
1914.064,2790.00
1914.906,2961.00
1915.746,3018.00
1916.586,3154.00
1917.428,2698.00
1918.268,2725.00
1919.107,2614.00
1919.947,2493.00
1920.789,2620.00
1921.628,2953.00
1922.468,2682.00
1923.309,2573.00
1924.148,3010.00
1924.988,2752.00
1925.827,2691.00
1926.667,2593.00
1927.507,2726.00
1928.345,2584.00
1929.184,2825.00
1930.025,2514.00
1930.864,2966.00
1931.702,3012.00
1932.541,2612.00
1933.381,2814.00
1934.219,2844.00
1935.057,2981.00
1935.896,2420.00
1936.735,2637.00
1937.573,2616.00
1938.411,2473.00
1939.249,2855.00
1940.089,2605.00
1940.927,2947.00
1941.764,2992.00
1942.602,2651.00
1943.439,2602.00
1944.278,2654.00
1945.115,2658.00
1945.953,2469.00
1946.790,2762.00
1947.628,3036.00
1948.465,2832.00
1949.302,2865.00
1950.139,2862.00
1950.976,2613.00
1951.814,2856.00
1952.651,2781.00
1953.487,2530.00
1954.323,2957.00
1955.160,2690.00
1955.998,3044.00
1956.834,2698.00
1957.670,2776.00
1958.506,2915.00
1959.342,2808.00
1960.177,2764.00
1961.015,2833.00
1961.850,2744.00
1962.686,2747.00
1963.521,2765.00
1964.357,2957.00
1965.192,2498.00
1966.029,2860.00
1966.864,2643.00
1967.699,2943.00
1968.534,2763.00
1969.369,2988.00
1970.204,2689.00
1971.040,2814.00
1971.875,2642.00
1972.709,2774.00
1973.544,2564.00
1974.378,2591.00
1975.212,2752.00
1976.047,2601.00
1976.882,2584.00
1977.716,3109.00
1978.550,2410.00
1979.384,2648.00
1980.218,2722.00
1981.052,2613.00
1981.885,2742.00
1982.719,2705.00
1983.554,2865.00
1984.388,2996.00
1985.221,2807.00
1986.054,2956.00
1986.887,2759.00
1987.720,2575.00
1988.553,2992.00
1989.386,2783.00
1990.219,2852.00
1991.053,2994.00
1991.886,2586.00
1992.719,2897.00
1993.551,2239.00
1994.383,2897.00
1995.216,2653.00
1996.048,2428.00
1996.880,2879.00
1997.712,2582.00
1998.544,2730.00
1999.376,2786.00
2000.208,2985.00
