RamanScope Measure Spectrum Data V3.72

<< MEASURE CONDITION >>
Exposure Type,Aver
Exposure Time [sec],15
Exposure Count,30
Measure Time,2023/07/12 19:13:06
Data Name,""
Data Comment,""
Rayleigh Wave[nm],532.0

<< SAMPLE SPECTRUM >>
Wave[dcm-1],No30
146.591,897.20
147.626,1031.90
148.664,1185.93
149.699,1368.63
150.737,1516.37
151.772,1663.73
152.809,1854.87
153.846,1966.97
154.881,2086.10
155.918,2158.13
156.953,2273.27
157.989,2327.43
159.026,2393.60
160.060,2479.80
161.096,2501.83
162.130,2560.23
163.167,2573.53
164.200,2671.83
165.236,2682.50
166.272,2730.43
167.305,2768.43
168.341,2803.53
169.374,2886.00
170.409,2934.60
171.445,2922.13
172.477,3009.67
173.512,3013.30
174.545,3074.00
175.580,3092.70
176.614,3096.60
177.647,3114.87
178.681,3096.23
179.713,3104.30
180.747,3076.43
181.781,3073.63
182.813,3098.77
183.847,3094.53
184.878,3081.70
185.912,3065.77
186.945,3112.10
187.976,3135.73
189.010,3126.10
190.043,3195.87
191.073,3173.30
192.106,3259.80
193.137,3253.77
194.170,3268.17
195.202,3328.07
196.232,3363.50
197.265,3423.57
198.297,3467.27
199.327,3540.60
200.359,3601.50
201.388,3662.03
202.420,3747.07
203.452,3856.43
204.481,3911.40
205.512,4054.37
206.544,4131.53
207.573,4305.90
208.604,4412.40
209.635,4563.00
210.663,4774.53
211.694,4870.23
212.725,5034.30
213.753,5188.47
214.783,5354.33
215.813,5469.30
216.841,5575.03
217.871,5627.73
218.899,5644.87
219.929,5612.27
220.959,5513.53
221.986,5426.30
223.016,5302.30
224.045,5175.27
225.072,5066.23
226.101,4857.20
227.130,4665.10
228.157,4572.70
229.185,4455.83
230.214,4334.43
231.241,4205.60
232.269,4140.90
233.297,4061.47
234.323,4027.93
235.351,3940.63
236.379,3928.07
237.407,3866.50
238.433,3871.87
239.460,3897.53
240.488,3817.50
241.513,3890.50
242.540,3876.17
243.568,3928.50
244.592,3946.10
245.619,3981.57
246.646,3959.43
247.671,3928.33
248.697,3925.40
249.724,3851.57
250.748,3851.30
251.774,3783.33
252.801,3795.47
253.827,3821.27
254.850,3852.57
255.876,3834.17
256.902,3866.20
257.925,3853.13
258.951,3882.03
259.976,3928.00
260.999,3950.03
262.024,3916.63
263.049,3979.37
264.074,4018.10
265.097,4098.10
266.122,4100.67
267.146,4129.87
268.168,4177.87
269.193,4222.63
270.217,4322.50
271.241,4277.90
272.263,4368.80
273.287,4418.57
274.311,4420.57
275.332,4471.57
276.356,4421.13
277.379,4448.17
278.402,4428.43
279.424,4472.20
280.447,4425.73
281.470,4380.47
282.492,4388.87
283.513,4263.73
284.536,4275.57
285.558,4199.20
286.581,4177.23
287.601,4038.27
288.623,3988.90
289.645,3909.27
290.665,3947.70
291.687,3857.30
292.709,3737.20
293.730,3706.63
294.750,3645.73
295.771,3621.10
296.792,3589.60
297.813,3497.13
298.832,3444.13
299.853,3413.97
300.874,3371.57
301.895,3343.87
302.913,3282.93
303.934,3233.20
304.954,3225.13
305.975,3480.27
306.993,3143.00
308.013,3105.40
309.033,3111.67
310.052,3110.10
311.072,3052.00
312.090,3026.23
313.109,3032.43
314.129,2946.43
315.148,2981.23
316.165,2946.67
317.184,2909.33
318.203,2914.17
319.222,2872.43
320.238,2863.00
321.257,2875.00
322.275,2862.70
323.294,2776.07
324.312,2800.80
325.328,2807.80
326.346,2779.57
327.364,2759.20
328.382,2816.73
329.397,2770.90
330.415,2772.67
331.432,2727.33
332.450,2766.37
333.467,2743.07
334.482,2728.40
335.499,2720.33
336.516,2726.27
337.533,2711.43
338.547,2673.10
339.564,2637.97
340.580,2651.13
341.597,2668.97
342.613,2653.57
343.627,2644.43
344.643,2632.67
345.659,2654.17
346.675,2650.43
347.690,2614.37
348.704,2632.30
349.719,2611.10
350.735,2616.03
351.750,2660.53
352.765,2631.97
353.778,2646.63
354.793,2578.10
355.808,2615.43
356.822,2592.97
357.837,2576.47
358.851,2634.97
359.864,2595.23
360.878,2657.47
361.892,2640.17
362.906,2596.13
363.920,2595.97
364.932,2651.47
365.945,2621.27
366.959,2626.40
367.972,2647.37
368.986,2627.77
369.999,2638.27
371.010,2651.20
372.023,2612.27
373.036,2669.90
374.049,2648.63
375.061,2634.97
376.072,2702.47
377.084,2724.70
378.097,2712.33
379.109,2712.10
380.121,2732.13
381.133,2738.03
382.143,2732.87
383.155,2703.07
384.166,2702.47
385.178,2721.97
386.189,2738.47
387.201,2747.23
388.212,2742.83
389.221,2731.17
390.232,2704.17
391.243,2744.83
392.254,2752.10
393.264,2763.80
394.275,2750.67
395.283,2749.37
396.294,2733.60
397.304,2738.47
398.314,2702.80
399.324,2716.30
400.334,2704.03
401.344,2666.80
402.351,2662.07
403.361,2656.03
404.370,2650.83
405.380,2685.07
406.389,2620.33
407.398,2605.97
408.407,2639.40
409.414,2579.40
410.423,2616.93
411.431,2541.73
412.440,2538.57
413.448,2575.63
414.457,2534.83
415.465,2478.00
416.471,2517.47
417.479,2494.20
418.487,2494.13
419.495,2523.00
420.503,2531.57
421.510,2487.80
422.518,2516.67
423.525,2488.43
424.530,2491.30
425.537,2504.70
426.544,2456.50
427.551,2460.37
428.558,2418.67
429.565,2492.60
430.571,2482.23
431.578,2440.73
432.582,2433.83
433.588,2447.43
434.595,2448.00
435.601,2482.63
436.607,2527.03
437.612,2441.17
438.618,2483.73
439.624,2453.53
440.627,2448.43
441.633,2452.33
442.638,2475.20
443.643,2423.90
444.648,2485.60
445.653,2454.63
446.658,2477.23
447.663,2444.20
448.667,2457.13
449.672,2467.00
450.674,2506.10
451.678,2475.37
452.682,2485.83
453.687,2493.90
454.690,2465.37
455.694,2528.67
456.698,2493.77
457.702,2521.93
458.705,2438.43
459.709,2531.70
460.710,2522.17
461.713,2506.53
462.716,2459.60
463.719,2531.10
464.722,2522.13
465.725,2548.70
466.727,2535.37
467.730,2554.20
468.732,2544.53
469.735,2562.37
470.737,2527.83
471.737,2551.97
472.739,2526.43
473.741,2546.97
474.742,2568.43
475.744,2579.80
476.746,2531.47
477.747,2566.00
478.748,2532.77
479.750,2562.50
480.751,2583.80
481.752,2617.13
482.753,2568.63
483.751,2527.57
484.752,2544.30
485.753,2586.53
486.753,2611.50
487.753,2580.70
488.754,2584.17
489.754,2571.90
490.754,2571.07
491.754,2573.67
492.754,2562.97
493.753,2536.27
494.753,2559.03
495.752,2568.33
496.752,2556.37
497.749,2547.33
498.748,2548.43
499.747,2541.73
500.746,2541.00
501.745,2560.77
502.744,2538.47
503.742,2530.97
504.741,2514.67
505.739,2522.53
506.737,2507.63
507.735,2466.23
508.734,2511.63
509.732,2524.40
510.729,2472.37
511.727,2485.07
512.725,2484.43
513.720,2482.47
514.718,2445.83
515.715,2456.90
516.712,2436.93
517.709,2455.07
518.706,2467.43
519.703,2443.03
520.700,2439.53
521.696,2425.00
522.693,2450.50
523.689,2464.83
524.686,2461.33
525.682,2473.90
526.678,2454.20
527.674,2493.20
528.670,2510.13
529.666,2502.47
530.661,2462.13
531.657,2486.30
532.652,2512.50
533.648,2505.83
534.641,2474.43
535.636,2473.53
536.631,2509.23
537.626,2497.40
538.621,2538.53
539.616,2527.87
540.610,2490.50
541.605,2535.60
542.599,2534.13
543.593,2514.93
544.587,2493.50
545.581,2498.93
546.575,2454.13
547.569,2481.20
548.563,2512.10
549.557,2514.40
550.550,2503.90
551.543,2453.23
552.537,2501.73
553.530,2504.57
554.523,2505.90
555.516,2463.13
556.509,2477.53
557.502,2449.40
558.494,2510.50
559.487,2476.17
560.479,2506.27
561.472,2447.33
562.464,2523.50
563.456,2482.33
564.448,2504.00
565.440,2457.53
566.432,2491.27
567.423,2485.00
568.415,2519.53
569.404,2515.63
570.396,2456.00
571.387,2500.27
572.378,2500.97
573.369,2509.30
574.360,2485.00
575.351,2562.40
576.341,2517.00
577.332,2537.27
578.323,2513.63
579.313,2580.90
580.303,2569.40
581.293,2549.77
582.283,2589.63
583.273,2560.23
584.263,2534.07
585.253,2592.17
586.243,2570.30
587.232,2586.97
588.222,2597.97
589.211,2605.63
590.200,2565.57
591.189,2578.50
592.178,2615.23
593.167,2566.57
594.156,2586.67
595.145,2619.17
596.133,2627.57
597.122,2610.90
598.110,2544.93
599.098,2571.97
600.086,2591.23
601.074,2621.27
602.062,2623.03
603.050,2591.67
604.038,2592.70
605.025,2615.23
606.013,2642.37
607.000,2595.40
607.987,2593.60
608.975,2574.10
609.962,2597.50
610.949,2559.23
611.936,2587.67
612.922,2565.87
613.909,2491.67
614.895,2503.10
615.882,2555.50
616.868,2528.97
617.854,2513.87
618.841,2492.63
619.826,2445.00
620.812,2438.23
621.798,2446.47
622.784,2443.20
623.769,2390.67
624.755,2369.97
625.740,2365.73
626.725,2374.77
627.711,2342.43
628.698,2299.17
629.683,2269.53
630.667,2268.67
631.652,2292.23
632.637,2257.13
633.621,2261.63
634.606,2241.73
635.590,2231.57
636.574,2217.23
637.558,2208.53
638.542,2193.97
639.526,2185.00
640.510,2164.90
641.493,2137.80
642.477,2171.80
643.460,2160.73
644.444,2183.80
645.427,2129.10
646.410,2150.27
647.393,2118.20
648.376,2099.90
649.359,2083.23
650.341,2065.40
651.324,2101.53
652.307,2067.80
653.289,2081.63
654.271,2044.67
655.253,1991.93
656.235,2003.73
657.217,2023.87
658.199,2045.37
659.181,2021.00
660.163,2034.17
661.144,1969.33
662.126,2002.73
663.107,2024.60
664.088,2025.07
665.069,1984.03
666.050,1987.47
667.033,1985.73
668.014,1972.97
668.995,1941.87
669.975,1963.83
670.956,1989.23
671.936,1960.13
672.916,1940.27
673.896,1920.53
674.876,1905.47
675.856,1881.40
676.836,1854.53
677.816,1880.70
678.795,1861.07
679.775,1852.13
680.754,1857.37
681.734,1846.67
682.713,1810.50
683.692,1773.17
684.671,1799.23
685.650,1771.77
686.629,1748.03
687.607,1780.43
688.586,1785.57
689.564,1766.20
690.543,1721.63
691.523,1724.30
692.501,1707.03
693.479,1751.77
694.457,1714.20
695.435,1707.27
696.413,1677.77
697.390,1648.73
698.368,1683.67
699.345,1682.37
700.322,1686.13
701.300,1652.00
702.277,1642.53
703.254,1661.60
704.231,1637.80
705.207,1640.63
706.184,1635.27
707.161,1600.10
708.137,1598.80
709.113,1613.83
710.090,1628.80
711.068,1585.37
712.044,1580.13
713.020,1585.77
713.996,1621.10
714.971,1562.77
715.947,1596.73
716.922,1561.40
717.898,1551.40
718.873,1510.00
719.848,1567.20
720.823,1544.10
721.798,1539.80
722.773,1544.67
723.748,1530.60
724.723,1526.53
725.697,1553.40
726.672,1496.93
727.646,1520.53
728.622,1557.27
729.596,1499.37
730.570,1525.33
731.544,1478.17
732.518,1473.83
733.492,1467.77
734.466,1426.97
735.439,1453.40
736.413,1477.17
737.386,1486.00
738.359,1462.43
739.332,1483.00
740.305,1475.07
741.278,1482.97
742.251,1478.87
743.224,1442.60
744.196,1487.30
745.171,1444.03
746.143,1475.87
747.115,1471.63
748.087,1444.77
749.059,1413.80
750.031,1418.57
751.003,1430.17
751.975,1424.87
752.947,1478.17
753.918,1426.67
754.890,1441.00
755.861,1426.87
756.832,1394.77
757.803,1384.10
758.774,1419.90
759.747,1355.50
760.718,1356.00
761.689,1369.43
762.659,1398.67
763.630,1395.40
764.600,1374.17
765.570,1375.23
766.540,1345.47
767.510,1377.57
768.480,1373.67
769.450,1358.10
770.420,1337.17
771.390,1358.17
772.359,1339.20
773.329,1355.63
774.300,1355.47
775.269,1335.70
776.238,1268.17
777.207,1340.30
778.176,1359.77
779.145,1321.77
780.114,1343.90
781.083,1312.13
782.051,1321.07
783.019,1289.67
783.988,1301.43
784.956,1315.07
785.924,1303.70
786.894,1279.23
787.862,1250.27
788.830,1313.60
789.797,1264.47
790.765,1266.73
791.732,1264.23
792.700,1265.07
793.667,1256.63
794.634,1263.07
795.601,1292.43
796.568,1268.50
797.535,1248.83
798.502,1242.57
799.468,1247.13
800.437,1247.60
801.403,1210.00
802.370,1229.30
803.336,1222.17
804.302,1241.10
805.268,1227.63
806.234,1229.97
807.200,1194.43
808.166,1203.80
809.131,1268.63
810.097,1248.00
811.062,1182.90
812.027,1211.83
812.994,1215.80
813.960,1200.03
814.925,1197.77
815.889,1216.63
816.854,1202.83
817.819,1198.13
818.783,1209.23
819.748,1231.67
820.712,1220.97
821.677,1206.60
822.641,1195.17
823.605,1233.57
824.571,1252.60
825.534,1206.63
826.498,1193.13
827.462,1214.03
828.425,1206.87
829.389,1176.03
830.352,1226.93
831.315,1199.90
832.279,1198.77
833.242,1234.37
834.204,1190.57
835.167,1220.47
836.132,1174.33
837.095,1274.23
838.057,1194.63
839.020,1195.10
839.982,1243.80
840.944,1226.33
841.906,1219.97
842.868,1190.97
843.830,1235.87
844.792,1196.80
845.753,1213.17
846.715,1214.57
847.679,1243.97
848.640,1177.23
849.601,1151.27
850.562,1215.97
851.523,1227.47
852.484,1187.87
853.445,1226.33
854.406,1227.00
855.367,1193.90
856.327,1213.30
857.288,1214.37
858.248,1218.73
859.210,1208.97
860.170,1228.77
861.130,1205.17
862.090,1199.87
863.050,1229.53
864.010,1205.57
864.969,1220.07
865.929,1244.83
866.888,1216.00
867.848,1232.40
868.807,1193.90
869.766,1181.77
870.727,1187.43
871.686,1197.40
872.645,1203.00
873.604,1231.10
874.562,1217.57
875.521,1223.07
876.479,1165.97
877.437,1232.90
878.396,1190.67
879.354,1202.27
880.312,1176.93
881.270,1194.63
882.229,1183.47
883.187,1175.30
884.145,1210.07
885.102,1249.03
886.059,1202.10
887.017,1208.27
887.974,1212.87
888.931,1178.97
889.888,1212.23
890.845,1213.33
891.802,1195.10
892.758,1183.33
893.717,1218.63
894.673,1180.27
895.630,1230.40
896.586,1172.90
897.542,1207.17
898.498,1217.70
899.454,1209.43
900.410,1185.20
901.366,1160.27
902.321,1193.90
903.277,1225.27
904.232,1179.47
905.189,1182.93
906.145,1182.93
907.100,1172.83
908.055,1173.40
909.010,1181.97
909.965,1205.53
910.919,1190.73
911.874,1204.90
912.828,1224.30
913.783,1238.30
914.737,1186.57
915.693,1191.73
916.648,1192.50
917.602,1242.40
918.555,1203.73
919.509,1193.50
920.463,1182.17
921.417,1200.83
922.370,1186.67
923.324,1193.80
924.277,1179.77
925.230,1210.60
926.183,1182.30
927.138,1204.90
928.091,1230.47
929.044,1195.30
929.996,1194.17
930.949,1177.43
931.902,1228.23
932.854,1161.93
933.806,1192.17
934.758,1194.63
935.711,1200.17
936.663,1206.00
937.614,1175.87
938.568,1168.47
939.520,1157.20
940.471,1197.77
941.423,1189.87
942.374,1176.20
943.326,1142.67
944.277,1182.63
945.228,1149.37
946.179,1185.67
947.130,1182.30
948.080,1174.47
949.031,1207.47
949.984,1183.60
950.934,1175.50
951.884,1224.80
952.835,1197.70
953.785,1198.40
954.735,1154.17
955.685,1145.27
956.635,1195.73
957.585,1177.07
958.534,1174.23
959.484,1192.90
960.433,1193.20
961.383,1170.70
962.334,1181.03
963.283,1170.07
964.232,1187.47
965.181,1177.17
966.130,1194.53
967.079,1164.00
968.027,1158.20
968.976,1164.03
969.924,1174.13
970.873,1167.77
971.821,1155.83
972.769,1208.93
973.719,1166.83
974.667,1221.00
975.615,1180.47
976.562,1176.67
977.510,1173.00
978.458,1201.70
979.405,1159.00
980.352,1157.27
981.300,1173.77
982.247,1163.63
983.194,1146.10
984.141,1150.97
985.088,1140.87
986.036,1121.13
986.983,1173.37
987.930,1173.27
988.876,1138.50
989.822,1128.10
990.769,1190.93
991.715,1150.03
992.661,1217.80
993.607,1176.27
994.553,1147.00
995.498,1098.10
996.444,1128.40
997.389,1154.97
998.337,1187.03
999.282,1150.67
1000.227,1139.63
1001.173,1176.90
1002.118,1171.30
1003.062,1126.03
1004.007,1163.70
1004.952,1181.07
1005.897,1146.07
1006.841,1156.00
1007.786,1126.43
1008.730,1157.27
1009.674,1143.40
1010.618,1158.93
1011.564,1146.67
1012.508,1160.90
1013.452,1187.57
1014.396,1155.93
1015.339,1130.20
1016.283,1184.17
1017.226,1174.87
1018.170,1153.07
1019.113,1167.73
1020.056,1149.47
1020.999,1197.23
1021.942,1168.63
1022.885,1168.60
1023.828,1197.07
1024.770,1179.80
1025.715,1207.70
1026.657,1144.97
1027.600,1183.50
1028.542,1131.83
1029.484,1172.63
1030.426,1159.70
1031.368,1184.27
1032.310,1164.57
1033.251,1133.30
1034.193,1164.73
1035.135,1187.37
1036.076,1167.93
1037.017,1193.03
1037.959,1195.77
1038.900,1162.73
1039.843,1188.80
1040.784,1208.50
1041.725,1193.53
1042.665,1220.40
1043.606,1215.10
1044.547,1213.37
1045.487,1180.17
1046.427,1223.23
1047.368,1191.77
1048.308,1214.97
1049.248,1194.80
1050.188,1211.33
1051.128,1246.87
1052.067,1239.90
1053.007,1205.70
1053.947,1201.77
1054.886,1246.43
1055.827,1220.27
1056.766,1223.60
1057.706,1221.63
1058.645,1198.83
1059.584,1242.33
1060.522,1238.40
1061.461,1259.60
1062.400,1231.07
1063.338,1247.80
1064.277,1242.37
1065.215,1222.13
1066.154,1256.60
1067.092,1245.53
1068.030,1292.77
1068.968,1258.43
1069.906,1235.37
1070.843,1241.53
1071.781,1242.20
1072.720,1220.43
1073.658,1247.87
1074.595,1267.07
1075.533,1293.93
1076.470,1262.63
1077.407,1263.03
1078.344,1250.17
1079.281,1268.17
1080.217,1272.83
1081.154,1278.27
1082.091,1268.80
1083.027,1276.63
1083.964,1307.07
1084.900,1261.13
1085.836,1289.23
1086.772,1272.33
1087.708,1253.63
1088.644,1271.77
1089.580,1262.20
1090.515,1274.23
1091.451,1258.13
1092.388,1277.03
1093.324,1275.20
1094.259,1255.87
1095.194,1238.17
1096.129,1249.30
1097.064,1270.60
1097.999,1235.43
1098.934,1239.43
1099.869,1221.57
1100.803,1235.60
1101.738,1187.87
1102.672,1221.13
1103.607,1194.30
1104.541,1200.47
1105.475,1208.00
1106.409,1208.20
1107.343,1199.67
1108.277,1168.67
1109.210,1177.10
1110.144,1176.40
1111.078,1171.57
1112.011,1131.13
1112.944,1210.13
1113.878,1181.47
1114.811,1184.73
1115.744,1158.43
1116.678,1159.67
1117.611,1107.53
1118.544,1125.73
1119.477,1101.10
1120.409,1107.80
1121.342,1144.37
1122.274,1129.27
1123.206,1111.10
1124.138,1106.57
1125.070,1123.60
1126.002,1086.83
1126.934,1072.80
1127.866,1099.07
1128.798,1083.23
1129.729,1050.80
1130.661,1073.20
1131.592,1065.30
1132.523,1082.17
1133.454,1067.47
1134.385,1055.47
1135.317,1033.63
1136.247,1024.00
1137.178,1017.20
1138.109,1043.17
1139.039,1041.43
1139.970,1023.67
1140.900,970.37
1141.831,1008.17
1142.761,1009.10
1143.691,708.03
1144.621,1022.67
1145.551,1012.30
1146.480,1036.27
1147.410,1023.23
1148.340,1022.97
1149.269,988.57
1150.199,1012.23
1151.128,968.50
1152.057,1000.80
1152.979,980.90
1153.898,973.70
1154.819,1012.97
1155.739,964.60
1156.658,996.63
1157.579,1016.10
1158.498,995.37
1159.419,971.43
1160.338,987.70
1161.256,997.07
1162.177,1015.13
1163.095,957.77
1164.016,947.70
1164.934,973.63
1165.852,984.07
1166.772,949.13
1167.690,984.10
1168.610,986.90
1169.528,971.73
1170.446,957.73
1171.365,943.87
1172.283,941.17
1173.202,920.43
1174.120,935.97
1175.037,953.97
1175.956,950.60
1176.873,940.40
1177.792,931.33
1178.709,961.07
1179.626,954.63
1180.544,960.90
1181.461,971.23
1182.379,908.87
1183.296,955.87
1184.212,973.50
1185.130,956.07
1186.046,941.97
1186.962,952.27
1187.880,908.37
1188.796,936.17
1189.714,908.27
1190.629,946.47
1191.545,933.80
1192.462,939.27
1193.378,925.80
1194.295,937.13
1195.210,933.30
1196.125,958.43
1197.042,960.70
1197.957,929.20
1198.872,953.43
1199.788,949.17
1200.703,922.47
1201.619,919.70
1202.534,943.00
1203.448,943.97
1204.364,963.07
1205.278,943.87
1206.192,985.63
1207.108,926.50
1208.022,913.80
1208.938,938.60
1209.851,931.03
1210.765,940.57
1211.680,914.30
1212.594,899.10
1213.507,951.63
1214.422,922.30
1215.335,961.37
1216.248,942.83
1217.163,945.97
1218.076,929.07
1218.990,942.07
1219.903,957.00
1220.816,941.27
1221.730,913.03
1222.642,928.97
1223.554,947.60
1224.469,934.93
1225.380,941.97
1226.292,937.23
1227.206,945.93
1228.118,956.50
1229.032,955.67
1229.943,953.63
1230.855,916.83
1231.768,971.87
1232.679,975.33
1233.590,948.67
1234.503,955.10
1235.414,954.37
1236.325,962.97
1237.238,974.00
1238.149,972.00
1239.059,962.00
1239.972,997.70
1240.882,941.80
1241.793,1001.47
1242.705,989.97
1243.615,970.33
1244.525,968.83
1245.437,980.33
1246.347,967.80
1247.259,1010.70
1248.168,999.63
1249.078,950.30
1249.989,1004.90
1250.899,1010.73
1251.808,1007.30
1252.719,1016.47
1253.628,984.10
1254.537,1013.50
1255.448,978.80
1256.357,956.70
1257.266,1003.07
1258.176,993.77
1259.085,983.40
1259.993,963.13
1260.904,990.37
1261.812,997.60
1262.720,1015.63
1263.630,977.10
1264.538,987.27
1265.446,985.47
1266.356,1010.63
1267.263,970.43
1268.171,1002.47
1269.080,996.30
1269.988,989.20
1270.895,1013.63
1271.804,1006.47
1272.711,972.23
1273.619,978.50
1274.527,990.17
1275.434,989.23
1276.341,1011.67
1277.248,1034.40
1278.156,1035.90
1279.063,1008.43
1279.969,1016.20
1280.877,982.53
1281.783,992.83
1282.690,1004.27
1283.598,1012.17
1284.503,962.70
1285.409,1005.70
1286.317,969.73
1287.223,991.30
1288.128,1025.77
1289.036,958.63
1289.941,1017.80
1290.846,981.70
1291.751,1006.67
1292.658,977.73
1293.563,1000.60
1294.468,975.27
1295.375,1024.23
1296.280,987.97
1297.184,981.23
1298.091,977.93
1298.995,992.37
1299.900,1013.23
1300.806,1015.03
1301.710,929.20
1302.614,991.63
1303.518,955.10
1304.424,963.57
1305.327,914.97
1306.231,950.40
1307.137,944.20
1308.040,970.87
1308.943,959.47
1309.847,970.77
1310.752,995.50
1311.655,950.83
1312.558,946.23
1313.463,896.33
1314.366,924.23
1315.269,904.97
1316.171,935.27
1317.076,939.97
1317.978,947.20
1318.881,915.97
1319.785,878.00
1320.687,867.93
1321.589,886.47
1322.491,905.97
1323.395,886.50
1324.297,899.27
1325.198,863.07
1326.102,871.40
1327.004,895.83
1327.905,881.10
1328.806,896.40
1329.709,851.90
1330.611,885.30
1331.512,899.80
1332.413,873.20
1333.316,854.73
1334.216,861.97
1335.117,868.50
1336.020,832.80
1336.920,865.33
1337.821,860.07
1338.721,849.00
1339.623,851.97
1340.523,811.67
1341.423,838.43
1342.323,841.37
1343.225,805.67
1344.125,830.43
1345.025,854.67
1345.924,840.10
1346.826,855.43
1347.725,765.00
1348.624,826.70
1349.524,799.27
1350.425,782.43
1351.324,783.23
1352.223,820.37
1353.121,829.73
1354.022,800.70
1354.921,800.57
1355.819,774.53
1356.718,792.40
1357.618,781.20
1358.516,795.80
1359.415,789.33
1360.313,775.73
1361.213,796.27
1362.111,728.03
1363.008,759.20
1363.906,761.70
1364.806,755.60
1365.703,793.60
1366.601,760.47
1367.498,759.00
1368.397,733.77
1369.295,720.50
1370.192,720.20
1371.089,805.47
1371.987,767.10
1372.884,720.83
1373.781,697.10
1374.678,771.20
1375.574,735.77
1376.473,721.00
1377.369,739.03
1378.265,727.90
1379.161,745.80
1380.059,708.10
1380.955,709.57
1381.851,717.07
1382.747,691.63
1383.643,755.50
1384.540,728.23
1385.436,783.70
1386.331,722.47
1387.227,696.77
1388.124,718.43
1389.019,724.73
1389.914,712.57
1390.809,713.47
1391.704,688.83
1392.601,700.63
1393.495,696.40
1394.390,715.20
1395.285,666.80
1396.179,684.30
1397.075,683.60
1397.969,674.17
1398.864,703.77
1399.758,714.17
1400.652,682.67
1401.547,685.90
1402.441,643.20
1403.335,715.90
1404.229,726.70
1405.122,697.17
1406.017,702.80
1406.911,677.07
1407.804,679.53
1408.697,667.13
1409.590,668.23
1410.485,664.63
1411.378,655.60
1412.271,663.80
1413.163,668.63
1414.056,689.63
1414.949,676.10
1415.843,679.63
1416.735,663.43
1417.627,678.37
1418.520,676.73
1419.412,678.37
1420.306,710.40
1421.197,702.23
1422.089,666.27
1422.981,626.80
1423.873,652.87
1424.764,664.87
1425.657,674.50
1426.549,675.70
1427.440,671.77
1428.331,629.50
1429.222,638.83
1430.113,665.50
1431.006,643.70
1431.897,633.07
1432.787,640.93
1433.678,646.90
1434.568,675.40
1435.459,666.37
1436.351,659.13
1437.241,655.57
1438.131,671.13
1439.021,602.30
1439.911,628.53
1440.801,625.87
1441.693,647.33
1442.583,617.80
1443.472,641.37
1444.362,652.67
1445.251,620.20
1446.140,656.30
1447.030,614.47
1447.921,659.03
1448.810,622.27
1449.699,678.03
1450.588,656.20
1451.476,623.90
1452.365,644.73
1453.254,613.77
1454.144,613.57
1455.032,619.93
1455.921,634.27
1456.809,613.57
1457.697,567.50
1458.585,596.27
1459.473,615.20
1460.361,584.43
1461.251,620.43
1462.138,598.40
1463.026,613.43
1463.913,612.63
1464.801,601.40
1465.688,629.80
1466.575,617.83
1467.463,577.93
1468.351,631.70
1469.238,621.50
1470.125,612.63
1471.012,585.17
1471.899,594.73
1472.785,628.03
1473.672,595.27
1474.558,587.47
1475.446,639.80
1476.333,606.83
1477.219,599.87
1478.105,629.40
1478.991,607.27
1479.877,589.03
1480.762,580.53
1481.648,555.07
1482.534,571.20
1483.419,595.77
1484.307,569.33
1485.192,616.30
1486.077,570.80
1486.962,584.53
1487.847,593.43
1488.732,630.03
1489.617,608.13
1490.502,563.20
1491.387,600.53
1492.271,579.97
1493.156,573.43
1494.042,590.47
1494.927,576.13
1495.811,543.03
1496.695,564.53
1497.579,567.33
1498.463,581.53
1499.347,559.67
1500.231,591.73
1501.114,580.53
1501.998,575.57
1502.881,621.53
1503.765,569.80
1504.648,625.17
1505.533,571.03
1506.417,561.07
1507.300,573.87
1508.183,590.37
1509.066,563.07
1509.948,621.30
1510.831,605.53
1511.714,591.40
1512.596,549.57
1513.479,569.53
1514.361,564.23
1515.243,589.47
1516.125,561.13
1517.008,555.43
1517.890,570.57
1518.771,570.80
1519.655,585.90
1520.537,548.17
1521.419,549.20
1522.300,568.43
1523.182,532.30
1524.063,551.77
1524.944,538.70
1525.825,540.37
1526.707,563.20
1527.588,538.93
1528.468,569.63
1529.349,557.67
1530.230,527.23
1531.111,565.50
1531.991,586.63
1532.872,572.30
1533.752,548.10
1534.632,512.93
1535.513,564.37
1536.393,558.67
1537.273,543.13
1538.153,528.10
1539.032,548.57
1539.912,553.23
1540.792,568.97
1541.672,497.00
1542.551,527.93
1543.430,554.70
1544.310,530.83
1545.189,572.90
1546.068,516.07
1546.947,550.20
1547.826,554.33
1548.705,538.13
1549.584,537.33
1550.462,563.37
1551.341,551.40
1552.219,540.37
1553.098,535.67
1553.976,543.10
1554.854,543.33
1555.733,542.97
1556.611,546.23
1557.489,542.50
1558.367,513.10
1559.244,557.10
1560.122,544.33
1561.000,581.20
1561.877,535.33
1562.755,539.97
1563.632,520.20
1564.509,516.00
1565.386,507.33
1566.264,530.50
1567.141,513.30
1568.017,525.53
1568.894,516.50
1569.771,490.03
1570.648,495.80
1571.524,499.23
1572.401,503.87
1573.277,532.87
1574.153,524.60
1575.029,533.13
1575.906,531.17
1576.781,529.27
1577.657,549.43
1578.533,506.13
1579.409,567.43
1580.285,524.00
1581.160,571.97
1582.036,527.63
1582.911,467.00
1583.786,527.17
1584.662,494.13
1585.537,525.53
1586.412,528.70
1587.287,500.00
1588.160,531.03
1589.035,551.60
1589.909,510.47
1590.784,532.60
1591.658,489.03
1592.533,535.13
1593.407,535.03
1594.281,517.10
1595.155,517.00
1596.029,522.23
1596.903,508.23
1597.777,518.17
1598.651,506.43
1599.525,501.13
1600.398,477.50
1601.272,486.33
1602.144,488.47
1603.017,514.80
1603.890,531.63
1604.763,491.93
1605.636,488.37
1606.509,522.43
1607.382,495.53
1608.255,506.40
1609.128,485.23
1610.000,502.43
1610.873,503.60
1611.746,484.97
1612.616,487.57
1613.488,472.03
1614.361,512.17
1615.233,505.93
1616.105,488.87
1616.977,497.50
1617.849,477.77
1618.720,518.63
1619.592,495.13
1620.464,464.40
1621.333,489.97
1622.205,480.70
1623.076,480.13
1623.947,478.30
1624.818,522.77
1625.689,477.83
1626.560,450.63
1627.431,507.20
1628.302,493.27
1629.171,503.63
1630.042,489.33
1630.912,490.17
1631.782,507.73
1632.653,496.20
1633.523,526.73
1634.393,506.43
1635.263,514.83
1636.131,482.23
1637.001,501.23
1637.871,508.90
1638.741,493.33
1639.611,519.47
1640.480,493.00
1641.350,485.27
1642.219,488.07
1643.087,489.83
1643.956,496.23
1644.825,481.93
1645.694,464.67
1646.563,490.87
1647.432,486.43
1648.299,512.17
1649.167,480.47
1650.036,506.43
1650.904,431.07
1651.773,482.33
1652.641,464.47
1653.509,474.73
1654.376,499.80
1655.244,458.27
1656.112,488.23
1656.980,465.70
1657.847,477.90
1658.715,465.00
1659.581,482.47
1660.448,499.77
1661.316,467.47
1662.183,530.93
1663.051,476.10
1663.918,469.60
1664.783,460.17
1665.650,455.53
1666.517,428.40
1667.384,442.63
1668.251,489.00
1669.115,468.83
1669.982,485.60
1670.849,464.87
1671.715,482.47
1672.581,473.40
1673.446,472.07
1674.312,460.73
1675.178,489.20
1676.044,453.87
1676.910,477.20
1677.774,475.03
1678.639,480.50
1679.505,478.57
1680.370,474.57
1681.236,449.70
1682.099,467.13
1682.965,424.50
1683.830,471.57
1684.695,464.70
1685.560,476.43
1686.423,443.67
1687.288,474.57
1688.153,464.90
1689.017,459.97
1689.880,454.23
1690.745,459.13
1691.609,479.43
1692.473,439.50
1693.338,464.93
1694.200,485.10
1695.064,476.10
1695.928,484.00
1696.792,406.77
1697.654,483.23
1698.517,474.60
1699.381,479.47
1700.245,455.40
1701.106,470.37
1701.969,444.77
1702.833,446.70
1703.696,448.90
1704.557,469.00
1705.420,449.07
1706.283,463.33
1707.146,454.43
1708.007,465.20
1708.870,445.83
1709.732,439.47
1710.595,450.57
1711.455,473.07
1712.318,477.27
1713.180,491.53
1714.040,415.43
1714.902,435.27
1715.764,406.63
1716.626,480.93
1717.486,414.67
1718.348,433.87
1719.209,940.70
1720.071,408.27
1720.930,475.53
1721.792,450.70
1722.653,454.57
1723.512,453.63
1724.374,437.60
1725.234,474.73
1726.095,464.30
1726.954,456.93
1727.815,438.53
1728.676,493.07
1729.535,462.33
1730.395,453.90
1731.256,443.27
1732.114,447.70
1732.974,422.10
1733.834,451.60
1734.693,460.77
1735.553,458.27
1736.413,489.53
1737.272,438.87
1738.130,457.93
1738.990,455.67
1739.849,452.40
1740.707,425.03
1741.566,472.47
1742.426,468.67
1743.283,465.27
1744.142,420.57
1745.001,468.77
1745.858,415.00
1746.717,418.57
1747.576,468.60
1748.433,471.87
1749.292,459.97
1750.150,452.73
1751.007,446.33
1751.865,415.53
1752.723,444.00
1753.579,452.10
1754.438,436.10
1755.296,474.67
1756.152,419.40
1757.010,411.17
1757.865,466.80
1758.723,444.27
1759.581,457.83
1760.436,435.60
1761.294,418.60
1762.151,431.60
1763.006,461.53
1763.864,398.00
1764.721,419.73
1765.576,462.97
1766.433,450.57
1767.288,462.13
1768.144,425.87
1769.001,420.77
1769.856,426.40
1770.712,438.77
1771.568,458.23
1772.423,435.20
1773.279,445.37
1774.133,438.57
1774.989,413.37
1775.845,411.60
1776.699,423.37
1777.555,439.97
1778.409,437.23
1779.265,420.37
1780.120,447.63
1780.974,452.20
1781.829,428.17
1782.682,408.50
1783.538,430.73
1784.393,419.90
1785.246,471.97
1786.101,443.33
1786.954,438.73
1787.808,429.73
1788.661,402.20
1789.516,454.27
1790.370,426.57
1791.223,432.47
1792.077,434.30
1792.930,410.40
1793.784,396.67
1794.636,377.93
1795.490,429.83
1796.344,442.03
1797.196,408.60
1798.049,449.73
1798.901,400.60
1799.755,436.30
1800.606,403.90
1801.460,467.63
1802.311,436.50
1803.165,435.73
1804.018,433.27
1804.869,460.37
1805.722,433.97
1806.573,395.70
1807.426,423.97
1808.276,387.23
1809.129,429.57
1809.980,413.30
1810.832,425.10
1811.683,417.93
1812.535,426.43
1813.385,414.67
1814.237,409.67
1815.089,419.23
1815.940,413.73
1816.791,421.57
1817.641,414.20
1818.493,445.47
1819.343,444.17
1820.194,424.73
1821.044,433.50
1821.895,438.13
1822.745,419.63
1823.596,407.73
1824.445,432.87
1825.296,443.03
1826.145,402.10
1826.996,400.70
1827.845,401.80
1828.695,413.80
1829.544,414.67
1830.395,366.37
1831.243,436.57
1832.094,397.03
1832.942,446.83
1833.792,416.80
1834.640,414.90
1835.490,425.97
1836.338,405.03
1837.186,426.03
1838.036,407.20
1838.884,410.50
1839.733,391.57
1840.581,441.50
1841.430,377.90
1842.278,420.47
1843.127,419.03
1843.974,436.13
1844.823,381.93
1845.671,390.50
1846.519,383.37
1847.366,406.83
1848.213,403.60
1849.062,406.70
1849.909,396.37
1850.757,414.73
1851.604,369.87
1852.452,401.87
1853.298,429.50
1854.146,379.17
1854.993,391.73
1855.839,417.40
1856.687,392.60
1857.532,460.23
1858.380,417.77
1859.226,393.20
1860.073,383.13
1860.919,414.87
1861.765,421.17
1862.612,394.83
1863.457,362.07
1864.304,403.20
1865.150,424.30
1865.995,422.67
1866.842,359.23
1867.686,434.07
1868.533,400.17
1869.378,444.30
1870.223,432.10
1871.069,406.67
1871.914,411.50
1872.760,381.10
1873.604,412.13
1874.448,426.80
1875.294,404.00
1876.139,410.20
1876.984,400.80
1877.828,421.87
1878.672,388.97
1879.518,409.77
1880.361,398.53
1881.205,412.50
1882.050,436.50
1882.894,425.30
1883.739,397.60
1884.582,422.97
1885.425,388.03
1886.270,444.90
1887.113,431.57
1887.956,388.47
1888.801,393.50
1889.644,397.20
1890.486,393.17
1891.331,387.13
1892.173,431.20
1893.017,410.33
1893.860,402.57
1894.702,448.73
1895.546,359.20
1896.388,418.83
1897.230,405.33
1898.074,387.67
1898.916,407.37
1899.757,404.77
1900.601,398.97
1901.443,383.57
1902.284,427.93
1903.125,403.27
1903.969,411.53
1904.810,404.87
1905.651,379.23
1906.494,404.97
1907.335,445.30
1908.176,412.27
1909.018,357.90
1909.859,396.07
1910.700,444.33
1911.542,403.07
1912.383,393.60
1913.223,403.07
1914.064,449.07
1914.906,407.57
1915.746,413.13
1916.586,412.00
1917.428,407.07
1918.268,440.00
1919.107,373.20
1919.947,405.97
1920.789,429.83
1921.628,421.57
1922.468,393.60
1923.309,416.77
1924.148,446.23
1924.988,362.13
1925.827,386.63
1926.667,372.53
1927.507,400.70
1928.345,401.67
1929.184,421.53
1930.025,409.40
1930.864,435.13
1931.702,400.53
1932.541,413.40
1933.381,377.87
1934.219,469.87
1935.057,385.47
1935.896,367.10
1936.735,357.27
1937.573,408.20
1938.411,380.97
1939.249,370.07
1940.089,409.13
1940.927,406.47
1941.764,423.57
1942.602,415.63
1943.439,381.33
1944.278,419.53
1945.115,386.00
1945.953,385.67
1946.790,381.70
1947.628,382.07
1948.465,397.37
1949.302,363.03
1950.139,387.47
1950.976,429.23
1951.814,378.37
1952.651,411.93
1953.487,386.50
1954.323,390.03
1955.160,394.80
1955.998,386.37
1956.834,368.67
1957.670,400.53
1958.506,415.37
1959.342,367.97
1960.177,377.33
1961.015,420.50
1961.850,400.10
1962.686,394.83
1963.521,397.00
1964.357,396.57
1965.192,389.37
1966.029,361.87
1966.864,399.90
1967.699,383.27
1968.534,425.80
1969.369,378.80
1970.204,381.10
1971.040,362.87
1971.875,376.43
1972.709,359.47
1973.544,382.20
1974.378,391.60
1975.212,376.70
1976.047,378.00
1976.882,411.17
1977.716,384.57
1978.550,403.40
1979.384,376.73
1980.218,380.93
1981.052,397.13
1981.885,413.23
1982.719,343.10
1983.554,381.83
1984.388,428.97
1985.221,383.07
1986.054,391.80
1986.887,402.70
1987.720,401.23
1988.553,386.07
1989.386,408.90
1990.219,384.17
1991.053,360.63
1991.886,367.43
1992.719,385.73
1993.551,387.77
1994.383,360.37
1995.216,381.67
1996.048,373.33
1996.880,396.43
1997.712,402.17
1998.544,421.70
1999.376,382.23
2000.208,369.57
2001.040,404.43
2001.873,378.37
2002.705,379.20
2003.536,369.73
2004.367,379.53
2005.199,372.90
2006.030,377.00
2006.861,369.73
2007.692,389.27
2008.523,386.77
2009.354,391.93
2010.185,399.57
2011.016,424.47
2011.846,375.63
2012.677,385.33
2013.507,400.87
2014.338,386.60
2015.168,384.30
2015.999,404.27
2016.829,374.27
2017.659,384.80
2018.489,421.90
2019.319,392.30
2020.149,400.37
2020.980,400.40
2021.810,409.27
2022.639,362.67
2023.469,383.07
2024.298,425.73
2025.128,347.33
2025.957,388.23
2026.786,409.93
2027.615,382.80
2028.444,402.03
2029.273,400.63
2030.102,400.53
2030.931,379.80
2031.758,412.30
2032.586,396.83
2033.415,379.93
2034.243,365.83
2035.072,382.37
2035.900,379.43
2036.728,400.50
2037.556,391.57
2038.385,407.50
2039.213,357.73
2040.040,389.47
2040.868,399.07
2041.696,405.33
2042.524,357.40
2043.351,375.00
2044.179,383.20
2045.006,388.33
2045.006,388.33

Max Intensity Wave.,218.899
Max Intensity Data,5644.87
Min Intensity Wave.,1982.719
Min Intensity Data,343.10
FWHM Wave.,388.251
FWHM Value,24.49
Pressure Wave.,684.671
Pressure Value [GPa],-24.91530
G/D Ratio,0.57271
G/D Gband Wave.,1560.952
G/D Gband Intensity,581.32
G/D Dband Wave.,1300.806
G/D Dband Intensity,1015.03

<< BACKGROUND SPECTRUM >>
Wave[dcm-1],No30
146.591,2238.00
147.626,2103.00
148.664,2059.00
149.699,2513.00
150.737,2274.00
151.772,2413.00
152.809,2366.00
153.846,2298.00
154.881,2387.00
155.918,1989.00
156.953,2286.00
157.989,2605.00
159.026,2476.00
160.060,2618.00
161.096,2878.00
162.130,2497.00
163.167,2582.00
164.200,2416.00
165.236,2625.00
166.272,2653.00
167.305,2282.00
168.341,2545.00
169.374,2761.00
170.409,2767.00
171.445,2755.00
172.477,2520.00
173.512,2411.00
174.545,2655.00
175.580,2842.00
176.614,3018.00
177.647,2797.00
178.681,3051.00
179.713,3319.00
180.747,2809.00
181.781,2713.00
182.813,2982.00
183.847,3071.00
184.878,2706.00
185.912,2991.00
186.945,3122.00
187.976,3060.00
189.010,2746.00
190.043,2821.00
191.073,2942.00
192.106,2688.00
193.137,3196.00
194.170,2584.00
195.202,2922.00
196.232,2700.00
197.265,2996.00
198.297,3093.00
199.327,2780.00
200.359,2960.00
201.388,3324.00
202.420,2921.00
203.452,3094.00
204.481,2700.00
205.512,3285.00
206.544,3100.00
207.573,3026.00
208.604,3392.00
209.635,3528.00
210.663,2903.00
211.694,2976.00
212.725,2841.00
213.753,2836.00
214.783,3385.00
215.813,3239.00
216.841,2977.00
217.871,3158.00
218.899,2912.00
219.929,3154.00
220.959,2911.00
221.986,3183.00
223.016,2769.00
224.045,3165.00
225.072,3096.00
226.101,3222.00
227.130,3298.00
228.157,2826.00
229.185,2335.00
230.214,3193.00
231.241,2848.00
232.269,2456.00
233.297,2692.00
234.323,3227.00
235.351,2843.00
236.379,3088.00
237.407,2776.00
238.433,2933.00
239.460,3091.00
240.488,3162.00
241.513,3197.00
242.540,3125.00
243.568,3215.00
244.592,3250.00
245.619,3192.00
246.646,2919.00
247.671,2950.00
248.697,2790.00
249.724,3045.00
250.748,2997.00
251.774,3043.00
252.801,3316.00
253.827,3116.00
254.850,3071.00
255.876,2682.00
256.902,3119.00
257.925,2984.00
258.951,2749.00
259.976,2759.00
260.999,3072.00
262.024,2830.00
263.049,3660.00
264.074,3106.00
265.097,2990.00
266.122,3089.00
267.146,3036.00
268.168,3232.00
269.193,2849.00
270.217,3181.00
271.241,2731.00
272.263,2861.00
273.287,3136.00
274.311,2766.00
275.332,3279.00
276.356,2894.00
277.379,3110.00
278.402,3160.00
279.424,2937.00
280.447,2898.00
281.470,2725.00
282.492,3061.00
283.513,2937.00
284.536,3159.00
285.558,3157.00
286.581,3082.00
287.601,2870.00
288.623,2830.00
289.645,3115.00
290.665,3059.00
291.687,3120.00
292.709,3136.00
293.730,3404.00
294.750,2922.00
295.771,2766.00
296.792,3064.00
297.813,2944.00
298.832,3077.00
299.853,2757.00
300.874,3004.00
301.895,2964.00
302.913,2988.00
303.934,3287.00
304.954,3030.00
305.975,3213.00
306.993,2761.00
308.013,3136.00
309.033,3003.00
310.052,2889.00
311.072,2902.00
312.090,3046.00
313.109,3244.00
314.129,3435.00
315.148,2986.00
316.165,3084.00
317.184,3256.00
318.203,2753.00
319.222,2779.00
320.238,3149.00
321.257,2820.00
322.275,2696.00
323.294,3042.00
324.312,3158.00
325.328,3266.00
326.346,3309.00
327.364,3269.00
328.382,3129.00
329.397,3125.00
330.415,3220.00
331.432,3239.00
332.450,3243.00
333.467,3443.00
334.482,2583.00
335.499,3357.00
336.516,2862.00
337.533,2566.00
338.547,2854.00
339.564,2886.00
340.580,3123.00
341.597,2977.00
342.613,3457.00
343.627,3001.00
344.643,3029.00
345.659,3099.00
346.675,2990.00
347.690,2930.00
348.704,3094.00
349.719,2891.00
350.735,2755.00
351.750,3156.00
352.765,2997.00
353.778,2957.00
354.793,3174.00
355.808,2834.00
356.822,3221.00
357.837,2678.00
358.851,3234.00
359.864,2977.00
360.878,2700.00
361.892,2935.00
362.906,3196.00
363.920,2605.00
364.932,3054.00
365.945,3088.00
366.959,3011.00
367.972,2936.00
368.986,2718.00
369.999,3357.00
371.010,2844.00
372.023,3395.00
373.036,2952.00
374.049,3413.00
375.061,3127.00
376.072,2964.00
377.084,2854.00
378.097,2697.00
379.109,3206.00
380.121,2991.00
381.133,2668.00
382.143,3148.00
383.155,2758.00
384.166,2929.00
385.178,3118.00
386.189,3221.00
387.201,2725.00
388.212,2937.00
389.221,2947.00
390.232,3064.00
391.243,2938.00
392.254,3027.00
393.264,2827.00
394.275,3211.00
395.283,3161.00
396.294,3612.00
397.304,3463.00
398.314,3122.00
399.324,3026.00
400.334,2651.00
401.344,3173.00
402.351,2675.00
403.361,3221.00
404.370,2968.00
405.380,2875.00
406.389,3346.00
407.398,3135.00
408.407,3058.00
409.414,3172.00
410.423,3294.00
411.431,2804.00
412.440,2714.00
413.448,3332.00
414.457,2872.00
415.465,2877.00
416.471,2877.00
417.479,3048.00
418.487,2845.00
419.495,3293.00
420.503,3098.00
421.510,2618.00
422.518,3137.00
423.525,3183.00
424.530,3411.00
425.537,2877.00
426.544,3265.00
427.551,2871.00
428.558,3627.00
429.565,3442.00
430.571,2871.00
431.578,2918.00
432.582,2902.00
433.588,2966.00
434.595,2633.00
435.601,3279.00
436.607,3165.00
437.612,2776.00
438.618,3308.00
439.624,2942.00
440.627,2954.00
441.633,3106.00
442.638,3573.00
443.643,3120.00
444.648,3008.00
445.653,3188.00
446.658,2881.00
447.663,3026.00
448.667,2884.00
449.672,2913.00
450.674,2932.00
451.678,2714.00
452.682,2865.00
453.687,2824.00
454.690,3615.00
455.694,3237.00
456.698,2557.00
457.702,2634.00
458.705,2840.00
459.709,2771.00
460.710,2862.00
461.713,3038.00
462.716,3104.00
463.719,2981.00
464.722,3163.00
465.725,2941.00
466.727,2832.00
467.730,3013.00
468.732,2758.00
469.735,3243.00
470.737,2938.00
471.737,2900.00
472.739,2926.00
473.741,2805.00
474.742,3046.00
475.744,3069.00
476.746,3064.00
477.747,2956.00
478.748,3182.00
479.750,2932.00
480.751,2978.00
481.752,3696.00
482.753,3089.00
483.751,3585.00
484.752,2652.00
485.753,2968.00
486.753,2832.00
487.753,2999.00
488.754,3398.00
489.754,2684.00
490.754,3309.00
491.754,3121.00
492.754,2702.00
493.753,3048.00
494.753,2917.00
495.752,3319.00
496.752,3039.00
497.749,2992.00
498.748,2873.00
499.747,3378.00
500.746,3098.00
501.745,2758.00
502.744,2773.00
503.742,3315.00
504.741,2933.00
505.739,2468.00
506.737,2896.00
507.735,3187.00
508.734,3362.00
509.732,3107.00
510.729,3344.00
511.727,2901.00
512.725,2915.00
513.720,2773.00
514.718,3278.00
515.715,2677.00
516.712,2651.00
517.709,3015.00
518.706,2878.00
519.703,3061.00
520.700,3203.00
521.696,3398.00
522.693,2934.00
523.689,2869.00
524.686,3175.00
525.682,2795.00
526.678,3492.00
527.674,2909.00
528.670,2575.00
529.666,3490.00
530.661,3486.00
531.657,3652.00
532.652,3162.00
533.648,3015.00
534.641,3240.00
535.636,3069.00
536.631,3105.00
537.626,3176.00
538.621,2743.00
539.616,2588.00
540.610,2534.00
541.605,2975.00
542.599,3048.00
543.593,2999.00
544.587,3913.00
545.581,2848.00
546.575,3098.00
547.569,3056.00
548.563,2714.00
549.557,2674.00
550.550,2760.00
551.543,2781.00
552.537,3144.00
553.530,2760.00
554.523,2768.00
555.516,3141.00
556.509,2963.00
557.502,2665.00
558.494,3165.00
559.487,2928.00
560.479,3163.00
561.472,3267.00
562.464,3095.00
563.456,3283.00
564.448,2924.00
565.440,3030.00
566.432,3379.00
567.423,2895.00
568.415,2870.00
569.404,3105.00
570.396,2860.00
571.387,3131.00
572.378,3022.00
573.369,3941.00
574.360,3726.00
575.351,2941.00
576.341,2851.00
577.332,2865.00
578.323,2710.00
579.313,2856.00
580.303,3243.00
581.293,3126.00
582.283,2958.00
583.273,3117.00
584.263,3053.00
585.253,3094.00
586.243,3177.00
587.232,2649.00
588.222,2930.00
589.211,3162.00
590.200,3076.00
591.189,2974.00
592.178,2942.00
593.167,3429.00
594.156,3268.00
595.145,2877.00
596.133,3425.00
597.122,3101.00
598.110,3251.00
599.098,3080.00
600.086,3007.00
601.074,3167.00
602.062,2810.00
603.050,2726.00
604.038,3112.00
605.025,2790.00
606.013,3151.00
607.000,3377.00
607.987,3004.00
608.975,3053.00
609.962,2744.00
610.949,3166.00
611.936,3231.00
612.922,3149.00
613.909,2739.00
614.895,3380.00
615.882,2812.00
616.868,2998.00
617.854,2746.00
618.841,3003.00
619.826,3140.00
620.812,3000.00
621.798,2785.00
622.784,3168.00
623.769,3103.00
624.755,2725.00
625.740,3080.00
626.725,2722.00
627.711,2864.00
628.698,3111.00
629.683,2855.00
630.667,3204.00
631.652,2753.00
632.637,2988.00
633.621,3162.00
634.606,2930.00
635.590,3121.00
636.574,2950.00
637.558,3080.00
638.542,3061.00
639.526,2841.00
640.510,2635.00
641.493,3076.00
642.477,2988.00
643.460,2695.00
644.444,3195.00
645.427,3239.00
646.410,2649.00
647.393,2972.00
648.376,3083.00
649.359,2911.00
650.341,3095.00
651.324,3066.00
652.307,3048.00
653.289,2931.00
654.271,2882.00
655.253,2947.00
656.235,3145.00
657.217,3257.00
658.199,2626.00
659.181,2756.00
660.163,2979.00
661.144,2895.00
662.126,2891.00
663.107,2765.00
664.088,4665.00
665.069,3231.00
666.050,2806.00
667.033,2710.00
668.014,3035.00
668.995,2606.00
669.975,2982.00
670.956,2941.00
671.936,3117.00
672.916,2942.00
673.896,3105.00
674.876,2901.00
675.856,2855.00
676.836,2770.00
677.816,2313.00
678.795,2830.00
679.775,2690.00
680.754,3011.00
681.734,3136.00
682.713,3155.00
683.692,2812.00
684.671,2652.00
685.650,2771.00
686.629,2884.00
687.607,2746.00
688.586,2753.00
689.564,2836.00
690.543,3279.00
691.523,2392.00
692.501,2844.00
693.479,2902.00
694.457,2797.00
695.435,2862.00
696.413,2684.00
697.390,2552.00
698.368,2680.00
699.345,3094.00
700.322,2928.00
701.300,3077.00
702.277,3052.00
703.254,3241.00
704.231,2576.00
705.207,2956.00
706.184,2774.00
707.161,2676.00
708.137,2851.00
709.113,2793.00
710.090,2776.00
711.068,2624.00
712.044,2624.00
713.020,2890.00
713.996,2579.00
714.971,2836.00
715.947,2817.00
716.922,2824.00
717.898,2749.00
718.873,2927.00
719.848,2697.00
720.823,2706.00
721.798,2984.00
722.773,2734.00
723.748,2535.00
724.723,3019.00
725.697,2816.00
726.672,2776.00
727.646,2501.00
728.622,2947.00
729.596,2627.00
730.570,2724.00
731.544,3100.00
732.518,3283.00
733.492,2838.00
734.466,2931.00
735.439,3032.00
736.413,3121.00
737.386,2458.00
738.359,2440.00
739.332,2514.00
740.305,2840.00
741.278,3295.00
742.251,2916.00
743.224,2732.00
744.196,2525.00
745.171,3145.00
746.143,3003.00
747.115,2744.00
748.087,2721.00
749.059,3135.00
750.031,2915.00
751.003,3674.00
751.975,3261.00
752.947,2651.00
753.918,3078.00
754.890,2554.00
755.861,2748.00
756.832,3062.00
757.803,2863.00
758.774,2836.00
759.747,2641.00
760.718,3241.00
761.689,2757.00
762.659,2590.00
763.630,3140.00
764.600,2566.00
765.570,3046.00
766.540,3155.00
767.510,2925.00
768.480,3032.00
769.450,2725.00
770.420,2845.00
771.390,2651.00
772.359,2787.00
773.329,2665.00
774.300,2499.00
775.269,2766.00
776.238,3079.00
777.207,3159.00
778.176,2487.00
779.145,2810.00
780.114,2660.00
781.083,2570.00
782.051,2742.00
783.019,2711.00
783.988,3104.00
784.956,2832.00
785.924,2973.00
786.894,2905.00
787.862,2755.00
788.830,3124.00
789.797,2644.00
790.765,2595.00
791.732,2782.00
792.700,2667.00
793.667,2605.00
794.634,2756.00
795.601,2731.00
796.568,2769.00
797.535,2842.00
798.502,3451.00
799.468,2908.00
800.437,2418.00
801.403,2687.00
802.370,3296.00
803.336,3003.00
804.302,2868.00
805.268,2461.00
806.234,2550.00
807.200,2760.00
808.166,2802.00
809.131,2541.00
810.097,2966.00
811.062,3680.00
812.027,3013.00
812.994,2605.00
813.960,2631.00
814.925,2961.00
815.889,2516.00
816.854,3019.00
817.819,2655.00
818.783,2723.00
819.748,3075.00
820.712,2721.00
821.677,2622.00
822.641,2707.00
823.605,2686.00
824.571,3095.00
825.534,2759.00
826.498,2689.00
827.462,2799.00
828.425,2628.00
829.389,3087.00
830.352,2802.00
831.315,2923.00
832.279,2510.00
833.242,2732.00
834.204,2670.00
835.167,2645.00
836.132,3094.00
837.095,2464.00
838.057,2697.00
839.020,2816.00
839.982,2823.00
840.944,2673.00
841.906,2628.00
842.868,2975.00
843.830,2517.00
844.792,3054.00
845.753,2682.00
846.715,2449.00
847.679,2559.00
848.640,2642.00
849.601,2805.00
850.562,3229.00
851.523,2686.00
852.484,2518.00
853.445,2969.00
854.406,2695.00
855.367,2746.00
856.327,3044.00
857.288,2496.00
858.248,2679.00
859.210,2694.00
860.170,2505.00
861.130,3024.00
862.090,2432.00
863.050,2586.00
864.010,2680.00
864.969,2894.00
865.929,2561.00
866.888,2520.00
867.848,2812.00
868.807,2656.00
869.766,2861.00
870.727,2746.00
871.686,3004.00
872.645,3004.00
873.604,3272.00
874.562,2754.00
875.521,2785.00
876.479,3389.00
877.437,2568.00
878.396,2617.00
879.354,3164.00
880.312,2631.00
881.270,2674.00
882.229,3116.00
883.187,2646.00
884.145,2664.00
885.102,2879.00
886.059,2821.00
887.017,2889.00
887.974,2952.00
888.931,3080.00
889.888,2495.00
890.845,2423.00
891.802,2343.00
892.758,2660.00
893.717,2425.00
894.673,2590.00
895.630,2591.00
896.586,2926.00
897.542,2677.00
898.498,2514.00
899.454,2840.00
900.410,2691.00
901.366,2685.00
902.321,2618.00
903.277,2656.00
904.232,2761.00
905.189,2507.00
906.145,2655.00
907.100,2240.00
908.055,2720.00
909.010,2943.00
909.965,2338.00
910.919,2798.00
911.874,2560.00
912.828,2721.00
913.783,2730.00
914.737,2360.00
915.693,2749.00
916.648,2889.00
917.602,2898.00
918.555,2776.00
919.509,2845.00
920.463,2771.00
921.417,2758.00
922.370,2556.00
923.324,2672.00
924.277,2670.00
925.230,2742.00
926.183,2417.00
927.138,2673.00
928.091,2900.00
929.044,2817.00
929.996,2657.00
930.949,2663.00
931.902,2794.00
932.854,2857.00
933.806,2586.00
934.758,2971.00
935.711,2982.00
936.663,2744.00
937.614,2814.00
938.568,2765.00
939.520,2422.00
940.471,2700.00
941.423,2784.00
942.374,2905.00
943.326,2794.00
944.277,2612.00
945.228,2872.00
946.179,2689.00
947.130,3043.00
948.080,2665.00
949.031,2536.00
949.984,2681.00
950.934,2719.00
951.884,2431.00
952.835,2695.00
953.785,2713.00
954.735,2623.00
955.685,2390.00
956.635,2599.00
957.585,2630.00
958.534,2626.00
959.484,2722.00
960.433,2577.00
961.383,2475.00
962.334,2952.00
963.283,2776.00
964.232,2852.00
965.181,2715.00
966.130,2770.00
967.079,2637.00
968.027,2732.00
968.976,2725.00
969.924,2611.00
970.873,2812.00
971.821,2755.00
972.769,2892.00
973.719,2854.00
974.667,2431.00
975.615,2708.00
976.562,2718.00
977.510,2433.00
978.458,2592.00
979.405,2839.00
980.352,2773.00
981.300,2973.00
982.247,2798.00
983.194,2568.00
984.141,2643.00
985.088,2754.00
986.036,2815.00
986.983,3004.00
987.930,3105.00
988.876,2387.00
989.822,2997.00
990.769,2519.00
991.715,2624.00
992.661,2375.00
993.607,2779.00
994.553,3287.00
995.498,2647.00
996.444,2316.00
997.389,2766.00
998.337,2511.00
999.282,2875.00
1000.227,2659.00
1001.173,2681.00
1002.118,2432.00
1003.062,2935.00
1004.007,2687.00
1004.952,2974.00
1005.897,2938.00
1006.841,2688.00
1007.786,2490.00
1008.730,2435.00
1009.674,3188.00
1010.618,2649.00
1011.564,2525.00
1012.508,2388.00
1013.452,2919.00
1014.396,2737.00
1015.339,2643.00
1016.283,2671.00
1017.226,2733.00
1018.170,2719.00
1019.113,2883.00
1020.056,2758.00
1020.999,2678.00
1021.942,2583.00
1022.885,2858.00
1023.828,2962.00
1024.770,2493.00
1025.715,2717.00
1026.657,2714.00
1027.600,2745.00
1028.542,2956.00
1029.484,2755.00
1030.426,2862.00
1031.368,2781.00
1032.310,2587.00
1033.251,2581.00
1034.193,2715.00
1035.135,2497.00
1036.076,2646.00
1037.017,2539.00
1037.959,2827.00
1038.900,2790.00
1039.843,2791.00
1040.784,2721.00
1041.725,2798.00
1042.665,2595.00
1043.606,2736.00
1044.547,2719.00
1045.487,2387.00
1046.427,2653.00
1047.368,2786.00
1048.308,2221.00
1049.248,2527.00
1050.188,2695.00
1051.128,2579.00
1052.067,2636.00
1053.007,2411.00
1053.947,2402.00
1054.886,2550.00
1055.827,2495.00
1056.766,2948.00
1057.706,2454.00
1058.645,2677.00
1059.584,2729.00
1060.522,2966.00
1061.461,2429.00
1062.400,2484.00
1063.338,2634.00
1064.277,2503.00
1065.215,2529.00
1066.154,2394.00
1067.092,2588.00
1068.030,2597.00
1068.968,2846.00
1069.906,3026.00
1070.843,2972.00
1071.781,2764.00
1072.720,2850.00
1073.658,2840.00
1074.595,2596.00
1075.533,2525.00
1076.470,2588.00
1077.407,2985.00
1078.344,2784.00
1079.281,2796.00
1080.217,2302.00
1081.154,2649.00
1082.091,2738.00
1083.027,2448.00
1083.964,2888.00
1084.900,2564.00
1085.836,2591.00
1086.772,2877.00
1087.708,2472.00
1088.644,2841.00
1089.580,2692.00
1090.515,2727.00
1091.451,2599.00
1092.388,2697.00
1093.324,2434.00
1094.259,3236.00
1095.194,2758.00
1096.129,2607.00
1097.064,2551.00
1097.999,2821.00
1098.934,2537.00
1099.869,2556.00
1100.803,2703.00
1101.738,2738.00
1102.672,2395.00
1103.607,2842.00
1104.541,2556.00
1105.475,2542.00
1106.409,2421.00
1107.343,2599.00
1108.277,2453.00
1109.210,2713.00
1110.144,2673.00
1111.078,2674.00
1112.011,2475.00
1112.944,2710.00
1113.878,2698.00
1114.811,2155.00
1115.744,2560.00
1116.678,2307.00
1117.611,2604.00
1118.544,2597.00
1119.477,2779.00
1120.409,2556.00
1121.342,3099.00
1122.274,2729.00
1123.206,3027.00
1124.138,2679.00
1125.070,2948.00
1126.002,2855.00
1126.934,2310.00
1127.866,2547.00
1128.798,2322.00
1129.729,2400.00
1130.661,2651.00
1131.592,2572.00
1132.523,2726.00
1133.454,2741.00
1134.385,2293.00
1135.317,2670.00
1136.247,2612.00
1137.178,2892.00
1138.109,2378.00
1139.039,2995.00
1139.970,2844.00
1140.900,2641.00
1141.831,2377.00
1142.761,2252.00
1143.691,3270.00
1144.621,2649.00
1145.551,2698.00
1146.480,2662.00
1147.410,2845.00
1148.340,2289.00
1149.269,2386.00
1150.199,2580.00
1151.128,3077.00
1152.057,2443.00
1152.979,2595.00
1153.898,2633.00
1154.819,2696.00
1155.739,2650.00
1156.658,2543.00
1157.579,2642.00
1158.498,2627.00
1159.419,2184.00
1160.338,2673.00
1161.256,2674.00
1162.177,2464.00
1163.095,2634.00
1164.016,2724.00
1164.934,2882.00
1165.852,2801.00
1166.772,2633.00
1167.690,2632.00
1168.610,2656.00
1169.528,2636.00
1170.446,2202.00
1171.365,2554.00
1172.283,2521.00
1173.202,2665.00
1174.120,2688.00
1175.037,2481.00
1175.956,2457.00
1176.873,2514.00
1177.792,2534.00
1178.709,3088.00
1179.626,2518.00
1180.544,2823.00
1181.461,2488.00
1182.379,2757.00
1183.296,2609.00
1184.212,2249.00
1185.130,2458.00
1186.046,2952.00
1186.962,2610.00
1187.880,2931.00
1188.796,2670.00
1189.714,2460.00
1190.629,2748.00
1191.545,2693.00
1192.462,2563.00
1193.378,2609.00
1194.295,2344.00
1195.210,2649.00
1196.125,2739.00
1197.042,2679.00
1197.957,2635.00
1198.872,2493.00
1199.788,2518.00
1200.703,2962.00
1201.619,2658.00
1202.534,2495.00
1203.448,2698.00
1204.364,2561.00
1205.278,2285.00
1206.192,2620.00
1207.108,3131.00
1208.022,3004.00
1208.938,2483.00
1209.851,2782.00
1210.765,2844.00
1211.680,2562.00
1212.594,2449.00
1213.507,2555.00
1214.422,3036.00
1215.335,2721.00
1216.248,2565.00
1217.163,2635.00
1218.076,3231.00
1218.990,2745.00
1219.903,2415.00
1220.816,2463.00
1221.730,2631.00
1222.642,2526.00
1223.554,2546.00
1224.469,2726.00
1225.380,2594.00
1226.292,2307.00
1227.206,2760.00
1228.118,2948.00
1229.032,2272.00
1229.943,2512.00
1230.855,2627.00
1231.768,2364.00
1232.679,2705.00
1233.590,2612.00
1234.503,2849.00
1235.414,2499.00
1236.325,2504.00
1237.238,2690.00
1238.149,2725.00
1239.059,2458.00
1239.972,2786.00
1240.882,2465.00
1241.793,2724.00
1242.705,2966.00
1243.615,2593.00
1244.525,2704.00
1245.437,2203.00
1246.347,2688.00
1247.259,2765.00
1248.168,3038.00
1249.078,2900.00
1249.989,2870.00
1250.899,2413.00
1251.808,2479.00
1252.719,2525.00
1253.628,2505.00
1254.537,2980.00
1255.448,2471.00
1256.357,2506.00
1257.266,2630.00
1258.176,2363.00
1259.085,2357.00
1259.993,2471.00
1260.904,2485.00
1261.812,2464.00
1262.720,3126.00
1263.630,2827.00
1264.538,2479.00
1265.446,2751.00
1266.356,2601.00
1267.263,2928.00
1268.171,2431.00
1269.080,2702.00
1269.988,2810.00
1270.895,2538.00
1271.804,2589.00
1272.711,2843.00
1273.619,2808.00
1274.527,2457.00
1275.434,2757.00
1276.341,2430.00
1277.248,2622.00
1278.156,2889.00
1279.063,2491.00
1279.969,2715.00
1280.877,3521.00
1281.783,2829.00
1282.690,2687.00
1283.598,2583.00
1284.503,2510.00
1285.409,2450.00
1286.317,3011.00
1287.223,3018.00
1288.128,2650.00
1289.036,2565.00
1289.941,2533.00
1290.846,2638.00
1291.751,2416.00
1292.658,2564.00
1293.563,3039.00
1294.468,2662.00
1295.375,2736.00
1296.280,2852.00
1297.184,3324.00
1298.091,2722.00
1298.995,2765.00
1299.900,2961.00
1300.806,2476.00
1301.710,2409.00
1302.614,2177.00
1303.518,2878.00
1304.424,2571.00
1305.327,2865.00
1306.231,2618.00
1307.137,2778.00
1308.040,2656.00
1308.943,2642.00
1309.847,2811.00
1310.752,2757.00
1311.655,2276.00
1312.558,2401.00
1313.463,2592.00
1314.366,2519.00
1315.269,2694.00
1316.171,2596.00
1317.076,2494.00
1317.978,2401.00
1318.881,2235.00
1319.785,2521.00
1320.687,2528.00
1321.589,2253.00
1322.491,2451.00
1323.395,2711.00
1324.297,3175.00
1325.198,2789.00
1326.102,2450.00
1327.004,2435.00
1327.905,3011.00
1328.806,2571.00
1329.709,2734.00
1330.611,2556.00
1331.512,2434.00
1332.413,3054.00
1333.316,2686.00
1334.216,2793.00
1335.117,2368.00
1336.020,2693.00
1336.920,2625.00
1337.821,2473.00
1338.721,2874.00
1339.623,2676.00
1340.523,2607.00
1341.423,2486.00
1342.323,2890.00
1343.225,2732.00
1344.125,2448.00
1345.025,2478.00
1345.924,2276.00
1346.826,2936.00
1347.725,3088.00
1348.624,2845.00
1349.524,2508.00
1350.425,2616.00
1351.324,2733.00
1352.223,2785.00
1353.121,2575.00
1354.022,2820.00
1354.921,3012.00
1355.819,2754.00
1356.718,2670.00
1357.618,2391.00
1358.516,2732.00
1359.415,3008.00
1360.313,2725.00
1361.213,2569.00
1362.111,2959.00
1363.008,3277.00
1363.906,2620.00
1364.806,2654.00
1365.703,2686.00
1366.601,2447.00
1367.498,2467.00
1368.397,2849.00
1369.295,2712.00
1370.192,2496.00
1371.089,2667.00
1371.987,2587.00
1372.884,2915.00
1373.781,2473.00
1374.678,2617.00
1375.574,2479.00
1376.473,2778.00
1377.369,2850.00
1378.265,2478.00
1379.161,2579.00
1380.059,2350.00
1380.955,2757.00
1381.851,2416.00
1382.747,2552.00
1383.643,2535.00
1384.540,2420.00
1385.436,2458.00
1386.331,2688.00
1387.227,2801.00
1388.124,2743.00
1389.019,2424.00
1389.914,2617.00
1390.809,2269.00
1391.704,3059.00
1392.601,2542.00
1393.495,2913.00
1394.390,2783.00
1395.285,2898.00
1396.179,2723.00
1397.075,2617.00
1397.969,2706.00
1398.864,2326.00
1399.758,2568.00
1400.652,2663.00
1401.547,2458.00
1402.441,2457.00
1403.335,2953.00
1404.229,2625.00
1405.122,2686.00
1406.017,2589.00
1406.911,2774.00
1407.804,3039.00
1408.697,2630.00
1409.590,2472.00
1410.485,2815.00
1411.378,2721.00
1412.271,2342.00
1413.163,2701.00
1414.056,2769.00
1414.949,2999.00
1415.843,2663.00
1416.735,2601.00
1417.627,2634.00
1418.520,2587.00
1419.412,2847.00
1420.306,2747.00
1421.197,2874.00
1422.089,2844.00
1422.981,3127.00
1423.873,2815.00
1424.764,2738.00
1425.657,2653.00
1426.549,2757.00
1427.440,2815.00
1428.331,2571.00
1429.222,2352.00
1430.113,2667.00
1431.006,2822.00
1431.897,2551.00
1432.787,2651.00
1433.678,2576.00
1434.568,2430.00
1435.459,2845.00
1436.351,2802.00
1437.241,2762.00
1438.131,2765.00
1439.021,2432.00
1439.911,2607.00
1440.801,2717.00
1441.693,2868.00
1442.583,2695.00
1443.472,2640.00
1444.362,2735.00
1445.251,2607.00
1446.140,2548.00
1447.030,2846.00
1447.921,2813.00
1448.810,2482.00
1449.699,2950.00
1450.588,2649.00
1451.476,2553.00
1452.365,2726.00
1453.254,2556.00
1454.144,2541.00
1455.032,2770.00
1455.921,2371.00
1456.809,2948.00
1457.697,2488.00
1458.585,2610.00
1459.473,2593.00
1460.361,2506.00
1461.251,2721.00
1462.138,2733.00
1463.026,2612.00
1463.913,2878.00
1464.801,2565.00
1465.688,2727.00
1466.575,2662.00
1467.463,3121.00
1468.351,2488.00
1469.238,2603.00
1470.125,2259.00
1471.012,2713.00
1471.899,2738.00
1472.785,2445.00
1473.672,2659.00
1474.558,2883.00
1475.446,2746.00
1476.333,2805.00
1477.219,2462.00
1478.105,2590.00
1478.991,2590.00
1479.877,2941.00
1480.762,2655.00
1481.648,2544.00
1482.534,2804.00
1483.419,2713.00
1484.307,2778.00
1485.192,2599.00
1486.077,2516.00
1486.962,2524.00
1487.847,2403.00
1488.732,2445.00
1489.617,2638.00
1490.502,2932.00
1491.387,2765.00
1492.271,2478.00
1493.156,2502.00
1494.042,2460.00
1494.927,2872.00
1495.811,2578.00
1496.695,2804.00
1497.579,2945.00
1498.463,2652.00
1499.347,2709.00
1500.231,2656.00
1501.114,2705.00
1501.998,2923.00
1502.881,2632.00
1503.765,2938.00
1504.648,3004.00
1505.533,2774.00
1506.417,2675.00
1507.300,2616.00
1508.183,2693.00
1509.066,2152.00
1509.948,2828.00
1510.831,2971.00
1511.714,2429.00
1512.596,2795.00
1513.479,2901.00
1514.361,2852.00
1515.243,2658.00
1516.125,2814.00
1517.008,2927.00
1517.890,2603.00
1518.771,2665.00
1519.655,2833.00
1520.537,2616.00
1521.419,2503.00
1522.300,2690.00
1523.182,2810.00
1524.063,2791.00
1524.944,2957.00
1525.825,2863.00
1526.707,2468.00
1527.588,2460.00
1528.468,2723.00
1529.349,2323.00
1530.230,2606.00
1531.111,2808.00
1531.991,2668.00
1532.872,2354.00
1533.752,2626.00
1534.632,2552.00
1535.513,2500.00
1536.393,2801.00
1537.273,2973.00
1538.153,3293.00
1539.032,2393.00
1539.912,2637.00
1540.792,2643.00
1541.672,2719.00
1542.551,2786.00
1543.430,3231.00
1544.310,2694.00
1545.189,2531.00
1546.068,3099.00
1546.947,2752.00
1547.826,2955.00
1548.705,2652.00
1549.584,2883.00
1550.462,2591.00
1551.341,2800.00
1552.219,2718.00
1553.098,2812.00
1553.976,2855.00
1554.854,3055.00
1555.733,2857.00
1556.611,2580.00
1557.489,2468.00
1558.367,2687.00
1559.244,2798.00
1560.122,2626.00
1561.000,2685.00
1561.877,2948.00
1562.755,2530.00
1563.632,2641.00
1564.509,2929.00
1565.386,3062.00
1566.264,2424.00
1567.141,2301.00
1568.017,2802.00
1568.894,2667.00
1569.771,2745.00
1570.648,2809.00
1571.524,2699.00
1572.401,2441.00
1573.277,2438.00
1574.153,2710.00
1575.029,2518.00
1575.906,3370.00
1576.781,2826.00
1577.657,2592.00
1578.533,2913.00
1579.409,2261.00
1580.285,2612.00
1581.160,3036.00
1582.036,2832.00
1582.911,2538.00
1583.786,2983.00
1584.662,2493.00
1585.537,2616.00
1586.412,2689.00
1587.287,2516.00
1588.160,2831.00
1589.035,2295.00
1589.909,2693.00
1590.784,2615.00
1591.658,2489.00
1592.533,2699.00
1593.407,2663.00
1594.281,2559.00
1595.155,3058.00
1596.029,2578.00
1596.903,2622.00
1597.777,2587.00
1598.651,2919.00
1599.525,2377.00
1600.398,2729.00
1601.272,2653.00
1602.144,3222.00
1603.017,2614.00
1603.890,2898.00
1604.763,2763.00
1605.636,2814.00
1606.509,2360.00
1607.382,2512.00
1608.255,2736.00
1609.128,2895.00
1610.000,2632.00
1610.873,2368.00
1611.746,2585.00
1612.616,2608.00
1613.488,2282.00
1614.361,2657.00
1615.233,2616.00
1616.105,2890.00
1616.977,2576.00
1617.849,2529.00
1618.720,2963.00
1619.592,2984.00
1620.464,2789.00
1621.333,3145.00
1622.205,2674.00
1623.076,2659.00
1623.947,2684.00
1624.818,2883.00
1625.689,2806.00
1626.560,2624.00
1627.431,2702.00
1628.302,3073.00
1629.171,2783.00
1630.042,2985.00
1630.912,3301.00
1631.782,3224.00
1632.653,2470.00
1633.523,2803.00
1634.393,2887.00
1635.263,2523.00
1636.131,2649.00
1637.001,2580.00
1637.871,2286.00
1638.741,2310.00
1639.611,2398.00
1640.480,2782.00
1641.350,2537.00
1642.219,2500.00
1643.087,2184.00
1643.956,3084.00
1644.825,2920.00
1645.694,2903.00
1646.563,2828.00
1647.432,2701.00
1648.299,2668.00
1649.167,2805.00
1650.036,2479.00
1650.904,2920.00
1651.773,2895.00
1652.641,2709.00
1653.509,2863.00
1654.376,2530.00
1655.244,2729.00
1656.112,2723.00
1656.980,2706.00
1657.847,2539.00
1658.715,2864.00
1659.581,2579.00
1660.448,2886.00
1661.316,2197.00
1662.183,2662.00
1663.051,2724.00
1663.918,2722.00
1664.783,2705.00
1665.650,2783.00
1666.517,2889.00
1667.384,2725.00
1668.251,2704.00
1669.115,2911.00
1669.982,2634.00
1670.849,2958.00
1671.715,2647.00
1672.581,2821.00
1673.446,2806.00
1674.312,2717.00
1675.178,3061.00
1676.044,2787.00
1676.910,2755.00
1677.774,2721.00
1678.639,2334.00
1679.505,2667.00
1680.370,2810.00
1681.236,3326.00
1682.099,2638.00
1682.965,2752.00
1683.830,2287.00
1684.695,2513.00
1685.560,2601.00
1686.423,2833.00
1687.288,2801.00
1688.153,2735.00
1689.017,2623.00
1689.880,2762.00
1690.745,2835.00
1691.609,2510.00
1692.473,2863.00
1693.338,2899.00
1694.200,2932.00
1695.064,2690.00
1695.928,2573.00
1696.792,2746.00
1697.654,3158.00
1698.517,2705.00
1699.381,2424.00
1700.245,2347.00
1701.106,2973.00
1701.969,2609.00
1702.833,2850.00
1703.696,2604.00
1704.557,2650.00
1705.420,2562.00
1706.283,2706.00
1707.146,2828.00
1708.007,2488.00
1708.870,2504.00
1709.732,2392.00
1710.595,2592.00
1711.455,2425.00
1712.318,2584.00
1713.180,2909.00
1714.040,2761.00
1714.902,2880.00
1715.764,2746.00
1716.626,2452.00
1717.486,2714.00
1718.348,2967.00
1719.209,4149.00
1720.071,2404.00
1720.930,2416.00
1721.792,2537.00
1722.653,2542.00
1723.512,2586.00
1724.374,2648.00
1725.234,2725.00
1726.095,2691.00
1726.954,2681.00
1727.815,2820.00
1728.676,2636.00
1729.535,2902.00
1730.395,2651.00
1731.256,2607.00
1732.114,2745.00
1732.974,2189.00
1733.834,3040.00
1734.693,2835.00
1735.553,2691.00
1736.413,3055.00
1737.272,2590.00
1738.130,2612.00
1738.990,2758.00
1739.849,2578.00
1740.707,3702.00
1741.566,2697.00
1742.426,2705.00
1743.283,3064.00
1744.142,2612.00
1745.001,2344.00
1745.858,2895.00
1746.717,2798.00
1747.576,2756.00
1748.433,2813.00
1749.292,3265.00
1750.150,3283.00
1751.007,2872.00
1751.865,2929.00
1752.723,2707.00
1753.579,2606.00
1754.438,2911.00
1755.296,2868.00
1756.152,2286.00
1757.010,2407.00
1757.865,2860.00
1758.723,2355.00
1759.581,2988.00
1760.436,2681.00
1761.294,3050.00
1762.151,2689.00
1763.006,2591.00
1763.864,2396.00
1764.721,2910.00
1765.576,2696.00
1766.433,2847.00
1767.288,2578.00
1768.144,2749.00
1769.001,2664.00
1769.856,2800.00
1770.712,2899.00
1771.568,2464.00
1772.423,2595.00
1773.279,2605.00
1774.133,2596.00
1774.989,3114.00
1775.845,3097.00
1776.699,2943.00
1777.555,2675.00
1778.409,3225.00
1779.265,2652.00
1780.120,2635.00
1780.974,2662.00
1781.829,2314.00
1782.682,2778.00
1783.538,2532.00
1784.393,2746.00
1785.246,2549.00
1786.101,2781.00
1786.954,2809.00
1787.808,2901.00
1788.661,2436.00
1789.516,2583.00
1790.370,2638.00
1791.223,2883.00
1792.077,2687.00
1792.930,2805.00
1793.784,2607.00
1794.636,2761.00
1795.490,2658.00
1796.344,2706.00
1797.196,2699.00
1798.049,2822.00
1798.901,2610.00
1799.755,2913.00
1800.606,2509.00
1801.460,3170.00
1802.311,2992.00
1803.165,3096.00
1804.018,3035.00
1804.869,2747.00
1805.722,3149.00
1806.573,2769.00
1807.426,2529.00
1808.276,2719.00
1809.129,2595.00
1809.980,2914.00
1810.832,2983.00
1811.683,2630.00
1812.535,3038.00
1813.385,2635.00
1814.237,2992.00
1815.089,2746.00
1815.940,2985.00
1816.791,2649.00
1817.641,2587.00
1818.493,2829.00
1819.343,2748.00
1820.194,2570.00
1821.044,2791.00
1821.895,2902.00
1822.745,2431.00
1823.596,2608.00
1824.445,3089.00
1825.296,2791.00
1826.145,2684.00
1826.996,2915.00
1827.845,2765.00
1828.695,2770.00
1829.544,2699.00
1830.395,2793.00
1831.243,2603.00
1832.094,2483.00
1832.942,3264.00
1833.792,2830.00
1834.640,2779.00
1835.490,2703.00
1836.338,2775.00
1837.186,2597.00
1838.036,2577.00
1838.884,2707.00
1839.733,3047.00
1840.581,2870.00
1841.430,2854.00
1842.278,3031.00
1843.127,2599.00
1843.974,2370.00
1844.823,3152.00
1845.671,2897.00
1846.519,2750.00
1847.366,2775.00
1848.213,2365.00
1849.062,2540.00
1849.909,2462.00
1850.757,3345.00
1851.604,2862.00
1852.452,2642.00
1853.298,2865.00
1854.146,2789.00
1854.993,2763.00
1855.839,3201.00
1856.687,2829.00
1857.532,2779.00
1858.380,2715.00
1859.226,2803.00
1860.073,2859.00
1860.919,2539.00
1861.765,2594.00
1862.612,2950.00
1863.457,2975.00
1864.304,2674.00
1865.150,2811.00
1865.995,2676.00
1866.842,2868.00
1867.686,2922.00
1868.533,2796.00
1869.378,2742.00
1870.223,2713.00
1871.069,2629.00
1871.914,2736.00
1872.760,2728.00
1873.604,2504.00
1874.448,2826.00
1875.294,2890.00
1876.139,2588.00
1876.984,2844.00
1877.828,2372.00
1878.672,2252.00
1879.518,2592.00
1880.361,2896.00
1881.205,2868.00
1882.050,2496.00
1882.894,3205.00
1883.739,2601.00
1884.582,2464.00
1885.425,2564.00
1886.270,2925.00
1887.113,2435.00
1887.956,2827.00
1888.801,2784.00
1889.644,2540.00
1890.486,2326.00
1891.331,2662.00
1892.173,2730.00
1893.017,2777.00
1893.860,2997.00
1894.702,2957.00
1895.546,2768.00
1896.388,3388.00
1897.230,3070.00
1898.074,2635.00
1898.916,2507.00
1899.757,2549.00
1900.601,3384.00
1901.443,3024.00
1902.284,2994.00
1903.125,3179.00
1903.969,2906.00
1904.810,2944.00
1905.651,2828.00
1906.494,3029.00
1907.335,3122.00
1908.176,2824.00
1909.018,2853.00
1909.859,2701.00
1910.700,2543.00
1911.542,3252.00
1912.383,2796.00
1913.223,2354.00
1914.064,2814.00
1914.906,2978.00
1915.746,3040.00
1916.586,3177.00
1917.428,2705.00
1918.268,2717.00
1919.107,2649.00
1919.947,2477.00
1920.789,2627.00
1921.628,2946.00
1922.468,2726.00
1923.309,2558.00
1924.148,2990.00
1924.988,2839.00
1925.827,2713.00
1926.667,2637.00
1927.507,2765.00
1928.345,2564.00
1929.184,2866.00
1930.025,2535.00
1930.864,2942.00
1931.702,3022.00
1932.541,2620.00
1933.381,2877.00
1934.219,2815.00
1935.057,3037.00
1935.896,2468.00
1936.735,2736.00
1937.573,2611.00
1938.411,2550.00
1939.249,2910.00
1940.089,2609.00
1940.927,2972.00
1941.764,2990.00
1942.602,2644.00
1943.439,2625.00
1944.278,2675.00
1945.115,2669.00
1945.953,2481.00
1946.790,2813.00
1947.628,3095.00
1948.465,2839.00
1949.302,2902.00
1950.139,2862.00
1950.976,2575.00
1951.814,2903.00
1952.651,2771.00
1953.487,2540.00
1954.323,2993.00
1955.160,2707.00
1955.998,3102.00
1956.834,2742.00
1957.670,2792.00
1958.506,2938.00
1959.342,2855.00
1960.177,2793.00
1961.015,2844.00
1961.850,2776.00
1962.686,2780.00
1963.521,2771.00
1964.357,3010.00
1965.192,2524.00
1966.029,2905.00
1966.864,2648.00
1967.699,2962.00
1968.534,2741.00
1969.369,3016.00
1970.204,2699.00
1971.040,2788.00
1971.875,2676.00
1972.709,2803.00
1973.544,2584.00
1974.378,2639.00
1975.212,2869.00
1976.047,2656.00
1976.882,2586.00
1977.716,3144.00
1978.550,2427.00
1979.384,2695.00
1980.218,2696.00
1981.052,2673.00
1981.885,2748.00
1982.719,2787.00
1983.554,2890.00
1984.388,3016.00
1985.221,2826.00
1986.054,2981.00
1986.887,2758.00
1987.720,2561.00
1988.553,3044.00
1989.386,2812.00
1990.219,2870.00
1991.053,3060.00
1991.886,2631.00
1992.719,2945.00
1993.551,2284.00
1994.383,2912.00
1995.216,2661.00
1996.048,2482.00
1996.880,2891.00
1997.712,2596.00
1998.544,2701.00
1999.376,2827.00
2000.208,3032.00
2001.040,3170.00
2001.873,2581.00
2002.705,2579.00
2003.536,2818.00
2004.367,2788.00
2005.199,2796.00
2006.030,2651.00
2006.861,2566.00
2007.692,2757.00
2008.523,2613.00
2009.354,2769.00
2010.185,2538.00
2011.016,2852.00
2011.846,2950.00
2012.677,2698.00
2013.507,3062.00
2014.338,2969.00
2015.168,2677.00
2015.999,3244.00
2016.829,2696.00
2017.659,2969.00
2018.489,3227.00
2019.319,2562.00
2020.149,2913.00
2020.980,2760.00
2021.810,2531.00
2022.639,2659.00
2023.469,2648.00
2024.298,2414.00
2025.128,2412.00
2025.957,2375.00
2026.786,2190.00
2027.615,2397.00
2028.444,2581.00
2029.273,2756.00
2030.102,2359.00
2030.931,2612.00
2031.758,2855.00
2032.586,2530.00
2033.415,2617.00
2034.243,2246.00
2035.072,2040.00
2035.900,2511.00
2036.728,2309.00
2037.556,2359.00
2038.385,2365.00
2039.213,2229.00
2040.040,2186.00
2040.868,2151.00
2041.696,2190.00
2042.524,2254.00
2043.351,2427.00
2044.179,2237.00
2045.006,2007.00
