RamanScope Measure Spectrum Data V3.72

<< MEASURE CONDITION >>
Exposure Type,Aver
Exposure Time [sec],15
Exposure Count,4
Measure Time,2023/07/14 22:08:29
Data Name,""
Data Comment,""
Rayleigh Wave[nm],532.0

<< SAMPLE SPECTRUM >>
Wave[dcm-1],No111
146.591,697.00
147.626,843.00
148.664,1058.50
149.699,1233.25
150.737,1395.00
151.772,1590.25
152.809,1811.25
153.846,2054.75
154.881,2267.00
155.918,2407.75
156.953,2588.25
157.989,2731.75
159.026,2876.25
160.060,2965.25
161.096,3043.25
162.130,3107.25
163.167,3125.75
164.200,3216.50
165.236,3285.75
166.272,3288.00
167.305,3371.75
168.341,3474.75
169.374,3519.50
170.409,3574.00
171.445,3620.50
172.477,3672.00
173.512,3765.00
174.545,3878.50
175.580,3954.25
176.614,4046.50
177.647,4124.75
178.681,4125.50
179.713,4142.25
180.747,4097.25
181.781,4117.25
182.813,4052.00
183.847,3939.50
184.878,3974.00
185.912,3880.25
186.945,3909.75
187.976,3827.75
189.010,3886.50
190.043,3869.25
191.073,3854.00
192.106,3911.00
193.137,3910.00
194.170,3902.75
195.202,4008.00
196.232,4030.00
197.265,4025.75
198.297,4085.00
199.327,4106.00
200.359,4247.25
201.388,4292.75
202.420,4339.00
203.452,4434.00
204.481,4423.75
205.512,4540.75
206.544,4648.75
207.573,4695.50
208.604,4837.25
209.635,4957.25
210.663,5071.00
211.694,5181.00
212.725,5236.00
213.753,5345.25
214.783,5375.50
215.813,5519.75
216.841,5542.25
217.871,5479.50
218.899,5558.25
219.929,5471.50
220.959,5479.00
221.986,5393.25
223.016,5324.25
224.045,5269.00
225.072,5195.25
226.101,5133.50
227.130,4990.75
228.157,4923.75
229.185,4896.50
230.214,4815.50
231.241,4759.50
232.269,4747.25
233.297,4679.00
234.323,4614.75
235.351,4604.50
236.379,4573.50
237.407,4581.25
238.433,4556.50
239.460,4545.25
240.488,4543.75
241.513,4608.25
242.540,4615.00
243.568,4587.25
244.592,4601.00
245.619,4692.00
246.646,4656.25
247.671,4662.25
248.697,4699.75
249.724,4690.75
250.748,4629.50
251.774,4719.75
252.801,4692.00
253.827,4683.75
254.850,4652.25
255.876,4695.50
256.902,4686.75
257.925,4721.00
258.951,4790.50
259.976,4775.00
260.999,4807.50
262.024,4813.00
263.049,4866.75
264.074,4938.00
265.097,4953.75
266.122,4952.50
267.146,5003.75
268.168,5063.25
269.193,5020.75
270.217,5052.75
271.241,5123.25
272.263,5223.50
273.287,5169.00
274.311,5144.00
275.332,5128.25
276.356,5203.00
277.379,5194.75
278.402,5200.25
279.424,5161.25
280.447,5074.00
281.470,5062.25
282.492,5038.00
283.513,4998.00
284.536,4943.75
285.558,4847.00
286.581,4836.50
287.601,4733.25
288.623,4727.25
289.645,4668.50
290.665,4585.00
291.687,4470.25
292.709,4509.75
293.730,4465.75
294.750,4441.50
295.771,4355.50
296.792,4336.00
297.813,4255.00
298.832,4231.50
299.853,4157.50
300.874,4148.75
301.895,4083.50
302.913,4080.75
303.934,4028.00
304.954,4030.25
305.975,3949.25
306.993,3980.75
308.013,3901.25
309.033,3912.75
310.052,3889.50
311.072,3838.75
312.090,3802.25
313.109,3820.25
314.129,3857.50
315.148,3752.25
316.165,3738.75
317.184,3742.75
318.203,3748.50
319.222,3759.50
320.238,3712.25
321.257,3738.00
322.275,3683.00
323.294,3625.25
324.312,3730.50
325.328,3656.50
326.346,3683.50
327.364,3687.50
328.382,3634.75
329.397,3599.50
330.415,3660.25
331.432,3609.50
332.450,3596.25
333.467,3597.00
334.482,3639.25
335.499,3616.25
336.516,3577.75
337.533,3594.00
338.547,3580.00
339.564,3610.25
340.580,3570.25
341.597,3597.75
342.613,3541.50
343.627,3595.75
344.643,3569.75
345.659,3581.25
346.675,3593.75
347.690,3560.75
348.704,3598.00
349.719,3545.25
350.735,3584.75
351.750,3526.50
352.765,3526.25
353.778,3525.00
354.793,3539.00
355.808,3606.50
356.822,3528.50
357.837,3565.25
358.851,3570.50
359.864,3590.75
360.878,3562.50
361.892,3563.75
362.906,3523.75
363.920,3524.50
364.932,3546.00
365.945,3584.00
366.959,3557.75
367.972,3539.00
368.986,3580.25
369.999,3601.50
371.010,3558.25
372.023,3564.00
373.036,3541.75
374.049,3563.25
375.061,3619.75
376.072,3568.00
377.084,3635.75
378.097,3628.00
379.109,3621.00
380.121,3637.25
381.133,3648.50
382.143,3650.50
383.155,3586.50
384.166,3600.00
385.178,3615.25
386.189,3566.50
387.201,3596.25
388.212,3554.50
389.221,3577.50
390.232,3553.75
391.243,3583.50
392.254,3618.75
393.264,3569.25
394.275,3510.25
395.283,3519.75
396.294,3569.50
397.304,3464.25
398.314,3543.00
399.324,3503.75
400.334,3459.00
401.344,3472.00
402.351,3479.00
403.361,3456.50
404.370,3402.00
405.380,3434.75
406.389,3447.50
407.398,3435.50
408.407,3407.25
409.414,3408.50
410.423,3394.75
411.431,3397.75
412.440,3396.25
413.448,3356.25
414.457,3386.75
415.465,3307.00
416.471,3367.25
417.479,3333.50
418.487,3255.75
419.495,3293.00
420.503,3277.75
421.510,3296.25
422.518,3290.75
423.525,3325.75
424.530,3256.50
425.537,3259.25
426.544,3208.75
427.551,3238.50
428.558,3255.25
429.565,3276.75
430.571,3238.25
431.578,3236.25
432.582,3241.25
433.588,3241.00
434.595,3227.75
435.601,3249.50
436.607,3268.25
437.612,3257.00
438.618,3216.75
439.624,3253.50
440.627,3187.00
441.633,3190.00
442.638,3223.00
443.643,3240.75
444.648,3208.00
445.653,3246.25
446.658,3165.50
447.663,3240.25
448.667,3201.00
449.672,3197.00
450.674,3185.00
451.678,3201.25
452.682,3197.50
453.687,3256.75
454.690,3190.00
455.694,3184.75
456.698,3273.50
457.702,3275.75
458.705,3233.75
459.709,3215.25
460.710,3184.25
461.713,3182.50
462.716,3164.75
463.719,3193.00
464.722,3237.00
465.725,3177.75
466.727,3208.00
467.730,3254.00
468.732,3223.50
469.735,3255.00
470.737,3229.25
471.737,3204.50
472.739,3197.75
473.741,3186.25
474.742,3295.50
475.744,3247.75
476.746,3261.50
477.747,3219.00
478.748,3211.00
479.750,3200.50
480.751,3207.75
481.752,3203.50
482.753,3237.75
483.751,3232.00
484.752,3227.25
485.753,3228.00
486.753,3185.50
487.753,3255.00
488.754,3205.50
489.754,3213.50
490.754,3226.25
491.754,3207.50
492.754,3183.50
493.753,3152.75
494.753,3198.50
495.752,3195.75
496.752,3195.75
497.749,3139.75
498.748,3188.00
499.747,3160.75
500.746,3187.00
501.745,3130.50
502.744,3199.25
503.742,3103.00
504.741,3119.00
505.739,3089.50
506.737,3091.50
507.735,3058.25
508.734,3064.50
509.732,3079.25
510.729,3077.75
511.727,3040.50
512.725,3011.25
513.720,3036.75
514.718,3023.00
515.715,3019.00
516.712,3039.75
517.709,3007.00
518.706,3007.75
519.703,2992.25
520.700,3062.25
521.696,2996.00
522.693,2992.50
523.689,3001.75
524.686,2984.25
525.682,2989.00
526.678,2992.25
527.674,3024.50
528.670,2962.00
529.666,3003.25
530.661,2979.50
531.657,3025.00
532.652,2964.50
533.648,2948.50
534.641,2996.25
535.636,2983.25
536.631,3003.50
537.626,2953.00
538.621,2958.00
539.616,2960.00
540.610,2977.00
541.605,3007.25
542.599,2965.50
543.593,2984.75
544.587,2954.50
545.581,2899.25
546.575,3021.25
547.569,2983.50
548.563,2940.00
549.557,2963.00
550.550,2901.00
551.543,2939.75
552.537,2944.50
553.530,2885.50
554.523,2877.50
555.516,2918.50
556.509,2912.00
557.502,2923.50
558.494,2883.50
559.487,2947.25
560.479,2846.25
561.472,2932.50
562.464,2901.25
563.456,2884.75
564.448,2884.50
565.440,2908.25
566.432,2913.50
567.423,2962.00
568.415,2894.50
569.404,2907.50
570.396,2933.75
571.387,2955.75
572.378,2969.00
573.369,2884.75
574.360,2969.75
575.351,2962.00
576.341,2971.00
577.332,2970.75
578.323,2964.00
579.313,2953.00
580.303,2958.25
581.293,2943.00
582.283,2981.00
583.273,2978.75
584.263,2991.75
585.253,2970.25
586.243,2971.75
587.232,3025.00
588.222,3019.00
589.211,2975.25
590.200,3007.75
591.189,2999.50
592.178,2977.25
593.167,3040.25
594.156,2979.00
595.145,2980.00
596.133,2972.50
597.122,2994.00
598.110,3010.25
599.098,3040.25
600.086,2968.50
601.074,2950.75
602.062,2996.50
603.050,2972.50
604.038,2978.75
605.025,2981.25
606.013,2981.50
607.000,2911.75
607.987,2934.00
608.975,2920.25
609.962,2912.00
610.949,2904.25
611.936,2871.75
612.922,2894.00
613.909,2840.50
614.895,2853.50
615.882,2800.50
616.868,2865.25
617.854,2819.25
618.841,2827.50
619.826,2749.75
620.812,2713.25
621.798,2734.50
622.784,2769.50
623.769,2737.50
624.755,2725.00
625.740,2648.25
626.725,2640.00
627.711,2672.50
628.698,2653.50
629.683,2650.75
630.667,2626.00
631.652,2621.75
632.637,2573.25
633.621,2619.75
634.606,2597.75
635.590,2588.50
636.574,2491.00
637.558,2520.75
638.542,2487.00
639.526,2479.50
640.510,2507.75
641.493,2415.75
642.477,2458.25
643.460,2482.25
644.444,2446.00
645.427,2405.00
646.410,2377.75
647.393,2362.50
648.376,2363.00
649.359,2395.75
650.341,2438.75
651.324,2400.00
652.307,2354.75
653.289,2404.25
654.271,2336.75
655.253,2358.25
656.235,2371.50
657.217,2326.00
658.199,2306.50
659.181,2327.75
660.163,2330.50
661.144,2348.50
662.126,2368.50
663.107,2277.50
664.088,2282.00
665.069,2307.75
666.050,2291.75
667.033,2320.75
668.014,2269.00
668.995,2292.75
669.975,2332.25
670.956,2284.25
671.936,2301.25
672.916,2250.75
673.896,2256.00
674.876,2253.00
675.856,2180.75
676.836,2187.25
677.816,2197.25
678.795,2119.50
679.775,2140.00
680.754,2133.25
681.734,2137.50
682.713,2092.50
683.692,2141.50
684.671,2096.00
685.650,2088.00
686.629,2112.00
687.607,2096.50
688.586,2080.00
689.564,2047.25
690.543,2059.75
691.523,2026.25
692.501,2007.75
693.479,2034.50
694.457,2011.00
695.435,2009.50
696.413,2006.25
697.390,2006.25
698.368,1985.50
699.345,1927.25
700.322,1975.50
701.300,2049.25
702.277,1998.00
703.254,1998.50
704.231,1950.25
705.207,1935.75
706.184,1946.00
707.161,1939.75
708.137,1926.75
709.113,1941.00
710.090,1904.75
711.068,1919.25
712.044,1917.00
713.020,1924.25
713.996,1897.50
714.971,1895.25
715.947,1932.50
716.922,1868.75
717.898,1915.75
718.873,1875.50
719.848,1843.25
720.823,1856.50
721.798,1851.75
722.773,1855.75
723.748,1854.25
724.723,1837.75
725.697,1864.50
726.672,1869.75
727.646,1827.75
728.622,1826.75
729.596,1871.00
730.570,1793.25
731.544,1822.00
732.518,1851.25
733.492,1846.75
734.466,1804.25
735.439,1794.00
736.413,1787.25
737.386,1787.00
738.359,1781.50
739.332,1840.00
740.305,1786.50
741.278,1776.75
742.251,1773.25
743.224,1753.00
744.196,1801.00
745.171,1793.25
746.143,1798.75
747.115,1748.25
748.087,1757.50
749.059,1773.50
750.031,1755.75
751.003,1694.25
751.975,1697.25
752.947,1764.50
753.918,1734.75
754.890,1742.00
755.861,1683.50
756.832,1756.00
757.803,1742.25
758.774,1717.25
759.747,1727.00
760.718,1699.50
761.689,1717.25
762.659,1663.50
763.630,1684.00
764.600,1660.25
765.570,1698.25
766.540,1655.75
767.510,1644.25
768.480,1659.75
769.450,1708.00
770.420,1614.00
771.390,1668.00
772.359,1634.00
773.329,1632.00
774.300,1653.75
775.269,1669.75
776.238,1668.25
777.207,1632.25
778.176,1679.50
779.145,1624.75
780.114,1638.25
781.083,1594.00
782.051,1646.00
783.019,1580.00
783.988,1637.00
784.956,1553.00
785.924,1607.25
786.894,1626.50
787.862,1581.50
788.830,1576.50
789.797,1626.25
790.765,1562.25
791.732,1563.25
792.700,1569.50
793.667,1560.25
794.634,1577.25
795.601,1544.50
796.568,1549.75
797.535,1568.25
798.502,1549.75
799.468,1557.00
800.437,1524.00
801.403,1515.00
802.370,1528.00
803.336,1535.75
804.302,1531.75
805.268,1492.50
806.234,1503.25
807.200,1533.75
808.166,1566.00
809.131,1467.25
810.097,1467.00
811.062,1530.00
812.027,1488.25
812.994,1498.50
813.960,1459.75
814.925,1519.50
815.889,1480.75
816.854,1482.75
817.819,1505.75
818.783,1477.00
819.748,1432.75
820.712,1498.50
821.677,1525.25
822.641,1449.50
823.605,1506.50
824.571,1465.25
825.534,1442.50
826.498,1466.00
827.462,1471.50
828.425,1479.25
829.389,1494.50
830.352,1457.25
831.315,1455.50
832.279,1490.50
833.242,1440.00
834.204,1443.50
835.167,1444.00
836.132,1447.75
837.095,1478.00
838.057,1501.75
839.020,1456.75
839.982,1479.25
840.944,1439.50
841.906,1463.50
842.868,1448.75
843.830,1470.75
844.792,1414.00
845.753,1416.50
846.715,1460.75
847.679,1463.00
848.640,1427.75
849.601,1483.25
850.562,1443.00
851.523,1431.75
852.484,1431.00
853.445,1436.50
854.406,1471.00
855.367,1479.50
856.327,1492.00
857.288,1412.50
858.248,1432.00
859.210,1439.50
860.170,1443.25
861.130,1432.00
862.090,1423.25
863.050,1444.50
864.010,1420.25
864.969,1466.25
865.929,1429.50
866.888,1440.00
867.848,1429.50
868.807,1439.00
869.766,1416.00
870.727,1452.25
871.686,1398.00
872.645,1429.25
873.604,1394.00
874.562,1413.00
875.521,1408.50
876.479,1463.00
877.437,1429.50
878.396,1454.50
879.354,1503.50
880.312,1427.50
881.270,1507.50
882.229,1514.50
883.187,1461.50
884.145,1465.75
885.102,1462.50
886.059,1498.75
887.017,1471.75
887.974,1434.25
888.931,1409.00
889.888,1487.75
890.845,1495.25
891.802,1490.00
892.758,1481.25
893.717,1453.75
894.673,1503.75
895.630,1474.75
896.586,1474.50
897.542,1485.75
898.498,1471.25
899.454,1513.00
900.410,1484.75
901.366,1481.25
902.321,1484.50
903.277,1523.75
904.232,1505.25
905.189,1528.00
906.145,1479.25
907.100,1510.75
908.055,1486.25
909.010,1506.75
909.965,1487.50
910.919,1525.00
911.874,1500.00
912.828,1512.50
913.783,1542.75
914.737,1502.75
915.693,1475.50
916.648,1507.50
917.602,1535.50
918.555,1541.75
919.509,1503.25
920.463,1498.50
921.417,1496.50
922.370,1502.50
923.324,1500.00
924.277,1560.75
925.230,1502.25
926.183,1510.50
927.138,1520.50
928.091,1531.50
929.044,1482.50
929.996,1510.75
930.949,1517.25
931.902,1526.25
932.854,1552.50
933.806,1566.75
934.758,1544.75
935.711,1527.50
936.663,1514.25
937.614,1552.50
938.568,1555.25
939.520,1521.25
940.471,1578.50
941.423,1520.25
942.374,1525.00
943.326,1559.25
944.277,1542.25
945.228,1532.50
946.179,1531.75
947.130,1509.25
948.080,1562.25
949.031,1540.00
949.984,1513.25
950.934,1523.75
951.884,1545.50
952.835,1547.25
953.785,1557.00
954.735,1523.75
955.685,1507.00
956.635,1485.50
957.585,1526.00
958.534,1508.25
959.484,1517.00
960.433,1470.25
961.383,1468.25
962.334,1457.75
963.283,1502.00
964.232,1500.75
965.181,1464.00
966.130,1476.00
967.079,1478.00
968.027,1468.25
968.976,1490.00
969.924,1457.75
970.873,1463.50
971.821,1488.25
972.769,1428.25
973.719,1456.75
974.667,1510.50
975.615,1461.75
976.562,1473.00
977.510,1408.50
978.458,1435.00
979.405,1402.50
980.352,1463.00
981.300,1427.50
982.247,1392.75
983.194,1449.00
984.141,1438.75
985.088,1409.50
986.036,1445.75
986.983,1429.75
987.930,1389.25
988.876,1418.25
989.822,1420.25
990.769,1432.25
991.715,1376.00
992.661,1415.75
993.607,1352.50
994.553,1391.00
995.498,1388.00
996.444,1408.75
997.389,1397.75
998.337,1376.50
999.282,1370.00
1000.227,1391.75
1001.173,1374.00
1002.118,1332.00
1003.062,1370.25
1004.007,1338.00
1004.952,1375.00
1005.897,1333.50
1006.841,1303.00
1007.786,1378.25
1008.730,1328.50
1009.674,1369.75
1010.618,1324.50
1011.564,1319.25
1012.508,1365.00
1013.452,1343.25
1014.396,1335.50
1015.339,1324.50
1016.283,1301.00
1017.226,1350.00
1018.170,1333.00
1019.113,1289.50
1020.056,1336.25
1020.999,1302.75
1021.942,1282.50
1022.885,1315.25
1023.828,1300.50
1024.770,1286.00
1025.715,1312.25
1026.657,1317.75
1027.600,1374.00
1028.542,1332.25
1029.484,1332.75
1030.426,1275.00
1031.368,1322.00
1032.310,1303.25
1033.251,1306.75
1034.193,1283.00
1035.135,1269.50
1036.076,1274.75
1037.017,1271.75
1037.959,1275.00
1038.900,1290.25
1039.843,1277.75
1040.784,1288.00
1041.725,1271.25
1042.665,1284.25
1043.606,1298.25
1044.547,1242.50
1045.487,1305.25
1046.427,1287.00
1047.368,1313.00
1048.308,1262.75
1049.248,1332.75
1050.188,1296.75
1051.128,1236.25
1052.067,1242.00
1053.007,1269.00
1053.947,1304.75
1054.886,1309.00
1055.827,1255.75
1056.766,1285.50
1057.706,1304.50
1058.645,1298.25
1059.584,1325.75
1060.522,1246.75
1061.461,1283.75
1062.400,1221.50
1063.338,1263.00
1064.277,1293.75
1065.215,1284.75
1066.154,1318.25
1067.092,1264.00
1068.030,1285.25
1068.968,1276.00
1069.906,1276.00
1070.843,1320.25
1071.781,1310.25
1072.720,1257.75
1073.658,1259.00
1074.595,1283.50
1075.533,1289.25
1076.470,1317.00
1077.407,1271.25
1078.344,1307.25
1079.281,1267.75
1080.217,1293.25
1081.154,1293.75
1082.091,1243.00
1083.027,1251.00
1083.964,1285.00
1084.900,1276.75
1085.836,1296.00
1086.772,1292.50
1087.708,1245.50
1088.644,1246.75
1089.580,1241.25
1090.515,1225.50
1091.451,1269.50
1092.388,1266.25
1093.324,1298.00
1094.259,1258.25
1095.194,1259.50
1096.129,1277.25
1097.064,1256.75
1097.999,1295.50
1098.934,1273.00
1099.869,1283.25
1100.803,1295.25
1101.738,1239.25
1102.672,1265.50
1103.607,1255.50
1104.541,1283.00
1105.475,1232.00
1106.409,1243.00
1107.343,1217.50
1108.277,1234.75
1109.210,1275.00
1110.144,1198.00
1111.078,1203.75
1112.011,1225.75
1112.944,1215.25
1113.878,1227.25
1114.811,1189.25
1115.744,1191.00
1116.678,1214.75
1117.611,1226.00
1118.544,1224.00
1119.477,1162.00
1120.409,1220.75
1121.342,1164.00
1122.274,1159.00
1123.206,1235.50
1124.138,1184.75
1125.070,1147.75
1126.002,1175.50
1126.934,1170.75
1127.866,1215.25
1128.798,1202.50
1129.729,1171.25
1130.661,1147.25
1131.592,1125.25
1132.523,1224.25
1133.454,1196.25
1134.385,1172.00
1135.317,1184.00
1136.247,1144.00
1137.178,1156.75
1138.109,1163.25
1139.039,1186.00
1139.970,1176.50
1140.900,1197.75
1141.831,1121.00
1142.761,1148.00
1143.691,1229.50
1144.621,1180.50
1145.551,1190.00
1146.480,1159.50
1147.410,1115.25
1148.340,1168.25
1149.269,1118.50
1150.199,1123.50
1151.128,1162.50
1152.057,1149.00
1152.979,1104.25
1153.898,1168.75
1154.819,1108.75
1155.739,1150.50
1156.658,1133.50
1157.579,1115.75
1158.498,1161.50
1159.419,1116.00
1160.338,1160.50
1161.256,1125.75
1162.177,1144.00
1163.095,1142.50
1164.016,1118.50
1164.934,1124.50
1165.852,1085.50
1166.772,1098.50
1167.690,1106.00
1168.610,1138.50
1169.528,1104.50
1170.446,1097.25
1171.365,1100.75
1172.283,1061.50
1173.202,1076.75
1174.120,1058.25
1175.037,1108.00
1175.956,1096.00
1176.873,1083.50
1177.792,1117.75
1178.709,1126.00
1179.626,1094.00
1180.544,1095.00
1181.461,1124.50
1182.379,1107.00
1183.296,1090.50
1184.212,1136.75
1185.130,1099.00
1186.046,1066.50
1186.962,1131.25
1187.880,1084.50
1188.796,1067.00
1189.714,1111.25
1190.629,1042.50
1191.545,1104.00
1192.462,1038.25
1193.378,1063.75
1194.295,1080.75
1195.210,1058.75
1196.125,1089.50
1197.042,1089.50
1197.957,1097.75
1198.872,1086.50
1199.788,1088.00
1200.703,1070.50
1201.619,1059.50
1202.534,1107.00
1203.448,1113.50
1204.364,1052.00
1205.278,1124.50
1206.192,1089.50
1207.108,1044.75
1208.022,1063.50
1208.938,1064.00
1209.851,1138.50
1210.765,1092.00
1211.680,1080.00
1212.594,1095.25
1213.507,1114.50
1214.422,1127.50
1215.335,1018.50
1216.248,1082.75
1217.163,1074.75
1218.076,1062.25
1218.990,1101.25
1219.903,1107.25
1220.816,1075.00
1221.730,1065.75
1222.642,1053.75
1223.554,1062.00
1224.469,1121.75
1225.380,1095.25
1226.292,1100.00
1227.206,1061.75
1228.118,1088.75
1229.032,1077.50
1229.943,1081.00
1230.855,1156.25
1231.768,1064.50
1232.679,1064.00
1233.590,1083.75
1234.503,1115.50
1235.414,1102.25
1236.325,1106.25
1237.238,1121.50
1238.149,1106.25
1239.059,1088.50
1239.972,1051.75
1240.882,1060.00
1241.793,1063.75
1242.705,1117.00
1243.615,1086.00
1244.525,1104.00
1245.437,1107.25
1246.347,1084.00
1247.259,1094.25
1248.168,1081.00
1249.078,1071.50
1249.989,1085.00
1250.899,1076.75
1251.808,1069.00
1252.719,1101.50
1253.628,1062.50
1254.537,1089.50
1255.448,1102.50
1256.357,1078.25
1257.266,1085.50
1258.176,1109.75
1259.085,1071.00
1259.993,1067.00
1260.904,1101.00
1261.812,1067.50
1262.720,1076.75
1263.630,1090.50
1264.538,1075.25
1265.446,1126.25
1266.356,1079.50
1267.263,1049.25
1268.171,1108.00
1269.080,1105.00
1269.988,1096.00
1270.895,1092.00
1271.804,1085.00
1272.711,1139.50
1273.619,1082.75
1274.527,1044.50
1275.434,1077.00
1276.341,1050.25
1277.248,1096.50
1278.156,1103.50
1279.063,1090.50
1279.969,1059.00
1280.877,1106.75
1281.783,1068.50
1282.690,1135.00
1283.598,1120.25
1284.503,1085.50
1285.409,1094.25
1286.317,1109.25
1287.223,1075.25
1288.128,1086.00
1289.036,1060.75
1289.941,1059.00
1290.846,1113.00
1291.751,1095.25
1292.658,1105.00
1293.563,1075.00
1294.468,1059.25
1295.375,1084.50
1296.280,1058.25
1297.184,1041.75
1298.091,1062.50
1298.995,1052.00
1299.900,1068.75
1300.806,1058.00
1301.710,1052.00
1302.614,1042.25
1303.518,1047.25
1304.424,1046.00
1305.327,1052.75
1306.231,1068.00
1307.137,1059.00
1308.040,1074.00
1308.943,1011.25
1309.847,1042.75
1310.752,1050.50
1311.655,1046.50
1312.558,1044.75
1313.463,1025.00
1314.366,1038.25
1315.269,1001.75
1316.171,1043.50
1317.076,1022.00
1317.978,1038.75
1318.881,984.75
1319.785,1002.75
1320.687,1026.25
1321.589,1013.75
1322.491,984.00
1323.395,1026.75
1324.297,1025.75
1325.198,1020.25
1326.102,1038.00
1327.004,1003.25
1327.905,1015.00
1328.806,996.00
1329.709,972.75
1330.611,1019.00
1331.512,1015.25
1332.413,979.50
1333.316,977.50
1334.216,956.25
1335.117,1017.75
1336.020,965.00
1336.920,977.00
1337.821,1000.50
1338.721,981.00
1339.623,989.00
1340.523,981.25
1341.423,985.75
1342.323,985.75
1343.225,967.50
1344.125,958.50
1345.025,975.25
1345.924,955.25
1346.826,968.75
1347.725,957.50
1348.624,923.25
1349.524,948.00
1350.425,984.00
1351.324,960.25
1352.223,932.25
1353.121,927.00
1354.022,940.50
1354.921,960.25
1355.819,942.50
1356.718,936.75
1357.618,961.50
1358.516,939.50
1359.415,904.75
1360.313,934.00
1361.213,927.00
1362.111,902.25
1363.008,928.75
1363.906,892.75
1364.806,942.50
1365.703,906.75
1366.601,952.25
1367.498,875.75
1368.397,889.00
1369.295,927.50
1370.192,958.25
1371.089,943.25
1371.987,879.00
1372.884,899.75
1373.781,849.50
1374.678,885.25
1375.574,876.25
1376.473,915.50
1377.369,950.00
1378.265,902.25
1379.161,865.25
1380.059,920.00
1380.955,918.75
1381.851,902.50
1382.747,866.00
1383.643,912.75
1384.540,901.25
1385.436,933.75
1386.331,925.00
1387.227,917.75
1388.124,870.00
1389.019,839.25
1389.914,906.00
1390.809,862.00
1391.704,835.75
1392.601,915.75
1393.495,845.75
1394.390,847.25
1395.285,859.50
1396.179,845.75
1397.075,902.00
1397.969,884.75
1398.864,890.25
1399.758,870.50
1400.652,867.00
1401.547,850.50
1402.441,862.50
1403.335,862.25
1404.229,863.00
1405.122,859.50
1406.017,865.50
1406.911,838.75
1407.804,861.75
1408.697,857.50
1409.590,875.50
1410.485,847.25
1411.378,857.25
1412.271,881.50
1413.163,808.75
1414.056,896.50
1414.949,851.75
1415.843,833.50
1416.735,893.75
1417.627,842.75
1418.520,846.75
1419.412,837.25
1420.306,823.50
1421.197,799.00
1422.089,848.75
1422.981,858.00
1423.873,853.50
1424.764,791.75
1425.657,899.75
1426.549,845.50
1427.440,836.75
1428.331,862.75
1429.222,863.75
1430.113,844.00
1431.006,852.75
1431.897,854.75
1432.787,793.75
1433.678,840.00
1434.568,863.75
1435.459,870.00
1436.351,824.00
1437.241,819.00
1438.131,847.50
1439.021,831.75
1439.911,808.75
1440.801,829.25
1441.693,784.50
1442.583,847.25
1443.472,818.25
1444.362,822.25
1445.251,836.75
1446.140,816.75
1447.030,872.00
1447.921,822.50
1448.810,846.75
1449.699,822.25
1450.588,864.75
1451.476,794.00
1452.365,828.25
1453.254,829.00
1454.144,823.75
1455.032,838.00
1455.921,830.00
1456.809,836.50
1457.697,820.50
1458.585,832.00
1459.473,791.50
1460.361,770.50
1461.251,865.25
1462.138,808.75
1463.026,797.25
1463.913,805.25
1464.801,781.50
1465.688,838.50
1466.575,820.00
1467.463,797.25
1468.351,808.75
1469.238,810.50
1470.125,825.25
1471.012,800.00
1471.899,806.75
1472.785,824.00
1473.672,769.00
1474.558,798.00
1475.446,799.50
1476.333,831.75
1477.219,778.50
1478.105,819.50
1478.991,766.75
1479.877,792.50
1480.762,776.50
1481.648,798.75
1482.534,780.00
1483.419,809.75
1484.307,765.50
1485.192,781.25
1486.077,778.00
1486.962,780.50
1487.847,772.25
1488.732,781.50
1489.617,746.75
1490.502,741.00
1491.387,772.00
1492.271,767.00
1493.156,725.00
1494.042,790.25
1494.927,738.50
1495.811,748.00
1496.695,783.75
1497.579,818.00
1498.463,781.25
1499.347,780.25
1500.231,728.50
1501.114,760.50
1501.998,816.25
1502.881,771.00
1503.765,812.25
1504.648,727.25
1505.533,753.25
1506.417,728.25
1507.300,788.00
1508.183,745.25
1509.066,763.25
1509.948,751.25
1510.831,799.75
1511.714,733.50
1512.596,750.75
1513.479,768.25
1514.361,761.00
1515.243,721.25
1516.125,764.50
1517.008,742.00
1517.890,741.75
1518.771,751.25
1519.655,730.00
1520.537,757.50
1521.419,742.00
1522.300,754.00
1523.182,739.00
1524.063,749.25
1524.944,767.50
1525.825,742.75
1526.707,700.00
1527.588,711.25
1528.468,778.00
1529.349,727.00
1530.230,738.00
1531.111,747.25
1531.991,759.25
1532.872,722.25
1533.752,725.75
1534.632,733.00
1535.513,722.00
1536.393,715.75
1537.273,755.75
1538.153,754.00
1539.032,718.75
1539.912,725.00
1540.792,722.25
1541.672,715.75
1542.551,746.50
1543.430,742.25
1544.310,759.25
1545.189,701.50
1546.068,757.50
1546.947,730.25
1547.826,788.25
1548.705,763.50
1549.584,791.50
1550.462,715.75
1551.341,733.50
1552.219,754.00
1553.098,727.50
1553.976,724.25
1554.854,710.25
1555.733,729.75
1556.611,713.75
1557.489,717.75
1558.367,725.50
1559.244,700.50
1560.122,758.75
1561.000,699.75
1561.877,705.50
1562.755,668.50
1563.632,720.50
1564.509,732.00
1565.386,647.75
1566.264,739.75
1567.141,716.50
1568.017,738.75
1568.894,706.00
1569.771,713.75
1570.648,692.75
1571.524,713.50
1572.401,687.00
1573.277,721.75
1574.153,715.00
1575.029,698.50
1575.906,710.50
1576.781,686.75
1577.657,709.25
1578.533,669.25
1579.409,673.00
1580.285,673.25
1581.160,698.25
1582.036,702.75
1582.911,712.00
1583.786,718.25
1584.662,718.25
1585.537,717.50
1586.412,729.75
1587.287,725.50
1588.160,678.25
1589.035,674.75
1589.909,670.25
1590.784,710.75
1591.658,679.50
1592.533,741.00
1593.407,690.25
1594.281,723.50
1595.155,687.25
1596.029,675.75
1596.903,697.00
1597.777,683.75
1598.651,681.50
1599.525,707.75
1600.398,714.50
1601.272,647.50
1602.144,675.50
1603.017,694.75
1603.890,678.25
1604.763,733.50
1605.636,702.00
1606.509,703.50
1607.382,681.00
1608.255,667.25
1609.128,672.50
1610.000,711.25
1610.873,690.50
1611.746,711.25
1612.616,670.00
1613.488,743.50
1614.361,672.25
1615.233,665.75
1616.105,716.00
1616.977,653.50
1617.849,692.50
1618.720,731.00
1619.592,660.25
1620.464,671.50
1621.333,665.25
1622.205,672.75
1623.076,684.50
1623.947,660.75
1624.818,715.50
1625.689,654.75
1626.560,684.25
1627.431,695.50
1628.302,698.75
1629.171,711.25
1630.042,665.25
1630.912,690.25
1631.782,658.50
1632.653,673.25
1633.523,689.00
1634.393,718.50
1635.263,686.75
1636.131,669.75
1637.001,653.25
1637.871,693.25
1638.741,653.75
1639.611,659.25
1640.480,702.25
1641.350,708.00
1642.219,670.75
1643.087,670.00
1643.956,749.25
1644.825,673.25
1645.694,644.75
1646.563,664.75
1647.432,676.00
1648.299,711.50
1649.167,644.75
1650.036,692.25
1650.904,668.75
1651.773,693.00
1652.641,726.50
1653.509,687.75
1654.376,654.75
1655.244,695.00
1656.112,684.25
1656.980,663.50
1657.847,698.25
1658.715,689.00
1659.581,619.25
1660.448,606.00
1661.316,683.75
1662.183,687.50
1663.051,647.50
1663.918,703.50
1664.783,624.50
1665.650,663.75
1666.517,680.25
1667.384,695.75
1668.251,636.00
1669.115,700.75
1669.982,671.25
1670.849,668.75
1671.715,642.00
1672.581,627.00
1673.446,660.25
1674.312,679.00
1675.178,712.25
1676.044,681.50
1676.910,684.00
1677.774,667.50
1678.639,651.50
1679.505,713.25
1680.370,666.50
1681.236,644.75
1682.099,667.75
1682.965,669.25
1683.830,684.75
1684.695,656.25
1685.560,672.25
1686.423,688.25
1687.288,648.50
1688.153,646.00
1689.017,705.00
1689.880,621.50
1690.745,655.75
1691.609,640.75
1692.473,616.25
1693.338,669.75
1694.200,659.25
1695.064,641.50
1695.928,686.25
1696.792,638.00
1697.654,670.00
1698.517,690.25
1699.381,622.50
1700.245,629.00
1701.106,653.50
1701.969,656.50
1702.833,677.25
1703.696,625.25
1704.557,628.25
1705.420,675.50
1706.283,656.50
1707.146,663.00
1708.007,657.25
1708.870,644.00
1709.732,633.50
1710.595,637.25
1711.455,630.50
1712.318,663.25
1713.180,593.50
1714.040,658.75
1714.902,647.00
1715.764,677.75
1716.626,632.75
1717.486,686.25
1718.348,672.25
1719.209,663.75
1720.071,645.00
1720.930,637.75
1721.792,660.75
1722.653,639.00
1723.512,641.25
1724.374,717.50
1725.234,685.25
1726.095,610.00
1726.954,651.50
1727.815,623.75
1728.676,655.50
1729.535,630.75
1730.395,661.75
1731.256,645.50
1732.114,648.00
1732.974,646.25
1733.834,613.75
1734.693,636.00
1735.553,667.50
1736.413,631.75
1737.272,608.25
1738.130,659.25
1738.990,657.00
1739.849,643.50
1740.707,588.00
1741.566,640.00
1742.426,666.25
1743.283,622.75
1744.142,621.50
1745.001,637.50
1745.858,633.25
1746.717,644.75
1747.576,691.00
1748.433,640.25
1749.292,643.50
1750.150,645.00
1751.007,623.00
1751.865,651.25
1752.723,637.00
1753.579,676.00
1754.438,677.50
1755.296,636.75
1756.152,592.00
1757.010,628.50
1757.865,588.00
1758.723,674.75
1759.581,688.25
1760.436,653.00
1761.294,641.25
1762.151,616.75
1763.006,629.00
1763.864,650.50
1764.721,630.50
1765.576,662.00
1766.433,629.00
1767.288,606.75
1768.144,618.75
1769.001,639.50
1769.856,676.50
1770.712,595.75
1771.568,690.50
1772.423,645.00
1773.279,640.50
1774.133,620.50
1774.989,652.00
1775.845,615.50
1776.699,660.75
1777.555,593.50
1778.409,627.00
1779.265,612.75
1780.120,626.25
1780.974,638.75
1781.829,615.25
1782.682,645.50
1783.538,587.00
1784.393,623.25
1785.246,593.00
1786.101,628.00
1786.954,643.75
1787.808,598.50
1788.661,638.75
1789.516,626.50
1790.370,622.00
1791.223,623.75
1792.077,627.25
1792.930,647.50
1793.784,599.25
1794.636,630.75
1795.490,616.00
1796.344,638.75
1797.196,624.25
1798.049,656.75
1798.901,643.75
1799.755,573.75
1800.606,603.00
1801.460,612.00
1802.311,661.00
1803.165,647.25
1804.018,624.00
1804.869,593.00
1805.722,696.00
1806.573,659.50
1807.426,615.00
1808.276,607.75
1809.129,627.00
1809.980,600.75
1810.832,646.75
1811.683,605.00
1812.535,647.00
1813.385,594.50
1814.237,647.50
1815.089,593.75
1815.940,641.75
1816.791,637.50
1817.641,630.50
1818.493,614.50
1819.343,581.25
1820.194,641.25
1821.044,647.25
1821.895,594.25
1822.745,635.25
1823.596,611.75
1824.445,612.50
1825.296,617.75
1826.145,603.75
1826.996,627.50
1827.845,640.25
1828.695,636.25
1829.544,625.75
1830.395,611.75
1831.243,634.50
1832.094,624.00
1832.942,602.25
1833.792,643.00
1834.640,620.00
1835.490,609.75
1836.338,616.75
1837.186,586.25
1838.036,633.75
1838.884,606.25
1839.733,621.25
1840.581,634.00
1841.430,658.50
1842.278,623.00
1843.127,630.25
1843.974,633.25
1844.823,628.25
1845.671,622.25
1846.519,558.50
1847.366,585.00
1848.213,610.25
1849.062,616.25
1849.909,638.75
1850.757,591.00
1851.604,629.50
1852.452,629.75
1853.298,595.00
1854.146,612.75
1854.993,580.75
1855.839,602.50
1856.687,630.00
1857.532,603.00
1858.380,609.25
1859.226,635.75
1860.073,636.25
1860.919,633.50
1861.765,624.75
1862.612,644.25
1863.457,623.00
1864.304,600.00
1865.150,560.50
1865.995,609.25
1866.842,630.75
1867.686,638.50
1868.533,590.25
1869.378,582.50
1870.223,589.75
1871.069,553.00
1871.914,648.50
1872.760,649.75
1873.604,614.75
1874.448,581.00
1875.294,594.50
1876.139,622.50
1876.984,655.50
1877.828,609.00
1878.672,581.50
1879.518,599.75
1880.361,578.75
1881.205,628.25
1882.050,617.75
1882.894,614.00
1883.739,583.00
1884.582,616.25
1885.425,565.00
1886.270,617.00
1887.113,609.50
1887.956,612.25
1888.801,623.00
1889.644,605.75
1890.486,596.75
1891.331,574.75
1892.173,630.75
1893.017,596.75
1893.860,635.00
1894.702,614.00
1895.546,577.75
1896.388,636.00
1897.230,641.00
1898.074,573.25
1898.916,589.50
1899.757,599.00
1900.601,654.50
1901.443,564.75
1902.284,610.75
1903.125,577.25
1903.969,571.75
1904.810,574.25
1905.651,618.00
1906.494,609.75
1907.335,595.75
1908.176,590.00
1909.018,569.00
1909.859,612.25
1910.700,589.75
1911.542,575.75
1912.383,622.50
1913.223,597.00
1914.064,561.00
1914.906,625.50
1915.746,638.00
1916.586,603.25
1917.428,620.50
1918.268,569.50
1919.107,608.50
1919.947,584.50
1920.789,631.00
1921.628,612.50
1922.468,597.75
1923.309,608.25
1924.148,611.75
1924.988,640.50
1925.827,610.50
1926.667,556.75
1927.507,561.75
1928.345,614.75
1929.184,625.75
1930.025,613.75
1930.864,581.00
1931.702,645.50
1932.541,622.00
1933.381,612.50
1934.219,588.50
1935.057,645.50
1935.896,604.00
1936.735,598.50
1937.573,594.25
1938.411,582.50
1939.249,599.50
1940.089,608.75
1940.927,626.50
1941.764,576.50
1942.602,557.25
1943.439,570.75
1944.278,605.25
1945.115,633.00
1945.953,590.25
1946.790,575.25
1947.628,657.25
1948.465,646.00
1949.302,605.00
1950.139,619.00
1950.976,586.25
1951.814,619.00
1952.651,582.50
1953.487,538.25
1954.323,595.50
1955.160,615.00
1955.998,620.25
1956.834,611.50
1957.670,585.50
1958.506,583.00
1959.342,561.50
1960.177,594.00
1961.015,629.75
1961.850,581.00
1962.686,599.50
1963.521,607.50
1964.357,582.75
1965.192,575.25
1966.029,612.50
1966.864,628.50
1967.699,596.50
1968.534,583.25
1969.369,613.00
1970.204,572.50
1971.040,600.25
1971.875,608.25
1972.709,580.50
1973.544,584.25
1974.378,537.50
1975.212,602.00
1976.047,614.25
1976.882,615.25
1977.716,611.50
1978.550,605.75
1979.384,590.25
1980.218,594.00
1981.052,610.25
1981.885,562.50
1982.719,560.00
1983.554,613.75
1984.388,623.00
1985.221,559.75
1986.054,620.50
1986.887,600.50
1987.720,594.75
1988.553,610.50
1989.386,619.25
1990.219,624.75
1991.053,538.50
1991.886,590.00
1992.719,560.00
1993.551,575.00
1994.383,610.75
1995.216,615.50
1996.048,602.50
1996.880,627.50
1997.712,595.75
1998.544,601.00
1999.376,603.25
2000.208,575.50
2001.040,605.00
2001.873,584.50
2002.705,575.50
2003.536,583.00
2004.367,619.75
2005.199,580.50
2006.030,620.75
2006.861,642.25
2007.692,584.50
2008.523,580.00
2009.354,633.25
2010.185,596.75
2011.016,575.75
2011.846,629.75
2012.677,573.75
2013.507,631.25
2014.338,652.75
2015.168,609.00
2015.999,594.25
2016.829,632.25
2017.659,592.00
2018.489,608.00
2019.319,611.75
2020.149,585.25
2020.980,572.00
2021.810,556.75
2022.639,619.25
2023.469,592.50
2024.298,614.25
2025.128,587.50
2025.957,597.00
2026.786,596.00
2027.615,598.75
2028.444,579.00
2029.273,601.50
2030.102,577.50
2030.931,637.75
2031.758,617.25
2032.586,613.75
2033.415,608.50
2034.243,604.50
2035.072,592.00
2035.900,607.50
2036.728,612.75
2037.556,654.25
2038.385,602.50
2039.213,610.25
2040.040,630.00
2040.868,628.25
2041.696,598.25
2042.524,587.25
2043.351,620.00
2044.179,597.75
2045.006,576.00
2045.006,576.00

Max Intensity Wave.,218.899
Max Intensity Data,5558.25
Min Intensity Wave.,1974.378
Min Intensity Data,537.50
FWHM Wave.,402.257
FWHM Value,0.36
Pressure Wave.,686.734
Pressure Value [GPa],-19.52157
G/D Ratio,0.73701
G/D Gband Wave.,1549.381
G/D Gband Intensity,794.25
G/D Dband Wave.,1307.763
G/D Dband Intensity,1077.67

<< BACKGROUND SPECTRUM >>
Wave[dcm-1],No111
146.591,2340.00
147.626,2178.00
148.664,2091.00
149.699,2591.00
150.737,2359.00
151.772,2497.00
152.809,2493.00
153.846,2394.00
154.881,2470.00
155.918,2051.00
156.953,2382.00
157.989,2715.00
159.026,2533.00
160.060,2721.00
161.096,2990.00
162.130,2609.00
163.167,2671.00
164.200,2547.00
165.236,2750.00
166.272,2816.00
167.305,2350.00
168.341,2630.00
169.374,2874.00
170.409,2904.00
171.445,2836.00
172.477,2669.00
173.512,2505.00
174.545,2820.00
175.580,2977.00
176.614,3137.00
177.647,2914.00
178.681,3171.00
179.713,3476.00
180.747,2959.00
181.781,2791.00
182.813,3109.00
183.847,3271.00
184.878,2817.00
185.912,3119.00
186.945,3254.00
187.976,3235.00
189.010,2811.00
190.043,2962.00
191.073,3070.00
192.106,2820.00
193.137,3327.00
194.170,2655.00
195.202,3005.00
196.232,2772.00
197.265,3112.00
198.297,3199.00
199.327,2902.00
200.359,3023.00
201.388,3449.00
202.420,2996.00
203.452,3218.00
204.481,2809.00
205.512,3455.00
206.544,3206.00
207.573,3185.00
208.604,3509.00
209.635,3662.00
210.663,3067.00
211.694,3093.00
212.725,2959.00
213.753,2895.00
214.783,3549.00
215.813,3342.00
216.841,3094.00
217.871,3306.00
218.899,3042.00
219.929,3314.00
220.959,3012.00
221.986,3269.00
223.016,2889.00
224.045,3272.00
225.072,3236.00
226.101,3301.00
227.130,3398.00
228.157,2951.00
229.185,2424.00
230.214,3356.00
231.241,2947.00
232.269,2537.00
233.297,2810.00
234.323,3373.00
235.351,2944.00
236.379,3230.00
237.407,2887.00
238.433,3064.00
239.460,3278.00
240.488,3277.00
241.513,3329.00
242.540,3219.00
243.568,3376.00
244.592,3388.00
245.619,3314.00
246.646,3043.00
247.671,3070.00
248.697,2912.00
249.724,3132.00
250.748,3173.00
251.774,3122.00
252.801,3449.00
253.827,3249.00
254.850,3205.00
255.876,2802.00
256.902,3277.00
257.925,3115.00
258.951,2843.00
259.976,2871.00
260.999,3224.00
262.024,2950.00
263.049,3791.00
264.074,3187.00
265.097,3119.00
266.122,3213.00
267.146,3137.00
268.168,3327.00
269.193,2998.00
270.217,3366.00
271.241,2798.00
272.263,2974.00
273.287,3283.00
274.311,2917.00
275.332,3421.00
276.356,2945.00
277.379,3220.00
278.402,3235.00
279.424,3035.00
280.447,2998.00
281.470,2798.00
282.492,3209.00
283.513,3006.00
284.536,3294.00
285.558,3277.00
286.581,3225.00
287.601,2975.00
288.623,2877.00
289.645,3197.00
290.665,3255.00
291.687,3291.00
292.709,3251.00
293.730,3539.00
294.750,3002.00
295.771,2842.00
296.792,3150.00
297.813,3031.00
298.832,3178.00
299.853,2864.00
300.874,3109.00
301.895,3092.00
302.913,3111.00
303.934,3413.00
304.954,3168.00
305.975,3342.00
306.993,2848.00
308.013,3258.00
309.033,3151.00
310.052,3037.00
311.072,3004.00
312.090,3157.00
313.109,3405.00
314.129,3530.00
315.148,3151.00
316.165,3213.00
317.184,3386.00
318.203,2879.00
319.222,2857.00
320.238,3279.00
321.257,2946.00
322.275,2808.00
323.294,3151.00
324.312,3231.00
325.328,3391.00
326.346,3409.00
327.364,3344.00
328.382,3339.00
329.397,3303.00
330.415,3363.00
331.432,3362.00
332.450,3436.00
333.467,3622.00
334.482,2682.00
335.499,3502.00
336.516,3013.00
337.533,2700.00
338.547,2980.00
339.564,2924.00
340.580,3224.00
341.597,3050.00
342.613,3641.00
343.627,3132.00
344.643,3148.00
345.659,3241.00
346.675,3097.00
347.690,3007.00
348.704,3185.00
349.719,3021.00
350.735,2851.00
351.750,3343.00
352.765,3134.00
353.778,3135.00
354.793,3271.00
355.808,2942.00
356.822,3294.00
357.837,2744.00
358.851,3351.00
359.864,3083.00
360.878,2865.00
361.892,3077.00
362.906,3312.00
363.920,2706.00
364.932,3246.00
365.945,3219.00
366.959,3123.00
367.972,3068.00
368.986,2804.00
369.999,3508.00
371.010,2990.00
372.023,3494.00
373.036,3108.00
374.049,3540.00
375.061,3156.00
376.072,3136.00
377.084,2964.00
378.097,2809.00
379.109,3324.00
380.121,3116.00
381.133,2792.00
382.143,3229.00
383.155,2855.00
384.166,3024.00
385.178,3209.00
386.189,3357.00
387.201,2818.00
388.212,3082.00
389.221,3048.00
390.232,3135.00
391.243,3066.00
392.254,3124.00
393.264,2928.00
394.275,3381.00
395.283,3315.00
396.294,3769.00
397.304,3664.00
398.314,3224.00
399.324,3130.00
400.334,2783.00
401.344,3263.00
402.351,2765.00
403.361,3345.00
404.370,3100.00
405.380,3038.00
406.389,3514.00
407.398,3238.00
408.407,3186.00
409.414,3277.00
410.423,3444.00
411.431,2860.00
412.440,2800.00
413.448,3461.00
414.457,2959.00
415.465,2932.00
416.471,2976.00
417.479,3144.00
418.487,2975.00
419.495,3442.00
420.503,3232.00
421.510,2725.00
422.518,3273.00
423.525,3307.00
424.530,3560.00
425.537,3013.00
426.544,3411.00
427.551,3006.00
428.558,3719.00
429.565,3544.00
430.571,3015.00
431.578,3034.00
432.582,3029.00
433.588,3074.00
434.595,2748.00
435.601,3422.00
436.607,3349.00
437.612,2871.00
438.618,3480.00
439.624,3029.00
440.627,3100.00
441.633,3303.00
442.638,3754.00
443.643,3228.00
444.648,3162.00
445.653,3285.00
446.658,3046.00
447.663,3116.00
448.667,2993.00
449.672,3013.00
450.674,3086.00
451.678,2841.00
452.682,3020.00
453.687,2906.00
454.690,3754.00
455.694,3416.00
456.698,2631.00
457.702,2740.00
458.705,2897.00
459.709,2908.00
460.710,2997.00
461.713,3163.00
462.716,3200.00
463.719,3142.00
464.722,3293.00
465.725,3055.00
466.727,2978.00
467.730,3148.00
468.732,2908.00
469.735,3415.00
470.737,3022.00
471.737,3013.00
472.739,3024.00
473.741,2968.00
474.742,3127.00
475.744,3209.00
476.746,3122.00
477.747,3080.00
478.748,3316.00
479.750,3063.00
480.751,3115.00
481.752,3884.00
482.753,3208.00
483.751,3657.00
484.752,2731.00
485.753,3102.00
486.753,2969.00
487.753,3104.00
488.754,3571.00
489.754,2831.00
490.754,3408.00
491.754,3222.00
492.754,2776.00
493.753,3167.00
494.753,3010.00
495.752,3485.00
496.752,3161.00
497.749,3117.00
498.748,2938.00
499.747,3501.00
500.746,3219.00
501.745,2903.00
502.744,2814.00
503.742,3472.00
504.741,3067.00
505.739,2602.00
506.737,3019.00
507.735,3312.00
508.734,3516.00
509.732,3263.00
510.729,3453.00
511.727,2998.00
512.725,3052.00
513.720,2901.00
514.718,3386.00
515.715,2771.00
516.712,2700.00
517.709,3093.00
518.706,3003.00
519.703,3177.00
520.700,3283.00
521.696,3465.00
522.693,3031.00
523.689,2946.00
524.686,3279.00
525.682,2887.00
526.678,3594.00
527.674,2994.00
528.670,2680.00
529.666,3614.00
530.661,3615.00
531.657,3272.00
532.652,3281.00
533.648,3144.00
534.641,3324.00
535.636,3191.00
536.631,3229.00
537.626,3287.00
538.621,2849.00
539.616,2708.00
540.610,2607.00
541.605,3098.00
542.599,3194.00
543.593,3091.00
544.587,4008.00
545.581,2978.00
546.575,3121.00
547.569,3100.00
548.563,2807.00
549.557,2725.00
550.550,2872.00
551.543,2838.00
552.537,3268.00
553.530,2887.00
554.523,2927.00
555.516,3224.00
556.509,3080.00
557.502,2741.00
558.494,3343.00
559.487,3003.00
560.479,3369.00
561.472,3325.00
562.464,3279.00
563.456,3459.00
564.448,3034.00
565.440,3123.00
566.432,3522.00
567.423,3007.00
568.415,3027.00
569.404,3229.00
570.396,2902.00
571.387,3193.00
572.378,3114.00
573.369,4150.00
574.360,3783.00
575.351,3045.00
576.341,2923.00
577.332,2972.00
578.323,2777.00
579.313,2999.00
580.303,3359.00
581.293,3258.00
582.283,3089.00
583.273,3243.00
584.263,3110.00
585.253,3203.00
586.243,3301.00
587.232,2730.00
588.222,3055.00
589.211,3320.00
590.200,3154.00
591.189,3062.00
592.178,3096.00
593.167,3502.00
594.156,3420.00
595.145,3029.00
596.133,3592.00
597.122,3201.00
598.110,3332.00
599.098,3140.00
600.086,3143.00
601.074,3348.00
602.062,2959.00
603.050,2873.00
604.038,3228.00
605.025,2875.00
606.013,3288.00
607.000,3526.00
607.987,3151.00
608.975,3173.00
609.962,2890.00
610.949,3285.00
611.936,3396.00
612.922,3286.00
613.909,2842.00
614.895,3505.00
615.882,2943.00
616.868,3085.00
617.854,2844.00
618.841,3128.00
619.826,3255.00
620.812,3111.00
621.798,2902.00
622.784,3256.00
623.769,3196.00
624.755,2802.00
625.740,3223.00
626.725,2844.00
627.711,2960.00
628.698,3200.00
629.683,2904.00
630.667,3307.00
631.652,2825.00
632.637,3064.00
633.621,3273.00
634.606,3036.00
635.590,3202.00
636.574,3094.00
637.558,3173.00
638.542,3195.00
639.526,2952.00
640.510,2713.00
641.493,3201.00
642.477,3083.00
643.460,2778.00
644.444,3373.00
645.427,3411.00
646.410,2791.00
647.393,3118.00
648.376,3180.00
649.359,3026.00
650.341,3162.00
651.324,3175.00
652.307,3165.00
653.289,3017.00
654.271,2992.00
655.253,3021.00
656.235,3247.00
657.217,3367.00
658.199,2731.00
659.181,2840.00
660.163,3086.00
661.144,2982.00
662.126,2950.00
663.107,2902.00
664.088,4865.00
665.069,3364.00
666.050,2936.00
667.033,2829.00
668.014,3157.00
668.995,2642.00
669.975,3053.00
670.956,3085.00
671.936,3243.00
672.916,3062.00
673.896,3204.00
674.876,3006.00
675.856,2994.00
676.836,2862.00
677.816,2380.00
678.795,2921.00
679.775,2780.00
680.754,3124.00
681.734,3293.00
682.713,3288.00
683.692,2839.00
684.671,2740.00
685.650,2853.00
686.629,2950.00
687.607,2809.00
688.586,2839.00
689.564,2977.00
690.543,3374.00
691.523,2461.00
692.501,2971.00
693.479,3071.00
694.457,2887.00
695.435,2989.00
696.413,2763.00
697.390,2586.00
698.368,2790.00
699.345,3262.00
700.322,3035.00
701.300,3123.00
702.277,3141.00
703.254,3373.00
704.231,2672.00
705.207,3062.00
706.184,2879.00
707.161,2763.00
708.137,2954.00
709.113,2912.00
710.090,2909.00
711.068,2695.00
712.044,2702.00
713.020,2977.00
713.996,2701.00
714.971,2903.00
715.947,2927.00
716.922,2941.00
717.898,2819.00
718.873,2999.00
719.848,2843.00
720.823,2795.00
721.798,3098.00
722.773,2862.00
723.748,2610.00
724.723,3106.00
725.697,2946.00
726.672,2820.00
727.646,2600.00
728.622,3117.00
729.596,2685.00
730.570,2876.00
731.544,3185.00
732.518,3348.00
733.492,2927.00
734.466,2987.00
735.439,3124.00
736.413,3238.00
737.386,2537.00
738.359,2514.00
739.332,2606.00
740.305,2961.00
741.278,3456.00
742.251,3050.00
743.224,2833.00
744.196,2668.00
745.171,3250.00
746.143,3116.00
747.115,2865.00
748.087,2823.00
749.059,3217.00
750.031,3000.00
751.003,3860.00
751.975,3406.00
752.947,2778.00
753.918,3206.00
754.890,2669.00
755.861,2908.00
756.832,3117.00
757.803,2913.00
758.774,2944.00
759.747,2698.00
760.718,3324.00
761.689,2814.00
762.659,2687.00
763.630,3285.00
764.600,2672.00
765.570,3156.00
766.540,3260.00
767.510,3046.00
768.480,3151.00
769.450,2789.00
770.420,2965.00
771.390,2717.00
772.359,2885.00
773.329,2759.00
774.300,2586.00
775.269,2846.00
776.238,3090.00
777.207,3267.00
778.176,2563.00
779.145,2896.00
780.114,2788.00
781.083,2677.00
782.051,2826.00
783.019,2791.00
783.988,3160.00
784.956,2973.00
785.924,3082.00
786.894,2968.00
787.862,2807.00
788.830,3237.00
789.797,2655.00
790.765,2708.00
791.732,2888.00
792.700,2731.00
793.667,2686.00
794.634,2830.00
795.601,2837.00
796.568,2892.00
797.535,2914.00
798.502,3560.00
799.468,2977.00
800.437,2487.00
801.403,2772.00
802.370,3437.00
803.336,3080.00
804.302,2967.00
805.268,2567.00
806.234,2677.00
807.200,2795.00
808.166,2824.00
809.131,2707.00
810.097,3106.00
811.062,3759.00
812.027,3115.00
812.994,2692.00
813.960,2727.00
814.925,3032.00
815.889,2607.00
816.854,3135.00
817.819,2741.00
818.783,2826.00
819.748,3221.00
820.712,2822.00
821.677,2655.00
822.641,2814.00
823.605,2784.00
824.571,3283.00
825.534,2849.00
826.498,2790.00
827.462,2900.00
828.425,2705.00
829.389,3126.00
830.352,2934.00
831.315,3021.00
832.279,2569.00
833.242,2878.00
834.204,2784.00
835.167,2753.00
836.132,3158.00
837.095,2595.00
838.057,2729.00
839.020,2925.00
839.982,2935.00
840.944,2765.00
841.906,2687.00
842.868,3082.00
843.830,2623.00
844.792,3186.00
845.753,2794.00
846.715,2502.00
847.679,2681.00
848.640,2706.00
849.601,2804.00
850.562,3380.00
851.523,2817.00
852.484,2566.00
853.445,3101.00
854.406,2768.00
855.367,2780.00
856.327,3087.00
857.288,2577.00
858.248,2775.00
859.210,2777.00
860.170,2620.00
861.130,3127.00
862.090,2519.00
863.050,2670.00
864.010,2771.00
864.969,2993.00
865.929,2686.00
866.888,2598.00
867.848,2925.00
868.807,2711.00
869.766,2967.00
870.727,2796.00
871.686,3125.00
872.645,3110.00
873.604,3439.00
874.562,2870.00
875.521,2920.00
876.479,3442.00
877.437,2688.00
878.396,2663.00
879.354,3241.00
880.312,2708.00
881.270,2721.00
882.229,3177.00
883.187,2690.00
884.145,2762.00
885.102,2997.00
886.059,2914.00
887.017,2979.00
887.974,3073.00
888.931,3204.00
889.888,2570.00
890.845,2496.00
891.802,2418.00
892.758,2710.00
893.717,2516.00
894.673,2637.00
895.630,2724.00
896.586,2989.00
897.542,2757.00
898.498,2613.00
899.454,2918.00
900.410,2768.00
901.366,2762.00
902.321,3898.00
903.277,2750.00
904.232,2833.00
905.189,2556.00
906.145,2740.00
907.100,2272.00
908.055,2821.00
909.010,3022.00
909.965,2413.00
910.919,2873.00
911.874,2656.00
912.828,2858.00
913.783,2856.00
914.737,2415.00
915.693,2871.00
916.648,2985.00
917.602,3024.00
918.555,2869.00
919.509,2962.00
920.463,2866.00
921.417,2859.00
922.370,2696.00
923.324,2787.00
924.277,2740.00
925.230,2869.00
926.183,2482.00
927.138,2781.00
928.091,3031.00
929.044,2937.00
929.996,2770.00
930.949,2752.00
931.902,2947.00
932.854,2923.00
933.806,2674.00
934.758,3069.00
935.711,3104.00
936.663,2883.00
937.614,2894.00
938.568,2848.00
939.520,2483.00
940.471,2776.00
941.423,2891.00
942.374,3001.00
943.326,2841.00
944.277,2702.00
945.228,2917.00
946.179,2786.00
947.130,3146.00
948.080,2726.00
949.031,2640.00
949.984,2783.00
950.934,2796.00
951.884,2512.00
952.835,2797.00
953.785,2821.00
954.735,2679.00
955.685,2429.00
956.635,2717.00
957.585,2706.00
958.534,2699.00
959.484,2834.00
960.433,2738.00
961.383,2562.00
962.334,3065.00
963.283,2874.00
964.232,2953.00
965.181,2813.00
966.130,2864.00
967.079,2715.00
968.027,2808.00
968.976,2794.00
969.924,2706.00
970.873,2913.00
971.821,2807.00
972.769,3057.00
973.719,2953.00
974.667,2532.00
975.615,2798.00
976.562,2775.00
977.510,2522.00
978.458,2706.00
979.405,2961.00
980.352,2824.00
981.300,3095.00
982.247,2913.00
983.194,2589.00
984.141,2698.00
985.088,2816.00
986.036,2819.00
986.983,3103.00
987.930,3262.00
988.876,2437.00
989.822,3028.00
990.769,2630.00
991.715,2710.00
992.661,2501.00
993.607,2899.00
994.553,3368.00
995.498,2673.00
996.444,2329.00
997.389,2842.00
998.337,2606.00
999.282,2984.00
1000.227,2722.00
1001.173,2783.00
1002.118,2553.00
1003.062,3004.00
1004.007,2788.00
1004.952,3045.00
1005.897,3050.00
1006.841,2842.00
1007.786,2528.00
1008.730,2493.00
1009.674,3258.00
1010.618,2740.00
1011.564,2612.00
1012.508,2468.00
1013.452,3019.00
1014.396,2785.00
1015.339,2701.00
1016.283,2817.00
1017.226,2829.00
1018.170,2770.00
1019.113,3015.00
1020.056,2795.00
1020.999,2827.00
1021.942,2722.00
1022.885,2964.00
1023.828,3102.00
1024.770,2590.00
1025.715,2834.00
1026.657,2781.00
1027.600,2789.00
1028.542,2996.00
1029.484,2796.00
1030.426,2940.00
1031.368,2867.00
1032.310,2654.00
1033.251,2621.00
1034.193,2792.00
1035.135,2601.00
1036.076,2718.00
1037.017,2624.00
1037.959,2947.00
1038.900,2868.00
1039.843,2882.00
1040.784,2829.00
1041.725,2893.00
1042.665,2698.00
1043.606,2841.00
1044.547,2885.00
1045.487,2435.00
1046.427,2754.00
1047.368,2852.00
1048.308,2330.00
1049.248,2567.00
1050.188,2774.00
1051.128,2716.00
1052.067,2780.00
1053.007,2493.00
1053.947,2447.00
1054.886,2628.00
1055.827,2584.00
1056.766,3053.00
1057.706,2507.00
1058.645,2734.00
1059.584,2812.00
1060.522,3088.00
1061.461,2518.00
1062.400,2603.00
1063.338,2745.00
1064.277,2592.00
1065.215,2593.00
1066.154,2476.00
1067.092,2694.00
1068.030,2735.00
1068.968,2952.00
1069.906,3127.00
1070.843,3040.00
1071.781,2821.00
1072.720,2919.00
1073.658,2917.00
1074.595,2674.00
1075.533,2656.00
1076.470,2647.00
1077.407,3086.00
1078.344,2851.00
1079.281,2892.00
1080.217,2364.00
1081.154,2743.00
1082.091,2829.00
1083.027,2547.00
1083.964,3008.00
1084.900,2640.00
1085.836,2679.00
1086.772,2958.00
1087.708,2547.00
1088.644,2949.00
1089.580,2809.00
1090.515,2858.00
1091.451,2685.00
1092.388,2802.00
1093.324,2506.00
1094.259,3338.00
1095.194,2832.00
1096.129,2678.00
1097.064,2676.00
1097.999,2877.00
1098.934,2577.00
1099.869,2592.00
1100.803,2772.00
1101.738,2797.00
1102.672,2447.00
1103.607,2879.00
1104.541,2597.00
1105.475,2625.00
1106.409,2495.00
1107.343,2694.00
1108.277,2526.00
1109.210,2783.00
1110.144,2763.00
1111.078,2778.00
1112.011,2513.00
1112.944,2845.00
1113.878,2791.00
1114.811,2247.00
1115.744,2660.00
1116.678,2378.00
1117.611,2642.00
1118.544,2655.00
1119.477,2867.00
1120.409,2597.00
1121.342,3237.00
1122.274,2845.00
1123.206,3118.00
1124.138,2758.00
1125.070,3115.00
1126.002,2946.00
1126.934,2362.00
1127.866,2625.00
1128.798,2380.00
1129.729,2430.00
1130.661,2736.00
1131.592,2653.00
1132.523,2794.00
1133.454,2832.00
1134.385,2336.00
1135.317,2724.00
1136.247,2686.00
1137.178,2940.00
1138.109,2452.00
1139.039,3081.00
1139.970,2905.00
1140.900,2633.00
1141.831,2409.00
1142.761,2305.00
1143.691,3223.00
1144.621,2691.00
1145.551,2747.00
1146.480,2754.00
1147.410,2954.00
1148.340,2343.00
1149.269,2451.00
1150.199,2687.00
1151.128,3117.00
1152.057,2504.00
1152.979,2666.00
1153.898,2678.00
1154.819,2822.00
1155.739,2703.00
1156.658,2613.00
1157.579,2769.00
1158.498,2700.00
1159.419,2252.00
1160.338,2734.00
1161.256,2787.00
1162.177,2538.00
1163.095,2688.00
1164.016,2801.00
1164.934,2976.00
1165.852,2934.00
1166.772,2693.00
1167.690,2740.00
1168.610,2766.00
1169.528,2740.00
1170.446,2265.00
1171.365,2626.00
1172.283,2608.00
1173.202,2729.00
1174.120,2792.00
1175.037,2547.00
1175.956,2540.00
1176.873,2561.00
1177.792,2574.00
1178.709,3160.00
1179.626,2607.00
1180.544,2948.00
1181.461,2559.00
1182.379,2808.00
1183.296,2689.00
1184.212,2311.00
1185.130,2549.00
1186.046,3058.00
1186.962,2673.00
1187.880,2998.00
1188.796,2779.00
1189.714,2487.00
1190.629,2885.00
1191.545,2770.00
1192.462,2676.00
1193.378,2691.00
1194.295,2419.00
1195.210,2755.00
1196.125,2857.00
1197.042,2780.00
1197.957,2703.00
1198.872,2582.00
1199.788,2606.00
1200.703,3070.00
1201.619,2757.00
1202.534,2570.00
1203.448,2777.00
1204.364,2669.00
1205.278,2333.00
1206.192,2759.00
1207.108,3257.00
1208.022,3095.00
1208.938,2562.00
1209.851,2823.00
1210.765,2930.00
1211.680,2626.00
1212.594,2475.00
1213.507,2624.00
1214.422,3087.00
1215.335,2876.00
1216.248,2644.00
1217.163,2743.00
1218.076,3320.00
1218.990,2810.00
1219.903,2464.00
1220.816,2552.00
1221.730,2691.00
1222.642,2589.00
1223.554,2637.00
1224.469,2749.00
1225.380,2636.00
1226.292,2351.00
1227.206,2867.00
1228.118,3050.00
1229.032,2355.00
1229.943,2589.00
1230.855,2598.00
1231.768,2462.00
1232.679,2817.00
1233.590,2695.00
1234.503,2915.00
1235.414,2533.00
1236.325,2572.00
1237.238,2747.00
1238.149,2810.00
1239.059,2523.00
1239.972,2923.00
1240.882,2533.00
1241.793,2842.00
1242.705,3052.00
1243.615,2682.00
1244.525,2814.00
1245.437,2230.00
1246.347,2748.00
1247.259,2896.00
1248.168,3137.00
1249.078,2968.00
1249.989,2992.00
1250.899,2532.00
1251.808,2592.00
1252.719,2658.00
1253.628,2585.00
1254.537,3101.00
1255.448,2536.00
1256.357,2537.00
1257.266,2713.00
1258.176,2426.00
1259.085,2426.00
1259.993,2537.00
1260.904,2543.00
1261.812,2550.00
1262.720,3309.00
1263.630,2881.00
1264.538,2551.00
1265.446,2802.00
1266.356,2688.00
1267.263,3006.00
1268.171,2499.00
1269.080,2779.00
1269.988,2877.00
1270.895,2601.00
1271.804,2668.00
1272.711,2854.00
1273.619,2866.00
1274.527,2543.00
1275.434,2855.00
1276.341,2556.00
1277.248,2753.00
1278.156,2988.00
1279.063,2554.00
1279.969,2827.00
1280.877,3605.00
1281.783,2927.00
1282.690,2741.00
1283.598,2633.00
1284.503,2558.00
1285.409,2531.00
1286.317,3067.00
1287.223,3114.00
1288.128,2758.00
1289.036,2604.00
1289.941,2643.00
1290.846,2678.00
1291.751,2520.00
1292.658,2597.00
1293.563,3156.00
1294.468,2719.00
1295.375,2840.00
1296.280,2949.00
1297.184,3455.00
1298.091,2796.00
1298.995,2870.00
1299.900,3101.00
1300.806,2599.00
1301.710,2443.00
1302.614,2289.00
1303.518,2993.00
1304.424,2663.00
1305.327,2895.00
1306.231,2667.00
1307.137,2858.00
1308.040,2727.00
1308.943,2755.00
1309.847,2903.00
1310.752,2882.00
1311.655,2340.00
1312.558,2471.00
1313.463,2639.00
1314.366,2595.00
1315.269,2773.00
1316.171,2668.00
1317.076,2599.00
1317.978,2502.00
1318.881,2334.00
1319.785,2559.00
1320.687,2573.00
1321.589,2303.00
1322.491,2545.00
1323.395,2785.00
1324.297,3255.00
1325.198,2831.00
1326.102,2487.00
1327.004,2515.00
1327.905,3123.00
1328.806,2667.00
1329.709,2794.00
1330.611,2611.00
1331.512,2511.00
1332.413,3178.00
1333.316,2782.00
1334.216,2920.00
1335.117,2426.00
1336.020,2770.00
1336.920,2720.00
1337.821,2532.00
1338.721,2961.00
1339.623,2752.00
1340.523,2681.00
1341.423,2564.00
1342.323,2980.00
1343.225,2803.00
1344.125,2552.00
1345.025,2602.00
1345.924,2361.00
1346.826,3084.00
1347.725,3126.00
1348.624,2981.00
1349.524,2576.00
1350.425,2670.00
1351.324,2817.00
1352.223,2909.00
1353.121,2718.00
1354.022,2901.00
1354.921,3088.00
1355.819,2839.00
1356.718,2738.00
1357.618,2437.00
1358.516,2814.00
1359.415,3161.00
1360.313,2822.00
1361.213,2664.00
1362.111,3042.00
1363.008,3356.00
1363.906,2711.00
1364.806,2725.00
1365.703,2808.00
1366.601,2520.00
1367.498,2584.00
1368.397,2926.00
1369.295,2739.00
1370.192,2505.00
1371.089,2772.00
1371.987,2700.00
1372.884,3000.00
1373.781,2550.00
1374.678,2734.00
1375.574,2561.00
1376.473,2832.00
1377.369,2925.00
1378.265,2557.00
1379.161,2697.00
1380.059,2403.00
1380.955,2824.00
1381.851,2463.00
1382.747,2614.00
1383.643,2635.00
1384.540,2498.00
1385.436,2577.00
1386.331,2751.00
1387.227,2844.00
1388.124,2850.00
1389.019,2540.00
1389.914,2683.00
1390.809,2367.00
1391.704,3168.00
1392.601,2613.00
1393.495,3028.00
1394.390,2911.00
1395.285,2982.00
1396.179,2813.00
1397.075,2674.00
1397.969,2760.00
1398.864,2394.00
1399.758,2676.00
1400.652,2758.00
1401.547,2560.00
1402.441,2500.00
1403.335,3097.00
1404.229,2872.00
1405.122,2793.00
1406.017,2697.00
1406.911,2901.00
1407.804,3127.00
1408.697,2709.00
1409.590,2538.00
1410.485,2910.00
1411.378,2786.00
1412.271,2394.00
1413.163,2814.00
1414.056,2817.00
1414.949,3128.00
1415.843,2761.00
1416.735,2641.00
1417.627,2749.00
1418.520,2675.00
1419.412,2952.00
1420.306,2906.00
1421.197,3054.00
1422.089,2931.00
1422.981,3191.00
1423.873,2897.00
1424.764,2888.00
1425.657,2713.00
1426.549,2866.00
1427.440,2934.00
1428.331,2615.00
1429.222,2380.00
1430.113,2798.00
1431.006,2901.00
1431.897,2629.00
1432.787,2779.00
1433.678,2664.00
1434.568,2520.00
1435.459,2934.00
1436.351,2938.00
1437.241,2903.00
1438.131,2876.00
1439.021,2476.00
1439.911,2709.00
1440.801,2780.00
1441.693,2995.00
1442.583,2756.00
1443.472,2721.00
1444.362,2835.00
1445.251,2664.00
1446.140,2663.00
1447.030,2920.00
1447.921,2938.00
1448.810,2526.00
1449.699,3097.00
1450.588,2746.00
1451.476,2641.00
1452.365,2856.00
1453.254,2632.00
1454.144,2619.00
1455.032,2876.00
1455.921,2467.00
1456.809,3000.00
1457.697,2521.00
1458.585,2662.00
1459.473,2700.00
1460.361,2598.00
1461.251,2749.00
1462.138,2822.00
1463.026,2705.00
1463.913,2985.00
1464.801,2665.00
1465.688,2815.00
1466.575,2745.00
1467.463,3214.00
1468.351,2567.00
1469.238,2686.00
1470.125,2299.00
1471.012,2790.00
1471.899,2808.00
1472.785,2518.00
1473.672,2752.00
1474.558,2963.00
1475.446,2857.00
1476.333,2880.00
1477.219,2548.00
1478.105,2689.00
1478.991,2711.00
1479.877,3030.00
1480.762,2724.00
1481.648,2588.00
1482.534,2879.00
1483.419,2786.00
1484.307,2877.00
1485.192,2705.00
1486.077,2600.00
1486.962,2583.00
1487.847,2493.00
1488.732,2566.00
1489.617,2786.00
1490.502,3045.00
1491.387,2899.00
1492.271,2554.00
1493.156,2628.00
1494.042,2528.00
1494.927,2979.00
1495.811,2643.00
1496.695,2896.00
1497.579,3005.00
1498.463,2732.00
1499.347,2763.00
1500.231,2787.00
1501.114,2800.00
1501.998,2986.00
1502.881,2788.00
1503.765,3007.00
1504.648,3166.00
1505.533,2857.00
1506.417,2801.00
1507.300,2692.00
1508.183,2818.00
1509.066,2221.00
1509.948,2990.00
1510.831,3071.00
1511.714,2536.00
1512.596,2876.00
1513.479,2983.00
1514.361,2945.00
1515.243,2783.00
1516.125,2908.00
1517.008,3041.00
1517.890,2731.00
1518.771,2763.00
1519.655,2963.00
1520.537,2708.00
1521.419,2571.00
1522.300,2779.00
1523.182,2887.00
1524.063,2870.00
1524.944,3036.00
1525.825,2935.00
1526.707,2575.00
1527.588,2554.00
1528.468,2809.00
1529.349,2420.00
1530.230,2671.00
1531.111,2915.00
1531.991,2797.00
1532.872,2451.00
1533.752,2720.00
1534.632,2614.00
1535.513,2619.00
1536.393,2922.00
1537.273,3070.00
1538.153,3400.00
1539.032,2472.00
1539.912,2750.00
1540.792,2780.00
1541.672,2784.00
1542.551,2865.00
1543.430,3360.00
1544.310,2780.00
1545.189,2673.00
1546.068,3177.00
1546.947,2851.00
1547.826,3033.00
1548.705,2733.00
1549.584,2946.00
1550.462,2719.00
1551.341,2922.00
1552.219,2802.00
1553.098,2887.00
1553.976,2976.00
1554.854,3170.00
1555.733,2956.00
1556.611,2673.00
1557.489,2542.00
1558.367,2749.00
1559.244,2916.00
1560.122,2713.00
1561.000,2842.00
1561.877,3057.00
1562.755,2654.00
1563.632,2713.00
1564.509,2995.00
1565.386,3189.00
1566.264,2486.00
1567.141,2369.00
1568.017,2887.00
1568.894,2758.00
1569.771,2795.00
1570.648,2897.00
1571.524,2779.00
1572.401,2515.00
1573.277,2508.00
1574.153,2806.00
1575.029,2611.00
1575.906,3475.00
1576.781,2987.00
1577.657,2688.00
1578.533,3049.00
1579.409,2422.00
1580.285,2750.00
1581.160,3190.00
1582.036,2952.00
1582.911,2563.00
1583.786,3116.00
1584.662,2553.00
1585.537,2717.00
1586.412,2792.00
1587.287,2567.00
1588.160,2960.00
1589.035,2414.00
1589.909,2803.00
1590.784,2713.00
1591.658,2582.00
1592.533,2781.00
1593.407,2789.00
1594.281,2634.00
1595.155,3186.00
1596.029,2696.00
1596.903,2702.00
1597.777,2670.00
1598.651,3048.00
1599.525,2437.00
1600.398,2776.00
1601.272,2753.00
1602.144,3352.00
1603.017,2725.00
1603.890,3034.00
1604.763,2816.00
1605.636,2902.00
1606.509,2440.00
1607.382,2626.00
1608.255,2865.00
1609.128,2988.00
1610.000,2721.00
1610.873,2464.00
1611.746,2620.00
1612.616,2711.00
1613.488,2309.00
1614.361,2798.00
1615.233,2729.00
1616.105,2948.00
1616.977,2699.00
1617.849,2590.00
1618.720,3041.00
1619.592,3102.00
1620.464,2857.00
1621.333,3267.00
1622.205,2777.00
1623.076,2727.00
1623.947,2760.00
1624.818,2983.00
1625.689,2922.00
1626.560,2675.00
1627.431,2814.00
1628.302,3185.00
1629.171,2858.00
1630.042,3104.00
1630.912,3434.00
1631.782,3392.00
1632.653,2579.00
1633.523,2937.00
1634.393,3000.00
1635.263,2641.00
1636.131,2752.00
1637.001,2690.00
1637.871,2374.00
1638.741,2424.00
1639.611,2511.00
1640.480,2868.00
1641.350,2605.00
1642.219,2597.00
1643.087,2264.00
1643.956,3143.00
1644.825,3041.00
1645.694,3007.00
1646.563,2931.00
1647.432,2808.00
1648.299,2755.00
1649.167,2910.00
1650.036,2554.00
1650.904,2890.00
1651.773,2953.00
1652.641,2735.00
1653.509,2933.00
1654.376,2653.00
1655.244,2785.00
1656.112,2806.00
1656.980,2779.00
1657.847,2606.00
1658.715,2939.00
1659.581,2702.00
1660.448,3065.00
1661.316,2251.00
1662.183,2785.00
1663.051,2831.00
1663.918,2781.00
1664.783,2826.00
1665.650,2871.00
1666.517,2931.00
1667.384,2786.00
1668.251,2819.00
1669.115,2996.00
1669.982,2734.00
1670.849,3066.00
1671.715,2761.00
1672.581,2931.00
1673.446,2872.00
1674.312,2785.00
1675.178,3173.00
1676.044,2842.00
1676.910,2839.00
1677.774,2824.00
1678.639,2438.00
1679.505,2722.00
1680.370,2928.00
1681.236,3431.00
1682.099,2740.00
1682.965,2800.00
1683.830,2369.00
1684.695,2576.00
1685.560,2698.00
1686.423,2888.00
1687.288,2920.00
1688.153,2842.00
1689.017,2673.00
1689.880,2888.00
1690.745,2917.00
1691.609,2596.00
1692.473,2925.00
1693.338,2991.00
1694.200,3060.00
1695.064,2798.00
1695.928,2657.00
1696.792,2790.00
1697.654,3287.00
1698.517,2801.00
1699.381,2541.00
1700.245,2446.00
1701.106,3088.00
1701.969,2670.00
1702.833,2922.00
1703.696,2711.00
1704.557,2777.00
1705.420,2624.00
1706.283,2808.00
1707.146,2940.00
1708.007,2567.00
1708.870,2591.00
1709.732,2449.00
1710.595,2693.00
1711.455,2536.00
1712.318,2679.00
1713.180,3098.00
1714.040,2838.00
1714.902,2951.00
1715.764,2769.00
1716.626,2571.00
1717.486,2737.00
1718.348,3036.00
1719.209,4975.00
1720.071,2435.00
1720.930,2514.00
1721.792,2614.00
1722.653,2620.00
1723.512,2663.00
1724.374,2687.00
1725.234,2808.00
1726.095,2837.00
1726.954,2772.00
1727.815,2951.00
1728.676,2766.00
1729.535,3028.00
1730.395,2751.00
1731.256,2688.00
1732.114,2846.00
1732.974,2264.00
1733.834,3188.00
1734.693,2967.00
1735.553,2805.00
1736.413,3208.00
1737.272,2693.00
1738.130,2701.00
1738.990,2854.00
1739.849,2682.00
1740.707,3885.00
1741.566,2834.00
1742.426,2815.00
1743.283,3208.00
1744.142,2713.00
1745.001,2443.00
1745.858,2984.00
1746.717,2870.00
1747.576,2857.00
1748.433,2955.00
1749.292,3402.00
1750.150,3436.00
1751.007,2984.00
1751.865,2994.00
1752.723,2811.00
1753.579,2677.00
1754.438,2973.00
1755.296,3008.00
1756.152,2377.00
1757.010,2483.00
1757.865,3043.00
1758.723,2399.00
1759.581,3081.00
1760.436,2762.00
1761.294,3122.00
1762.151,2799.00
1763.006,2707.00
1763.864,2414.00
1764.721,2992.00
1765.576,2801.00
1766.433,2966.00
1767.288,2703.00
1768.144,2868.00
1769.001,2764.00
1769.856,2855.00
1770.712,3037.00
1771.568,2523.00
1772.423,2684.00
1773.279,2700.00
1774.133,2703.00
1774.989,3206.00
1775.845,3202.00
1776.699,3004.00
1777.555,2804.00
1778.409,3342.00
1779.265,2756.00
1780.120,2760.00
1780.974,2792.00
1781.829,2405.00
1782.682,2857.00
1783.538,2668.00
1784.393,2837.00
1785.246,2700.00
1786.101,2903.00
1786.954,2927.00
1787.808,3013.00
1788.661,2475.00
1789.516,2708.00
1790.370,2738.00
1791.223,2999.00
1792.077,2798.00
1792.930,2874.00
1793.784,2680.00
1794.636,2801.00
1795.490,2786.00
1796.344,2837.00
1797.196,2796.00
1798.049,2965.00
1798.901,2654.00
1799.755,3105.00
1800.606,2602.00
1801.460,3365.00
1802.311,3110.00
1803.165,3212.00
1804.018,3159.00
1804.869,2913.00
1805.722,3210.00
1806.573,2816.00
1807.426,2633.00
1808.276,2794.00
1809.129,2682.00
1809.980,3025.00
1810.832,3069.00
1811.683,2735.00
1812.535,3121.00
1813.385,2736.00
1814.237,3066.00
1815.089,2870.00
1815.940,3070.00
1816.791,2739.00
1817.641,2644.00
1818.493,2957.00
1819.343,2901.00
1820.194,2665.00
1821.044,2915.00
1821.895,3048.00
1822.745,2511.00
1823.596,2706.00
1824.445,3227.00
1825.296,2911.00
1826.145,2792.00
1826.996,2990.00
1827.845,2836.00
1828.695,2850.00
1829.544,2799.00
1830.395,2849.00
1831.243,2712.00
1832.094,2541.00
1832.942,3449.00
1833.792,2906.00
1834.640,2870.00
1835.490,2812.00
1836.338,2883.00
1837.186,2719.00
1838.036,2656.00
1838.884,2808.00
1839.733,3133.00
1840.581,2966.00
1841.430,2918.00
1842.278,3137.00
1843.127,2701.00
1843.974,2474.00
1844.823,3240.00
1845.671,2961.00
1846.519,2866.00
1847.366,2923.00
1848.213,2456.00
1849.062,2613.00
1849.909,2518.00
1850.757,3500.00
1851.604,2915.00
1852.452,2733.00
1853.298,2998.00
1854.146,2869.00
1854.993,2872.00
1855.839,3355.00
1856.687,2918.00
1857.532,2952.00
1858.380,2803.00
1859.226,2861.00
1860.073,2923.00
1860.919,2629.00
1861.765,2696.00
1862.612,3042.00
1863.457,3023.00
1864.304,2754.00
1865.150,2979.00
1865.995,2788.00
1866.842,2924.00
1867.686,3038.00
1868.533,2912.00
1869.378,2883.00
1870.223,2840.00
1871.069,2773.00
1871.914,2824.00
1872.760,2772.00
1873.604,2615.00
1874.448,2993.00
1875.294,3022.00
1876.139,2664.00
1876.984,2917.00
1877.828,2459.00
1878.672,2327.00
1879.518,2705.00
1880.361,3029.00
1881.205,2975.00
1882.050,2611.00
1882.894,3322.00
1883.739,2694.00
1884.582,2575.00
1885.425,2667.00
1886.270,3078.00
1887.113,2552.00
1887.956,2916.00
1888.801,2867.00
1889.644,2639.00
1890.486,2424.00
1891.331,2760.00
1892.173,2861.00
1893.017,2911.00
1893.860,3095.00
1894.702,3117.00
1895.546,2861.00
1896.388,3522.00
1897.230,3166.00
1898.074,2755.00
1898.916,2602.00
1899.757,2654.00
1900.601,3497.00
1901.443,3188.00
1902.284,3134.00
1903.125,3333.00
1903.969,3045.00
1904.810,3087.00
1905.651,2909.00
1906.494,3153.00
1907.335,3302.00
1908.176,2970.00
1909.018,2950.00
1909.859,2790.00
1910.700,2690.00
1911.542,3397.00
1912.383,2905.00
1913.223,2436.00
1914.064,2997.00
1914.906,3093.00
1915.746,3130.00
1916.586,3327.00
1917.428,2828.00
1918.268,2899.00
1919.107,2731.00
1919.947,2585.00
1920.789,2750.00
1921.628,3085.00
1922.468,2830.00
1923.309,2683.00
1924.148,3119.00
1924.988,2876.00
1925.827,2831.00
1926.667,2725.00
1927.507,2898.00
1928.345,2626.00
1929.184,2980.00
1930.025,2647.00
1930.864,3091.00
1931.702,3105.00
1932.541,2729.00
1933.381,2957.00
1934.219,3014.00
1935.057,3111.00
1935.896,2535.00
1936.735,2815.00
1937.573,2727.00
1938.411,2644.00
1939.249,2983.00
1940.089,2711.00
1940.927,3058.00
1941.764,3162.00
1942.602,2797.00
1943.439,2771.00
1944.278,2802.00
1945.115,2745.00
1945.953,2584.00
1946.790,2926.00
1947.628,3159.00
1948.465,2913.00
1949.302,2991.00
1950.139,2952.00
1950.976,2717.00
1951.814,2995.00
1952.651,2894.00
1953.487,2651.00
1954.323,3101.00
1955.160,2811.00
1955.998,3199.00
1956.834,2817.00
1957.670,2915.00
1958.506,3087.00
1959.342,2962.00
1960.177,2903.00
1961.015,2967.00
1961.850,2887.00
1962.686,2902.00
1963.521,2889.00
1964.357,3143.00
1965.192,2627.00
1966.029,2983.00
1966.864,2756.00
1967.699,3074.00
1968.534,2883.00
1969.369,3098.00
1970.204,2818.00
1971.040,2900.00
1971.875,2764.00
1972.709,2906.00
1973.544,2693.00
1974.378,2788.00
1975.212,2948.00
1976.047,2725.00
1976.882,2708.00
1977.716,3246.00
1978.550,2533.00
1979.384,2792.00
1980.218,2815.00
1981.052,2777.00
1981.885,2896.00
1982.719,2871.00
1983.554,2984.00
1984.388,3158.00
1985.221,2955.00
1986.054,3096.00
1986.887,2926.00
1987.720,2684.00
1988.553,3161.00
1989.386,2934.00
1990.219,2981.00
1991.053,3212.00
1991.886,2721.00
1992.719,3078.00
1993.551,2381.00
1994.383,2991.00
1995.216,2769.00
1996.048,2550.00
1996.880,2997.00
1997.712,2718.00
1998.544,2831.00
1999.376,2939.00
2000.208,3169.00
2001.040,3303.00
2001.873,2681.00
2002.705,2682.00
2003.536,2911.00
2004.367,2882.00
2005.199,2923.00
2006.030,2711.00
2006.861,2605.00
2007.692,2862.00
2008.523,2712.00
2009.354,2879.00
2010.185,2651.00
2011.016,3010.00
2011.846,3060.00
2012.677,2817.00
2013.507,3183.00
2014.338,3074.00
2015.168,2757.00
2015.999,3389.00
2016.829,2775.00
2017.659,3067.00
2018.489,3372.00
2019.319,2663.00
2020.149,3047.00
2020.980,2906.00
2021.810,2687.00
2022.639,2713.00
2023.469,2739.00
2024.298,2523.00
2025.128,2476.00
2025.957,2459.00
2026.786,2307.00
2027.615,2486.00
2028.444,2718.00
2029.273,2868.00
2030.102,2478.00
2030.931,2670.00
2031.758,2993.00
2032.586,2633.00
2033.415,2720.00
2034.243,2293.00
2035.072,2096.00
2035.900,2594.00
2036.728,2415.00
2037.556,2424.00
2038.385,2482.00
2039.213,2284.00
2040.040,2244.00
2040.868,2214.00
2041.696,2313.00
2042.524,2328.00
2043.351,2496.00
2044.179,2301.00
2045.006,2100.00
