RamanScope Measure Spectrum Data V3.72

<< MEASURE CONDITION >>
Exposure Type,Aver
Exposure Time [sec],15
Exposure Count,4
Measure Time,2023/07/15 15:49:46
Data Name,""
Data Comment,""
Rayleigh Wave[nm],532.0

<< SAMPLE SPECTRUM >>
Wave[dcm-1],No154
146.591,849.00
147.626,946.00
148.664,1132.25
149.699,1303.75
150.737,1507.50
151.772,1644.00
152.809,1815.25
153.846,1915.25
154.881,2091.25
155.918,2213.00
156.953,2327.50
157.989,2393.75
159.026,2456.00
160.060,2510.75
161.096,2582.25
162.130,2599.50
163.167,2654.25
164.200,2704.50
165.236,2713.75
166.272,2769.00
167.305,2801.50
168.341,2891.50
169.374,2908.00
170.409,3007.00
171.445,3076.00
172.477,3119.00
173.512,3144.50
174.545,3170.75
175.580,3185.75
176.614,3175.50
177.647,3164.75
178.681,3155.50
179.713,3093.25
180.747,3090.00
181.781,3077.50
182.813,3025.75
183.847,3060.75
184.878,3030.00
185.912,3024.00
186.945,3006.50
187.976,3057.00
189.010,3055.25
190.043,3059.50
191.073,3105.25
192.106,3131.25
193.137,3073.50
194.170,3126.25
195.202,3183.75
196.232,3218.50
197.265,3225.75
198.297,3279.75
199.327,3346.00
200.359,3303.00
201.388,3406.50
202.420,3455.00
203.452,3566.75
204.481,3581.50
205.512,3623.75
206.544,3702.75
207.573,3737.50
208.604,3826.00
209.635,3911.50
210.663,4015.00
211.694,4049.00
212.725,4172.50
213.753,4229.00
214.783,4269.75
215.813,4414.50
216.841,4394.75
217.871,4470.00
218.899,4491.50
219.929,4547.50
220.959,4442.25
221.986,4425.00
223.016,4341.25
224.045,4353.00
225.072,4245.50
226.101,4226.25
227.130,4123.50
228.157,4031.00
229.185,3982.50
230.214,3898.50
231.241,3795.75
232.269,3797.75
233.297,3777.50
234.323,3714.75
235.351,3698.25
236.379,3699.00
237.407,3703.75
238.433,3672.25
239.460,3690.00
240.488,3721.00
241.513,3759.75
242.540,3783.75
243.568,3786.00
244.592,3887.25
245.619,3884.25
246.646,3885.75
247.671,3895.75
248.697,3840.50
249.724,3822.25
250.748,3868.25
251.774,3786.75
252.801,3756.25
253.827,3747.75
254.850,3796.75
255.876,3760.75
256.902,3800.00
257.925,3751.00
258.951,3751.25
259.976,3810.25
260.999,3833.75
262.024,3873.25
263.049,3908.50
264.074,3909.50
265.097,3978.75
266.122,3999.50
267.146,3967.25
268.168,4038.50
269.193,4133.50
270.217,4110.00
271.241,4095.25
272.263,4188.75
273.287,4225.75
274.311,4225.75
275.332,4242.50
276.356,4289.00
277.379,4299.00
278.402,4300.25
279.424,4264.25
280.447,4258.25
281.470,4224.50
282.492,4189.75
283.513,4159.75
284.536,4121.25
285.558,4090.00
286.581,4046.50
287.601,3949.50
288.623,3880.00
289.645,3897.00
290.665,3817.75
291.687,3785.50
292.709,3717.25
293.730,3628.75
294.750,3655.50
295.771,3609.75
296.792,3560.50
297.813,3494.25
298.832,3415.00
299.853,3449.75
300.874,3386.25
301.895,3315.50
302.913,3322.25
303.934,3313.50
304.954,3230.75
305.975,3241.00
306.993,3186.50
308.013,3176.50
309.033,3080.25
310.052,3097.75
311.072,3081.50
312.090,3086.75
313.109,3028.75
314.129,3047.00
315.148,3055.75
316.165,3032.50
317.184,2989.00
318.203,2950.00
319.222,2968.75
320.238,2957.50
321.257,2961.75
322.275,2852.25
323.294,2888.75
324.312,2835.75
325.328,2902.50
326.346,2820.00
327.364,2854.25
328.382,2852.75
329.397,2871.50
330.415,2846.50
331.432,2823.75
332.450,2805.00
333.467,2784.00
334.482,2799.50
335.499,2819.75
336.516,2804.50
337.533,2789.25
338.547,2823.50
339.564,2810.50
340.580,2797.50
341.597,2743.50
342.613,2727.00
343.627,2723.50
344.643,2716.75
345.659,2717.50
346.675,2755.25
347.690,2800.50
348.704,2790.75
349.719,2745.50
350.735,2719.50
351.750,2719.75
352.765,2695.75
353.778,2689.75
354.793,2731.25
355.808,2694.25
356.822,2645.00
357.837,2678.25
358.851,2740.75
359.864,2725.00
360.878,2737.50
361.892,2734.75
362.906,2719.75
363.920,2747.00
364.932,2771.25
365.945,2761.25
366.959,2813.00
367.972,2761.75
368.986,2746.75
369.999,2812.75
371.010,2812.75
372.023,2805.00
373.036,2800.75
374.049,2865.50
375.061,2866.50
376.072,2815.25
377.084,2820.75
378.097,2909.75
379.109,2863.50
380.121,2856.00
381.133,2860.00
382.143,2904.50
383.155,2873.75
384.166,2950.25
385.178,2896.50
386.189,2889.25
387.201,2883.50
388.212,2909.75
389.221,2871.75
390.232,2903.25
391.243,2884.00
392.254,2838.25
393.264,2846.00
394.275,2869.75
395.283,2871.00
396.294,2829.75
397.304,2836.25
398.314,2825.25
399.324,2829.75
400.334,2772.25
401.344,2774.00
402.351,2747.50
403.361,2793.50
404.370,2772.00
405.380,2757.50
406.389,2660.50
407.398,2697.50
408.407,2708.25
409.414,2743.25
410.423,2673.50
411.431,2676.00
412.440,2654.75
413.448,2622.75
414.457,2635.75
415.465,2670.50
416.471,2617.75
417.479,2590.00
418.487,2640.50
419.495,2652.50
420.503,2629.50
421.510,2573.75
422.518,2588.25
423.525,2615.25
424.530,2554.00
425.537,2589.00
426.544,2587.25
427.551,2518.50
428.558,2552.50
429.565,2508.75
430.571,2545.00
431.578,2532.00
432.582,2538.75
433.588,2569.75
434.595,2553.75
435.601,2538.75
436.607,2540.75
437.612,2453.50
438.618,2534.00
439.624,2562.00
440.627,2581.00
441.633,2591.25
442.638,2511.50
443.643,2537.50
444.648,2527.25
445.653,2516.00
446.658,2570.75
447.663,2536.50
448.667,2523.25
449.672,2542.75
450.674,2579.50
451.678,2533.00
452.682,2523.75
453.687,2596.00
454.690,2551.25
455.694,2601.25
456.698,2532.50
457.702,2581.00
458.705,2519.50
459.709,2583.75
460.710,2553.25
461.713,2586.25
462.716,2573.75
463.719,2548.25
464.722,2622.75
465.725,2606.25
466.727,2651.00
467.730,2591.75
468.732,2618.75
469.735,2590.25
470.737,2623.75
471.737,2587.50
472.739,2623.75
473.741,2617.50
474.742,2622.75
475.744,2624.25
476.746,2644.50
477.747,2668.00
478.748,2631.25
479.750,2654.25
480.751,2676.25
481.752,2625.25
482.753,2617.25
483.751,2656.75
484.752,2632.50
485.753,2641.00
486.753,2671.50
487.753,2666.25
488.754,2623.75
489.754,2594.25
490.754,2651.50
491.754,2648.75
492.754,2658.00
493.753,2625.75
494.753,2654.50
495.752,2676.25
496.752,2645.25
497.749,2592.25
498.748,2629.75
499.747,2567.50
500.746,2648.00
501.745,2613.25
502.744,2595.00
503.742,2629.25
504.741,2582.50
505.739,2585.25
506.737,2569.00
507.735,2560.25
508.734,2556.00
509.732,2566.50
510.729,2569.75
511.727,2571.50
512.725,2503.75
513.720,2590.50
514.718,2525.25
515.715,2530.25
516.712,2547.75
517.709,2541.25
518.706,2507.50
519.703,2454.25
520.700,2510.00
521.696,2463.75
522.693,2543.00
523.689,2538.75
524.686,2478.75
525.682,2525.50
526.678,2557.00
527.674,2526.25
528.670,2556.25
529.666,2500.50
530.661,2527.50
531.657,2957.25
532.652,2573.75
533.648,2554.00
534.641,2555.75
535.636,2539.50
536.631,2544.00
537.626,2587.00
538.621,2594.00
539.616,2550.25
540.610,2594.75
541.605,2537.75
542.599,2603.00
543.593,2610.25
544.587,2553.50
545.581,2646.00
546.575,2627.00
547.569,2577.50
548.563,2607.75
549.557,2601.75
550.550,2575.50
551.543,2556.75
552.537,2582.50
553.530,2600.25
554.523,2565.25
555.516,2618.50
556.509,2543.00
557.502,2566.50
558.494,2541.50
559.487,2609.25
560.479,2576.00
561.472,2563.50
562.464,2536.75
563.456,2524.00
564.448,2591.75
565.440,2579.50
566.432,2622.25
567.423,2598.75
568.415,2575.25
569.404,2607.75
570.396,2571.25
571.387,2595.75
572.378,2566.25
573.369,2632.00
574.360,2598.00
575.351,2674.75
576.341,2614.75
577.332,2598.50
578.323,2674.50
579.313,2649.50
580.303,2664.00
581.293,2598.50
582.283,2656.00
583.273,2626.50
584.263,2694.75
585.253,2694.00
586.243,2671.50
587.232,2646.50
588.222,2691.00
589.211,2684.75
590.200,2679.00
591.189,2703.25
592.178,2702.50
593.167,2760.25
594.156,2715.50
595.145,2705.75
596.133,2716.00
597.122,2740.75
598.110,2743.75
599.098,2720.50
600.086,2694.00
601.074,2744.50
602.062,2743.00
603.050,2752.00
604.038,2750.00
605.025,2783.00
606.013,2772.50
607.000,2700.00
607.987,2753.50
608.975,2761.75
609.962,2742.00
610.949,2714.50
611.936,2726.75
612.922,2694.00
613.909,2681.75
614.895,2682.75
615.882,2689.25
616.868,2681.25
617.854,2629.00
618.841,2639.75
619.826,2615.50
620.812,2592.00
621.798,2609.00
622.784,2552.25
623.769,2532.00
624.755,2500.50
625.740,2541.25
626.725,2490.50
627.711,2505.50
628.698,2444.75
629.683,2432.50
630.667,2404.00
631.652,2451.25
632.637,2417.50
633.621,2365.75
634.606,2353.25
635.590,2356.50
636.574,2323.50
637.558,2330.25
638.542,2403.25
639.526,2265.75
640.510,2305.00
641.493,2291.50
642.477,2277.25
643.460,2283.75
644.444,2215.00
645.427,2238.25
646.410,2184.75
647.393,2193.75
648.376,2212.75
649.359,2198.25
650.341,2177.50
651.324,2191.75
652.307,2144.25
653.289,2200.25
654.271,2165.75
655.253,2172.25
656.235,2152.50
657.217,2152.75
658.199,2122.50
659.181,2107.25
660.163,2102.25
661.144,2117.00
662.126,2082.50
663.107,2090.00
664.088,2069.25
665.069,2067.50
666.050,2049.50
667.033,2051.00
668.014,2061.75
668.995,2029.50
669.975,2006.25
670.956,2010.50
671.936,2018.25
672.916,1987.00
673.896,2006.75
674.876,2002.75
675.856,1921.75
676.836,1913.00
677.816,1946.00
678.795,1973.00
679.775,1970.25
680.754,1903.50
681.734,1902.25
682.713,1890.75
683.692,1925.75
684.671,1863.50
685.650,1860.25
686.629,1824.75
687.607,1840.50
688.586,1819.00
689.564,1842.75
690.543,1744.00
691.523,1828.00
692.501,1818.00
693.479,1812.50
694.457,1715.75
695.435,1799.50
696.413,1758.75
697.390,1742.75
698.368,1741.25
699.345,1770.00
700.322,1727.00
701.300,1691.75
702.277,1685.00
703.254,1663.00
704.231,1648.50
705.207,1683.50
706.184,1673.75
707.161,1665.25
708.137,1647.75
709.113,1649.75
710.090,1664.50
711.068,1658.00
712.044,1638.75
713.020,1632.00
713.996,1633.75
714.971,1623.25
715.947,1555.50
716.922,1666.75
717.898,1615.25
718.873,1594.75
719.848,1580.25
720.823,1593.50
721.798,1572.00
722.773,1570.50
723.748,1568.00
724.723,1544.00
725.697,1561.75
726.672,1550.50
727.646,1578.00
728.622,1566.25
729.596,1530.50
730.570,1538.75
731.544,1522.50
732.518,1574.25
733.492,1524.50
734.466,1477.00
735.439,1537.75
736.413,1537.75
737.386,1507.00
738.359,1485.50
739.332,1473.50
740.305,1453.00
741.278,1470.75
742.251,1504.75
743.224,1417.75
744.196,1483.00
745.171,1488.75
746.143,1461.75
747.115,1466.50
748.087,1452.25
749.059,1451.75
750.031,1494.25
751.003,1472.25
751.975,1495.75
752.947,1481.00
753.918,1430.75
754.890,1418.00
755.861,1425.50
756.832,1374.50
757.803,1414.50
758.774,1411.50
759.747,1432.25
760.718,1359.75
761.689,1383.50
762.659,1418.25
763.630,1387.25
764.600,1407.00
765.570,1409.00
766.540,1375.50
767.510,1365.25
768.480,1397.00
769.450,1404.75
770.420,1339.50
771.390,1346.50
772.359,1371.00
773.329,1388.75
774.300,1391.75
775.269,1333.75
776.238,1360.50
777.207,1340.25
778.176,1333.00
779.145,1322.00
780.114,1341.25
781.083,1308.50
782.051,1264.00
783.019,1307.25
783.988,1351.75
784.956,1359.75
785.924,1293.25
786.894,1300.50
787.862,1301.00
788.830,1319.25
789.797,1280.00
790.765,1341.00
791.732,1283.50
792.700,1255.50
793.667,1287.75
794.634,1297.00
795.601,1279.50
796.568,1281.75
797.535,1301.25
798.502,1239.25
799.468,1242.50
800.437,1257.25
801.403,1230.50
802.370,1285.00
803.336,1238.75
804.302,1200.25
805.268,1234.00
806.234,1239.25
807.200,1241.00
808.166,1230.75
809.131,1198.00
810.097,1247.25
811.062,1191.25
812.027,1224.00
812.994,1221.00
813.960,1238.25
814.925,1218.00
815.889,1213.00
816.854,1241.75
817.819,1197.75
818.783,1206.00
819.748,1168.75
820.712,1224.50
821.677,1210.75
822.641,1206.00
823.605,1165.50
824.571,1193.00
825.534,1237.50
826.498,1215.50
827.462,1248.75
828.425,1221.75
829.389,1180.50
830.352,1195.50
831.315,1212.75
832.279,1198.25
833.242,1177.50
834.204,1171.00
835.167,1189.00
836.132,1187.50
837.095,1192.00
838.057,1162.25
839.020,1182.50
839.982,1171.50
840.944,1209.50
841.906,1144.75
842.868,1205.00
843.830,1218.75
844.792,1108.25
845.753,1191.25
846.715,1212.25
847.679,1185.25
848.640,1214.75
849.601,1145.75
850.562,1179.75
851.523,1189.00
852.484,1175.00
853.445,1147.25
854.406,1255.50
855.367,1208.75
856.327,1212.00
857.288,1178.00
858.248,1186.25
859.210,1142.00
860.170,1183.50
861.130,1210.25
862.090,1180.25
863.050,1157.00
864.010,1148.75
864.969,1153.75
865.929,1172.25
866.888,1160.75
867.848,1196.50
868.807,1191.00
869.766,1123.00
870.727,1160.75
871.686,1159.25
872.645,1160.75
873.604,1197.50
874.562,1127.50
875.521,1145.25
876.479,1211.00
877.437,1110.25
878.396,1204.75
879.354,1176.25
880.312,1137.25
881.270,1157.25
882.229,1150.00
883.187,1161.25
884.145,1193.75
885.102,1136.75
886.059,1145.00
887.017,1128.25
887.974,1135.00
888.931,1175.75
889.888,1141.50
890.845,1105.75
891.802,1154.25
892.758,1170.50
893.717,1153.75
894.673,1180.50
895.630,1176.25
896.586,1160.00
897.542,1126.50
898.498,1156.75
899.454,1142.75
900.410,1152.00
901.366,1142.50
902.321,1092.50
903.277,1154.25
904.232,1147.75
905.189,1179.25
906.145,1131.75
907.100,1134.50
908.055,1182.00
909.010,1139.00
909.965,1200.50
910.919,1184.75
911.874,1178.50
912.828,1130.25
913.783,1143.75
914.737,1136.75
915.693,1150.00
916.648,1172.25
917.602,1107.50
918.555,1143.50
919.509,1174.00
920.463,1127.50
921.417,1169.00
922.370,1182.25
923.324,1111.25
924.277,1114.50
925.230,1153.25
926.183,1185.25
927.138,1162.75
928.091,1146.00
929.044,1151.00
929.996,1161.50
930.949,1135.00
931.902,1140.00
932.854,1167.50
933.806,1188.50
934.758,1180.25
935.711,1142.50
936.663,1210.25
937.614,1149.50
938.568,1130.25
939.520,1114.75
940.471,1131.25
941.423,1156.25
942.374,1130.25
943.326,1189.75
944.277,1205.75
945.228,1186.75
946.179,1176.50
947.130,1108.00
948.080,1161.25
949.031,1157.75
949.984,1154.75
950.934,1156.50
951.884,1167.25
952.835,1163.75
953.785,1125.00
954.735,1116.75
955.685,1163.25
956.635,1152.50
957.585,1109.75
958.534,1147.00
959.484,1144.00
960.433,1139.00
961.383,1132.50
962.334,1145.25
963.283,1096.75
964.232,1106.25
965.181,1104.50
966.130,1174.50
967.079,1138.00
968.027,1108.25
968.976,1114.75
969.924,1132.50
970.873,1135.25
971.821,1153.50
972.769,1152.25
973.719,1151.00
974.667,1092.50
975.615,1137.50
976.562,1134.25
977.510,1131.00
978.458,1121.75
979.405,1100.50
980.352,1151.50
981.300,1159.00
982.247,1144.50
983.194,1160.00
984.141,1128.00
985.088,1145.50
986.036,1131.25
986.983,1092.25
987.930,1176.25
988.876,1116.75
989.822,1128.75
990.769,1139.25
991.715,1117.50
992.661,1113.00
993.607,1163.75
994.553,1113.75
995.498,1134.00
996.444,1158.50
997.389,1133.25
998.337,1097.50
999.282,1175.00
1000.227,1193.50
1001.173,1114.50
1002.118,1117.75
1003.062,1158.50
1004.007,1137.00
1004.952,1108.25
1005.897,1106.50
1006.841,1137.00
1007.786,1159.75
1008.730,1084.00
1009.674,1199.75
1010.618,1155.00
1011.564,1127.75
1012.508,1178.00
1013.452,1146.25
1014.396,1182.00
1015.339,1119.50
1016.283,1126.25
1017.226,1158.25
1018.170,1160.25
1019.113,1175.25
1020.056,1164.75
1020.999,1129.00
1021.942,1148.25
1022.885,1103.25
1023.828,1130.00
1024.770,1137.25
1025.715,1183.50
1026.657,1135.50
1027.600,1199.75
1028.542,1166.25
1029.484,1197.00
1030.426,1188.75
1031.368,1200.50
1032.310,1176.00
1033.251,1166.00
1034.193,1177.50
1035.135,1175.25
1036.076,1209.50
1037.017,1138.75
1037.959,1186.25
1038.900,1245.50
1039.843,1221.00
1040.784,1170.50
1041.725,1225.25
1042.665,1168.75
1043.606,1169.25
1044.547,1220.75
1045.487,1196.50
1046.427,1190.00
1047.368,1214.75
1048.308,1214.25
1049.248,1222.50
1050.188,1248.25
1051.128,1227.50
1052.067,1241.75
1053.007,1225.25
1053.947,1207.75
1054.886,1213.25
1055.827,1202.75
1056.766,1187.75
1057.706,1246.25
1058.645,1233.50
1059.584,1210.75
1060.522,1216.00
1061.461,1259.75
1062.400,1248.75
1063.338,1241.00
1064.277,1250.75
1065.215,1254.00
1066.154,1221.75
1067.092,1229.00
1068.030,1276.25
1068.968,1264.25
1069.906,1236.00
1070.843,1268.00
1071.781,1256.50
1072.720,1294.50
1073.658,1220.75
1074.595,1258.50
1075.533,1263.75
1076.470,1296.50
1077.407,1271.25
1078.344,1304.00
1079.281,1302.75
1080.217,1323.00
1081.154,1284.75
1082.091,1246.25
1083.027,1293.25
1083.964,1300.75
1084.900,1286.00
1085.836,1305.00
1086.772,1257.75
1087.708,1321.25
1088.644,1316.00
1089.580,1307.50
1090.515,1305.75
1091.451,1263.75
1092.388,1272.75
1093.324,1276.25
1094.259,1282.25
1095.194,1292.75
1096.129,1276.25
1097.064,1249.50
1097.999,1289.25
1098.934,1298.00
1099.869,1277.00
1100.803,1197.50
1101.738,1233.50
1102.672,1276.25
1103.607,1253.50
1104.541,1212.75
1105.475,1252.50
1106.409,1257.75
1107.343,1246.50
1108.277,1233.50
1109.210,1176.75
1110.144,1226.75
1111.078,1202.25
1112.011,1204.25
1112.944,1199.75
1113.878,1173.00
1114.811,1208.50
1115.744,1184.00
1116.678,1231.75
1117.611,1172.75
1118.544,1124.25
1119.477,1161.50
1120.409,1189.25
1121.342,1170.50
1122.274,1101.00
1123.206,1131.25
1124.138,1163.00
1125.070,1070.00
1126.002,1172.50
1126.934,1135.50
1127.866,1102.75
1128.798,1111.50
1129.729,1123.25
1130.661,1088.75
1131.592,1101.50
1132.523,1069.00
1133.454,1044.50
1134.385,1077.75
1135.317,1083.25
1136.247,1098.75
1137.178,1143.25
1138.109,1081.75
1139.039,1076.25
1139.970,1065.50
1140.900,1053.00
1141.831,1052.00
1142.761,1036.00
1143.691,1074.25
1144.621,1021.50
1145.551,1022.50
1146.480,1058.00
1147.410,1082.50
1148.340,1084.50
1149.269,1050.50
1150.199,994.50
1151.128,1004.75
1152.057,1013.50
1152.979,1062.75
1153.898,1003.00
1154.819,1028.50
1155.739,1018.25
1156.658,1050.50
1157.579,1041.75
1158.498,984.50
1159.419,972.75
1160.338,1022.00
1161.256,991.75
1162.177,988.00
1163.095,1030.50
1164.016,974.25
1164.934,979.50
1165.852,1020.00
1166.772,988.50
1167.690,965.50
1168.610,1009.00
1169.528,996.50
1170.446,1020.50
1171.365,981.50
1172.283,1002.00
1173.202,952.50
1174.120,951.75
1175.037,945.50
1175.956,988.75
1176.873,972.75
1177.792,987.50
1178.709,937.00
1179.626,983.25
1180.544,983.75
1181.461,1009.00
1182.379,945.50
1183.296,976.75
1184.212,940.75
1185.130,951.00
1186.046,929.25
1186.962,986.50
1187.880,952.50
1188.796,999.75
1189.714,973.50
1190.629,917.00
1191.545,1005.25
1192.462,940.50
1193.378,936.00
1194.295,976.75
1195.210,988.50
1196.125,953.50
1197.042,972.50
1197.957,945.50
1198.872,949.75
1199.788,963.75
1200.703,1000.00
1201.619,998.25
1202.534,961.00
1203.448,1027.25
1204.364,925.25
1205.278,964.50
1206.192,982.00
1207.108,987.00
1208.022,939.00
1208.938,979.75
1209.851,970.50
1210.765,943.50
1211.680,957.50
1212.594,948.50
1213.507,1036.50
1214.422,944.25
1215.335,1005.50
1216.248,937.50
1217.163,983.00
1218.076,939.50
1218.990,995.00
1219.903,961.50
1220.816,964.00
1221.730,987.25
1222.642,952.25
1223.554,945.00
1224.469,995.50
1225.380,973.75
1226.292,962.25
1227.206,958.25
1228.118,961.25
1229.032,959.75
1229.943,1003.75
1230.855,1015.75
1231.768,989.50
1232.679,978.25
1233.590,1009.25
1234.503,1034.00
1235.414,979.75
1236.325,984.75
1237.238,963.25
1238.149,1014.25
1239.059,989.25
1239.972,1002.75
1240.882,1027.25
1241.793,1002.75
1242.705,1012.75
1243.615,1018.75
1244.525,989.00
1245.437,992.00
1246.347,1024.75
1247.259,1024.00
1248.168,1014.25
1249.078,1006.50
1249.989,1047.75
1250.899,994.00
1251.808,1016.75
1252.719,1007.00
1253.628,1028.25
1254.537,1022.75
1255.448,1007.75
1256.357,1010.00
1257.266,1014.75
1258.176,1007.00
1259.085,1031.75
1259.993,1043.50
1260.904,1033.75
1261.812,1021.50
1262.720,1027.25
1263.630,1009.00
1264.538,1029.25
1265.446,1038.00
1266.356,1025.25
1267.263,1051.75
1268.171,1022.50
1269.080,1009.00
1269.988,1049.75
1270.895,1021.75
1271.804,1048.00
1272.711,1045.50
1273.619,1002.25
1274.527,1047.75
1275.434,1104.00
1276.341,1024.00
1277.248,1031.50
1278.156,998.25
1279.063,1033.00
1279.969,1002.25
1280.877,1024.25
1281.783,994.75
1282.690,1041.75
1283.598,1031.50
1284.503,1004.25
1285.409,1024.00
1286.317,1072.50
1287.223,989.50
1288.128,995.50
1289.036,1016.25
1289.941,1015.75
1290.846,1019.50
1291.751,1052.75
1292.658,987.50
1293.563,962.25
1294.468,1045.25
1295.375,1000.50
1296.280,985.50
1297.184,999.50
1298.091,1014.50
1298.995,969.50
1299.900,974.50
1300.806,989.75
1301.710,1003.50
1302.614,970.25
1303.518,989.50
1304.424,971.75
1305.327,967.00
1306.231,1017.50
1307.137,974.00
1308.040,967.50
1308.943,949.00
1309.847,975.50
1310.752,969.50
1311.655,976.25
1312.558,976.25
1313.463,1016.50
1314.366,949.50
1315.269,875.75
1316.171,953.25
1317.076,921.75
1317.978,928.25
1318.881,944.25
1319.785,943.75
1320.687,943.75
1321.589,899.25
1322.491,922.25
1323.395,904.00
1324.297,938.75
1325.198,940.00
1326.102,912.00
1327.004,931.00
1327.905,900.50
1328.806,934.00
1329.709,922.50
1330.611,916.50
1331.512,894.50
1332.413,929.50
1333.316,880.50
1334.216,891.25
1335.117,945.75
1336.020,865.50
1336.920,913.25
1337.821,870.00
1338.721,873.25
1339.623,873.00
1340.523,832.25
1341.423,871.00
1342.323,867.25
1343.225,870.50
1344.125,865.25
1345.025,847.00
1345.924,846.50
1346.826,835.50
1347.725,898.50
1348.624,833.00
1349.524,860.50
1350.425,830.50
1351.324,877.00
1352.223,833.50
1353.121,861.50
1354.022,831.50
1354.921,841.50
1355.819,854.50
1356.718,826.75
1357.618,801.25
1358.516,828.50
1359.415,777.50
1360.313,845.25
1361.213,841.75
1362.111,780.00
1363.008,795.50
1363.906,831.25
1364.806,835.25
1365.703,795.00
1366.601,823.50
1367.498,811.25
1368.397,793.00
1369.295,793.00
1370.192,781.25
1371.089,742.00
1371.987,775.00
1372.884,760.75
1373.781,774.00
1374.678,843.50
1375.574,787.75
1376.473,783.50
1377.369,753.00
1378.265,759.25
1379.161,826.75
1380.059,747.75
1380.955,768.25
1381.851,753.75
1382.747,748.00
1383.643,749.00
1384.540,751.75
1385.436,723.00
1386.331,732.75
1387.227,724.00
1388.124,745.50
1389.019,724.25
1389.914,710.75
1390.809,731.00
1391.704,742.25
1392.601,721.50
1393.495,717.00
1394.390,705.25
1395.285,755.75
1396.179,693.00
1397.075,742.25
1397.969,742.50
1398.864,752.50
1399.758,735.25
1400.652,750.75
1401.547,686.25
1402.441,782.50
1403.335,710.00
1404.229,727.00
1405.122,740.00
1406.017,681.00
1406.911,754.75
1407.804,710.50
1408.697,729.75
1409.590,735.25
1410.485,711.00
1411.378,750.00
1412.271,714.50
1413.163,703.00
1414.056,737.25
1414.949,709.50
1415.843,676.00
1416.735,703.50
1417.627,714.75
1418.520,681.00
1419.412,676.25
1420.306,696.25
1421.197,702.50
1422.089,743.50
1422.981,668.00
1423.873,673.75
1424.764,648.00
1425.657,661.00
1426.549,625.75
1427.440,720.50
1428.331,673.00
1429.222,696.00
1430.113,690.00
1431.006,712.75
1431.897,699.25
1432.787,695.00
1433.678,691.75
1434.568,693.75
1435.459,705.00
1436.351,666.50
1437.241,659.25
1438.131,656.00
1439.021,489.00
1439.911,682.50
1440.801,657.00
1441.693,683.75
1442.583,669.75
1443.472,640.50
1444.362,671.75
1445.251,674.25
1446.140,728.75
1447.030,638.75
1447.921,659.25
1448.810,673.00
1449.699,644.25
1450.588,675.75
1451.476,661.00
1452.365,665.25
1453.254,719.50
1454.144,631.25
1455.032,670.75
1455.921,623.75
1456.809,651.00
1457.697,647.75
1458.585,645.25
1459.473,608.25
1460.361,658.25
1461.251,617.25
1462.138,636.25
1463.026,654.75
1463.913,672.00
1464.801,638.00
1465.688,630.75
1466.575,637.25
1467.463,648.75
1468.351,620.50
1469.238,645.50
1470.125,613.00
1471.012,630.00
1471.899,626.75
1472.785,642.75
1473.672,653.50
1474.558,667.50
1475.446,689.25
1476.333,647.25
1477.219,618.25
1478.105,638.50
1478.991,636.25
1479.877,599.00
1480.762,643.75
1481.648,608.50
1482.534,586.25
1483.419,634.50
1484.307,624.25
1485.192,600.00
1486.077,621.50
1486.962,656.75
1487.847,627.75
1488.732,617.25
1489.617,623.50
1490.502,625.25
1491.387,633.25
1492.271,624.50
1493.156,613.25
1494.042,630.50
1494.927,617.25
1495.811,628.25
1496.695,647.50
1497.579,635.00
1498.463,608.50
1499.347,628.75
1500.231,625.00
1501.114,614.75
1501.998,620.25
1502.881,616.75
1503.765,633.75
1504.648,599.50
1505.533,584.25
1506.417,557.50
1507.300,566.00
1508.183,573.75
1509.066,594.25
1509.948,611.25
1510.831,621.50
1511.714,607.25
1512.596,623.00
1513.479,597.25
1514.361,579.75
1515.243,604.75
1516.125,605.25
1517.008,595.50
1517.890,586.00
1518.771,550.75
1519.655,625.00
1520.537,574.00
1521.419,590.50
1522.300,570.50
1523.182,575.25
1524.063,581.25
1524.944,585.25
1525.825,607.50
1526.707,594.75
1527.588,571.00
1528.468,611.00
1529.349,576.25
1530.230,555.75
1531.111,550.75
1531.991,570.50
1532.872,561.75
1533.752,603.00
1534.632,571.00
1535.513,591.50
1536.393,541.25
1537.273,546.75
1538.153,568.75
1539.032,573.25
1539.912,567.75
1540.792,560.00
1541.672,536.75
1542.551,587.25
1543.430,560.50
1544.310,574.25
1545.189,543.50
1546.068,581.25
1546.947,525.00
1547.826,567.00
1548.705,581.00
1549.584,597.00
1550.462,585.00
1551.341,570.25
1552.219,542.75
1553.098,557.75
1553.976,579.75
1554.854,570.50
1555.733,522.75
1556.611,512.25
1557.489,568.00
1558.367,537.00
1559.244,557.50
1560.122,547.75
1561.000,518.25
1561.877,565.75
1562.755,552.75
1563.632,536.00
1564.509,562.50
1565.386,587.75
1566.264,564.75
1567.141,560.00
1568.017,538.00
1568.894,545.75
1569.771,546.00
1570.648,581.00
1571.524,557.75
1572.401,538.00
1573.277,584.75
1574.153,514.50
1575.029,562.25
1575.906,562.00
1576.781,537.50
1577.657,547.00
1578.533,503.75
1579.409,565.00
1580.285,523.50
1581.160,552.25
1582.036,554.25
1582.911,549.75
1583.786,534.50
1584.662,517.50
1585.537,536.25
1586.412,506.00
1587.287,532.25
1588.160,557.50
1589.035,557.50
1589.909,533.75
1590.784,557.75
1591.658,532.00
1592.533,517.25
1593.407,581.50
1594.281,552.00
1595.155,571.50
1596.029,518.50
1596.903,505.25
1597.777,522.50
1598.651,476.50
1599.525,548.25
1600.398,529.75
1601.272,526.50
1602.144,533.25
1603.017,581.00
1603.890,585.75
1604.763,528.00
1605.636,490.50
1606.509,543.25
1607.382,560.75
1608.255,562.50
1609.128,574.50
1610.000,541.75
1610.873,477.00
1611.746,527.75
1612.616,531.50
1613.488,516.50
1614.361,522.00
1615.233,527.00
1616.105,544.00
1616.977,518.50
1617.849,525.50
1618.720,492.75
1619.592,539.00
1620.464,517.50
1621.333,522.00
1622.205,507.25
1623.076,529.00
1623.947,515.75
1624.818,514.75
1625.689,509.75
1626.560,549.25
1627.431,535.75
1628.302,540.50
1629.171,546.00
1630.042,495.75
1630.912,518.00
1631.782,517.75
1632.653,507.75
1633.523,517.25
1634.393,535.25
1635.263,491.25
1636.131,505.25
1637.001,516.25
1637.871,505.25
1638.741,480.75
1639.611,516.75
1640.480,531.00
1641.350,538.25
1642.219,529.75
1643.087,525.00
1643.956,566.00
1644.825,506.25
1645.694,547.25
1646.563,528.75
1647.432,523.50
1648.299,541.50
1649.167,546.00
1650.036,504.00
1650.904,527.00
1651.773,492.75
1652.641,532.50
1653.509,486.75
1654.376,512.00
1655.244,513.75
1656.112,455.50
1656.980,478.25
1657.847,513.00
1658.715,509.75
1659.581,499.00
1660.448,478.75
1661.316,513.00
1662.183,543.50
1663.051,491.00
1663.918,530.25
1664.783,523.00
1665.650,506.50
1666.517,529.50
1667.384,489.25
1668.251,512.75
1669.115,509.50
1669.982,490.75
1670.849,523.75
1671.715,498.00
1672.581,521.25
1673.446,487.00
1674.312,503.50
1675.178,524.00
1676.044,510.00
1676.910,496.75
1677.774,508.50
1678.639,490.25
1679.505,474.25
1680.370,480.75
1681.236,516.25
1682.099,499.50
1682.965,537.75
1683.830,503.25
1684.695,468.00
1685.560,484.00
1686.423,475.25
1687.288,492.00
1688.153,509.00
1689.017,495.00
1689.880,536.75
1690.745,492.00
1691.609,485.75
1692.473,493.50
1693.338,449.00
1694.200,521.00
1695.064,509.50
1695.928,484.50
1696.792,467.50
1697.654,454.50
1698.517,454.25
1699.381,522.50
1700.245,500.25
1701.106,452.50
1701.969,472.75
1702.833,536.00
1703.696,460.50
1704.557,524.00
1705.420,488.75
1706.283,495.50
1707.146,491.50
1708.007,452.50
1708.870,499.50
1709.732,493.50
1710.595,455.50
1711.455,503.75
1712.318,469.50
1713.180,488.25
1714.040,515.25
1714.902,502.50
1715.764,491.25
1716.626,477.75
1717.486,508.00
1718.348,470.25
1719.209,433.25
1720.071,459.75
1720.930,511.25
1721.792,507.50
1722.653,473.25
1723.512,459.00
1724.374,499.50
1725.234,471.75
1726.095,467.50
1726.954,512.75
1727.815,470.75
1728.676,500.00
1729.535,519.25
1730.395,495.75
1731.256,426.50
1732.114,493.75
1732.974,491.50
1733.834,451.00
1734.693,499.00
1735.553,448.75
1736.413,490.50
1737.272,468.25
1738.130,466.50
1738.990,492.50
1739.849,476.00
1740.707,453.75
1741.566,459.75
1742.426,490.25
1743.283,469.25
1744.142,486.50
1745.001,460.75
1745.858,510.25
1746.717,433.25
1747.576,422.25
1748.433,486.50
1749.292,484.00
1750.150,456.75
1751.007,522.25
1751.865,473.75
1752.723,492.75
1753.579,451.50
1754.438,486.25
1755.296,483.75
1756.152,471.00
1757.010,512.00
1757.865,483.25
1758.723,480.75
1759.581,464.00
1760.436,487.75
1761.294,462.75
1762.151,490.75
1763.006,440.00
1763.864,494.50
1764.721,478.00
1765.576,444.50
1766.433,445.25
1767.288,446.75
1768.144,456.75
1769.001,459.50
1769.856,449.75
1770.712,448.25
1771.568,467.75
1772.423,513.50
1773.279,444.50
1774.133,485.00
1774.989,493.00
1775.845,492.25
1776.699,436.75
1777.555,453.50
1778.409,459.25
1779.265,489.50
1780.120,471.75
1780.974,445.75
1781.829,482.25
1782.682,466.00
1783.538,470.50
1784.393,465.75
1785.246,480.00
1786.101,483.00
1786.954,481.25
1787.808,444.75
1788.661,458.75
1789.516,466.50
1790.370,479.25
1791.223,493.00
1792.077,496.25
1792.930,463.00
1793.784,471.50
1794.636,436.25
1795.490,453.50
1796.344,465.50
1797.196,463.50
1798.049,430.25
1798.901,456.00
1799.755,434.75
1800.606,490.25
1801.460,395.25
1802.311,426.00
1803.165,505.50
1804.018,459.75
1804.869,470.50
1805.722,461.75
1806.573,477.75
1807.426,464.50
1808.276,460.00
1809.129,488.50
1809.980,480.75
1810.832,449.00
1811.683,474.25
1812.535,447.25
1813.385,455.25
1814.237,486.25
1815.089,425.25
1815.940,478.50
1816.791,420.75
1817.641,423.75
1818.493,447.00
1819.343,441.50
1820.194,470.25
1821.044,457.25
1821.895,441.75
1822.745,470.00
1823.596,460.75
1824.445,468.75
1825.296,441.75
1826.145,419.75
1826.996,445.00
1827.845,436.00
1828.695,416.75
1829.544,466.00
1830.395,510.00
1831.243,407.00
1832.094,440.50
1832.942,499.25
1833.792,473.25
1834.640,465.75
1835.490,448.00
1836.338,440.50
1837.186,459.75
1838.036,439.75
1838.884,441.75
1839.733,421.25
1840.581,435.25
1841.430,427.00
1842.278,441.50
1843.127,481.00
1843.974,448.00
1844.823,452.75
1845.671,500.75
1846.519,422.75
1847.366,414.00
1848.213,457.75
1849.062,444.25
1849.909,433.75
1850.757,475.75
1851.604,416.75
1852.452,449.75
1853.298,459.75
1854.146,430.00
1854.993,430.00
1855.839,396.00
1856.687,429.00
1857.532,410.50
1858.380,395.75
1859.226,416.25
1860.073,456.25
1860.919,430.50
1861.765,418.50
1862.612,405.75
1863.457,421.00
1864.304,410.00
1865.150,443.25
1865.995,440.25
1866.842,461.25
1867.686,474.50
1868.533,490.25
1869.378,425.00
1870.223,441.25
1871.069,419.00
1871.914,431.75
1872.760,454.00
1873.604,440.25
1874.448,406.50
1875.294,442.00
1876.139,451.75
1876.984,448.50
1877.828,437.00
1878.672,477.25
1879.518,423.75
1880.361,474.75
1881.205,439.50
1882.050,463.75
1882.894,447.75
1883.739,433.25
1884.582,425.75
1885.425,451.25
1886.270,410.00
1887.113,420.00
1887.956,457.50
1888.801,404.00
1889.644,451.75
1890.486,432.50
1891.331,433.75
1892.173,389.25
1893.017,462.75
1893.860,458.75
1894.702,394.00
1895.546,463.75
1896.388,400.75
1897.230,469.75
1898.074,434.25
1898.916,452.75
1899.757,427.50
1900.601,446.00
1901.443,437.00
1902.284,399.00
1903.125,418.25
1903.969,454.25
1904.810,386.25
1905.651,417.00
1906.494,427.50
1907.335,414.75
1908.176,436.00
1909.018,418.00
1909.859,407.25
1910.700,399.75
1911.542,451.00
1912.383,467.50
1913.223,423.00
1914.064,445.75
1914.906,407.75
1915.746,463.00
1916.586,454.50
1917.428,476.50
1918.268,375.25
1919.107,397.75
1919.947,406.25
1920.789,388.75
1921.628,464.75
1922.468,438.75
1923.309,408.25
1924.148,412.00
1924.988,469.50
1925.827,439.00
1926.667,438.00
1927.507,433.00
1928.345,413.25
1929.184,414.00
1930.025,444.00
1930.864,445.00
1931.702,447.75
1932.541,422.00
1933.381,452.50
1934.219,431.25
1935.057,435.25
1935.896,449.75
1936.735,424.75
1937.573,422.25
1938.411,430.75
1939.249,400.00
1940.089,409.00
1940.927,458.00
1941.764,429.25
1942.602,406.75
1943.439,429.75
1944.278,416.00
1945.115,383.75
1945.953,408.25
1946.790,427.00
1947.628,455.25
1948.465,414.75
1949.302,365.75
1950.139,430.25
1950.976,466.25
1951.814,411.75
1952.651,427.00
1953.487,428.25
1954.323,416.25
1955.160,419.75
1955.998,416.00
1956.834,412.50
1957.670,378.00
1958.506,412.75
1959.342,416.75
1960.177,400.50
1961.015,393.25
1961.850,442.75
1962.686,405.25
1963.521,395.00
1964.357,469.50
1965.192,438.25
1966.029,416.75
1966.864,445.25
1967.699,416.25
1968.534,423.50
1969.369,415.50
1970.204,447.00
1971.040,385.75
1971.875,438.75
1972.709,411.25
1973.544,457.25
1974.378,375.50
1975.212,367.00
1976.047,435.50
1976.882,423.00
1977.716,456.00
1978.550,412.50
1979.384,454.25
1980.218,414.75
1981.052,448.50
1981.885,436.50
1982.719,404.50
1983.554,427.75
1984.388,416.00
1985.221,454.50
1986.054,379.50
1986.887,442.25
1987.720,435.75
1988.553,459.25
1989.386,432.75
1990.219,404.25
1991.053,377.75
1991.886,437.50
1992.719,410.00
1993.551,413.50
1994.383,353.25
1995.216,441.00
1996.048,445.50
1996.880,381.75
1997.712,419.50
1998.544,367.00
1999.376,392.25
2000.208,429.25
2001.040,398.75
2001.873,414.25
2002.705,442.25
2003.536,388.75
2004.367,437.00
2005.199,425.75
2006.030,429.75
2006.861,460.00
2007.692,385.50
2008.523,405.50
2009.354,417.25
2010.185,461.25
2011.016,373.25
2011.846,427.50
2012.677,377.25
2013.507,421.25
2014.338,443.00
2015.168,389.00
2015.999,432.25
2016.829,404.00
2017.659,423.75
2018.489,438.25
2019.319,419.00
2020.149,445.50
2020.980,388.00
2021.810,403.25
2022.639,416.75
2023.469,403.25
2024.298,418.50
2025.128,442.25
2025.957,399.00
2026.786,427.75
2027.615,431.75
2028.444,399.50
2029.273,378.75
2030.102,456.50
2030.931,377.25
2031.758,446.50
2032.586,396.00
2033.415,407.00
2034.243,465.75
2035.072,409.00
2035.900,427.00
2036.728,443.50
2037.556,413.50
2038.385,409.75
2039.213,413.25
2040.040,387.50
2040.868,407.25
2041.696,405.25
2042.524,429.75
2043.351,418.00
2044.179,433.50
2045.006,430.75
2045.006,430.75

Max Intensity Wave.,219.929
Max Intensity Data,4547.50
Min Intensity Wave.,1994.383
Min Intensity Data,353.25
FWHM Wave.,531.687
FWHM Value,1.07
Pressure Wave.,684.671
Pressure Value [GPa],-24.91530
G/D Ratio,0.58676
G/D Gband Wave.,1549.646
G/D Gband Intensity,597.07
G/D Dband Wave.,1306.266
G/D Dband Intensity,1017.57

<< BACKGROUND SPECTRUM >>
Wave[dcm-1],No154
146.591,2275.00
147.626,2157.00
148.664,2095.00
149.699,2587.00
150.737,2285.00
151.772,2451.00
152.809,2419.00
153.846,2383.00
154.881,2443.00
155.918,1967.00
156.953,2319.00
157.989,2655.00
159.026,2475.00
160.060,2663.00
161.096,2883.00
162.130,2566.00
163.167,2599.00
164.200,2471.00
165.236,2703.00
166.272,2715.00
167.305,2317.00
168.341,2562.00
169.374,2851.00
170.409,2819.00
171.445,2751.00
172.477,2571.00
173.512,2433.00
174.545,2719.00
175.580,2915.00
176.614,3087.00
177.647,2875.00
178.681,3111.00
179.713,3395.00
180.747,2859.00
181.781,2751.00
182.813,3087.00
183.847,3127.00
184.878,2759.00
185.912,3031.00
186.945,3219.00
187.976,3134.00
189.010,2771.00
190.043,2899.00
191.073,2962.00
192.106,2747.00
193.137,3277.00
194.170,2635.00
195.202,2947.00
196.232,2709.00
197.265,3019.00
198.297,3099.00
199.327,2811.00
200.359,3067.00
201.388,3379.00
202.420,2943.00
203.452,3131.00
204.481,2731.00
205.512,3355.00
206.544,3143.00
207.573,3095.00
208.604,3431.00
209.635,3591.00
210.663,3015.00
211.694,3051.00
212.725,2887.00
213.753,2858.00
214.783,3475.00
215.813,3263.00
216.841,3067.00
217.871,3223.00
218.899,2953.00
219.929,3175.00
220.959,2959.00
221.986,3207.00
223.016,2823.00
224.045,3195.00
225.072,3183.00
226.101,3227.00
227.130,3275.00
228.157,2891.00
229.185,2371.00
230.214,3235.00
231.241,2907.00
232.269,2491.00
233.297,2695.00
234.323,3283.00
235.351,2851.00
236.379,3127.00
237.407,2783.00
238.433,2971.00
239.460,3170.00
240.488,3195.00
241.513,3239.00
242.540,3126.00
243.568,3287.00
244.592,3253.00
245.619,3254.00
246.646,2959.00
247.671,3005.00
248.697,2846.00
249.724,3063.00
250.748,3033.00
251.774,3050.00
252.801,3351.00
253.827,3205.00
254.850,3122.00
255.876,2763.00
256.902,3169.00
257.925,3038.00
258.951,2827.00
259.976,2829.00
260.999,3174.00
262.024,2835.00
263.049,3681.00
264.074,3162.00
265.097,3070.00
266.122,3133.00
267.146,3086.00
268.168,3247.00
269.193,2853.00
270.217,3280.00
271.241,2750.00
272.263,2889.00
273.287,3198.00
274.311,2831.00
275.332,3341.00
276.356,2896.00
277.379,3126.00
278.402,3185.00
279.424,3014.00
280.447,2955.00
281.470,2781.00
282.492,3164.00
283.513,2950.00
284.536,3197.00
285.558,3182.00
286.581,3159.00
287.601,2893.00
288.623,2888.00
289.645,3098.00
290.665,3172.00
291.687,3186.00
292.709,3167.00
293.730,3476.00
294.750,2920.00
295.771,2760.00
296.792,3093.00
297.813,2974.00
298.832,3121.00
299.853,2777.00
300.874,3040.00
301.895,3046.00
302.913,3004.00
303.934,3282.00
304.954,3059.00
305.975,3184.00
306.993,2768.00
308.013,3176.00
309.033,3113.00
310.052,2990.00
311.072,2937.00
312.090,3113.00
313.109,3336.00
314.129,3446.00
315.148,3032.00
316.165,3103.00
317.184,3307.00
318.203,2816.00
319.222,2788.00
320.238,3164.00
321.257,2843.00
322.275,2766.00
323.294,3037.00
324.312,3221.00
325.328,3284.00
326.346,3370.00
327.364,3304.00
328.382,3231.00
329.397,3195.00
330.415,3276.00
331.432,3276.00
332.450,3308.00
333.467,3531.00
334.482,2630.00
335.499,3401.00
336.516,2909.00
337.533,2608.00
338.547,2858.00
339.564,2872.00
340.580,3119.00
341.597,2990.00
342.613,3516.00
343.627,3060.00
344.643,3089.00
345.659,3159.00
346.675,3036.00
347.690,2900.00
348.704,3093.00
349.719,2910.00
350.735,2811.00
351.750,3236.00
352.765,3073.00
353.778,3051.00
354.793,3160.00
355.808,2894.00
356.822,3256.00
357.837,2715.00
358.851,3310.00
359.864,2993.00
360.878,2765.00
361.892,3008.00
362.906,3242.00
363.920,2636.00
364.932,3099.00
365.945,3138.00
366.959,3029.00
367.972,2984.00
368.986,2769.00
369.999,3399.00
371.010,2868.00
372.023,3370.00
373.036,2980.00
374.049,3402.00
375.061,3083.00
376.072,3048.00
377.084,2937.00
378.097,2681.00
379.109,3216.00
380.121,3066.00
381.133,2720.00
382.143,3195.00
383.155,2766.00
384.166,2921.00
385.178,3129.00
386.189,3268.00
387.201,2766.00
388.212,2936.00
389.221,2963.00
390.232,3066.00
391.243,2945.00
392.254,3101.00
393.264,2877.00
394.275,3271.00
395.283,3201.00
396.294,3682.00
397.304,3522.00
398.314,3174.00
399.324,3071.00
400.334,2714.00
401.344,3209.00
402.351,2745.00
403.361,3252.00
404.370,2990.00
405.380,2964.00
406.389,3463.00
407.398,3162.00
408.407,3137.00
409.414,3149.00
410.423,3352.00
411.431,2806.00
412.440,2712.00
413.448,3415.00
414.457,2914.00
415.465,2809.00
416.471,2921.00
417.479,3052.00
418.487,2827.00
419.495,3313.00
420.503,3146.00
421.510,2658.00
422.518,3188.00
423.525,3231.00
424.530,3442.00
425.537,2921.00
426.544,3269.00
427.551,2928.00
428.558,3646.00
429.565,3516.00
430.571,2907.00
431.578,2946.00
432.582,2925.00
433.588,2989.00
434.595,2628.00
435.601,3366.00
436.607,3304.00
437.612,2867.00
438.618,3350.00
439.624,2973.00
440.627,2965.00
441.633,3144.00
442.638,3674.00
443.643,3137.00
444.648,3046.00
445.653,3259.00
446.658,2916.00
447.663,3053.00
448.667,2923.00
449.672,2961.00
450.674,2991.00
451.678,2769.00
452.682,2934.00
453.687,2854.00
454.690,3674.00
455.694,3314.00
456.698,2595.00
457.702,2676.00
458.705,2880.00
459.709,2864.00
460.710,2953.00
461.713,3083.00
462.716,3108.00
463.719,3076.00
464.722,3221.00
465.725,2994.00
466.727,2835.00
467.730,3092.00
468.732,2828.00
469.735,3326.00
470.737,2960.00
471.737,2951.00
472.739,2936.00
473.741,2848.00
474.742,3125.00
475.744,3160.00
476.746,3062.00
477.747,2972.00
478.748,3217.00
479.750,2939.00
480.751,3017.00
481.752,3793.00
482.753,3140.00
483.751,3574.00
484.752,2658.00
485.753,3018.00
486.753,2878.00
487.753,3013.00
488.754,3489.00
489.754,2756.00
490.754,3356.00
491.754,3129.00
492.754,2719.00
493.753,3067.00
494.753,2936.00
495.752,3348.00
496.752,3071.00
497.749,3027.00
498.748,2895.00
499.747,3453.00
500.746,3092.00
501.745,2822.00
502.744,2802.00
503.742,3358.00
504.741,2978.00
505.739,2516.00
506.737,2924.00
507.735,3209.00
508.734,3421.00
509.732,3189.00
510.729,3340.00
511.727,2912.00
512.725,2963.00
513.720,2794.00
514.718,3279.00
515.715,2724.00
516.712,2668.00
517.709,3031.00
518.706,2944.00
519.703,3119.00
520.700,3256.00
521.696,3460.00
522.693,2955.00
523.689,2888.00
524.686,3226.00
525.682,2840.00
526.678,3497.00
527.674,2975.00
528.670,2629.00
529.666,3584.00
530.661,3528.00
531.657,3202.00
532.652,3206.00
533.648,3046.00
534.641,3272.00
535.636,3129.00
536.631,3165.00
537.626,3200.00
538.621,2792.00
539.616,2641.00
540.610,2567.00
541.605,3075.00
542.599,3097.00
543.593,3028.00
544.587,3995.00
545.581,2842.00
546.575,3047.00
547.569,3079.00
548.563,2713.00
549.557,2698.00
550.550,2784.00
551.543,2799.00
552.537,3182.00
553.530,2802.00
554.523,2820.00
555.516,3141.00
556.509,2999.00
557.502,2665.00
558.494,3248.00
559.487,2920.00
560.479,3251.00
561.472,3290.00
562.464,3199.00
563.456,3356.00
564.448,2992.00
565.440,3039.00
566.432,3396.00
567.423,2890.00
568.415,2924.00
569.404,3148.00
570.396,2839.00
571.387,3176.00
572.378,3100.00
573.369,3981.00
574.360,3725.00
575.351,2975.00
576.341,2877.00
577.332,2936.00
578.323,2678.00
579.313,2918.00
580.303,3282.00
581.293,3198.00
582.283,3020.00
583.273,3181.00
584.263,3041.00
585.253,3120.00
586.243,3220.00
587.232,2713.00
588.222,2971.00
589.211,3227.00
590.200,3117.00
591.189,2996.00
592.178,2994.00
593.167,3422.00
594.156,3307.00
595.145,2918.00
596.133,3501.00
597.122,3144.00
598.110,3236.00
599.098,3091.00
600.086,3068.00
601.074,3206.00
602.062,2872.00
603.050,2757.00
604.038,3099.00
605.025,2809.00
606.013,3208.00
607.000,3432.00
607.987,3043.00
608.975,3082.00
609.962,2803.00
610.949,3216.00
611.936,3288.00
612.922,3223.00
613.909,2752.00
614.895,3394.00
615.882,2888.00
616.868,3025.00
617.854,2811.00
618.841,3028.00
619.826,3132.00
620.812,3025.00
621.798,2823.00
622.784,3243.00
623.769,3141.00
624.755,2764.00
625.740,3070.00
626.725,2742.00
627.711,2858.00
628.698,3130.00
629.683,2880.00
630.667,3201.00
631.652,2769.00
632.637,2988.00
633.621,3224.00
634.606,2973.00
635.590,3159.00
636.574,2983.00
637.558,3097.00
638.542,3032.00
639.526,2890.00
640.510,2622.00
641.493,3062.00
642.477,3014.00
643.460,2709.00
644.444,3281.00
645.427,3308.00
646.410,2745.00
647.393,3021.00
648.376,3094.00
649.359,2950.00
650.341,3144.00
651.324,3111.00
652.307,3091.00
653.289,2953.00
654.271,2900.00
655.253,2909.00
656.235,3119.00
657.217,3267.00
658.199,2678.00
659.181,2785.00
660.163,3031.00
661.144,2882.00
662.126,2903.00
663.107,2828.00
664.088,4779.00
665.069,3254.00
666.050,2865.00
667.033,2762.00
668.014,3068.00
668.995,2627.00
669.975,3033.00
670.956,3038.00
671.936,3201.00
672.916,3008.00
673.896,3139.00
674.876,2930.00
675.856,2928.00
676.836,2819.00
677.816,2356.00
678.795,2843.00
679.775,2693.00
680.754,3072.00
681.734,3219.00
682.713,3200.00
683.692,2770.00
684.671,2683.00
685.650,2793.00
686.629,2914.00
687.607,2788.00
688.586,2817.00
689.564,2875.00
690.543,3314.00
691.523,2388.00
692.501,2840.00
693.479,2926.00
694.457,2858.00
695.435,2869.00
696.413,2672.00
697.390,2529.00
698.368,2717.00
699.345,3101.00
700.322,2962.00
701.300,3129.00
702.277,3106.00
703.254,3326.00
704.231,2615.00
705.207,2985.00
706.184,2818.00
707.161,2676.00
708.137,2880.00
709.113,2822.00
710.090,2818.00
711.068,2613.00
712.044,2637.00
713.020,2916.00
713.996,2617.00
714.971,2824.00
715.947,2923.00
716.922,2806.00
717.898,2765.00
718.873,2898.00
719.848,2760.00
720.823,2710.00
721.798,3028.00
722.773,2790.00
723.748,2568.00
724.723,3029.00
725.697,2864.00
726.672,2793.00
727.646,2520.00
728.622,3004.00
729.596,2623.00
730.570,2761.00
731.544,3111.00
732.518,3280.00
733.492,2848.00
734.466,2914.00
735.439,3018.00
736.413,3090.00
737.386,2485.00
738.359,2468.00
739.332,2577.00
740.305,2909.00
741.278,3353.00
742.251,2947.00
743.224,2832.00
744.196,2578.00
745.171,3154.00
746.143,3083.00
747.115,2803.00
748.087,2745.00
749.059,3105.00
750.031,2892.00
751.003,3715.00
751.975,3270.00
752.947,2711.00
753.918,3135.00
754.890,2624.00
755.861,2803.00
756.832,3104.00
757.803,2851.00
758.774,2858.00
759.747,2617.00
760.718,3266.00
761.689,2768.00
762.659,2594.00
763.630,3196.00
764.600,2574.00
765.570,3040.00
766.540,3168.00
767.510,2993.00
768.480,3061.00
769.450,2741.00
770.420,2869.00
771.390,2685.00
772.359,2779.00
773.329,2647.00
774.300,2522.00
775.269,2783.00
776.238,3018.00
777.207,3186.00
778.176,2547.00
779.145,2837.00
780.114,2698.00
781.083,2580.00
782.051,2817.00
783.019,2719.00
783.988,3094.00
784.956,2868.00
785.924,3004.00
786.894,2923.00
787.862,2731.00
788.830,3149.00
789.797,2676.00
790.765,2592.00
791.732,2803.00
792.700,2706.00
793.667,2618.00
794.634,2789.00
795.601,2776.00
796.568,2818.00
797.535,2833.00
798.502,3477.00
799.468,2946.00
800.437,2436.00
801.403,2704.00
802.370,3290.00
803.336,3022.00
804.302,2913.00
805.268,2461.00
806.234,2580.00
807.200,2745.00
808.166,2804.00
809.131,2635.00
810.097,3006.00
811.062,3724.00
812.027,3043.00
812.994,2620.00
813.960,2631.00
814.925,2960.00
815.889,2536.00
816.854,3038.00
817.819,2685.00
818.783,2758.00
819.748,3149.00
820.712,2760.00
821.677,2648.00
822.641,2707.00
823.605,2781.00
824.571,3163.00
825.534,2768.00
826.498,2696.00
827.462,2778.00
828.425,2638.00
829.389,3106.00
830.352,2841.00
831.315,2924.00
832.279,2521.00
833.242,2797.00
834.204,2701.00
835.167,2698.00
836.132,3077.00
837.095,2538.00
838.057,2734.00
839.020,2818.00
839.982,2881.00
840.944,2675.00
841.906,2692.00
842.868,2968.00
843.830,2533.00
844.792,3123.00
845.753,2695.00
846.715,2429.00
847.679,2621.00
848.640,2627.00
849.601,2778.00
850.562,3286.00
851.523,2742.00
852.484,2507.00
853.445,3035.00
854.406,2672.00
855.367,2716.00
856.327,3041.00
857.288,2518.00
858.248,2682.00
859.210,2752.00
860.170,2536.00
861.130,3031.00
862.090,2429.00
863.050,2653.00
864.010,2725.00
864.969,2929.00
865.929,2610.00
866.888,2558.00
867.848,2819.00
868.807,2658.00
869.766,2910.00
870.727,2757.00
871.686,3020.00
872.645,3026.00
873.604,3284.00
874.562,2797.00
875.521,2819.00
876.479,3364.00
877.437,2661.00
878.396,2572.00
879.354,3195.00
880.312,2651.00
881.270,2709.00
882.229,3158.00
883.187,2636.00
884.145,2686.00
885.102,2978.00
886.059,2890.00
887.017,2916.00
887.974,2964.00
888.931,3084.00
889.888,2541.00
890.845,2477.00
891.802,2348.00
892.758,2648.00
893.717,2456.00
894.673,2566.00
895.630,2643.00
896.586,2913.00
897.542,2721.00
898.498,2561.00
899.454,2881.00
900.410,2706.00
901.366,2695.00
902.321,2762.00
903.277,2710.00
904.232,2791.00
905.189,2488.00
906.145,2691.00
907.100,2232.00
908.055,2709.00
909.010,2938.00
909.965,2329.00
910.919,2786.00
911.874,2569.00
912.828,2806.00
913.783,2812.00
914.737,2363.00
915.693,2793.00
916.648,2891.00
917.602,3004.00
918.555,2828.00
919.509,2847.00
920.463,2814.00
921.417,2778.00
922.370,2561.00
923.324,2744.00
924.277,2719.00
925.230,2781.00
926.183,2409.00
927.138,2690.00
928.091,2965.00
929.044,2850.00
929.996,2662.00
930.949,2686.00
931.902,2860.00
932.854,2859.00
933.806,2612.00
934.758,2961.00
935.711,3025.00
936.663,2797.00
937.614,2802.00
938.568,2785.00
939.520,2435.00
940.471,2730.00
941.423,2802.00
942.374,2928.00
943.326,2742.00
944.277,2587.00
945.228,2817.00
946.179,2704.00
947.130,3104.00
948.080,2697.00
949.031,2558.00
949.984,2698.00
950.934,2740.00
951.884,2472.00
952.835,2719.00
953.785,2781.00
954.735,2657.00
955.685,2368.00
956.635,2633.00
957.585,2678.00
958.534,2654.00
959.484,2751.00
960.433,2624.00
961.383,2483.00
962.334,2973.00
963.283,2820.00
964.232,2878.00
965.181,2748.00
966.130,2771.00
967.079,2651.00
968.027,2772.00
968.976,2753.00
969.924,2628.00
970.873,2819.00
971.821,2763.00
972.769,2929.00
973.719,2862.00
974.667,2524.00
975.615,2758.00
976.562,2754.00
977.510,2446.00
978.458,2652.00
979.405,2869.00
980.352,2764.00
981.300,2973.00
982.247,2828.00
983.194,2516.00
984.141,2634.00
985.088,2752.00
986.036,2814.00
986.983,3053.00
987.930,3125.00
988.876,2397.00
989.822,2993.00
990.769,2573.00
991.715,2638.00
992.661,2479.00
993.607,2806.00
994.553,3318.00
995.498,2615.00
996.444,2284.00
997.389,2803.00
998.337,2584.00
999.282,2853.00
1000.227,2642.00
1001.173,2733.00
1002.118,2474.00
1003.062,2916.00
1004.007,2710.00
1004.952,3020.00
1005.897,2967.00
1006.841,2725.00
1007.786,2453.00
1008.730,2488.00
1009.674,3148.00
1010.618,2639.00
1011.564,2530.00
1012.508,2394.00
1013.452,2953.00
1014.396,2736.00
1015.339,2655.00
1016.283,2737.00
1017.226,2757.00
1018.170,2726.00
1019.113,2905.00
1020.056,2734.00
1020.999,2746.00
1021.942,2614.00
1022.885,2908.00
1023.828,3023.00
1024.770,2540.00
1025.715,2765.00
1026.657,2712.00
1027.600,2765.00
1028.542,2934.00
1029.484,2732.00
1030.426,2843.00
1031.368,2796.00
1032.310,2615.00
1033.251,2556.00
1034.193,2728.00
1035.135,2526.00
1036.076,2617.00
1037.017,2590.00
1037.959,2857.00
1038.900,2761.00
1039.843,2800.00
1040.784,2763.00
1041.725,2796.00
1042.665,2638.00
1043.606,2786.00
1044.547,2741.00
1045.487,2395.00
1046.427,2705.00
1047.368,2781.00
1048.308,2244.00
1049.248,2531.00
1050.188,2694.00
1051.128,2618.00
1052.067,2658.00
1053.007,2409.00
1053.947,2418.00
1054.886,2601.00
1055.827,2525.00
1056.766,3017.00
1057.706,2478.00
1058.645,2688.00
1059.584,2771.00
1060.522,3003.00
1061.461,2462.00
1062.400,2473.00
1063.338,2664.00
1064.277,2542.00
1065.215,2550.00
1066.154,2433.00
1067.092,2631.00
1068.030,2636.00
1068.968,2897.00
1069.906,3037.00
1070.843,2966.00
1071.781,2782.00
1072.720,2813.00
1073.658,2895.00
1074.595,2623.00
1075.533,2584.00
1076.470,2609.00
1077.407,3014.00
1078.344,2774.00
1079.281,2807.00
1080.217,2300.00
1081.154,2695.00
1082.091,2792.00
1083.027,2472.00
1083.964,2939.00
1084.900,2577.00
1085.836,2598.00
1086.772,2916.00
1087.708,2460.00
1088.644,2823.00
1089.580,2686.00
1090.515,2752.00
1091.451,2640.00
1092.388,2740.00
1093.324,2462.00
1094.259,3273.00
1095.194,2753.00
1096.129,2628.00
1097.064,2621.00
1097.999,2813.00
1098.934,2535.00
1099.869,2535.00
1100.803,2760.00
1101.738,2730.00
1102.672,2395.00
1103.607,2815.00
1104.541,2582.00
1105.475,2532.00
1106.409,2404.00
1107.343,2590.00
1108.277,2434.00
1109.210,2745.00
1110.144,2685.00
1111.078,2685.00
1112.011,2481.00
1112.944,2780.00
1113.878,2730.00
1114.811,2182.00
1115.744,2599.00
1116.678,2279.00
1117.611,2588.00
1118.544,2633.00
1119.477,2768.00
1120.409,2554.00
1121.342,3147.00
1122.274,2808.00
1123.206,4238.00
1124.138,2668.00
1125.070,3029.00
1126.002,2830.00
1126.934,2292.00
1127.866,2592.00
1128.798,2353.00
1129.729,2387.00
1130.661,2685.00
1131.592,2580.00
1132.523,2777.00
1133.454,2815.00
1134.385,2326.00
1135.317,2663.00
1136.247,2596.00
1137.178,2851.00
1138.109,2386.00
1139.039,3016.00
1139.970,2839.00
1140.900,2597.00
1141.831,2382.00
1142.761,2256.00
1143.691,2764.00
1144.621,2686.00
1145.551,2747.00
1146.480,2709.00
1147.410,2837.00
1148.340,2305.00
1149.269,2380.00
1150.199,2642.00
1151.128,3086.00
1152.057,2466.00
1152.979,2574.00
1153.898,2636.00
1154.819,2717.00
1155.739,2660.00
1156.658,2548.00
1157.579,2696.00
1158.498,2680.00
1159.419,2223.00
1160.338,2672.00
1161.256,2717.00
1162.177,2520.00
1163.095,2632.00
1164.016,2747.00
1164.934,2941.00
1165.852,2823.00
1166.772,2644.00
1167.690,2692.00
1168.610,2719.00
1169.528,2642.00
1170.446,2190.00
1171.365,2577.00
1172.283,2513.00
1173.202,2663.00
1174.120,2724.00
1175.037,2544.00
1175.956,2470.00
1176.873,2539.00
1177.792,2538.00
1178.709,3177.00
1179.626,2556.00
1180.544,2861.00
1181.461,2494.00
1182.379,2780.00
1183.296,2646.00
1184.212,2332.00
1185.130,2511.00
1186.046,3001.00
1186.962,2648.00
1187.880,2917.00
1188.796,2661.00
1189.714,2455.00
1190.629,2822.00
1191.545,2685.00
1192.462,2606.00
1193.378,2651.00
1194.295,2335.00
1195.210,2636.00
1196.125,2811.00
1197.042,2704.00
1197.957,2655.00
1198.872,2542.00
1199.788,2560.00
1200.703,2950.00
1201.619,2640.00
1202.534,2515.00
1203.448,2684.00
1204.364,2621.00
1205.278,2324.00
1206.192,2697.00
1207.108,3118.00
1208.022,3024.00
1208.938,2479.00
1209.851,2785.00
1210.765,2890.00
1211.680,2557.00
1212.594,2437.00
1213.507,2539.00
1214.422,3075.00
1215.335,2732.00
1216.248,2603.00
1217.163,2667.00
1218.076,3259.00
1218.990,2755.00
1219.903,2428.00
1220.816,2475.00
1221.730,2594.00
1222.642,2535.00
1223.554,2574.00
1224.469,2701.00
1225.380,2595.00
1226.292,2309.00
1227.206,2803.00
1228.118,2976.00
1229.032,2291.00
1229.943,2510.00
1230.855,2587.00
1231.768,2379.00
1232.679,2716.00
1233.590,2606.00
1234.503,2849.00
1235.414,2506.00
1236.325,2526.00
1237.238,2741.00
1238.149,2705.00
1239.059,2462.00
1239.972,2821.00
1240.882,2437.00
1241.793,2762.00
1242.705,2994.00
1243.615,2589.00
1244.525,2759.00
1245.437,2226.00
1246.347,2680.00
1247.259,2797.00
1248.168,3082.00
1249.078,2894.00
1249.989,2873.00
1250.899,2453.00
1251.808,2498.00
1252.719,2592.00
1253.628,2513.00
1254.537,3022.00
1255.448,2467.00
1256.357,2464.00
1257.266,2664.00
1258.176,2382.00
1259.085,2357.00
1259.993,2438.00
1260.904,2476.00
1261.812,2452.00
1262.720,3176.00
1263.630,2818.00
1264.538,2469.00
1265.446,2757.00
1266.356,2624.00
1267.263,2909.00
1268.171,2460.00
1269.080,2739.00
1269.988,2799.00
1270.895,2565.00
1271.804,2598.00
1272.711,2817.00
1273.619,2795.00
1274.527,2451.00
1275.434,2690.00
1276.341,2453.00
1277.248,2682.00
1278.156,2946.00
1279.063,2498.00
1279.969,2745.00
1280.877,3507.00
1281.783,2852.00
1282.690,2700.00
1283.598,2612.00
1284.503,2523.00
1285.409,2459.00
1286.317,2981.00
1287.223,3077.00
1288.128,2721.00
1289.036,2554.00
1289.941,2595.00
1290.846,2650.00
1291.751,2454.00
1292.658,2595.00
1293.563,3112.00
1294.468,2639.00
1295.375,2821.00
1296.280,2892.00
1297.184,3363.00
1298.091,2744.00
1298.995,2854.00
1299.900,3050.00
1300.806,2565.00
1301.710,2383.00
1302.614,2260.00
1303.518,2885.00
1304.424,2604.00
1305.327,2831.00
1306.231,2598.00
1307.137,2800.00
1308.040,2723.00
1308.943,2692.00
1309.847,2850.00
1310.752,2853.00
1311.655,2309.00
1312.558,2418.00
1313.463,2548.00
1314.366,2536.00
1315.269,2742.00
1316.171,2627.00
1317.076,2540.00
1317.978,2456.00
1318.881,2256.00
1319.785,2508.00
1320.687,2499.00
1321.589,2273.00
1322.491,2489.00
1323.395,2753.00
1324.297,3209.00
1325.198,2770.00
1326.102,2463.00
1327.004,2450.00
1327.905,3070.00
1328.806,2602.00
1329.709,2693.00
1330.611,2566.00
1331.512,2485.00
1332.413,3072.00
1333.316,2716.00
1334.216,2823.00
1335.117,2349.00
1336.020,2703.00
1336.920,2632.00
1337.821,2520.00
1338.721,2915.00
1339.623,2695.00
1340.523,2639.00
1341.423,2516.00
1342.323,2928.00
1343.225,2723.00
1344.125,2498.00
1345.025,2534.00
1345.924,2313.00
1346.826,3004.00
1347.725,3019.00
1348.624,2873.00
1349.524,2505.00
1350.425,2626.00
1351.324,2704.00
1352.223,2835.00
1353.121,2619.00
1354.022,2834.00
1354.921,3060.00
1355.819,2756.00
1356.718,2694.00
1357.618,2418.00
1358.516,2768.00
1359.415,3073.00
1360.313,2725.00
1361.213,2576.00
1362.111,2949.00
1363.008,3309.00
1363.906,2599.00
1364.806,2638.00
1365.703,2741.00
1366.601,2478.00
1367.498,2467.00
1368.397,2839.00
1369.295,2705.00
1370.192,2491.00
1371.089,2765.00
1371.987,2643.00
1372.884,2926.00
1373.781,2466.00
1374.678,2615.00
1375.574,2482.00
1376.473,2771.00
1377.369,2884.00
1378.265,2489.00
1379.161,2546.00
1380.059,2353.00
1380.955,2778.00
1381.851,2444.00
1382.747,2543.00
1383.643,2585.00
1384.540,2434.00
1385.436,2561.00
1386.331,2729.00
1387.227,2831.00
1388.124,2791.00
1389.019,2472.00
1389.914,2659.00
1390.809,2307.00
1391.704,3082.00
1392.601,2579.00
1393.495,2941.00
1394.390,2798.00
1395.285,2862.00
1396.179,2764.00
1397.075,2614.00
1397.969,2683.00
1398.864,2316.00
1399.758,2589.00
1400.652,2669.00
1401.547,2497.00
1402.441,2379.00
1403.335,3016.00
1404.229,2794.00
1405.122,2707.00
1406.017,2666.00
1406.911,2751.00
1407.804,3049.00
1408.697,2636.00
1409.590,2471.00
1410.485,2817.00
1411.378,2683.00
1412.271,2351.00
1413.163,2725.00
1414.056,2766.00
1414.949,3031.00
1415.843,2735.00
1416.735,2611.00
1417.627,2690.00
1418.520,2636.00
1419.412,2898.00
1420.306,2822.00
1421.197,2931.00
1422.089,2852.00
1422.981,3152.00
1423.873,2845.00
1424.764,2816.00
1425.657,2715.00
1426.549,2844.00
1427.440,2836.00
1428.331,2570.00
1429.222,2348.00
1430.113,2710.00
1431.006,2813.00
1431.897,2564.00
1432.787,2660.00
1433.678,2581.00
1434.568,2496.00
1435.459,2874.00
1436.351,2860.00
1437.241,2816.00
1438.131,2822.00
1439.021,3060.00
1439.911,2605.00
1440.801,2741.00
1441.693,2893.00
1442.583,2692.00
1443.472,2681.00
1444.362,2778.00
1445.251,2611.00
1446.140,2539.00
1447.030,2873.00
1447.921,2883.00
1448.810,2488.00
1449.699,3050.00
1450.588,2670.00
1451.476,2575.00
1452.365,2751.00
1453.254,2528.00
1454.144,2556.00
1455.032,2784.00
1455.921,2434.00
1456.809,2959.00
1457.697,2485.00
1458.585,2617.00
1459.473,2652.00
1460.361,2500.00
1461.251,2758.00
1462.138,2750.00
1463.026,2618.00
1463.913,2880.00
1464.801,2581.00
1465.688,2756.00
1466.575,2725.00
1467.463,3117.00
1468.351,2556.00
1469.238,2635.00
1470.125,2285.00
1471.012,2731.00
1471.899,2750.00
1472.785,2508.00
1473.672,2671.00
1474.558,2870.00
1475.446,2779.00
1476.333,2816.00
1477.219,2481.00
1478.105,2642.00
1478.991,2644.00
1479.877,2995.00
1480.762,2656.00
1481.648,2535.00
1482.534,2852.00
1483.419,2737.00
1484.307,2790.00
1485.192,2669.00
1486.077,2518.00
1486.962,2524.00
1487.847,2402.00
1488.732,2516.00
1489.617,2686.00
1490.502,2933.00
1491.387,2816.00
1492.271,2500.00
1493.156,2505.00
1494.042,2453.00
1494.927,2887.00
1495.811,2545.00
1496.695,2796.00
1497.579,2939.00
1498.463,2678.00
1499.347,2702.00
1500.231,2674.00
1501.114,2733.00
1501.998,2950.00
1502.881,2725.00
1503.765,2937.00
1504.648,3089.00
1505.533,2803.00
1506.417,2720.00
1507.300,2683.00
1508.183,2758.00
1509.066,2179.00
1509.948,2898.00
1510.831,3009.00
1511.714,2462.00
1512.596,2808.00
1513.479,2918.00
1514.361,2893.00
1515.243,2674.00
1516.125,2832.00
1517.008,2929.00
1517.890,2648.00
1518.771,2739.00
1519.655,2865.00
1520.537,2637.00
1521.419,2514.00
1522.300,2732.00
1523.182,2819.00
1524.063,2807.00
1524.944,2994.00
1525.825,2853.00
1526.707,2485.00
1527.588,2482.00
1528.468,2766.00
1529.349,2365.00
1530.230,2623.00
1531.111,2878.00
1531.991,2744.00
1532.872,2421.00
1533.752,2639.00
1534.632,2555.00
1535.513,2540.00
1536.393,2873.00
1537.273,3030.00
1538.153,3359.00
1539.032,2431.00
1539.912,2677.00
1540.792,2699.00
1541.672,2745.00
1542.551,2791.00
1543.430,3294.00
1544.310,2702.00
1545.189,2627.00
1546.068,3102.00
1546.947,2831.00
1547.826,2997.00
1548.705,2652.00
1549.584,2878.00
1550.462,2620.00
1551.341,2858.00
1552.219,2750.00
1553.098,2841.00
1553.976,2881.00
1554.854,3096.00
1555.733,2917.00
1556.611,2641.00
1557.489,2491.00
1558.367,2703.00
1559.244,2856.00
1560.122,2707.00
1561.000,2787.00
1561.877,2970.00
1562.755,2571.00
1563.632,2673.00
1564.509,2958.00
1565.386,3034.00
1566.264,2484.00
1567.141,2318.00
1568.017,2847.00
1568.894,2696.00
1569.771,2752.00
1570.648,2792.00
1571.524,2705.00
1572.401,2451.00
1573.277,2441.00
1574.153,2744.00
1575.029,2541.00
1575.906,3387.00
1576.781,2859.00
1577.657,2631.00
1578.533,2969.00
1579.409,2319.00
1580.285,2703.00
1581.160,3122.00
1582.036,2871.00
1582.911,2519.00
1583.786,3039.00
1584.662,2499.00
1585.537,2645.00
1586.412,2778.00
1587.287,2538.00
1588.160,2878.00
1589.035,2323.00
1589.909,2726.00
1590.784,2653.00
1591.658,2484.00
1592.533,2761.00
1593.407,2675.00
1594.281,2560.00
1595.155,3083.00
1596.029,2628.00
1596.903,2670.00
1597.777,2623.00
1598.651,2988.00
1599.525,2402.00
1600.398,2733.00
1601.272,2664.00
1602.144,3226.00
1603.017,2612.00
1603.890,2904.00
1604.763,2790.00
1605.636,2852.00
1606.509,2400.00
1607.382,2528.00
1608.255,2757.00
1609.128,2873.00
1610.000,2637.00
1610.873,2449.00
1611.746,2588.00
1612.616,2635.00
1613.488,2298.00
1614.361,2694.00
1615.233,2651.00
1616.105,2889.00
1616.977,2614.00
1617.849,2528.00
1618.720,3044.00
1619.592,3006.00
1620.464,2803.00
1621.333,3157.00
1622.205,2700.00
1623.076,2672.00
1623.947,2696.00
1624.818,2975.00
1625.689,2835.00
1626.560,2581.00
1627.431,2740.00
1628.302,3076.00
1629.171,2810.00
1630.042,3046.00
1630.912,3366.00
1631.782,3292.00
1632.653,2536.00
1633.523,2853.00
1634.393,2936.00
1635.263,2581.00
1636.131,2716.00
1637.001,2620.00
1637.871,2331.00
1638.741,2365.00
1639.611,2447.00
1640.480,2804.00
1641.350,2536.00
1642.219,2515.00
1643.087,2186.00
1643.956,3095.00
1644.825,2972.00
1645.694,2881.00
1646.563,2867.00
1647.432,2748.00
1648.299,2703.00
1649.167,2828.00
1650.036,2519.00
1650.904,2886.00
1651.773,2925.00
1652.641,2682.00
1653.509,2925.00
1654.376,2590.00
1655.244,2752.00
1656.112,2798.00
1656.980,2736.00
1657.847,2575.00
1658.715,2885.00
1659.581,2600.00
1660.448,2929.00
1661.316,2213.00
1662.183,2695.00
1663.051,2754.00
1663.918,2725.00
1664.783,2686.00
1665.650,2810.00
1666.517,2858.00
1667.384,2748.00
1668.251,2738.00
1669.115,2929.00
1669.982,2676.00
1670.849,2961.00
1671.715,2709.00
1672.581,2821.00
1673.446,2839.00
1674.312,2740.00
1675.178,3091.00
1676.044,2802.00
1676.910,2791.00
1677.774,2742.00
1678.639,2369.00
1679.505,2703.00
1680.370,2876.00
1681.236,3322.00
1682.099,2665.00
1682.965,2698.00
1683.830,2294.00
1684.695,2564.00
1685.560,2652.00
1686.423,2867.00
1687.288,2829.00
1688.153,2729.00
1689.017,2660.00
1689.880,2752.00
1690.745,2851.00
1691.609,2547.00
1692.473,2870.00
1693.338,2977.00
1694.200,2969.00
1695.064,2698.00
1695.928,2634.00
1696.792,2757.00
1697.654,3251.00
1698.517,2758.00
1699.381,2420.00
1700.245,2369.00
1701.106,3046.00
1701.969,2611.00
1702.833,2820.00
1703.696,2648.00
1704.557,2658.00
1705.420,2585.00
1706.283,2719.00
1707.146,2861.00
1708.007,2541.00
1708.870,2505.00
1709.732,2383.00
1710.595,2634.00
1711.455,2458.00
1712.318,2663.00
1713.180,2982.00
1714.040,2747.00
1714.902,2877.00
1715.764,2732.00
1716.626,2522.00
1717.486,2676.00
1718.348,2982.00
1719.209,4146.00
1720.071,2397.00
1720.930,2449.00
1721.792,2552.00
1722.653,2556.00
1723.512,2621.00
1724.374,2647.00
1725.234,2779.00
1726.095,2748.00
1726.954,2701.00
1727.815,2859.00
1728.676,2662.00
1729.535,2919.00
1730.395,2653.00
1731.256,2670.00
1732.114,2750.00
1732.974,2200.00
1733.834,3118.00
1734.693,2863.00
1735.553,2756.00
1736.413,3136.00
1737.272,2596.00
1738.130,2677.00
1738.990,2775.00
1739.849,2593.00
1740.707,3760.00
1741.566,2777.00
1742.426,2767.00
1743.283,3131.00
1744.142,2614.00
1745.001,2413.00
1745.858,2867.00
1746.717,2838.00
1747.576,2850.00
1748.433,2873.00
1749.292,3270.00
1750.150,3367.00
1751.007,2889.00
1751.865,2944.00
1752.723,2722.00
1753.579,2664.00
1754.438,2927.00
1755.296,2919.00
1756.152,2268.00
1757.010,2380.00
1757.865,2916.00
1758.723,2379.00
1759.581,3054.00
1760.436,2684.00
1761.294,3085.00
1762.151,2701.00
1763.006,2670.00
1763.864,2365.00
1764.721,2933.00
1765.576,2759.00
1766.433,2907.00
1767.288,2633.00
1768.144,2794.00
1769.001,2686.00
1769.856,2835.00
1770.712,2975.00
1771.568,2510.00
1772.423,2605.00
1773.279,2632.00
1774.133,2635.00
1774.989,3102.00
1775.845,3092.00
1776.699,2987.00
1777.555,2725.00
1778.409,3259.00
1779.265,2656.00
1780.120,2669.00
1780.974,2730.00
1781.829,2311.00
1782.682,2775.00
1783.538,2528.00
1784.393,2774.00
1785.246,2609.00
1786.101,2802.00
1786.954,2854.00
1787.808,2961.00
1788.661,2456.00
1789.516,2635.00
1790.370,2648.00
1791.223,2888.00
1792.077,2703.00
1792.930,2825.00
1793.784,2578.00
1794.636,2772.00
1795.490,2677.00
1796.344,2743.00
1797.196,2699.00
1798.049,2905.00
1798.901,2613.00
1799.755,2991.00
1800.606,2502.00
1801.460,3295.00
1802.311,3066.00
1803.165,3102.00
1804.018,3071.00
1804.869,2817.00
1805.722,3215.00
1806.573,2761.00
1807.426,2540.00
1808.276,2734.00
1809.129,2595.00
1809.980,2939.00
1810.832,3010.00
1811.683,2656.00
1812.535,3092.00
1813.385,2654.00
1814.237,2986.00
1815.089,2793.00
1815.940,2985.00
1816.791,2696.00
1817.641,2621.00
1818.493,2905.00
1819.343,2806.00
1820.194,2587.00
1821.044,2829.00
1821.895,2967.00
1822.745,2431.00
1823.596,2616.00
1824.445,3130.00
1825.296,2855.00
1826.145,2730.00
1826.996,2930.00
1827.845,2781.00
1828.695,2833.00
1829.544,2711.00
1830.395,2701.00
1831.243,2705.00
1832.094,2474.00
1832.942,3306.00
1833.792,2822.00
1834.640,2791.00
1835.490,2735.00
1836.338,2804.00
1837.186,2605.00
1838.036,2616.00
1838.884,2742.00
1839.733,3091.00
1840.581,2929.00
1841.430,2886.00
1842.278,3101.00
1843.127,2601.00
1843.974,2426.00
1844.823,3166.00
1845.671,2868.00
1846.519,2762.00
1847.366,2831.00
1848.213,2385.00
1849.062,2556.00
1849.909,2493.00
1850.757,3361.00
1851.604,2874.00
1852.452,2655.00
1853.298,2912.00
1854.146,2795.00
1854.993,2794.00
1855.839,3308.00
1856.687,2867.00
1857.532,2901.00
1858.380,2778.00
1859.226,2852.00
1860.073,2848.00
1860.919,2598.00
1861.765,2662.00
1862.612,3041.00
1863.457,2980.00
1864.304,2716.00
1865.150,2852.00
1865.995,2701.00
1866.842,2851.00
1867.686,2961.00
1868.533,2789.00
1869.378,2801.00
1870.223,2774.00
1871.069,2671.00
1871.914,2799.00
1872.760,2723.00
1873.604,2539.00
1874.448,2920.00
1875.294,2935.00
1876.139,2618.00
1876.984,2863.00
1877.828,2403.00
1878.672,2232.00
1879.518,2618.00
1880.361,2896.00
1881.205,2923.00
1882.050,2539.00
1882.894,3237.00
1883.739,2605.00
1884.582,2520.00
1885.425,2550.00
1886.270,3014.00
1887.113,2510.00
1887.956,2818.00
1888.801,2848.00
1889.644,2552.00
1890.486,2360.00
1891.331,2685.00
1892.173,2836.00
1893.017,2808.00
1893.860,3009.00
1894.702,3068.00
1895.546,2735.00
1896.388,3449.00
1897.230,3085.00
1898.074,2663.00
1898.916,2533.00
1899.757,2570.00
1900.601,3410.00
1901.443,3042.00
1902.284,3094.00
1903.125,3246.00
1903.969,2932.00
1904.810,3032.00
1905.651,2865.00
1906.494,3081.00
1907.335,3205.00
1908.176,2884.00
1909.018,2852.00
1909.859,2746.00
1910.700,2659.00
1911.542,3259.00
1912.383,2816.00
1913.223,2384.00
1914.064,2868.00
1914.906,3034.00
1915.746,3079.00
1916.586,3232.00
1917.428,2716.00
1918.268,2837.00
1919.107,2680.00
1919.947,2530.00
1920.789,2724.00
1921.628,2985.00
1922.468,2775.00
1923.309,2649.00
1924.148,3092.00
1924.988,2812.00
1925.827,2738.00
1926.667,2630.00
1927.507,2782.00
1928.345,2584.00
1929.184,2937.00
1930.025,2569.00
1930.864,2993.00
1931.702,3041.00
1932.541,2693.00
1933.381,2874.00
1934.219,2918.00
1935.057,3062.00
1935.896,2467.00
1936.735,2738.00
1937.573,2673.00
1938.411,2552.00
1939.249,2964.00
1940.089,2658.00
1940.927,2989.00
1941.764,3051.00
1942.602,2724.00
1943.439,2677.00
1944.278,2737.00
1945.115,2747.00
1945.953,2514.00
1946.790,2856.00
1947.628,3086.00
1948.465,2907.00
1949.302,2943.00
1950.139,2896.00
1950.976,2629.00
1951.814,2937.00
1952.651,2834.00
1953.487,2559.00
1954.323,3044.00
1955.160,2735.00
1955.998,3138.00
1956.834,2772.00
1957.670,2870.00
1958.506,3012.00
1959.342,2875.00
1960.177,2841.00
1961.015,2933.00
1961.850,2817.00
1962.686,2825.00
1963.521,2850.00
1964.357,3019.00
1965.192,2547.00
1966.029,2942.00
1966.864,2686.00
1967.699,2996.00
1968.534,2819.00
1969.369,3086.00
1970.204,2736.00
1971.040,2828.00
1971.875,2716.00
1972.709,2818.00
1973.544,2573.00
1974.378,2716.00
1975.212,2925.00
1976.047,2661.00
1976.882,2637.00
1977.716,3154.00
1978.550,2492.00
1979.384,2698.00
1980.218,2718.00
1981.052,2694.00
1981.885,2792.00
1982.719,2796.00
1983.554,2932.00
1984.388,3113.00
1985.221,2824.00
1986.054,3044.00
1986.887,2828.00
1987.720,2601.00
1988.553,3059.00
1989.386,2876.00
1990.219,2924.00
1991.053,3116.00
1991.886,2631.00
1992.719,2975.00
1993.551,2313.00
1994.383,2965.00
1995.216,2692.00
1996.048,2467.00
1996.880,2971.00
1997.712,2666.00
1998.544,2814.00
1999.376,2884.00
2000.208,3063.00
2001.040,3263.00
2001.873,2605.00
2002.705,2580.00
2003.536,2852.00
2004.367,2826.00
2005.199,2798.00
2006.030,2659.00
2006.861,2545.00
2007.692,2817.00
2008.523,2653.00
2009.354,2821.00
2010.185,2558.00
2011.016,2958.00
2011.846,2982.00
2012.677,2766.00
2013.507,3122.00
2014.338,3016.00
2015.168,2728.00
2015.999,3313.00
2016.829,2724.00
2017.659,3004.00
2018.489,3304.00
2019.319,2593.00
2020.149,2943.00
2020.980,2840.00
2021.810,2593.00
2022.639,2665.00
2023.469,2675.00
2024.298,2474.00
2025.128,2388.00
2025.957,2410.00
2026.786,2226.00
2027.615,2426.00
2028.444,2668.00
2029.273,2840.00
2030.102,2384.00
2030.931,2677.00
2031.758,2893.00
2032.586,2585.00
2033.415,2664.00
2034.243,2204.00
2035.072,2062.00
2035.900,2519.00
2036.728,2342.00
2037.556,2401.00
2038.385,2420.00
2039.213,2225.00
2040.040,2239.00
2040.868,2184.00
2041.696,2266.00
2042.524,2225.00
2043.351,2454.00
2044.179,2238.00
2045.006,2008.00
