RamanScope Measure Spectrum Data V3.72

<< MEASURE CONDITION >>
Exposure Type,Aver
Exposure Time [sec],15
Exposure Count,30
Measure Time,2023/07/12 19:33:16
Data Name,""
Data Comment,""
Rayleigh Wave[nm],532.0

<< SAMPLE SPECTRUM >>
Wave[dcm-1],No34
146.591,1257.43
147.626,1423.03
148.664,1705.77
149.699,1954.60
150.737,2150.57
151.772,2378.20
152.809,2600.47
153.846,2772.50
154.881,2923.47
155.918,3092.93
156.953,3199.00
157.989,3323.80
159.026,3396.03
160.060,3476.87
161.096,3551.37
162.130,3565.80
163.167,3614.80
164.200,3686.20
165.236,3726.17
166.272,3839.93
167.305,3871.33
168.341,3944.80
169.374,3989.30
170.409,4062.77
171.445,4143.20
172.477,4169.53
173.512,4196.40
174.545,4261.17
175.580,4239.33
176.614,4281.10
177.647,4314.43
178.681,4296.20
179.713,4318.40
180.747,4283.30
181.781,4281.60
182.813,4260.47
183.847,4291.90
184.878,4302.50
185.912,4286.87
186.945,4338.00
187.976,4334.83
189.010,4331.60
190.043,4382.40
191.073,4417.87
192.106,4448.20
193.137,4466.80
194.170,4546.00
195.202,4583.30
196.232,4572.17
197.265,4644.27
198.297,4734.37
199.327,4750.57
200.359,4865.57
201.388,4864.97
202.420,4943.07
203.452,5036.00
204.481,5094.37
205.512,5165.00
206.544,5290.17
207.573,5298.03
208.604,5412.67
209.635,5573.13
210.663,5614.40
211.694,5731.40
212.725,5815.87
213.753,5930.70
214.783,6038.00
215.813,6025.53
216.841,6063.90
217.871,6020.87
218.899,6049.47
219.929,6076.30
220.959,5987.63
221.986,5918.30
223.016,5855.43
224.045,5717.40
225.072,5669.67
226.101,5603.67
227.130,5489.90
228.157,5468.53
229.185,5411.80
230.214,5384.93
231.241,5328.07
232.269,5315.10
233.297,5310.43
234.323,5312.00
235.351,5339.70
236.379,5321.57
237.407,5356.80
238.433,5353.83
239.460,5418.33
240.488,5464.93
241.513,5517.90
242.540,5554.43
243.568,5613.27
244.592,5653.43
245.619,5590.60
246.646,5598.23
247.671,5532.53
248.697,5434.50
249.724,5449.97
250.748,5376.60
251.774,5424.77
252.801,5336.47
253.827,5350.07
254.850,5385.97
255.876,5375.73
256.902,5356.67
257.925,5396.00
258.951,5378.63
259.976,5436.87
260.999,5452.43
262.024,5413.67
263.049,5473.87
264.074,5504.40
265.097,5578.73
266.122,5619.33
267.146,5636.97
268.168,5693.90
269.193,5779.00
270.217,5798.80
271.241,5797.97
272.263,5815.77
273.287,5861.80
274.311,5879.53
275.332,5899.47
276.356,5921.60
277.379,5892.97
278.402,5854.07
279.424,5798.20
280.447,5776.27
281.470,5702.33
282.492,5662.07
283.513,5551.40
284.536,5541.97
285.558,5484.27
286.581,5437.03
287.601,5383.57
288.623,5327.40
289.645,5252.43
290.665,5214.10
291.687,5148.13
292.709,5122.13
293.730,5068.60
294.750,5057.47
295.771,5003.73
296.792,4922.10
297.813,4887.77
298.832,4827.87
299.853,4820.17
300.874,4786.97
301.895,4683.33
302.913,4669.80
303.934,4636.17
304.954,4663.87
305.975,4877.13
306.993,4594.37
308.013,4562.53
309.033,4483.40
310.052,4529.60
311.072,4472.13
312.090,4438.63
313.109,4426.23
314.129,4401.20
315.148,4392.33
316.165,4403.07
317.184,4369.60
318.203,4348.60
319.222,4287.20
320.238,4306.33
321.257,4321.87
322.275,4263.17
323.294,4264.23
324.312,4259.67
325.328,4231.33
326.346,4288.93
327.364,4201.20
328.382,4234.87
329.397,4164.30
330.415,4160.40
331.432,4185.07
332.450,4176.87
333.467,4134.53
334.482,4146.00
335.499,4106.00
336.516,4168.73
337.533,4136.83
338.547,4135.83
339.564,4132.00
340.580,4101.23
341.597,4046.17
342.613,4129.33
343.627,4110.97
344.643,4080.77
345.659,4046.33
346.675,4041.57
347.690,4061.13
348.704,4004.03
349.719,4027.30
350.735,4004.20
351.750,4003.23
352.765,4009.03
353.778,3990.07
354.793,4001.07
355.808,3965.70
356.822,3973.13
357.837,3973.07
358.851,3978.83
359.864,3953.73
360.878,3929.60
361.892,3979.23
362.906,4003.90
363.920,3973.77
364.932,3993.57
365.945,3981.53
366.959,3998.93
367.972,4016.37
368.986,4005.43
369.999,3959.43
371.010,3982.50
372.023,4026.07
373.036,4015.03
374.049,4017.00
375.061,3983.17
376.072,4028.37
377.084,4025.10
378.097,4081.67
379.109,4042.30
380.121,4068.90
381.133,4035.77
382.143,4074.90
383.155,4042.23
384.166,4016.47
385.178,4046.30
386.189,4052.43
387.201,4001.17
388.212,3967.13
389.221,4060.13
390.232,4055.27
391.243,4004.27
392.254,3986.67
393.264,4030.90
394.275,3957.50
395.283,3968.63
396.294,3928.87
397.304,3940.17
398.314,3923.33
399.324,3945.40
400.334,3909.40
401.344,3903.37
402.351,3919.30
403.361,3856.80
404.370,3904.20
405.380,3863.73
406.389,3868.77
407.398,3792.10
408.407,3861.83
409.414,3262.37
410.423,3839.60
411.431,3830.93
412.440,3830.47
413.448,3816.93
414.457,3844.80
415.465,3803.80
416.471,3791.33
417.479,3765.53
418.487,3800.70
419.495,3803.17
420.503,3763.37
421.510,3740.90
422.518,3713.80
423.525,3769.57
424.530,3730.70
425.537,3725.47
426.544,3724.33
427.551,3671.40
428.558,3714.13
429.565,3755.00
430.571,3701.73
431.578,3693.63
432.582,3688.50
433.588,3678.17
434.595,3715.53
435.601,3679.10
436.607,3696.17
437.612,3662.07
438.618,3702.90
439.624,3692.77
440.627,3712.40
441.633,3712.03
442.638,3745.37
443.643,3668.77
444.648,3681.33
445.653,3656.07
446.658,3701.53
447.663,3668.67
448.667,3713.57
449.672,3689.03
450.674,3685.40
451.678,3731.43
452.682,3681.50
453.687,3633.53
454.690,3719.23
455.694,3651.57
456.698,3700.50
457.702,3666.20
458.705,3680.87
459.709,3724.50
460.710,3717.90
461.713,3717.77
462.716,3689.30
463.719,3688.80
464.722,3706.00
465.725,3722.03
466.727,3695.70
467.730,3753.50
468.732,3684.20
469.735,3726.17
470.737,3727.03
471.737,3745.13
472.739,3744.70
473.741,3750.67
474.742,3764.97
475.744,3733.10
476.746,3758.03
477.747,3753.00
478.748,3690.30
479.750,3754.87
480.751,3767.77
481.752,3801.53
482.753,3718.93
483.751,3695.83
484.752,3741.03
485.753,3740.50
486.753,3742.27
487.753,3784.40
488.754,3730.83
489.754,3726.60
490.754,3720.63
491.754,3777.20
492.754,3797.97
493.753,3688.03
494.753,3664.10
495.752,3749.73
496.752,3744.10
497.749,3720.40
498.748,3771.93
499.747,3695.93
500.746,3710.77
501.745,3680.77
502.744,3683.80
503.742,3671.67
504.741,3666.10
505.739,3621.03
506.737,3629.20
507.735,3641.50
508.734,3639.00
509.732,3611.43
510.729,3606.27
511.727,3617.80
512.725,3622.83
513.720,3590.30
514.718,3580.67
515.715,3536.40
516.712,3522.30
517.709,3570.50
518.706,3535.83
519.703,3553.73
520.700,3512.63
521.696,3556.20
522.693,3586.27
523.689,3571.37
524.686,3518.07
525.682,3525.10
526.678,3500.40
527.674,3562.60
528.670,3559.30
529.666,3529.43
530.661,3533.30
531.657,3625.57
532.652,3559.47
533.648,3535.83
534.641,3541.07
535.636,3526.60
536.631,3509.70
537.626,3576.10
538.621,3582.57
539.616,3570.83
540.610,3506.30
541.605,3523.27
542.599,3531.00
543.593,3593.13
544.587,3487.07
545.581,3522.57
546.575,3526.13
547.569,3505.80
548.563,3529.40
549.557,3553.87
550.550,3522.10
551.543,3523.73
552.537,3540.33
553.530,3553.73
554.523,3519.10
555.516,3549.30
556.509,3539.97
557.502,3523.97
558.494,3548.93
559.487,3537.63
560.479,3583.83
561.472,3511.83
562.464,3551.67
563.456,3546.53
564.448,3583.60
565.440,3574.77
566.432,3535.33
567.423,3563.80
568.415,3589.77
569.404,3599.93
570.396,3585.23
571.387,3623.03
572.378,3639.20
573.369,3610.97
574.360,3673.23
575.351,3668.37
576.341,3681.37
577.332,3685.63
578.323,3719.83
579.313,3713.07
580.303,3747.67
581.293,3691.80
582.283,3729.17
583.273,3750.80
584.263,3778.83
585.253,3791.20
586.243,3791.83
587.232,3779.10
588.222,3740.93
589.211,3811.70
590.200,3775.33
591.189,3801.40
592.178,3821.97
593.167,3849.90
594.156,3828.73
595.145,3881.60
596.133,3863.93
597.122,3838.67
598.110,3858.70
599.098,3796.30
600.086,3867.97
601.074,3834.13
602.062,3908.60
603.050,3848.67
604.038,3808.80
605.025,3844.20
606.013,3864.33
607.000,3797.83
607.987,3810.00
608.975,3769.43
609.962,3772.97
610.949,3788.03
611.936,3775.53
612.922,3684.30
613.909,3724.53
614.895,3634.27
615.882,3694.90
616.868,3698.90
617.854,3672.57
618.841,3567.57
619.826,3545.43
620.812,3579.43
621.798,3592.03
622.784,3539.60
623.769,3496.53
624.755,3489.00
625.740,3503.13
626.725,3468.93
627.711,3430.20
628.698,3400.80
629.683,3387.80
630.667,3397.33
631.652,3390.83
632.637,3362.33
633.621,3346.10
634.606,3331.60
635.590,3266.57
636.574,3275.90
637.558,3314.90
638.542,3255.17
639.526,3253.50
640.510,3225.13
641.493,3200.53
642.477,3204.00
643.460,3254.90
644.444,3166.03
645.427,3196.63
646.410,3202.33
647.393,3187.57
648.376,3132.57
649.359,3104.07
650.341,3095.30
651.324,3106.23
652.307,3122.80
653.289,3104.43
654.271,3129.63
655.253,3109.20
656.235,3099.47
657.217,3083.03
658.199,3090.57
659.181,3097.73
660.163,3090.53
661.144,3084.07
662.126,3092.90
663.107,3066.77
664.088,3038.97
665.069,3052.77
666.050,3018.17
667.033,3024.57
668.014,3036.60
668.995,3037.47
669.975,3017.13
670.956,3041.27
671.936,2970.10
672.916,2977.50
673.896,2993.87
674.876,2911.40
675.856,2895.67
676.836,2884.33
677.816,2881.57
678.795,2875.03
679.775,2836.33
680.754,2851.03
681.734,2825.00
682.713,2779.10
683.692,2804.10
684.671,2783.40
685.650,2782.83
686.629,2753.13
687.607,2751.57
688.586,2748.93
689.564,2734.37
690.543,2735.93
691.523,2687.97
692.501,2710.57
693.479,2684.67
694.457,2667.43
695.435,2646.70
696.413,2652.90
697.390,2627.47
698.368,2635.63
699.345,2645.63
700.322,2640.60
701.300,2630.30
702.277,2628.00
703.254,2607.50
704.231,2614.03
705.207,2621.50
706.184,2594.10
707.161,2573.87
708.137,2528.33
709.113,2574.43
710.090,2564.77
711.068,2549.47
712.044,2515.67
713.020,2530.90
713.996,2561.70
714.971,2573.93
715.947,2511.40
716.922,2519.47
717.898,2517.80
718.873,2500.17
719.848,2495.30
720.823,2498.90
721.798,2487.03
722.773,2489.07
723.748,2492.87
724.723,2488.23
725.697,2479.77
726.672,2467.13
727.646,2447.60
728.622,2449.53
729.596,2440.30
730.570,2462.50
731.544,2434.33
732.518,2413.43
733.492,2422.87
734.466,2411.30
735.439,2401.30
736.413,2443.40
737.386,2409.13
738.359,2425.27
739.332,2398.47
740.305,2385.80
741.278,2421.80
742.251,2371.27
743.224,2386.10
744.196,2393.57
745.171,2351.10
746.143,2359.67
747.115,2346.83
748.087,2383.50
749.059,2344.10
750.031,2345.27
751.003,2343.17
751.975,2316.50
752.947,2333.47
753.918,2310.80
754.890,2292.47
755.861,2329.60
756.832,2243.30
757.803,2307.80
758.774,2278.17
759.747,2263.27
760.718,2227.47
761.689,2262.90
762.659,2262.93
763.630,2215.33
764.600,2239.70
765.570,2249.20
766.540,2197.80
767.510,2257.27
768.480,2239.50
769.450,2258.90
770.420,2208.47
771.390,2235.47
772.359,2215.67
773.329,2192.30
774.300,2219.60
775.269,2204.37
776.238,2160.53
777.207,2195.53
778.176,2168.50
779.145,2151.73
780.114,2182.20
781.083,2155.07
782.051,2173.20
783.019,2174.43
783.988,2174.13
784.956,2134.87
785.924,2139.27
786.894,2107.93
787.862,2089.13
788.830,2156.63
789.797,2149.60
790.765,2107.20
791.732,2099.03
792.700,2092.90
793.667,2094.97
794.634,2057.43
795.601,2099.30
796.568,2096.97
797.535,2072.87
798.502,2105.57
799.468,2075.00
800.437,2057.60
801.403,2058.43
802.370,2056.70
803.336,2073.93
804.302,2029.70
805.268,2090.03
806.234,2026.33
807.200,2038.60
808.166,2044.10
809.131,2041.53
810.097,2056.40
811.062,2014.17
812.027,1993.47
812.994,2048.70
813.960,2036.23
814.925,2018.40
815.889,2022.53
816.854,2033.73
817.819,2055.70
818.783,1990.63
819.748,1969.37
820.712,2002.40
821.677,1932.97
822.641,1959.40
823.605,1977.73
824.571,2032.10
825.534,2009.57
826.498,2009.57
827.462,1960.63
828.425,1967.53
829.389,1993.13
830.352,1935.97
831.315,1989.80
832.279,1989.57
833.242,1979.37
834.204,1922.27
835.167,1990.00
836.132,1999.03
837.095,1934.43
838.057,1931.23
839.020,1970.50
839.982,1939.63
840.944,1913.83
841.906,1937.60
842.868,1957.93
843.830,1909.33
844.792,1909.47
845.753,1940.50
846.715,1950.40
847.679,1945.20
848.640,1941.60
849.601,1921.03
850.562,1915.90
851.523,1921.43
852.484,1937.23
853.445,1900.83
854.406,1883.20
855.367,1898.63
856.327,1884.20
857.288,1901.37
858.248,1877.57
859.210,1908.93
860.170,1871.80
861.130,1867.33
862.090,1894.50
863.050,1874.10
864.010,1863.10
864.969,1850.47
865.929,1867.03
866.888,1865.43
867.848,1859.73
868.807,1861.17
869.766,1909.53
870.727,1839.07
871.686,1882.90
872.645,1852.73
873.604,1856.77
874.562,1875.93
875.521,1871.77
876.479,1882.53
877.437,1870.50
878.396,1902.23
879.354,1858.57
880.312,1817.10
881.270,1847.07
882.229,1833.60
883.187,1855.03
884.145,1860.53
885.102,1857.53
886.059,1854.67
887.017,1867.97
887.974,1848.57
888.931,1828.53
889.888,1858.00
890.845,1860.47
891.802,1860.80
892.758,1858.90
893.717,1863.20
894.673,1868.27
895.630,1870.67
896.586,1811.87
897.542,1913.57
898.498,1874.47
899.454,1847.50
900.410,1866.50
901.366,1825.83
902.321,1857.93
903.277,1846.47
904.232,1849.67
905.189,1823.00
906.145,1855.73
907.100,1855.17
908.055,1823.87
909.010,1846.27
909.965,1883.43
910.919,1854.50
911.874,1861.97
912.828,1848.03
913.783,1860.17
914.737,1878.37
915.693,1875.50
916.648,1815.33
917.602,1871.83
918.555,1840.70
919.509,1889.00
920.463,1887.03
921.417,1848.73
922.370,1853.00
923.324,1869.47
924.277,1824.03
925.230,1893.23
926.183,1844.67
927.138,1843.30
928.091,1828.90
929.044,1853.47
929.996,1843.70
930.949,1876.07
931.902,1856.27
932.854,1867.90
933.806,1864.03
934.758,1862.70
935.711,1868.93
936.663,1873.87
937.614,1853.60
938.568,1843.63
939.520,1851.97
940.471,1866.33
941.423,1882.60
942.374,1888.27
943.326,1876.27
944.277,1885.10
945.228,1856.07
946.179,1891.00
947.130,1855.77
948.080,1867.63
949.031,1836.43
949.984,1849.43
950.934,1864.60
951.884,1869.20
952.835,1867.17
953.785,1800.77
954.735,1840.53
955.685,1853.50
956.635,1845.13
957.585,1834.97
958.534,1840.67
959.484,1805.47
960.433,1825.63
961.383,1817.20
962.334,1835.23
963.283,1854.80
964.232,1828.20
965.181,1817.43
966.130,1814.80
967.079,1821.80
968.027,1837.33
968.976,1846.47
969.924,1839.33
970.873,1819.57
971.821,1809.97
972.769,1819.90
973.719,1850.60
974.667,1846.70
975.615,1828.23
976.562,1806.63
977.510,1830.13
978.458,1850.30
979.405,1825.73
980.352,1790.20
981.300,1788.47
982.247,1783.93
983.194,1819.33
984.141,1822.70
985.088,1769.80
986.036,1788.23
986.983,1799.23
987.930,1783.93
988.876,1834.80
989.822,1803.03
990.769,1790.33
991.715,1791.40
992.661,1788.10
993.607,1791.80
994.553,1797.43
995.498,1764.20
996.444,1770.37
997.389,1810.23
998.337,1818.03
999.282,1813.93
1000.227,1778.87
1001.173,1843.70
1002.118,1796.30
1003.062,1788.00
1004.007,1774.17
1004.952,1789.03
1005.897,1783.33
1006.841,1756.23
1007.786,1766.93
1008.730,1777.47
1009.674,1774.67
1010.618,1781.63
1011.564,1784.00
1012.508,1742.87
1013.452,1731.80
1014.396,1757.80
1015.339,1807.20
1016.283,1735.77
1017.226,1746.07
1018.170,1785.43
1019.113,1760.43
1020.056,1787.30
1020.999,1758.07
1021.942,1723.67
1022.885,1766.17
1023.828,1779.87
1024.770,1771.23
1025.715,1759.53
1026.657,1752.20
1027.600,1750.87
1028.542,1764.63
1029.484,1728.93
1030.426,1749.37
1031.368,1775.90
1032.310,1749.73
1033.251,1768.17
1034.193,1751.60
1035.135,1758.47
1036.076,1771.17
1037.017,1759.33
1037.959,1753.87
1038.900,1759.77
1039.843,1751.50
1040.784,1759.60
1041.725,1768.27
1042.665,1802.53
1043.606,1762.03
1044.547,1780.80
1045.487,1813.13
1046.427,1816.47
1047.368,1797.27
1048.308,1761.30
1049.248,1760.20
1050.188,1738.73
1051.128,1755.50
1052.067,1759.17
1053.007,1780.87
1053.947,1752.33
1054.886,1711.67
1055.827,1809.07
1056.766,1775.90
1057.706,1742.27
1058.645,1780.33
1059.584,1743.73
1060.522,1781.07
1061.461,1781.33
1062.400,1795.97
1063.338,1816.63
1064.277,1765.27
1065.215,1775.17
1066.154,1781.30
1067.092,1783.23
1068.030,1785.23
1068.968,1803.50
1069.906,1785.50
1070.843,1830.43
1071.781,1804.80
1072.720,1797.57
1073.658,1827.90
1074.595,1768.37
1075.533,1783.53
1076.470,1788.63
1077.407,1802.03
1078.344,1838.80
1079.281,1844.97
1080.217,1800.00
1081.154,1788.53
1082.091,1808.90
1083.027,1797.87
1083.964,1761.47
1084.900,1781.50
1085.836,1821.30
1086.772,1787.10
1087.708,1777.03
1088.644,1812.00
1089.580,1797.47
1090.515,1796.47
1091.451,1777.97
1092.388,1807.10
1093.324,1780.03
1094.259,1837.60
1095.194,1816.30
1096.129,1756.40
1097.064,1797.70
1097.999,1760.20
1098.934,1810.00
1099.869,1791.47
1100.803,1806.03
1101.738,1768.53
1102.672,1779.90
1103.607,1754.90
1104.541,1771.47
1105.475,1774.73
1106.409,1782.30
1107.343,1705.87
1108.277,1764.43
1109.210,1762.13
1110.144,1721.10
1111.078,1757.20
1112.011,1752.07
1112.944,1727.70
1113.878,1740.93
1114.811,1748.57
1115.744,1714.27
1116.678,1751.17
1117.611,1697.83
1118.544,1750.17
1119.477,1673.43
1120.409,1727.60
1121.342,1689.63
1122.274,1704.57
1123.206,1693.73
1124.138,1677.53
1125.070,1665.97
1126.002,1731.63
1126.934,1686.90
1127.866,1683.30
1128.798,1690.77
1129.729,1672.80
1130.661,1679.37
1131.592,1693.93
1132.523,1719.60
1133.454,1636.53
1134.385,1659.53
1135.317,1643.40
1136.247,1641.63
1137.178,1653.00
1138.109,1689.50
1139.039,1615.17
1139.970,1638.70
1140.900,1669.93
1141.831,1616.47
1142.761,1643.00
1143.691,1699.20
1144.621,1622.23
1145.551,1614.83
1146.480,1666.40
1147.410,1609.10
1148.340,1627.00
1149.269,1627.57
1150.199,1636.07
1151.128,1649.77
1152.057,1639.33
1152.979,1632.07
1153.898,1605.80
1154.819,1658.67
1155.739,1615.67
1156.658,1647.73
1157.579,1608.80
1158.498,1585.20
1159.419,1612.37
1160.338,1573.47
1161.256,1612.43
1162.177,1609.20
1163.095,1606.30
1164.016,1608.17
1164.934,1587.33
1165.852,1578.90
1166.772,1585.30
1167.690,1602.10
1168.610,1610.27
1169.528,1560.57
1170.446,1577.00
1171.365,1565.67
1172.283,1575.33
1173.202,1586.53
1174.120,1596.63
1175.037,1569.33
1175.956,1598.93
1176.873,1595.50
1177.792,1571.80
1178.709,1595.53
1179.626,1568.37
1180.544,1562.80
1181.461,1612.47
1182.379,1588.53
1183.296,1563.00
1184.212,1557.37
1185.130,1577.20
1186.046,1545.37
1186.962,1570.07
1187.880,1574.40
1188.796,1595.60
1189.714,1584.30
1190.629,1570.03
1191.545,1523.87
1192.462,1587.13
1193.378,1562.23
1194.295,1593.73
1195.210,1520.47
1196.125,1570.90
1197.042,1553.97
1197.957,1576.67
1198.872,1561.17
1199.788,1577.73
1200.703,1588.80
1201.619,1572.43
1202.534,1585.63
1203.448,1559.73
1204.364,1579.97
1205.278,1559.97
1206.192,1593.00
1207.108,1550.47
1208.022,1570.17
1208.938,1542.50
1209.851,1578.33
1210.765,1545.03
1211.680,1525.37
1212.594,1575.30
1213.507,1557.07
1214.422,1560.57
1215.335,1559.17
1216.248,1546.23
1217.163,1549.63
1218.076,1580.50
1218.990,1567.40
1219.903,1585.33
1220.816,1559.57
1221.730,1546.97
1222.642,1564.53
1223.554,1560.70
1224.469,1555.20
1225.380,1596.03
1226.292,1580.37
1227.206,1542.90
1228.118,1571.53
1229.032,1579.70
1229.943,1560.63
1230.855,1584.17
1231.768,1573.47
1232.679,1558.70
1233.590,1578.20
1234.503,1554.97
1235.414,1581.33
1236.325,1571.07
1237.238,1583.67
1238.149,1556.77
1239.059,1548.43
1239.972,1548.70
1240.882,1560.20
1241.793,1557.97
1242.705,1579.70
1243.615,1573.57
1244.525,1562.73
1245.437,1596.43
1246.347,1562.53
1247.259,1578.67
1248.168,1593.93
1249.078,1576.37
1249.989,1614.10
1250.899,1615.87
1251.808,1606.13
1252.719,1578.47
1253.628,1603.43
1254.537,1582.93
1255.448,1548.03
1256.357,1559.23
1257.266,1529.77
1258.176,1607.70
1259.085,1589.70
1259.993,1561.30
1260.904,1599.87
1261.812,1604.33
1262.720,1569.73
1263.630,1553.33
1264.538,1579.17
1265.446,1544.83
1266.356,1572.97
1267.263,1558.30
1268.171,1573.67
1269.080,1581.43
1269.988,1566.30
1270.895,1593.47
1271.804,1578.47
1272.711,1535.60
1273.619,1554.93
1274.527,1573.93
1275.434,1564.00
1276.341,1584.10
1277.248,1618.20
1278.156,1626.70
1279.063,1563.40
1279.969,1548.83
1280.877,1530.07
1281.783,1606.37
1282.690,1568.73
1283.598,1594.33
1284.503,1619.17
1285.409,1556.07
1286.317,1593.73
1287.223,1629.20
1288.128,1565.10
1289.036,1583.90
1289.941,1557.90
1290.846,1556.70
1291.751,1579.00
1292.658,1538.27
1293.563,1575.03
1294.468,1569.40
1295.375,1560.00
1296.280,1520.10
1297.184,1579.40
1298.091,1556.20
1298.995,1541.33
1299.900,1545.80
1300.806,1517.70
1301.710,1553.00
1302.614,1535.43
1303.518,1551.83
1304.424,1561.37
1305.327,1545.83
1306.231,1515.43
1307.137,1507.13
1308.040,1540.90
1308.943,1534.43
1309.847,1510.00
1310.752,1506.13
1311.655,1525.53
1312.558,1461.50
1313.463,1501.17
1314.366,1503.80
1315.269,1453.70
1316.171,1505.40
1317.076,1516.00
1317.978,1520.70
1318.881,1496.37
1319.785,1525.33
1320.687,1494.37
1321.589,1488.50
1322.491,1484.93
1323.395,1458.00
1324.297,1481.90
1325.198,1494.10
1326.102,1481.30
1327.004,1486.47
1327.905,1451.13
1328.806,1461.87
1329.709,1469.93
1330.611,1498.30
1331.512,1493.57
1332.413,1471.73
1333.316,1466.17
1334.216,1473.83
1335.117,1449.57
1336.020,1460.33
1336.920,1479.83
1337.821,1473.73
1338.721,1443.33
1339.623,1473.57
1340.523,1437.90
1341.423,1472.77
1342.323,1454.10
1343.225,1414.20
1344.125,1439.80
1345.025,1446.63
1345.924,1435.33
1346.826,1423.77
1347.725,1409.00
1348.624,1420.90
1349.524,1434.63
1350.425,1466.53
1351.324,1437.10
1352.223,1419.70
1353.121,1412.50
1354.022,1407.67
1354.921,1448.43
1355.819,1394.80
1356.718,1404.30
1357.618,1426.40
1358.516,1408.20
1359.415,1449.07
1360.313,1427.93
1361.213,1391.13
1362.111,1389.03
1363.008,1402.37
1363.906,1407.43
1364.806,1388.73
1365.703,1385.57
1366.601,1401.17
1367.498,1389.90
1368.397,1420.90
1369.295,1373.73
1370.192,1393.57
1371.089,1388.80
1371.987,1384.37
1372.884,1368.43
1373.781,1381.17
1374.678,1393.07
1375.574,1358.73
1376.473,1392.10
1377.369,1346.10
1378.265,1380.00
1379.161,1380.07
1380.059,1371.10
1380.955,1391.47
1381.851,1376.20
1382.747,1344.23
1383.643,1393.33
1384.540,1365.83
1385.436,1357.07
1386.331,1358.50
1387.227,1327.37
1388.124,1368.03
1389.019,1361.73
1389.914,1360.67
1390.809,1349.67
1391.704,1322.27
1392.601,1334.03
1393.495,1315.67
1394.390,1367.30
1395.285,1378.60
1396.179,1349.63
1397.075,1324.90
1397.969,1340.00
1398.864,1316.27
1399.758,1353.73
1400.652,1326.87
1401.547,1330.40
1402.441,1355.17
1403.335,1362.53
1404.229,1340.47
1405.122,1352.53
1406.017,1336.27
1406.911,1285.10
1407.804,1335.40
1408.697,1289.43
1409.590,1317.13
1410.485,1293.70
1411.378,1276.43
1412.271,1315.87
1413.163,1312.50
1414.056,1352.03
1414.949,1286.37
1415.843,1302.17
1416.735,1300.33
1417.627,1314.70
1418.520,1326.67
1419.412,1316.03
1420.306,1305.10
1421.197,1352.33
1422.089,1312.70
1422.981,1314.37
1423.873,1313.40
1424.764,1309.00
1425.657,1308.30
1426.549,1351.13
1427.440,1301.87
1428.331,1312.30
1429.222,1298.30
1430.113,1294.67
1431.006,1271.47
1431.897,1333.37
1432.787,1300.03
1433.678,1324.83
1434.568,1285.23
1435.459,1263.00
1436.351,1328.20
1437.241,1261.73
1438.131,1294.03
1439.021,1292.27
1439.911,1284.03
1440.801,1313.90
1441.693,1293.83
1442.583,1306.07
1443.472,1239.37
1444.362,1251.73
1445.251,1240.90
1446.140,1289.37
1447.030,1284.53
1447.921,1288.33
1448.810,1255.90
1449.699,1310.53
1450.588,1262.77
1451.476,1261.67
1452.365,1269.07
1453.254,1282.77
1454.144,1294.17
1455.032,1247.70
1455.921,1255.27
1456.809,1283.33
1457.697,1284.97
1458.585,1227.27
1459.473,1259.33
1460.361,1242.60
1461.251,1263.20
1462.138,1255.90
1463.026,1268.70
1463.913,1272.70
1464.801,1277.90
1465.688,1257.73
1466.575,1253.17
1467.463,1247.53
1468.351,1247.50
1469.238,1223.23
1470.125,1243.27
1471.012,1233.13
1471.899,1242.03
1472.785,1246.70
1473.672,1262.00
1474.558,1247.10
1475.446,1219.60
1476.333,1229.03
1477.219,1296.07
1478.105,1224.53
1478.991,1252.43
1479.877,1274.30
1480.762,1200.27
1481.648,1220.37
1482.534,1213.23
1483.419,1245.47
1484.307,1241.40
1485.192,1239.47
1486.077,1248.23
1486.962,1236.57
1487.847,1199.27
1488.732,1239.13
1489.617,1195.50
1490.502,1224.43
1491.387,1240.83
1492.271,1208.50
1493.156,1244.10
1494.042,1234.53
1494.927,1258.40
1495.811,1192.83
1496.695,1183.63
1497.579,1221.27
1498.463,1205.07
1499.347,1193.70
1500.231,1174.00
1501.114,1199.03
1501.998,1200.67
1502.881,1195.47
1503.765,1164.13
1504.648,1150.70
1505.533,1163.53
1506.417,1200.87
1507.300,1217.10
1508.183,1183.83
1509.066,1202.30
1509.948,1174.43
1510.831,1172.57
1511.714,1201.27
1512.596,1170.13
1513.479,1205.07
1514.361,1204.03
1515.243,1195.17
1516.125,1192.00
1517.008,1162.30
1517.890,1185.93
1518.771,1175.43
1519.655,1139.03
1520.537,1196.13
1521.419,1151.27
1522.300,1182.77
1523.182,1155.10
1524.063,1194.67
1524.944,1210.57
1525.825,1137.50
1526.707,1170.97
1527.588,1171.23
1528.468,1137.70
1529.349,1186.13
1530.230,1136.00
1531.111,1146.93
1531.991,1144.63
1532.872,1173.50
1533.752,1169.93
1534.632,1164.17
1535.513,1102.50
1536.393,1194.90
1537.273,1145.53
1538.153,1125.03
1539.032,1131.07
1539.912,1183.87
1540.792,1144.47
1541.672,1201.97
1542.551,1180.80
1543.430,1161.60
1544.310,1161.73
1545.189,1128.17
1546.068,1157.67
1546.947,1169.90
1547.826,1177.40
1548.705,1145.17
1549.584,1159.53
1550.462,1169.90
1551.341,1171.63
1552.219,1129.27
1553.098,1147.83
1553.976,1161.20
1554.854,1098.17
1555.733,1124.70
1556.611,1136.83
1557.489,1115.13
1558.367,1117.27
1559.244,1164.83
1560.122,1152.10
1561.000,1174.93
1561.877,1119.50
1562.755,1122.90
1563.632,1135.63
1564.509,1104.03
1565.386,1176.63
1566.264,1141.90
1567.141,1127.00
1568.017,1115.50
1568.894,1136.13
1569.771,1089.07
1570.648,1113.27
1571.524,1139.80
1572.401,1164.10
1573.277,1140.70
1574.153,1116.20
1575.029,1159.60
1575.906,1112.17
1576.781,1153.50
1577.657,1147.57
1578.533,1139.00
1579.409,1115.30
1580.285,1125.30
1581.160,1134.63
1582.036,1092.13
1582.911,1104.50
1583.786,1100.40
1584.662,1109.50
1585.537,1128.33
1586.412,1082.23
1587.287,1077.33
1588.160,1142.03
1589.035,1099.37
1589.909,1071.03
1590.784,1164.10
1591.658,1140.77
1592.533,1107.63
1593.407,1118.57
1594.281,1115.00
1595.155,1105.93
1596.029,1085.57
1596.903,1136.07
1597.777,1098.50
1598.651,1094.47
1599.525,1103.37
1600.398,1120.23
1601.272,1137.90
1602.144,1081.33
1603.017,1090.07
1603.890,1120.70
1604.763,1103.50
1605.636,1113.47
1606.509,1113.00
1607.382,1082.83
1608.255,1083.63
1609.128,1119.27
1610.000,1156.80
1610.873,1110.93
1611.746,1099.03
1612.616,1114.23
1613.488,1097.77
1614.361,1111.07
1615.233,1086.33
1616.105,1074.97
1616.977,1085.93
1617.849,1086.90
1618.720,1114.97
1619.592,1121.10
1620.464,1111.70
1621.333,1076.80
1622.205,1085.00
1623.076,1075.13
1623.947,1067.20
1624.818,1082.33
1625.689,1088.90
1626.560,1071.77
1627.431,1074.40
1628.302,1092.03
1629.171,1116.53
1630.042,1109.30
1630.912,970.97
1631.782,1054.47
1632.653,1106.30
1633.523,1086.13
1634.393,1048.97
1635.263,1074.87
1636.131,1092.60
1637.001,1072.63
1637.871,1088.77
1638.741,1074.87
1639.611,1062.60
1640.480,1063.00
1641.350,1090.43
1642.219,1077.17
1643.087,1076.07
1643.956,1107.43
1644.825,1051.23
1645.694,1059.80
1646.563,1105.63
1647.432,1080.07
1648.299,1095.03
1649.167,1049.17
1650.036,1105.30
1650.904,1107.50
1651.773,1074.27
1652.641,1068.13
1653.509,1114.70
1654.376,1040.63
1655.244,1058.53
1656.112,1084.87
1656.980,1079.50
1657.847,1077.93
1658.715,1068.50
1659.581,1048.73
1660.448,1071.27
1661.316,1049.10
1662.183,1018.40
1663.051,1056.10
1663.918,1021.07
1664.783,1039.93
1665.650,1063.13
1666.517,1050.43
1667.384,1066.67
1668.251,1064.17
1669.115,1047.43
1669.982,1086.50
1670.849,1066.00
1671.715,1097.53
1672.581,1078.93
1673.446,1084.40
1674.312,1050.73
1675.178,1049.37
1676.044,1055.37
1676.910,1058.20
1677.774,1109.97
1678.639,1060.40
1679.505,1058.07
1680.370,1087.67
1681.236,1063.80
1682.099,1018.47
1682.965,1065.70
1683.830,1063.80
1684.695,1059.83
1685.560,1017.17
1686.423,1043.47
1687.288,1064.63
1688.153,1090.87
1689.017,1039.87
1689.880,1083.00
1690.745,1032.63
1691.609,1057.43
1692.473,1042.33
1693.338,1065.57
1694.200,1056.57
1695.064,1027.47
1695.928,1047.70
1696.792,1036.67
1697.654,1039.43
1698.517,1064.23
1699.381,1017.03
1700.245,1017.23
1701.106,1046.83
1701.969,1094.10
1702.833,1071.10
1703.696,1028.37
1704.557,1078.73
1705.420,1051.30
1706.283,1023.87
1707.146,1016.30
1708.007,1039.77
1708.870,1018.63
1709.732,1068.77
1710.595,1036.43
1711.455,1032.30
1712.318,1040.73
1713.180,1034.73
1714.040,1050.03
1714.902,1066.70
1715.764,1076.30
1716.626,1033.43
1717.486,1022.80
1718.348,1043.03
1719.209,1026.93
1720.071,1079.37
1720.930,1047.27
1721.792,1041.10
1722.653,1039.47
1723.512,1080.97
1724.374,1048.00
1725.234,1054.30
1726.095,1025.63
1726.954,1015.17
1727.815,1044.30
1728.676,1021.33
1729.535,1031.93
1730.395,1017.87
1731.256,1036.23
1732.114,1058.03
1732.974,1009.37
1733.834,1035.70
1734.693,1029.50
1735.553,1025.87
1736.413,1056.93
1737.272,1018.20
1738.130,1077.10
1738.990,1041.87
1739.849,1039.43
1740.707,1055.10
1741.566,1022.83
1742.426,997.77
1743.283,1046.60
1744.142,1037.23
1745.001,1018.80
1745.858,1068.93
1746.717,1026.73
1747.576,1013.70
1748.433,1054.97
1749.292,1029.37
1750.150,1023.90
1751.007,1062.10
1751.865,1038.63
1752.723,1002.80
1753.579,1052.33
1754.438,1056.07
1755.296,1030.90
1756.152,1024.23
1757.010,1045.73
1757.865,1030.37
1758.723,1026.37
1759.581,1031.97
1760.436,1038.37
1761.294,1041.13
1762.151,1061.13
1763.006,1002.47
1763.864,1009.03
1764.721,1016.60
1765.576,1025.97
1766.433,994.37
1767.288,1066.00
1768.144,1020.70
1769.001,1010.33
1769.856,1036.57
1770.712,1053.33
1771.568,1033.50
1772.423,1019.73
1773.279,1027.10
1774.133,1024.63
1774.989,1014.07
1775.845,1034.70
1776.699,1003.13
1777.555,1025.50
1778.409,1025.30
1779.265,1042.10
1780.120,1041.00
1780.974,1036.27
1781.829,1036.53
1782.682,1048.80
1783.538,1005.60
1784.393,1026.07
1785.246,1036.70
1786.101,1026.07
1786.954,1015.90
1787.808,1030.53
1788.661,1037.67
1789.516,1020.07
1790.370,1001.27
1791.223,1015.17
1792.077,1024.13
1792.930,1027.63
1793.784,1039.50
1794.636,1022.37
1795.490,1038.20
1796.344,1056.70
1797.196,1033.53
1798.049,1004.00
1798.901,994.33
1799.755,1064.43
1800.606,1013.17
1801.460,1026.80
1802.311,1037.43
1803.165,1057.77
1804.018,1028.47
1804.869,1021.43
1805.722,1026.43
1806.573,1025.50
1807.426,1015.10
1808.276,1014.67
1809.129,974.97
1809.980,967.10
1810.832,1007.47
1811.683,1007.30
1812.535,1017.27
1813.385,981.87
1814.237,991.20
1815.089,1039.83
1815.940,1013.57
1816.791,1027.33
1817.641,975.67
1818.493,1005.43
1819.343,999.73
1820.194,1011.73
1821.044,1030.87
1821.895,1002.77
1822.745,1020.67
1823.596,1004.90
1824.445,976.07
1825.296,1023.67
1826.145,1022.93
1826.996,989.90
1827.845,968.63
1828.695,1008.23
1829.544,1029.63
1830.395,998.20
1831.243,1000.47
1832.094,981.23
1832.942,1005.97
1833.792,959.73
1834.640,1017.50
1835.490,999.83
1836.338,1001.97
1837.186,1017.27
1838.036,1013.43
1838.884,990.50
1839.733,1014.10
1840.581,1017.43
1841.430,1038.30
1842.278,1010.17
1843.127,988.07
1843.974,1010.23
1844.823,974.87
1845.671,1000.20
1846.519,1026.10
1847.366,974.60
1848.213,1005.97
1849.062,978.13
1849.909,990.37
1850.757,1019.40
1851.604,1000.60
1852.452,1018.17
1853.298,1001.30
1854.146,1003.90
1854.993,991.57
1855.839,959.00
1856.687,968.20
1857.532,1008.33
1858.380,1020.40
1859.226,978.77
1860.073,978.17
1860.919,994.50
1861.765,951.20
1862.612,986.53
1863.457,956.27
1864.304,975.47
1865.150,992.70
1865.995,1023.07
1866.842,992.47
1867.686,1014.07
1868.533,971.87
1869.378,970.77
1870.223,970.87
1871.069,997.10
1871.914,1018.50
1872.760,968.47
1873.604,987.27
1874.448,977.33
1875.294,968.97
1876.139,1009.17
1876.984,1014.33
1877.828,971.90
1878.672,993.83
1879.518,967.40
1880.361,953.33
1881.205,973.13
1882.050,1008.17
1882.894,1002.27
1883.739,985.47
1884.582,963.37
1885.425,970.13
1886.270,988.10
1887.113,959.57
1887.956,981.33
1888.801,972.77
1889.644,990.37
1890.486,987.70
1891.331,981.83
1892.173,1000.73
1893.017,980.93
1893.860,986.77
1894.702,968.93
1895.546,980.13
1896.388,992.07
1897.230,972.17
1898.074,996.00
1898.916,991.10
1899.757,981.73
1900.601,968.87
1901.443,943.57
1902.284,963.80
1903.125,991.57
1903.969,956.90
1904.810,957.60
1905.651,967.47
1906.494,961.17
1907.335,981.37
1908.176,931.23
1909.018,993.70
1909.859,965.73
1910.700,987.47
1911.542,1006.40
1912.383,956.37
1913.223,958.67
1914.064,953.13
1914.906,994.07
1915.746,1016.67
1916.586,980.93
1917.428,987.53
1918.268,985.17
1919.107,956.60
1919.947,946.63
1920.789,985.90
1921.628,993.13
1922.468,987.07
1923.309,984.90
1924.148,956.77
1924.988,973.43
1925.827,987.23
1926.667,979.17
1927.507,983.07
1928.345,1005.00
1929.184,956.87
1930.025,981.77
1930.864,942.93
1931.702,960.40
1932.541,957.10
1933.381,990.70
1934.219,1007.00
1935.057,967.50
1935.896,923.10
1936.735,958.07
1937.573,998.23
1938.411,988.43
1939.249,982.63
1940.089,947.37
1940.927,962.60
1941.764,955.00
1942.602,986.50
1943.439,930.27
1944.278,974.30
1945.115,939.00
1945.953,932.77
1946.790,957.47
1947.628,992.63
1948.465,1009.63
1949.302,943.13
1950.139,982.57
1950.976,982.53
1951.814,963.40
1952.651,960.83
1953.487,979.97
1954.323,951.03
1955.160,945.43
1955.998,939.87
1956.834,975.47
1957.670,969.50
1958.506,988.03
1959.342,949.03
1960.177,949.60
1961.015,974.80
1961.850,984.77
1962.686,968.47
1963.521,988.63
1964.357,980.70
1965.192,982.57
1966.029,954.70
1966.864,979.73
1967.699,988.10
1968.534,993.20
1969.369,929.30
1970.204,967.63
1971.040,945.83
1971.875,950.03
1972.709,945.63
1973.544,964.73
1974.378,954.67
1975.212,963.33
1976.047,988.83
1976.882,945.80
1977.716,975.93
1978.550,977.47
1979.384,950.77
1980.218,964.83
1981.052,924.47
1981.885,973.50
1982.719,973.13
1983.554,1002.53
1984.388,979.00
1985.221,946.90
1986.054,934.57
1986.887,936.77
1987.720,968.03
1988.553,968.40
1989.386,973.23
1990.219,967.13
1991.053,978.57
1991.886,955.80
1992.719,971.23
1993.551,965.27
1994.383,938.47
1995.216,974.23
1996.048,933.33
1996.880,928.30
1997.712,951.37
1998.544,952.00
1999.376,959.17
2000.208,957.80
2001.040,928.03
2001.873,952.03
2002.705,950.43
2003.536,961.03
2004.367,963.70
2005.199,944.57
2006.030,918.93
2006.861,971.13
2007.692,974.07
2008.523,919.43
2009.354,954.93
2010.185,949.63
2011.016,967.17
2011.846,966.83
2012.677,933.50
2013.507,952.53
2014.338,985.50
2015.168,921.83
2015.999,965.17
2016.829,963.90
2017.659,940.73
2018.489,939.73
2019.319,966.30
2020.149,971.37
2020.980,927.93
2021.810,957.40
2022.639,954.33
2023.469,960.10
2024.298,978.43
2025.128,975.03
2025.957,969.60
2026.786,934.17
2027.615,977.70
2028.444,990.07
2029.273,1039.93
2030.102,976.77
2030.931,972.30
2031.758,992.57
2032.586,969.87
2033.415,978.13
2034.243,968.23
2035.072,989.30
2035.900,993.17
2036.728,952.00
2037.556,999.80
2038.385,993.83
2039.213,1028.53
2040.040,979.30
2040.868,958.33
2041.696,963.00
2042.524,993.90
2043.351,1015.87
2044.179,983.70
2045.006,978.73
2045.006,978.73

Max Intensity Wave.,219.929
Max Intensity Data,6076.30
Min Intensity Wave.,2006.030
Min Intensity Data,918.93
FWHM Wave.,402.069
FWHM Value,0.95
Pressure Wave.,684.671
Pressure Value [GPa],-24.91530
G/D Ratio,0.77107
G/D Gband Wave.,1541.875
G/D Gband Intensity,1204.06
G/D Dband Wave.,1304.314
G/D Dband Intensity,1561.55

<< BACKGROUND SPECTRUM >>
Wave[dcm-1],No34
146.591,2248.00
147.626,2133.00
148.664,2038.00
149.699,2492.00
150.737,2262.00
151.772,2400.00
152.809,2367.00
153.846,2297.00
154.881,2404.00
155.918,1949.00
156.953,2289.00
157.989,2591.00
159.026,2462.00
160.060,2613.00
161.096,2851.00
162.130,2535.00
163.167,2607.00
164.200,2476.00
165.236,2674.00
166.272,2655.00
167.305,2295.00
168.341,2551.00
169.374,2797.00
170.409,2796.00
171.445,2711.00
172.477,2546.00
173.512,2446.00
174.545,2670.00
175.580,2885.00
176.614,3051.00
177.647,2793.00
178.681,3053.00
179.713,3325.00
180.747,2818.00
181.781,2727.00
182.813,3023.00
183.847,3094.00
184.878,2706.00
185.912,2973.00
186.945,3114.00
187.976,3082.00
189.010,2757.00
190.043,2849.00
191.073,2911.00
192.106,2721.00
193.137,3213.00
194.170,2555.00
195.202,2887.00
196.232,2718.00
197.265,3003.00
198.297,3058.00
199.327,2799.00
200.359,2906.00
201.388,3320.00
202.420,2911.00
203.452,3092.00
204.481,2686.00
205.512,3317.00
206.544,3041.00
207.573,3098.00
208.604,3425.00
209.635,3500.00
210.663,2975.00
211.694,2983.00
212.725,2857.00
213.753,2818.00
214.783,3337.00
215.813,3251.00
216.841,2982.00
217.871,3219.00
218.899,2921.00
219.929,3118.00
220.959,2871.00
221.986,3128.00
223.016,2718.00
224.045,3178.00
225.072,3112.00
226.101,3199.00
227.130,3277.00
228.157,2836.00
229.185,2368.00
230.214,3184.00
231.241,2830.00
232.269,2462.00
233.297,2689.00
234.323,3232.00
235.351,2789.00
236.379,3105.00
237.407,2760.00
238.433,2951.00
239.460,3128.00
240.488,3130.00
241.513,3195.00
242.540,3125.00
243.568,3190.00
244.592,3213.00
245.619,3228.00
246.646,2914.00
247.671,2946.00
248.697,2865.00
249.724,3023.00
250.748,3049.00
251.774,2969.00
252.801,3333.00
253.827,3138.00
254.850,3078.00
255.876,2702.00
256.902,3163.00
257.925,2959.00
258.951,2768.00
259.976,2768.00
260.999,3097.00
262.024,2850.00
263.049,3643.00
264.074,3145.00
265.097,3025.00
266.122,3074.00
267.146,3033.00
268.168,3199.00
269.193,2815.00
270.217,3195.00
271.241,2724.00
272.263,2894.00
273.287,3166.00
274.311,2794.00
275.332,3310.00
276.356,2840.00
277.379,3072.00
278.402,3116.00
279.424,2953.00
280.447,2881.00
281.470,2721.00
282.492,3073.00
283.513,2941.00
284.536,3182.00
285.558,3182.00
286.581,3119.00
287.601,2827.00
288.623,2790.00
289.645,3089.00
290.665,3141.00
291.687,3163.00
292.709,3099.00
293.730,3393.00
294.750,2871.00
295.771,2755.00
296.792,3102.00
297.813,2926.00
298.832,3066.00
299.853,2739.00
300.874,3003.00
301.895,3009.00
302.913,2996.00
303.934,3276.00
304.954,2995.00
305.975,3194.00
306.993,2722.00
308.013,3085.00
309.033,3044.00
310.052,2895.00
311.072,2912.00
312.090,3064.00
313.109,3279.00
314.129,3401.00
315.148,3014.00
316.165,3049.00
317.184,3229.00
318.203,2742.00
319.222,2787.00
320.238,3125.00
321.257,2810.00
322.275,2726.00
323.294,2976.00
324.312,3127.00
325.328,3262.00
326.346,3244.00
327.364,3257.00
328.382,3157.00
329.397,3143.00
330.415,3249.00
331.432,3220.00
332.450,3266.00
333.467,3487.00
334.482,2575.00
335.499,3390.00
336.516,2860.00
337.533,2588.00
338.547,2830.00
339.564,2822.00
340.580,3101.00
341.597,3008.00
342.613,3420.00
343.627,2952.00
344.643,2992.00
345.659,3106.00
346.675,2997.00
347.690,2893.00
348.704,3105.00
349.719,2869.00
350.735,2772.00
351.750,3202.00
352.765,3015.00
353.778,2994.00
354.793,3114.00
355.808,2877.00
356.822,3217.00
357.837,2663.00
358.851,3269.00
359.864,2969.00
360.878,2782.00
361.892,2982.00
362.906,3158.00
363.920,2607.00
364.932,3083.00
365.945,3076.00
366.959,2996.00
367.972,2932.00
368.986,2695.00
369.999,3391.00
371.010,2845.00
372.023,3333.00
373.036,2961.00
374.049,3383.00
375.061,3115.00
376.072,2974.00
377.084,2890.00
378.097,2671.00
379.109,3207.00
380.121,2955.00
381.133,2693.00
382.143,3129.00
383.155,2727.00
384.166,2923.00
385.178,3095.00
386.189,3174.00
387.201,2738.00
388.212,2978.00
389.221,2878.00
390.232,2978.00
391.243,2921.00
392.254,3037.00
393.264,2813.00
394.275,3261.00
395.283,3173.00
396.294,3635.00
397.304,3499.00
398.314,3147.00
399.324,3043.00
400.334,2679.00
401.344,3150.00
402.351,2642.00
403.361,3247.00
404.370,2970.00
405.380,2938.00
406.389,3333.00
407.398,3168.00
408.407,3090.00
409.414,3757.00
410.423,3308.00
411.431,2763.00
412.440,2664.00
413.448,3337.00
414.457,2842.00
415.465,2813.00
416.471,2863.00
417.479,3004.00
418.487,2795.00
419.495,3261.00
420.503,3114.00
421.510,2639.00
422.518,3173.00
423.525,3162.00
424.530,3407.00
425.537,2913.00
426.544,3235.00
427.551,2910.00
428.558,3585.00
429.565,3430.00
430.571,2907.00
431.578,2919.00
432.582,2877.00
433.588,2978.00
434.595,2613.00
435.601,3342.00
436.607,3222.00
437.612,2786.00
438.618,3324.00
439.624,2947.00
440.627,2916.00
441.633,3076.00
442.638,3540.00
443.643,3120.00
444.648,3038.00
445.653,3241.00
446.658,2876.00
447.663,3016.00
448.667,2852.00
449.672,2912.00
450.674,2998.00
451.678,2708.00
452.682,2885.00
453.687,2900.00
454.690,3577.00
455.694,3325.00
456.698,2580.00
457.702,2695.00
458.705,2804.00
459.709,2790.00
460.710,2874.00
461.713,3025.00
462.716,3047.00
463.719,3013.00
464.722,3149.00
465.725,2948.00
466.727,2870.00
467.730,3002.00
468.732,2799.00
469.735,3267.00
470.737,2932.00
471.737,2888.00
472.739,2888.00
473.741,2783.00
474.742,3027.00
475.744,3097.00
476.746,3020.00
477.747,2949.00
478.748,3194.00
479.750,2906.00
480.751,2979.00
481.752,3697.00
482.753,3114.00
483.751,3580.00
484.752,2632.00
485.753,2987.00
486.753,2902.00
487.753,2980.00
488.754,3437.00
489.754,2704.00
490.754,3331.00
491.754,3116.00
492.754,2669.00
493.753,3071.00
494.753,2984.00
495.752,3294.00
496.752,3040.00
497.749,3007.00
498.748,2826.00
499.747,3388.00
500.746,3085.00
501.745,2797.00
502.744,2790.00
503.742,3324.00
504.741,2932.00
505.739,2518.00
506.737,2930.00
507.735,3157.00
508.734,3357.00
509.732,3141.00
510.729,3337.00
511.727,2884.00
512.725,2906.00
513.720,2783.00
514.718,3243.00
515.715,2686.00
516.712,2652.00
517.709,2989.00
518.706,2914.00
519.703,3007.00
520.700,3196.00
521.696,3333.00
522.693,2887.00
523.689,2829.00
524.686,3182.00
525.682,2809.00
526.678,3507.00
527.674,2911.00
528.670,2594.00
529.666,3532.00
530.661,3466.00
531.657,3159.00
532.652,3170.00
533.648,3052.00
534.641,3225.00
535.636,3056.00
536.631,3143.00
537.626,3152.00
538.621,2728.00
539.616,2579.00
540.610,2537.00
541.605,3007.00
542.599,3053.00
543.593,2968.00
544.587,3963.00
545.581,2854.00
546.575,3022.00
547.569,3059.00
548.563,2716.00
549.557,2651.00
550.550,2769.00
551.543,2744.00
552.537,3135.00
553.530,2760.00
554.523,2799.00
555.516,3090.00
556.509,2936.00
557.502,2642.00
558.494,3181.00
559.487,2926.00
560.479,3153.00
561.472,3249.00
562.464,3121.00
563.456,3290.00
564.448,2917.00
565.440,2991.00
566.432,3410.00
567.423,2911.00
568.415,2892.00
569.404,3126.00
570.396,2846.00
571.387,3117.00
572.378,3002.00
573.369,3977.00
574.360,3673.00
575.351,2984.00
576.341,2842.00
577.332,2861.00
578.323,2659.00
579.313,2870.00
580.303,3224.00
581.293,3140.00
582.283,2963.00
583.273,3102.00
584.263,2993.00
585.253,3089.00
586.243,3164.00
587.232,2655.00
588.222,2980.00
589.211,3162.00
590.200,3099.00
591.189,2977.00
592.178,2970.00
593.167,3376.00
594.156,3264.00
595.145,2871.00
596.133,3454.00
597.122,3121.00
598.110,3193.00
599.098,3120.00
600.086,2994.00
601.074,3220.00
602.062,2798.00
603.050,2734.00
604.038,3145.00
605.025,2813.00
606.013,3173.00
607.000,3413.00
607.987,3024.00
608.975,3091.00
609.962,2787.00
610.949,3139.00
611.936,3255.00
612.922,3212.00
613.909,2682.00
614.895,3391.00
615.882,2838.00
616.868,2967.00
617.854,2728.00
618.841,3053.00
619.826,3151.00
620.812,2981.00
621.798,2759.00
622.784,3177.00
623.769,3086.00
624.755,2714.00
625.740,3038.00
626.725,2723.00
627.711,2875.00
628.698,3076.00
629.683,2801.00
630.667,3157.00
631.652,2746.00
632.637,2950.00
633.621,3161.00
634.606,2910.00
635.590,3162.00
636.574,2969.00
637.558,3045.00
638.542,3051.00
639.526,2829.00
640.510,2628.00
641.493,3071.00
642.477,3010.00
643.460,2662.00
644.444,3259.00
645.427,3224.00
646.410,2642.00
647.393,2941.00
648.376,3101.00
649.359,2939.00
650.341,3128.00
651.324,3109.00
652.307,3051.00
653.289,2979.00
654.271,2863.00
655.253,2897.00
656.235,3118.00
657.217,3274.00
658.199,2659.00
659.181,2759.00
660.163,2995.00
661.144,2861.00
662.126,2873.00
663.107,2807.00
664.088,4727.00
665.069,3242.00
666.050,2847.00
667.033,2734.00
668.014,3047.00
668.995,2579.00
669.975,2977.00
670.956,2950.00
671.936,3157.00
672.916,2955.00
673.896,3078.00
674.876,2926.00
675.856,2877.00
676.836,2738.00
677.816,2310.00
678.795,2821.00
679.775,2704.00
680.754,3027.00
681.734,3144.00
682.713,3180.00
683.692,2767.00
684.671,2648.00
685.650,2746.00
686.629,2853.00
687.607,2740.00
688.586,2762.00
689.564,2844.00
690.543,3236.00
691.523,2391.00
692.501,2820.00
693.479,2936.00
694.457,2813.00
695.435,2893.00
696.413,2662.00
697.390,2533.00
698.368,2696.00
699.345,3099.00
700.322,2947.00
701.300,3069.00
702.277,3034.00
703.254,3261.00
704.231,2558.00
705.207,2930.00
706.184,2774.00
707.161,2665.00
708.137,2866.00
709.113,2789.00
710.090,2804.00
711.068,2612.00
712.044,2630.00
713.020,2893.00
713.996,2587.00
714.971,2769.00
715.947,2857.00
716.922,2808.00
717.898,2718.00
718.873,2891.00
719.848,2730.00
720.823,2711.00
721.798,2985.00
722.773,2737.00
723.748,2511.00
724.723,2993.00
725.697,2851.00
726.672,2758.00
727.646,2523.00
728.622,2998.00
729.596,2619.00
730.570,2734.00
731.544,3084.00
732.518,3294.00
733.492,2828.00
734.466,2879.00
735.439,3021.00
736.413,3109.00
737.386,2461.00
738.359,2409.00
739.332,2523.00
740.305,2851.00
741.278,3290.00
742.251,2946.00
743.224,2723.00
744.196,2543.00
745.171,3166.00
746.143,3045.00
747.115,2781.00
748.087,2686.00
749.059,3099.00
750.031,2885.00
751.003,3667.00
751.975,3287.00
752.947,2692.00
753.918,3087.00
754.890,2582.00
755.861,2723.00
756.832,3098.00
757.803,2829.00
758.774,2859.00
759.747,2608.00
760.718,3247.00
761.689,2737.00
762.659,2606.00
763.630,3191.00
764.600,2565.00
765.570,3043.00
766.540,3166.00
767.510,2909.00
768.480,3027.00
769.450,2675.00
770.420,2827.00
771.390,2629.00
772.359,2782.00
773.329,2679.00
774.300,2487.00
775.269,2742.00
776.238,3027.00
777.207,3148.00
778.176,2526.00
779.145,2822.00
780.114,2668.00
781.083,2571.00
782.051,2736.00
783.019,2664.00
783.988,3072.00
784.956,2848.00
785.924,2970.00
786.894,2901.00
787.862,2748.00
788.830,3104.00
789.797,2593.00
790.765,2581.00
791.732,2766.00
792.700,2665.00
793.667,2593.00
794.634,2794.00
795.601,2739.00
796.568,2768.00
797.535,2846.00
798.502,3411.00
799.468,2905.00
800.437,2430.00
801.403,2648.00
802.370,3288.00
803.336,2979.00
804.302,2891.00
805.268,2408.00
806.234,2560.00
807.200,2732.00
808.166,2767.00
809.131,2583.00
810.097,2961.00
811.062,3669.00
812.027,3020.00
812.994,2574.00
813.960,2599.00
814.925,2950.00
815.889,2511.00
816.854,2993.00
817.819,2596.00
818.783,2742.00
819.748,3137.00
820.712,2739.00
821.677,2683.00
822.641,2721.00
823.605,2725.00
824.571,3110.00
825.534,2734.00
826.498,2670.00
827.462,2818.00
828.425,2634.00
829.389,3049.00
830.352,2861.00
831.315,2905.00
832.279,2489.00
833.242,2745.00
834.204,2691.00
835.167,2615.00
836.132,3030.00
837.095,2546.00
838.057,2707.00
839.020,2791.00
839.982,2862.00
840.944,2721.00
841.906,2644.00
842.868,2939.00
843.830,2559.00
844.792,3068.00
845.753,2679.00
846.715,2437.00
847.679,2578.00
848.640,2594.00
849.601,2752.00
850.562,3255.00
851.523,2695.00
852.484,2469.00
853.445,2985.00
854.406,2725.00
855.367,2727.00
856.327,3059.00
857.288,2503.00
858.248,2703.00
859.210,2675.00
860.170,2542.00
861.130,3026.00
862.090,2415.00
863.050,2626.00
864.010,2699.00
864.969,2925.00
865.929,2609.00
866.888,2547.00
867.848,2853.00
868.807,2666.00
869.766,2803.00
870.727,2763.00
871.686,2967.00
872.645,3022.00
873.604,3304.00
874.562,2755.00
875.521,2786.00
876.479,3346.00
877.437,2605.00
878.396,2556.00
879.354,3166.00
880.312,2645.00
881.270,2688.00
882.229,3122.00
883.187,2625.00
884.145,2673.00
885.102,2927.00
886.059,2817.00
887.017,2892.00
887.974,2971.00
888.931,3099.00
889.888,2518.00
890.845,2431.00
891.802,2329.00
892.758,2655.00
893.717,2431.00
894.673,2561.00
895.630,2615.00
896.586,2934.00
897.542,2638.00
898.498,2519.00
899.454,2863.00
900.410,2671.00
901.366,2685.00
902.321,2612.00
903.277,2706.00
904.232,2747.00
905.189,2531.00
906.145,2635.00
907.100,2229.00
908.055,2733.00
909.010,2943.00
909.965,2327.00
910.919,2806.00
911.874,2563.00
912.828,2775.00
913.783,2775.00
914.737,2347.00
915.693,2753.00
916.648,2927.00
917.602,2939.00
918.555,2815.00
919.509,2819.00
920.463,2746.00
921.417,2782.00
922.370,2563.00
923.324,2670.00
924.277,2698.00
925.230,2737.00
926.183,2425.00
927.138,2703.00
928.091,2965.00
929.044,2833.00
929.996,2683.00
930.949,2655.00
931.902,2843.00
932.854,2827.00
933.806,2587.00
934.758,2970.00
935.711,2995.00
936.663,2759.00
937.614,2814.00
938.568,2767.00
939.520,2401.00
940.471,2718.00
941.423,2771.00
942.374,2869.00
943.326,2746.00
944.277,2578.00
945.228,2852.00
946.179,2662.00
947.130,3047.00
948.080,2653.00
949.031,2572.00
949.984,2685.00
950.934,2701.00
951.884,2466.00
952.835,2707.00
953.785,2785.00
954.735,2610.00
955.685,2359.00
956.635,2629.00
957.585,2646.00
958.534,2634.00
959.484,2769.00
960.433,2622.00
961.383,2483.00
962.334,2969.00
963.283,2764.00
964.232,2862.00
965.181,2733.00
966.130,2810.00
967.079,2639.00
968.027,2724.00
968.976,2705.00
969.924,2606.00
970.873,2812.00
971.821,2755.00
972.769,2937.00
973.719,2834.00
974.667,2465.00
975.615,2724.00
976.562,2746.00
977.510,2423.00
978.458,2589.00
979.405,2814.00
980.352,2785.00
981.300,3000.00
982.247,2815.00
983.194,2547.00
984.141,2613.00
985.088,2759.00
986.036,2801.00
986.983,3014.00
987.930,3142.00
988.876,2343.00
989.822,2963.00
990.769,2566.00
991.715,2612.00
992.661,2453.00
993.607,2807.00
994.553,3267.00
995.498,2613.00
996.444,2309.00
997.389,2762.00
998.337,2515.00
999.282,2850.00
1000.227,2659.00
1001.173,2635.00
1002.118,2440.00
1003.062,2898.00
1004.007,2701.00
1004.952,2983.00
1005.897,2918.00
1006.841,2701.00
1007.786,2461.00
1008.730,2434.00
1009.674,3179.00
1010.618,2644.00
1011.564,2487.00
1012.508,2423.00
1013.452,2968.00
1014.396,2762.00
1015.339,2584.00
1016.283,2718.00
1017.226,2766.00
1018.170,2688.00
1019.113,2880.00
1020.056,2728.00
1020.999,2721.00
1021.942,2632.00
1022.885,2853.00
1023.828,2981.00
1024.770,2516.00
1025.715,2770.00
1026.657,2696.00
1027.600,2758.00
1028.542,2914.00
1029.484,2789.00
1030.426,2856.00
1031.368,2764.00
1032.310,2592.00
1033.251,2528.00
1034.193,2707.00
1035.135,2500.00
1036.076,2624.00
1037.017,2552.00
1037.959,2833.00
1038.900,2767.00
1039.843,2805.00
1040.784,2752.00
1041.725,2800.00
1042.665,2586.00
1043.606,2763.00
1044.547,2718.00
1045.487,2333.00
1046.427,2637.00
1047.368,2764.00
1048.308,2246.00
1049.248,2532.00
1050.188,2731.00
1051.128,2639.00
1052.067,2685.00
1053.007,2397.00
1053.947,2408.00
1054.886,2630.00
1055.827,2466.00
1056.766,2955.00
1057.706,2490.00
1058.645,2657.00
1059.584,2776.00
1060.522,2985.00
1061.461,2455.00
1062.400,2464.00
1063.338,2615.00
1064.277,2532.00
1065.215,2535.00
1066.154,2406.00
1067.092,2592.00
1068.030,2658.00
1068.968,2844.00
1069.906,3018.00
1070.843,2917.00
1071.781,2745.00
1072.720,2821.00
1073.658,2793.00
1074.595,2633.00
1075.533,2575.00
1076.470,2599.00
1077.407,2978.00
1078.344,2734.00
1079.281,2766.00
1080.217,2314.00
1081.154,2671.00
1082.091,2732.00
1083.027,2461.00
1083.964,2965.00
1084.900,2580.00
1085.836,2582.00
1086.772,2897.00
1087.708,2483.00
1088.644,2830.00
1089.580,2676.00
1090.515,2736.00
1091.451,2619.00
1092.388,2703.00
1093.324,2469.00
1094.259,3193.00
1095.194,2721.00
1096.129,2639.00
1097.064,2555.00
1097.999,2831.00
1098.934,2511.00
1099.869,2535.00
1100.803,2686.00
1101.738,2698.00
1102.672,2394.00
1103.607,2827.00
1104.541,2546.00
1105.475,2533.00
1106.409,2405.00
1107.343,2648.00
1108.277,2418.00
1109.210,2696.00
1110.144,2698.00
1111.078,2646.00
1112.011,2429.00
1112.944,2765.00
1113.878,2713.00
1114.811,2173.00
1115.744,2593.00
1116.678,2291.00
1117.611,2599.00
1118.544,2559.00
1119.477,2787.00
1120.409,2535.00
1121.342,3139.00
1122.274,2743.00
1123.206,3043.00
1124.138,2698.00
1125.070,2998.00
1126.002,2814.00
1126.934,2298.00
1127.866,2563.00
1128.798,2312.00
1129.729,2384.00
1130.661,2656.00
1131.592,2553.00
1132.523,2695.00
1133.454,2781.00
1134.385,2296.00
1135.317,2669.00
1136.247,2607.00
1137.178,2866.00
1138.109,2339.00
1139.039,3041.00
1139.970,2850.00
1140.900,2563.00
1141.831,2385.00
1142.761,2250.00
1143.691,2791.00
1144.621,2665.00
1145.551,2710.00
1146.480,2663.00
1147.410,2872.00
1148.340,2315.00
1149.269,2374.00
1150.199,2573.00
1151.128,3023.00
1152.057,2433.00
1152.979,2570.00
1153.898,2624.00
1154.819,2683.00
1155.739,2626.00
1156.658,2530.00
1157.579,2688.00
1158.498,2664.00
1159.419,2178.00
1160.338,2713.00
1161.256,2688.00
1162.177,2504.00
1163.095,2624.00
1164.016,2696.00
1164.934,2894.00
1165.852,2837.00
1166.772,2628.00
1167.690,2648.00
1168.610,2672.00
1169.528,2684.00
1170.446,2215.00
1171.365,2576.00
1172.283,2533.00
1173.202,2633.00
1174.120,2664.00
1175.037,2507.00
1175.956,2436.00
1176.873,2495.00
1177.792,2543.00
1178.709,3101.00
1179.626,2538.00
1180.544,2848.00
1181.461,2474.00
1182.379,2715.00
1183.296,2642.00
1184.212,2305.00
1185.130,2476.00
1186.046,2985.00
1186.962,2622.00
1187.880,2909.00
1188.796,2655.00
1189.714,2425.00
1190.629,2766.00
1191.545,2732.00
1192.462,2546.00
1193.378,2602.00
1194.295,2331.00
1195.210,2696.00
1196.125,2764.00
1197.042,2716.00
1197.957,2636.00
1198.872,2511.00
1199.788,2528.00
1200.703,2928.00
1201.619,2645.00
1202.534,2473.00
1203.448,2719.00
1204.364,2576.00
1205.278,2305.00
1206.192,2650.00
1207.108,3130.00
1208.022,2982.00
1208.938,2504.00
1209.851,2759.00
1210.765,2864.00
1211.680,2576.00
1212.594,2405.00
1213.507,2577.00
1214.422,3027.00
1215.335,2744.00
1216.248,2588.00
1217.163,2651.00
1218.076,3203.00
1218.990,2739.00
1219.903,2412.00
1220.816,2464.00
1221.730,2615.00
1222.642,2519.00
1223.554,2551.00
1224.469,2729.00
1225.380,2561.00
1226.292,2283.00
1227.206,2778.00
1228.118,2955.00
1229.032,2262.00
1229.943,2531.00
1230.855,2574.00
1231.768,2373.00
1232.679,2735.00
1233.590,2593.00
1234.503,2850.00
1235.414,2497.00
1236.325,2515.00
1237.238,2686.00
1238.149,2734.00
1239.059,2488.00
1239.972,2838.00
1240.882,2462.00
1241.793,2780.00
1242.705,2977.00
1243.615,2593.00
1244.525,2720.00
1245.437,2197.00
1246.347,2693.00
1247.259,2802.00
1248.168,3039.00
1249.078,2873.00
1249.989,2867.00
1250.899,2403.00
1251.808,2484.00
1252.719,2567.00
1253.628,2490.00
1254.537,3006.00
1255.448,2503.00
1256.357,2488.00
1257.266,2679.00
1258.176,2345.00
1259.085,2348.00
1259.993,2462.00
1260.904,2460.00
1261.812,2435.00
1262.720,3171.00
1263.630,2825.00
1264.538,2472.00
1265.446,2777.00
1266.356,2615.00
1267.263,2919.00
1268.171,2443.00
1269.080,2701.00
1269.988,2818.00
1270.895,2547.00
1271.804,2599.00
1272.711,2854.00
1273.619,2803.00
1274.527,2444.00
1275.434,2766.00
1276.341,2434.00
1277.248,2621.00
1278.156,2870.00
1279.063,2517.00
1279.969,2741.00
1280.877,3556.00
1281.783,2786.00
1282.690,2704.00
1283.598,2587.00
1284.503,2442.00
1285.409,2480.00
1286.317,2949.00
1287.223,2965.00
1288.128,2682.00
1289.036,2509.00
1289.941,2581.00
1290.846,2638.00
1291.751,2427.00
1292.658,2576.00
1293.563,3050.00
1294.468,2635.00
1295.375,2777.00
1296.280,2898.00
1297.184,3308.00
1298.091,2720.00
1298.995,2787.00
1299.900,3010.00
1300.806,2549.00
1301.710,2365.00
1302.614,2220.00
1303.518,2866.00
1304.424,2560.00
1305.327,2807.00
1306.231,2638.00
1307.137,2793.00
1308.040,2676.00
1308.943,2660.00
1309.847,2859.00
1310.752,2825.00
1311.655,2294.00
1312.558,2465.00
1313.463,2576.00
1314.366,2530.00
1315.269,2730.00
1316.171,2617.00
1317.076,2510.00
1317.978,2416.00
1318.881,2252.00
1319.785,2469.00
1320.687,2503.00
1321.589,2244.00
1322.491,2464.00
1323.395,2733.00
1324.297,3190.00
1325.198,2751.00
1326.102,2448.00
1327.004,2445.00
1327.905,3047.00
1328.806,2621.00
1329.709,2711.00
1330.611,2548.00
1331.512,2446.00
1332.413,3071.00
1333.316,2686.00
1334.216,2799.00
1335.117,2409.00
1336.020,2677.00
1336.920,2614.00
1337.821,2472.00
1338.721,2899.00
1339.623,2667.00
1340.523,2603.00
1341.423,2488.00
1342.323,2901.00
1343.225,2747.00
1344.125,2463.00
1345.025,2506.00
1345.924,2309.00
1346.826,2986.00
1347.725,3058.00
1348.624,2862.00
1349.524,2496.00
1350.425,2558.00
1351.324,2712.00
1352.223,2808.00
1353.121,2613.00
1354.022,2841.00
1354.921,2988.00
1355.819,2756.00
1356.718,2693.00
1357.618,2378.00
1358.516,2750.00
1359.415,2964.00
1360.313,2705.00
1361.213,2606.00
1362.111,2920.00
1363.008,3273.00
1363.906,2605.00
1364.806,2646.00
1365.703,2725.00
1366.601,2445.00
1367.498,2475.00
1368.397,2783.00
1369.295,2700.00
1370.192,2458.00
1371.089,2714.00
1371.987,2619.00
1372.884,2907.00
1373.781,2433.00
1374.678,2628.00
1375.574,2485.00
1376.473,2735.00
1377.369,2879.00
1378.265,2466.00
1379.161,2581.00
1380.059,2330.00
1380.955,2715.00
1381.851,2402.00
1382.747,2540.00
1383.643,2530.00
1384.540,2429.00
1385.436,2534.00
1386.331,2696.00
1387.227,2808.00
1388.124,2732.00
1389.019,2438.00
1389.914,2608.00
1390.809,2284.00
1391.704,3069.00
1392.601,2561.00
1393.495,2929.00
1394.390,2777.00
1395.285,2841.00
1396.179,2703.00
1397.075,2618.00
1397.969,2675.00
1398.864,2355.00
1399.758,2570.00
1400.652,2674.00
1401.547,2457.00
1402.441,2383.00
1403.335,2946.00
1404.229,2656.00
1405.122,2684.00
1406.017,2607.00
1406.911,2810.00
1407.804,3033.00
1408.697,2664.00
1409.590,2469.00
1410.485,2830.00
1411.378,2745.00
1412.271,2338.00
1413.163,2693.00
1414.056,2755.00
1414.949,3048.00
1415.843,2691.00
1416.735,2601.00
1417.627,2646.00
1418.520,2591.00
1419.412,2852.00
1420.306,2798.00
1421.197,2863.00
1422.089,2853.00
1422.981,3075.00
1423.873,2805.00
1424.764,2737.00
1425.657,2666.00
1426.549,2730.00
1427.440,2846.00
1428.331,2542.00
1429.222,2335.00
1430.113,2692.00
1431.006,2841.00
1431.897,2501.00
1432.787,2645.00
1433.678,2543.00
1434.568,2476.00
1435.459,2891.00
1436.351,2787.00
1437.241,2807.00
1438.131,2787.00
1439.021,2397.00
1439.911,2606.00
1440.801,2671.00
1441.693,2866.00
1442.583,2659.00
1443.472,2687.00
1444.362,2784.00
1445.251,2627.00
1446.140,2561.00
1447.030,2830.00
1447.921,2822.00
1448.810,2492.00
1449.699,2967.00
1450.588,2691.00
1451.476,2552.00
1452.365,2748.00
1453.254,2533.00
1454.144,2506.00
1455.032,2794.00
1455.921,2405.00
1456.809,2925.00
1457.697,2426.00
1458.585,2621.00
1459.473,2597.00
1460.361,2498.00
1461.251,2719.00
1462.138,2720.00
1463.026,2610.00
1463.913,2862.00
1464.801,2532.00
1465.688,2734.00
1466.575,2669.00
1467.463,3084.00
1468.351,2508.00
1469.238,2644.00
1470.125,2265.00
1471.012,2711.00
1471.899,2728.00
1472.785,2457.00
1473.672,2636.00
1474.558,2859.00
1475.446,2799.00
1476.333,2821.00
1477.219,2406.00
1478.105,2629.00
1478.991,2591.00
1479.877,2907.00
1480.762,2667.00
1481.648,2517.00
1482.534,2794.00
1483.419,2699.00
1484.307,2742.00
1485.192,2615.00
1486.077,2470.00
1486.962,2497.00
1487.847,2426.00
1488.732,2468.00
1489.617,2686.00
1490.502,2897.00
1491.387,2751.00
1492.271,2480.00
1493.156,2469.00
1494.042,2440.00
1494.927,2810.00
1495.811,2558.00
1496.695,2804.00
1497.579,2930.00
1498.463,2652.00
1499.347,2701.00
1500.231,2700.00
1501.114,2720.00
1501.998,2913.00
1502.881,2692.00
1503.765,2970.00
1504.648,3092.00
1505.533,2796.00
1506.417,2663.00
1507.300,2596.00
1508.183,2733.00
1509.066,2137.00
1509.948,2889.00
1510.831,3018.00
1511.714,2448.00
1512.596,2807.00
1513.479,2882.00
1514.361,2839.00
1515.243,2661.00
1516.125,2809.00
1517.008,2938.00
1517.890,2612.00
1518.771,2690.00
1519.655,2883.00
1520.537,2587.00
1521.419,2524.00
1522.300,2700.00
1523.182,2812.00
1524.063,2770.00
1524.944,2895.00
1525.825,2869.00
1526.707,2469.00
1527.588,2448.00
1528.468,2777.00
1529.349,2314.00
1530.230,2606.00
1531.111,2839.00
1531.991,2724.00
1532.872,2371.00
1533.752,2624.00
1534.632,2524.00
1535.513,2562.00
1536.393,2780.00
1537.273,2978.00
1538.153,3332.00
1539.032,2433.00
1539.912,2613.00
1540.792,2673.00
1541.672,2637.00
1542.551,2741.00
1543.430,3234.00
1544.310,2678.00
1545.189,2590.00
1546.068,3071.00
1546.947,2746.00
1547.826,2948.00
1548.705,2665.00
1549.584,2873.00
1550.462,2602.00
1551.341,2800.00
1552.219,2740.00
1553.098,2806.00
1553.976,2855.00
1554.854,3108.00
1555.733,2881.00
1556.611,2592.00
1557.489,2501.00
1558.367,2694.00
1559.244,2797.00
1560.122,2634.00
1561.000,2696.00
1561.877,2971.00
1562.755,2564.00
1563.632,2626.00
1564.509,2953.00
1565.386,2993.00
1566.264,2427.00
1567.141,2300.00
1568.017,2833.00
1568.894,2658.00
1569.771,2755.00
1570.648,2783.00
1571.524,2684.00
1572.401,2394.00
1573.277,2440.00
1574.153,2723.00
1575.029,2503.00
1575.906,3392.00
1576.781,2812.00
1577.657,2597.00
1578.533,2891.00
1579.409,2314.00
1580.285,2628.00
1581.160,3065.00
1582.036,2863.00
1582.911,2503.00
1583.786,3017.00
1584.662,2464.00
1585.537,2622.00
1586.412,2735.00
1587.287,2538.00
1588.160,2818.00
1589.035,2344.00
1589.909,2732.00
1590.784,2587.00
1591.658,2456.00
1592.533,2728.00
1593.407,2692.00
1594.281,2565.00
1595.155,3083.00
1596.029,2616.00
1596.903,2597.00
1597.777,2600.00
1598.651,2931.00
1599.525,2379.00
1600.398,2684.00
1601.272,2590.00
1602.144,3228.00
1603.017,2650.00
1603.890,2898.00
1604.763,2752.00
1605.636,2796.00
1606.509,2377.00
1607.382,2537.00
1608.255,2756.00
1609.128,2860.00
1610.000,2576.00
1610.873,2375.00
1611.746,2579.00
1612.616,2592.00
1613.488,2252.00
1614.361,2652.00
1615.233,2627.00
1616.105,2906.00
1616.977,2584.00
1617.849,2528.00
1618.720,2964.00
1619.592,2951.00
1620.464,2732.00
1621.333,3152.00
1622.205,2668.00
1623.076,2665.00
1623.947,2683.00
1624.818,2921.00
1625.689,2796.00
1626.560,2592.00
1627.431,2722.00
1628.302,3066.00
1629.171,2778.00
1630.042,2961.00
1630.912,3605.00
1631.782,3269.00
1632.653,2465.00
1633.523,2841.00
1634.393,2946.00
1635.263,2562.00
1636.131,2638.00
1637.001,2610.00
1637.871,2295.00
1638.741,2333.00
1639.611,2441.00
1640.480,2808.00
1641.350,2533.00
1642.219,2506.00
1643.087,2183.00
1643.956,3066.00
1644.825,2944.00
1645.694,2899.00
1646.563,2812.00
1647.432,2699.00
1648.299,2680.00
1649.167,2833.00
1650.036,2470.00
1650.904,2829.00
1651.773,2887.00
1652.641,2692.00
1653.509,2811.00
1654.376,2577.00
1655.244,2730.00
1656.112,2706.00
1656.980,2688.00
1657.847,2535.00
1658.715,2855.00
1659.581,2600.00
1660.448,2909.00
1661.316,2213.00
1662.183,2767.00
1663.051,2731.00
1663.918,2752.00
1664.783,2711.00
1665.650,2766.00
1666.517,2855.00
1667.384,2699.00
1668.251,2709.00
1669.115,2919.00
1669.982,2620.00
1670.849,2951.00
1671.715,2630.00
1672.581,2794.00
1673.446,2783.00
1674.312,2709.00
1675.178,3098.00
1676.044,2777.00
1676.910,2760.00
1677.774,2683.00
1678.639,2342.00
1679.505,2676.00
1680.370,2791.00
1681.236,3305.00
1682.099,2662.00
1682.965,2701.00
1683.830,2285.00
1684.695,2494.00
1685.560,2638.00
1686.423,2821.00
1687.288,2795.00
1688.153,2702.00
1689.017,2629.00
1689.880,2733.00
1690.745,2850.00
1691.609,2514.00
1692.473,2853.00
1693.338,2883.00
1694.200,2935.00
1695.064,2705.00
1695.928,2589.00
1696.792,2698.00
1697.654,3183.00
1698.517,2698.00
1699.381,2474.00
1700.245,2374.00
1701.106,2989.00
1701.969,2550.00
1702.833,2808.00
1703.696,2616.00
1704.557,2628.00
1705.420,2550.00
1706.283,2729.00
1707.146,2849.00
1708.007,2496.00
1708.870,2513.00
1709.732,2340.00
1710.595,2586.00
1711.455,2459.00
1712.318,2605.00
1713.180,2955.00
1714.040,2713.00
1714.902,2841.00
1715.764,2667.00
1716.626,2483.00
1717.486,2695.00
1718.348,2942.00
1719.209,4763.00
1720.071,2322.00
1720.930,2427.00
1721.792,2530.00
1722.653,2536.00
1723.512,2546.00
1724.374,2629.00
1725.234,2719.00
1726.095,2717.00
1726.954,2712.00
1727.815,2801.00
1728.676,2691.00
1729.535,2903.00
1730.395,2679.00
1731.256,2600.00
1732.114,2722.00
1732.974,2187.00
1733.834,3046.00
1734.693,2850.00
1735.553,2713.00
1736.413,3072.00
1737.272,2594.00
1738.130,2581.00
1738.990,2752.00
1739.849,2579.00
1740.707,3653.00
1741.566,2741.00
1742.426,2763.00
1743.283,3060.00
1744.142,2578.00
1745.001,2382.00
1745.858,2822.00
1746.717,2770.00
1747.576,2808.00
1748.433,2821.00
1749.292,3284.00
1750.150,3300.00
1751.007,2845.00
1751.865,2884.00
1752.723,2731.00
1753.579,2596.00
1754.438,2884.00
1755.296,2906.00
1756.152,2265.00
1757.010,2362.00
1757.865,2885.00
1758.723,2344.00
1759.581,2992.00
1760.436,2658.00
1761.294,3016.00
1762.151,2638.00
1763.006,2636.00
1763.864,2368.00
1764.721,2905.00
1765.576,2713.00
1766.433,2873.00
1767.288,2556.00
1768.144,2736.00
1769.001,2662.00
1769.856,2770.00
1770.712,2875.00
1771.568,2481.00
1772.423,2600.00
1773.279,2596.00
1774.133,2593.00
1774.989,3087.00
1775.845,3051.00
1776.699,2948.00
1777.555,2669.00
1778.409,3206.00
1779.265,2626.00
1780.120,2626.00
1780.974,2657.00
1781.829,2295.00
1782.682,2717.00
1783.538,2540.00
1784.393,2720.00
1785.246,2570.00
1786.101,2782.00
1786.954,2822.00
1787.808,2884.00
1788.661,2385.00
1789.516,2609.00
1790.370,2645.00
1791.223,2884.00
1792.077,2681.00
1792.930,2771.00
1793.784,2551.00
1794.636,2714.00
1795.490,2637.00
1796.344,2679.00
1797.196,2666.00
1798.049,2850.00
1798.901,2601.00
1799.755,2875.00
1800.606,2495.00
1801.460,3192.00
1802.311,2985.00
1803.165,3059.00
1804.018,3022.00
1804.869,2766.00
1805.722,3136.00
1806.573,2719.00
1807.426,2527.00
1808.276,2685.00
1809.129,2636.00
1809.980,2933.00
1810.832,2979.00
1811.683,2626.00
1812.535,3018.00
1813.385,2661.00
1814.237,2982.00
1815.089,2706.00
1815.940,2964.00
1816.791,2628.00
1817.641,2598.00
1818.493,2849.00
1819.343,2773.00
1820.194,2564.00
1821.044,2777.00
1821.895,2905.00
1822.745,2415.00
1823.596,2603.00
1824.445,3133.00
1825.296,2782.00
1826.145,2642.00
1826.996,2910.00
1827.845,2774.00
1828.695,2750.00
1829.544,2668.00
1830.395,2749.00
1831.243,2616.00
1832.094,2484.00
1832.942,3292.00
1833.792,2873.00
1834.640,2758.00
1835.490,2709.00
1836.338,2764.00
1837.186,2589.00
1838.036,2558.00
1838.884,2705.00
1839.733,3011.00
1840.581,2872.00
1841.430,2790.00
1842.278,3029.00
1843.127,2606.00
1843.974,2386.00
1844.823,3141.00
1845.671,2860.00
1846.519,2687.00
1847.366,2788.00
1848.213,2341.00
1849.062,2546.00
1849.909,2449.00
1850.757,3318.00
1851.604,2808.00
1852.452,2606.00
1853.298,2877.00
1854.146,2747.00
1854.993,2760.00
1855.839,3236.00
1856.687,2841.00
1857.532,2803.00
1858.380,2694.00
1859.226,2792.00
1860.073,2833.00
1860.919,2534.00
1861.765,2643.00
1862.612,2936.00
1863.457,2960.00
1864.304,2678.00
1865.150,2825.00
1865.995,2650.00
1866.842,2825.00
1867.686,2921.00
1868.533,2805.00
1869.378,2791.00
1870.223,2752.00
1871.069,2615.00
1871.914,2714.00
1872.760,2715.00
1873.604,2506.00
1874.448,2856.00
1875.294,2907.00
1876.139,2577.00
1876.984,2807.00
1877.828,2393.00
1878.672,2237.00
1879.518,2598.00
1880.361,2922.00
1881.205,2883.00
1882.050,2507.00
1882.894,3214.00
1883.739,2592.00
1884.582,2496.00
1885.425,2555.00
1886.270,2950.00
1887.113,2489.00
1887.956,2821.00
1888.801,2784.00
1889.644,2539.00
1890.486,2317.00
1891.331,2639.00
1892.173,2735.00
1893.017,2784.00
1893.860,2991.00
1894.702,3014.00
1895.546,2731.00
1896.388,3383.00
1897.230,3076.00
1898.074,2595.00
1898.916,2493.00
1899.757,2558.00
1900.601,3386.00
1901.443,3040.00
1902.284,3030.00
1903.125,3170.00
1903.969,2933.00
1904.810,2961.00
1905.651,2813.00
1906.494,3041.00
1907.335,3160.00
1908.176,2875.00
1909.018,2791.00
1909.859,2707.00
1910.700,2583.00
1911.542,3217.00
1912.383,2811.00
1913.223,2371.00
1914.064,2894.00
1914.906,2967.00
1915.746,3026.00
1916.586,3182.00
1917.428,2707.00
1918.268,2757.00
1919.107,2642.00
1919.947,2505.00
1920.789,2644.00
1921.628,2947.00
1922.468,2714.00
1923.309,2569.00
1924.148,3058.00
1924.988,2800.00
1925.827,2695.00
1926.667,2608.00
1927.507,2754.00
1928.345,2544.00
1929.184,2892.00
1930.025,2546.00
1930.864,3012.00
1931.702,3032.00
1932.541,2660.00
1933.381,2848.00
1934.219,2856.00
1935.057,3021.00
1935.896,2484.00
1936.735,2709.00
1937.573,2612.00
1938.411,2512.00
1939.249,2883.00
1940.089,2633.00
1940.927,2990.00
1941.764,3036.00
1942.602,2645.00
1943.439,2667.00
1944.278,2698.00
1945.115,2692.00
1945.953,2512.00
1946.790,2818.00
1947.628,3051.00
1948.465,2797.00
1949.302,2897.00
1950.139,2840.00
1950.976,2588.00
1951.814,2894.00
1952.651,2799.00
1953.487,2523.00
1954.323,3005.00
1955.160,2732.00
1955.998,3117.00
1956.834,2714.00
1957.670,2798.00
1958.506,2938.00
1959.342,2845.00
1960.177,2802.00
1961.015,2860.00
1961.850,2760.00
1962.686,2781.00
1963.521,2766.00
1964.357,3000.00
1965.192,2508.00
1966.029,2897.00
1966.864,2643.00
1967.699,2925.00
1968.534,2745.00
1969.369,3037.00
1970.204,2687.00
1971.040,2782.00
1971.875,2674.00
1972.709,2790.00
1973.544,2578.00
1974.378,2650.00
1975.212,2848.00
1976.047,2613.00
1976.882,2628.00
1977.716,3125.00
1978.550,2428.00
1979.384,2697.00
1980.218,2695.00
1981.052,2713.00
1981.885,2770.00
1982.719,2732.00
1983.554,2851.00
1984.388,3035.00
1985.221,2831.00
1986.054,3008.00
1986.887,2805.00
1987.720,2571.00
1988.553,3034.00
1989.386,2819.00
1990.219,2865.00
1991.053,3022.00
1991.886,2626.00
1992.719,2932.00
1993.551,2283.00
1994.383,2911.00
1995.216,2645.00
1996.048,2480.00
1996.880,2945.00
1997.712,2622.00
1998.544,2746.00
1999.376,2826.00
2000.208,3024.00
2001.040,3210.00
2001.873,2584.00
2002.705,2589.00
2003.536,2797.00
2004.367,2792.00
2005.199,2793.00
2006.030,2681.00
2006.861,2539.00
2007.692,2747.00
2008.523,2653.00
2009.354,2790.00
2010.185,2571.00
2011.016,2883.00
2011.846,2951.00
2012.677,2718.00
2013.507,3084.00
2014.338,2951.00
2015.168,2722.00
2015.999,3258.00
2016.829,2688.00
2017.659,2988.00
2018.489,3287.00
2019.319,2565.00
2020.149,2925.00
2020.980,2816.00
2021.810,2564.00
2022.639,2650.00
2023.469,2650.00
2024.298,2446.00
2025.128,2377.00
2025.957,2380.00
2026.786,2240.00
2027.615,2389.00
2028.444,2580.00
2029.273,2710.00
2030.102,2372.00
2030.931,2604.00
2031.758,2858.00
2032.586,2548.00
2033.415,2609.00
2034.243,2245.00
2035.072,2016.00
2035.900,2496.00
2036.728,2352.00
2037.556,2355.00
2038.385,2375.00
2039.213,2160.00
2040.040,2197.00
2040.868,2177.00
2041.696,2231.00
2042.524,2210.00
2043.351,2388.00
2044.179,2226.00
2045.006,2007.00
