RamanScope Measure Spectrum Data V3.72

<< MEASURE CONDITION >>
Exposure Type,Aver
Exposure Time [sec],15
Exposure Count,30
Measure Time,2023/07/03 20:05:49
Data Name,""
Data Comment,""
Rayleigh Wave[nm],532.0

<< SAMPLE SPECTRUM >>
Wave[dcm-1],No201
146.591,616.07
147.626,727.80
148.664,840.63
149.699,974.07
150.737,1082.47
151.772,1162.70
152.809,1273.13
153.846,1347.70
154.881,1432.93
155.918,1513.00
156.953,1572.23
157.989,1652.60
159.026,1676.93
160.060,1726.20
161.096,1740.30
162.130,1760.93
163.167,1808.07
164.200,1833.13
165.236,1881.70
166.272,1876.87
167.305,1890.70
168.341,1925.87
169.374,1983.83
170.409,2005.37
171.445,2015.47
172.477,2075.23
173.512,2071.10
174.545,2068.50
175.580,2073.57
176.614,2126.10
177.647,2095.33
178.681,2121.70
179.713,2190.87
180.747,2153.53
181.781,2132.90
182.813,2149.97
183.847,2123.40
184.878,2145.03
185.912,2144.17
186.945,2208.37
187.976,2171.30
189.010,2228.50
190.043,2201.50
191.073,2214.53
192.106,2275.17
193.137,2267.27
194.170,2279.67
195.202,2329.60
196.232,2380.57
197.265,2391.40
198.297,2477.97
199.327,2437.87
200.359,2516.17
201.388,2546.67
202.420,2580.17
203.452,2649.63
204.481,2725.63
205.512,2783.63
206.544,2876.97
207.573,2935.20
208.604,3028.47
209.635,3149.70
210.663,3313.90
211.694,3458.50
212.725,3674.27
213.753,3833.60
214.783,4063.07
215.813,4351.83
216.841,4551.00
217.871,4853.03
218.899,5102.77
219.929,5269.80
220.959,5373.37
221.986,5377.00
223.016,5399.33
224.045,5225.53
225.072,5021.80
226.101,4747.03
227.130,4446.47
228.157,4241.03
229.185,4001.67
230.214,3783.63
231.241,3615.20
232.269,3463.90
233.297,3352.23
234.323,3301.67
235.351,3219.47
236.379,3146.07
237.407,3132.30
238.433,3063.73
239.460,3073.13
240.488,3017.43
241.513,2984.43
242.540,2989.73
243.568,3054.73
244.592,3025.00
245.619,3047.27
246.646,3024.03
247.671,3062.00
248.697,3056.60
249.724,3031.90
250.748,3005.20
251.774,3041.63
252.801,3050.57
253.827,3041.50
254.850,3050.17
255.876,3070.73
256.902,3043.70
257.925,3105.73
258.951,3134.57
259.976,3142.50
260.999,3214.13
262.024,3259.90
263.049,3319.87
264.074,3364.07
265.097,3450.17
266.122,3478.17
267.146,3594.50
268.168,3637.57
269.193,3758.70
270.217,3876.63
271.241,3929.83
272.263,4013.73
273.287,4132.10
274.311,4313.83
275.332,4418.90
276.356,4516.70
277.379,4545.80
278.402,4677.27
279.424,4741.13
280.447,4805.23
281.470,4796.93
282.492,4766.63
283.513,4761.10
284.536,4721.23
285.558,4660.13
286.581,4604.83
287.601,4510.13
288.623,4453.47
289.645,4351.23
290.665,4235.83
291.687,4082.03
292.709,3986.47
293.730,3866.07
294.750,3772.27
295.771,3670.17
296.792,3528.77
297.813,3461.47
298.832,3349.27
299.853,3242.67
300.874,3183.43
301.895,3076.57
302.913,2976.87
303.934,2917.97
304.954,2894.77
305.975,2814.50
306.993,2753.83
308.013,2670.60
309.033,2662.47
310.052,2612.53
311.072,2564.27
312.090,2482.70
313.109,2451.27
314.129,2388.73
315.148,2394.07
316.165,2353.10
317.184,2329.97
318.203,2298.00
319.222,2293.23
320.238,2288.17
321.257,2245.30
322.275,2209.13
323.294,2228.23
324.312,2171.63
325.328,2222.60
326.346,2168.73
327.364,2111.00
328.382,2152.60
329.397,2095.43
330.415,2150.17
331.432,2108.57
332.450,2135.67
333.467,2091.43
334.482,2089.77
335.499,2111.20
336.516,2104.63
337.533,2100.67
338.547,2113.60
339.564,2070.50
340.580,2066.60
341.597,2064.77
342.613,2049.60
343.627,2100.20
344.643,2078.73
345.659,2075.30
346.675,2059.10
347.690,2096.60
348.704,2092.27
349.719,2070.87
350.735,2048.40
351.750,2123.87
352.765,2068.53
353.778,2084.07
354.793,2101.50
355.808,2103.03
356.822,2115.43
357.837,2144.30
358.851,2129.33
359.864,2128.80
360.878,2166.90
361.892,2180.83
362.906,2199.60
363.920,2189.10
364.932,2194.87
365.945,2197.47
366.959,2202.13
367.972,2240.67
368.986,2248.67
369.999,2307.33
371.010,2282.17
372.023,2332.63
373.036,2344.53
374.049,2408.50
375.061,2358.03
376.072,2381.27
377.084,2445.03
378.097,2486.23
379.109,2467.93
380.121,2527.13
381.133,2529.47
382.143,2575.03
383.155,2575.37
384.166,2652.80
385.178,2620.90
386.189,2645.47
387.201,2650.70
388.212,2684.17
389.221,2690.90
390.232,2676.17
391.243,2714.83
392.254,2740.63
393.264,2757.10
394.275,2709.30
395.283,2692.10
396.294,2708.33
397.304,2620.60
398.314,2652.63
399.324,2645.77
400.334,2602.70
401.344,2546.03
402.351,2610.47
403.361,2483.93
404.370,2483.43
405.380,2462.27
406.389,2382.13
407.398,2330.20
408.407,2397.17
409.414,2529.53
410.423,2271.70
411.431,2234.17
412.440,2239.10
413.448,2256.80
414.457,2206.60
415.465,2145.00
416.471,2087.43
417.479,2098.30
418.487,2092.23
419.495,2069.40
420.503,2090.73
421.510,2037.30
422.518,1995.67
423.525,2022.77
424.530,1998.67
425.537,1985.70
426.544,1960.00
427.551,1971.73
428.558,1958.17
429.565,1943.23
430.571,1953.87
431.578,1948.23
432.582,1949.83
433.588,1899.57
434.595,1906.83
435.601,1904.53
436.607,1881.47
437.612,1868.00
438.618,1862.47
439.624,1873.47
440.627,1857.47
441.633,1885.70
442.638,1804.77
443.643,1892.63
444.648,1867.97
445.653,1852.43
446.658,1847.80
447.663,1855.43
448.667,1845.13
449.672,1860.73
450.674,1868.47
451.678,1922.67
452.682,1885.13
453.687,1867.50
454.690,1866.83
455.694,1900.33
456.698,1888.60
457.702,1879.07
458.705,1876.57
459.709,1896.57
460.710,1937.87
461.713,1899.97
462.716,1953.10
463.719,1910.47
464.722,1922.23
465.725,1934.23
466.727,1956.03
467.730,1945.20
468.732,1917.67
469.735,1945.00
470.737,1947.97
471.737,1971.67
472.739,1973.57
473.741,1925.77
474.742,1997.27
475.744,1954.57
476.746,2008.23
477.747,2005.07
478.748,1985.47
479.750,1990.87
480.751,1954.40
481.752,1952.20
482.753,1976.07
483.751,2045.10
484.752,2007.50
485.753,1989.13
486.753,1998.67
487.753,1981.13
488.754,1942.53
489.754,1946.50
490.754,1995.90
491.754,1974.03
492.754,2009.10
493.753,1952.57
494.753,1961.90
495.752,1945.53
496.752,1916.70
497.749,1933.13
498.748,1892.70
499.747,1893.83
500.746,1941.30
501.745,1914.87
502.744,1936.63
503.742,1908.30
504.741,1874.60
505.739,1911.50
506.737,1894.50
507.735,1894.60
508.734,1888.00
509.732,1892.27
510.729,1901.07
511.727,1878.07
512.725,1889.00
513.720,1863.73
514.718,1837.70
515.715,1822.90
516.712,1837.90
517.709,1858.87
518.706,1852.00
519.703,1876.40
520.700,1846.87
521.696,1832.30
522.693,1867.53
523.689,1864.50
524.686,1887.13
525.682,1869.23
526.678,1841.63
527.674,1885.57
528.670,1854.33
529.666,1820.83
530.661,1840.93
531.657,1897.70
532.652,1917.10
533.648,1894.87
534.641,1898.97
535.636,1822.83
536.631,1916.80
537.626,1899.10
538.621,1885.90
539.616,1923.90
540.610,1899.87
541.605,1871.67
542.599,1923.97
543.593,1917.67
544.587,1929.53
545.581,1928.10
546.575,1936.30
547.569,1927.73
548.563,1955.93
549.557,1965.83
550.550,1943.77
551.543,1949.97
552.537,1944.53
553.530,1981.43
554.523,2006.80
555.516,1971.87
556.509,1973.93
557.502,1997.37
558.494,1990.40
559.487,2018.43
560.479,2037.00
561.472,1935.53
562.464,2010.13
563.456,1982.63
564.448,2027.90
565.440,2026.47
566.432,2043.30
567.423,2025.13
568.415,2052.80
569.404,2085.57
570.396,2070.37
571.387,2060.10
572.378,2137.10
573.369,2108.83
574.360,2144.00
575.351,2148.33
576.341,2157.13
577.332,2179.33
578.323,2154.57
579.313,2187.00
580.303,2198.67
581.293,2176.17
582.283,2225.30
583.273,2213.47
584.263,2223.20
585.253,2226.70
586.243,2244.87
587.232,2247.80
588.222,2230.67
589.211,2210.17
590.200,2201.87
591.189,2244.43
592.178,2208.83
593.167,2225.93
594.156,2213.93
595.145,2199.00
596.133,2218.17
597.122,2179.43
598.110,2116.30
599.098,2132.70
600.086,2142.50
601.074,2158.43
602.062,2101.83
603.050,2054.53
604.038,2092.37
605.025,2073.50
606.013,2063.30
607.000,2073.67
607.987,2002.17
608.975,2027.50
609.962,2033.43
610.949,2059.23
611.936,2012.03
612.922,2004.70
613.909,2010.93
614.895,1982.43
615.882,1986.53
616.868,1973.37
617.854,1925.43
618.841,1915.33
619.826,1907.83
620.812,1893.87
621.798,1901.37
622.784,1874.33
623.769,1864.90
624.755,1869.47
625.740,1839.77
626.725,1851.60
627.711,1827.40
628.698,1799.53
629.683,1841.23
630.667,1799.10
631.652,1807.07
632.637,1755.00
633.621,1738.33
634.606,1735.97
635.590,1745.63
636.574,1735.70
637.558,1738.13
638.542,1733.97
639.526,1682.80
640.510,1662.13
641.493,1739.07
642.477,1667.97
643.460,1727.33
644.444,1621.63
645.427,1662.30
646.410,1659.77
647.393,1665.03
648.376,1644.13
649.359,1647.10
650.341,1622.53
651.324,1603.07
652.307,1611.30
653.289,1585.40
654.271,1597.23
655.253,1559.60
656.235,1591.00
657.217,1622.77
658.199,1588.00
659.181,1565.43
660.163,1558.87
661.144,1601.97
662.126,1515.63
663.107,1495.83
664.088,1499.23
665.069,1539.03
666.050,1519.70
667.033,1489.33
668.014,1504.70
668.995,1487.00
669.975,1516.57
670.956,1442.27
671.936,1489.77
672.916,1492.97
673.896,1480.10
674.876,1458.43
675.856,1462.63
676.836,1446.47
677.816,1430.63
678.795,1419.07
679.775,1432.60
680.754,1423.97
681.734,1403.50
682.713,1377.07
683.692,1411.40
684.671,1381.43
685.650,1360.23
686.629,1348.70
687.607,1400.67
688.586,1350.00
689.564,1370.13
690.543,1345.63
691.523,1317.13
692.501,1357.37
693.479,1366.17
694.457,1317.83
695.435,1334.83
696.413,1342.27
697.390,1264.87
698.368,1302.47
699.345,1353.97
700.322,1280.83
701.300,1253.60
702.277,1231.53
703.254,1282.23
704.231,1286.60
705.207,1288.10
706.184,1314.87
707.161,1313.87
708.137,1275.70
709.113,1260.43
710.090,1253.43
711.068,1218.93
712.044,1255.37
713.020,1255.70
713.996,1228.20
714.971,1220.47
715.947,1270.57
716.922,1228.57
717.898,1219.77
718.873,1271.33
719.848,1258.93
720.823,1188.17
721.798,1234.07
722.773,1242.60
723.748,1246.27
724.723,1219.70
725.697,1210.20
726.672,1239.60
727.646,1204.27
728.622,1210.80
729.596,1217.90
730.570,1205.60
731.544,1196.40
732.518,1187.07
733.492,1171.83
734.466,1179.77
735.439,1196.73
736.413,1167.80
737.386,1179.40
738.359,1163.73
739.332,1192.73
740.305,1189.57
741.278,1150.17
742.251,1168.50
743.224,1172.97
744.196,1164.03
745.171,1181.27
746.143,1159.50
747.115,1154.10
748.087,1167.53
749.059,1144.60
750.031,1119.23
751.003,1158.20
751.975,1132.07
752.947,1186.03
753.918,1147.90
754.890,1181.53
755.861,1166.77
756.832,1158.90
757.803,1141.17
758.774,1170.60
759.747,1127.97
760.718,1139.23
761.689,1090.47
762.659,1118.23
763.630,1139.57
764.600,1097.23
765.570,1106.53
766.540,1159.33
767.510,1118.93
768.480,1108.83
769.450,1116.60
770.420,1069.30
771.390,1107.93
772.359,1122.47
773.329,1109.03
774.300,1109.17
775.269,1126.73
776.238,1097.03
777.207,1086.60
778.176,1101.77
779.145,1095.43
780.114,1127.63
781.083,1070.00
782.051,1106.20
783.019,1094.77
783.988,1118.77
784.956,1053.90
785.924,1074.23
786.894,1083.67
787.862,1080.93
788.830,1067.27
789.797,1042.20
790.765,1066.13
791.732,1096.73
792.700,1122.23
793.667,1114.47
794.634,1050.30
795.601,1049.37
796.568,1078.53
797.535,1055.53
798.502,1029.40
799.468,1064.20
800.437,1035.23
801.403,1036.80
802.370,1007.57
803.336,1044.93
804.302,1014.90
805.268,1023.57
806.234,1009.00
807.200,1021.73
808.166,1042.00
809.131,1071.30
810.097,999.37
811.062,1026.93
812.027,1004.57
812.994,1027.63
813.960,1021.47
814.925,1004.97
815.889,1031.70
816.854,973.17
817.819,1006.90
818.783,984.60
819.748,1011.13
820.712,1005.03
821.677,1006.47
822.641,964.20
823.605,997.10
824.571,1002.03
825.534,995.20
826.498,967.53
827.462,1006.10
828.425,964.23
829.389,990.37
830.352,974.23
831.315,973.17
832.279,982.10
833.242,971.80
834.204,967.13
835.167,956.70
836.132,982.37
837.095,997.63
838.057,967.97
839.020,930.87
839.982,981.67
840.944,977.20
841.906,949.10
842.868,975.20
843.830,990.87
844.792,970.73
845.753,981.47
846.715,991.87
847.679,959.63
848.640,951.03
849.601,962.80
850.562,973.30
851.523,994.60
852.484,986.97
853.445,955.40
854.406,953.77
855.367,938.13
856.327,938.17
857.288,926.30
858.248,936.27
859.210,976.93
860.170,954.40
861.130,947.50
862.090,944.23
863.050,903.53
864.010,960.23
864.969,982.30
865.929,953.90
866.888,985.70
867.848,962.57
868.807,948.23
869.766,953.30
870.727,957.50
871.686,941.47
872.645,931.87
873.604,955.43
874.562,929.30
875.521,950.53
876.479,934.53
877.437,959.57
878.396,951.03
879.354,924.40
880.312,934.67
881.270,936.53
882.229,900.13
883.187,929.13
884.145,921.87
885.102,963.63
886.059,937.90
887.017,933.80
887.974,961.47
888.931,911.80
889.888,946.57
890.845,922.10
891.802,943.43
892.758,894.87
893.717,960.13
894.673,937.00
895.630,905.80
896.586,914.80
897.542,951.17
898.498,924.97
899.454,985.47
900.410,910.43
901.366,943.80
902.321,922.57
903.277,926.37
904.232,939.73
905.189,945.43
906.145,911.03
907.100,926.73
908.055,933.23
909.010,922.47
909.965,930.37
910.919,913.10
911.874,929.40
912.828,945.90
913.783,909.67
914.737,927.57
915.693,936.07
916.648,926.07
917.602,927.43
918.555,928.87
919.509,920.20
920.463,951.23
921.417,940.30
922.370,928.63
923.324,918.50
924.277,936.73
925.230,938.70
926.183,913.20
927.138,933.03
928.091,910.97
929.044,943.37
929.996,947.33
930.949,939.50
931.902,921.27
932.854,931.67
933.806,927.67
934.758,948.17
935.711,938.00
936.663,952.37
937.614,944.83
938.568,947.50
939.520,904.37
940.471,991.90
941.423,925.47
942.374,898.50
943.326,948.23
944.277,908.63
945.228,941.53
946.179,956.73
947.130,946.53
948.080,978.33
949.031,951.43
949.984,929.13
950.934,973.30
951.884,926.20
952.835,926.70
953.785,919.77
954.735,947.97
955.685,920.77
956.635,946.10
957.585,939.50
958.534,908.47
959.484,928.30
960.433,910.87
961.383,924.30
962.334,941.73
963.283,956.70
964.232,933.67
965.181,971.40
966.130,946.67
967.079,946.23
968.027,926.23
968.976,958.80
969.924,948.43
970.873,916.10
971.821,989.67
972.769,954.87
973.719,970.43
974.667,952.50
975.615,971.47
976.562,958.53
977.510,948.47
978.458,941.90
979.405,926.77
980.352,975.63
981.300,940.87
982.247,932.03
983.194,928.87
984.141,979.47
985.088,952.67
986.036,951.13
986.983,967.50
987.930,948.47
988.876,949.07
989.822,974.23
990.769,956.30
991.715,958.10
992.661,992.70
993.607,975.07
994.553,982.67
995.498,971.17
996.444,973.87
997.389,986.03
998.337,980.53
999.282,918.13
1000.227,959.50
1001.173,951.00
1002.118,952.57
1003.062,965.07
1004.007,960.83
1004.952,971.90
1005.897,968.43
1006.841,973.83
1007.786,988.70
1008.730,1006.30
1009.674,983.63
1010.618,968.93
1011.564,990.90
1012.508,974.57
1013.452,1007.97
1014.396,969.40
1015.339,1016.33
1016.283,980.73
1017.226,979.40
1018.170,985.13
1019.113,999.70
1020.056,968.33
1020.999,1020.63
1021.942,998.30
1022.885,986.93
1023.828,999.47
1024.770,1015.10
1025.715,1019.17
1026.657,954.40
1027.600,998.07
1028.542,987.00
1029.484,990.23
1030.426,1023.03
1031.368,1045.70
1032.310,979.00
1033.251,985.27
1034.193,1020.63
1035.135,1031.97
1036.076,992.03
1037.017,1065.80
1037.959,1012.90
1038.900,970.43
1039.843,1015.53
1040.784,997.97
1041.725,1038.57
1042.665,1029.17
1043.606,1068.30
1044.547,1024.07
1045.487,1028.40
1046.427,1073.23
1047.368,989.53
1048.308,1036.17
1049.248,1028.47
1050.188,1079.40
1051.128,1057.10
1052.067,1095.93
1053.007,1033.57
1053.947,1080.87
1054.886,1049.43
1055.827,1070.90
1056.766,1067.53
1057.706,1087.00
1058.645,1064.27
1059.584,1068.57
1060.522,1052.13
1061.461,1108.43
1062.400,1105.20
1063.338,1082.87
1064.277,1096.47
1065.215,1098.77
1066.154,1093.03
1067.092,1098.30
1068.030,1112.23
1068.968,1090.43
1069.906,1098.07
1070.843,1104.70
1071.781,1126.40
1072.720,1100.27
1073.658,1118.50
1074.595,1114.37
1075.533,1126.53
1076.470,1094.00
1077.407,1164.57
1078.344,1092.90
1079.281,1122.50
1080.217,1160.90
1081.154,1126.63
1082.091,1149.37
1083.027,1136.13
1083.964,1125.37
1084.900,1130.00
1085.836,1099.20
1086.772,1181.37
1087.708,1157.53
1088.644,1145.30
1089.580,1118.60
1090.515,1125.43
1091.451,1120.73
1092.388,1146.43
1093.324,1159.90
1094.259,1214.77
1095.194,1142.70
1096.129,1129.10
1097.064,1100.00
1097.999,1111.13
1098.934,1130.63
1099.869,1137.67
1100.803,1147.63
1101.738,1130.67
1102.672,1107.37
1103.607,1093.60
1104.541,1108.63
1105.475,1105.47
1106.409,1153.53
1107.343,1121.80
1108.277,1061.27
1109.210,1093.47
1110.144,1096.23
1111.078,1092.87
1112.011,1053.57
1112.944,1104.23
1113.878,1086.43
1114.811,1063.10
1115.744,1092.00
1116.678,1094.73
1117.611,1072.40
1118.544,1079.57
1119.477,1069.43
1120.409,1047.27
1121.342,1060.50
1122.274,1062.20
1123.206,1056.07
1124.138,1055.13
1125.070,1048.80
1126.002,1049.43
1126.934,1031.93
1127.866,1005.50
1128.798,1034.17
1129.729,1028.67
1130.661,1001.43
1131.592,1034.83
1132.523,1012.47
1133.454,1007.20
1134.385,1007.17
1135.317,1003.57
1136.247,986.50
1137.178,974.67
1138.109,1008.47
1139.039,1003.03
1139.970,996.07
1140.900,1011.00
1141.831,1012.67
1142.761,963.77
1143.691,973.13
1144.621,990.90
1145.551,976.23
1146.480,983.20
1147.410,1001.10
1148.340,1002.10
1149.269,956.97
1150.199,943.57
1151.128,979.93
1152.057,980.53
1152.979,975.77
1153.898,985.10
1154.819,989.57
1155.739,975.30
1156.658,974.63
1157.579,973.47
1158.498,938.00
1159.419,934.47
1160.338,983.13
1161.256,990.33
1162.177,957.97
1163.095,978.67
1164.016,986.93
1164.934,977.77
1165.852,977.37
1166.772,951.20
1167.690,926.53
1168.610,944.53
1169.528,945.53
1170.446,967.70
1171.365,927.97
1172.283,963.70
1173.202,959.80
1174.120,911.37
1175.037,952.10
1175.956,941.63
1176.873,933.87
1177.792,976.40
1178.709,973.40
1179.626,945.70
1180.544,985.80
1181.461,955.80
1182.379,983.63
1183.296,959.73
1184.212,913.80
1185.130,944.93
1186.046,971.93
1186.962,942.93
1187.880,961.97
1188.796,975.03
1189.714,952.93
1190.629,946.70
1191.545,927.90
1192.462,930.87
1193.378,936.80
1194.295,981.87
1195.210,962.23
1196.125,960.33
1197.042,978.50
1197.957,971.73
1198.872,988.10
1199.788,982.77
1200.703,909.33
1201.619,993.57
1202.534,970.73
1203.448,999.53
1204.364,1002.77
1205.278,952.43
1206.192,965.20
1207.108,979.03
1208.022,956.70
1208.938,977.27
1209.851,1024.63
1210.765,985.93
1211.680,1017.10
1212.594,1002.97
1213.507,1007.90
1214.422,1020.27
1215.335,1079.57
1216.248,1019.70
1217.163,1050.87
1218.076,1007.47
1218.990,1007.57
1219.903,1032.57
1220.816,1010.27
1221.730,999.67
1222.642,1028.87
1223.554,1065.27
1224.469,1025.57
1225.380,1056.53
1226.292,1048.53
1227.206,1067.27
1228.118,1049.83
1229.032,1060.40
1229.943,1054.43
1230.855,1090.60
1231.768,1053.20
1232.679,1043.07
1233.590,1073.73
1234.503,1054.57
1235.414,1075.03
1236.325,1074.77
1237.238,1111.23
1238.149,1058.07
1239.059,1067.00
1239.972,1084.77
1240.882,1097.80
1241.793,1133.03
1242.705,1105.67
1243.615,1105.20
1244.525,1132.43
1245.437,1126.33
1246.347,1087.00
1247.259,1161.33
1248.168,1160.13
1249.078,1106.93
1249.989,1139.53
1250.899,1151.90
1251.808,1132.07
1252.719,1187.63
1253.628,1130.43
1254.537,1138.20
1255.448,1146.77
1256.357,1150.90
1257.266,1179.17
1258.176,1108.27
1259.085,1143.40
1259.993,1161.93
1260.904,1162.80
1261.812,1198.13
1262.720,1206.70
1263.630,1198.87
1264.538,1183.57
1265.446,1182.30
1266.356,1184.87
1267.263,1217.53
1268.171,1212.43
1269.080,1208.80
1269.988,1214.53
1270.895,1181.23
1271.804,1201.73
1272.711,1235.00
1273.619,1206.93
1274.527,1197.33
1275.434,1197.83
1276.341,1216.43
1277.248,1204.67
1278.156,1181.87
1279.063,1193.93
1279.969,1205.77
1280.877,1212.13
1281.783,1242.13
1282.690,1242.50
1283.598,1241.20
1284.503,1198.47
1285.409,1201.20
1286.317,1175.20
1287.223,1199.90
1288.128,1176.70
1289.036,1187.00
1289.941,1174.10
1290.846,1155.53
1291.751,1164.60
1292.658,1179.03
1293.563,1179.43
1294.468,1190.20
1295.375,1207.97
1296.280,1166.63
1297.184,1154.93
1298.091,1167.20
1298.995,1224.13
1299.900,1166.67
1300.806,1128.80
1301.710,1122.67
1302.614,1125.23
1303.518,1174.07
1304.424,1119.47
1305.327,1144.67
1306.231,1141.33
1307.137,1088.00
1308.040,1096.40
1308.943,1102.93
1309.847,1105.23
1310.752,1093.77
1311.655,1064.87
1312.558,1084.20
1313.463,1070.37
1314.366,1072.20
1315.269,1068.30
1316.171,1066.27
1317.076,1042.73
1317.978,1039.80
1318.881,1048.77
1319.785,997.13
1320.687,1048.13
1321.589,1026.97
1322.491,1003.53
1323.395,994.60
1324.297,971.70
1325.198,1017.77
1326.102,1007.20
1327.004,1009.17
1327.905,991.50
1328.806,957.73
1329.709,961.90
1330.611,1002.97
1331.512,994.80
1332.413,962.60
1333.316,955.93
1334.216,954.87
1335.117,938.40
1336.020,936.03
1336.920,899.60
1337.821,923.50
1338.721,905.43
1339.623,940.13
1340.523,907.17
1341.423,909.60
1342.323,871.60
1343.225,896.77
1344.125,902.97
1345.025,880.80
1345.924,894.10
1346.826,865.87
1347.725,866.97
1348.624,870.30
1349.524,861.50
1350.425,853.67
1351.324,825.57
1352.223,838.20
1353.121,829.90
1354.022,808.57
1354.921,840.87
1355.819,828.77
1356.718,814.70
1357.618,829.60
1358.516,821.87
1359.415,783.77
1360.313,823.57
1361.213,804.23
1362.111,841.83
1363.008,760.07
1363.906,796.23
1364.806,779.97
1365.703,773.70
1366.601,787.00
1367.498,790.77
1368.397,762.20
1369.295,782.73
1370.192,744.80
1371.089,748.63
1371.987,752.43
1372.884,796.00
1373.781,731.73
1374.678,744.10
1375.574,762.77
1376.473,728.23
1377.369,733.63
1378.265,751.20
1379.161,732.33
1380.059,717.90
1380.955,768.93
1381.851,720.50
1382.747,754.53
1383.643,685.77
1384.540,725.47
1385.436,706.27
1386.331,725.27
1387.227,716.17
1388.124,718.70
1389.019,702.47
1389.914,704.13
1390.809,708.50
1391.704,715.33
1392.601,709.67
1393.495,700.73
1394.390,684.23
1395.285,689.40
1396.179,634.47
1397.075,670.80
1397.969,684.77
1398.864,670.37
1399.758,685.37
1400.652,683.37
1401.547,668.50
1402.441,669.87
1403.335,684.30
1404.229,666.20
1405.122,659.13
1406.017,673.33
1406.911,687.20
1407.804,699.67
1408.697,682.27
1409.590,631.30
1410.485,667.77
1411.378,661.93
1412.271,646.50
1413.163,616.60
1414.056,647.20
1414.949,637.30
1415.843,665.00
1416.735,633.10
1417.627,617.10
1418.520,632.53
1419.412,604.43
1420.306,623.60
1421.197,644.23
1422.089,616.27
1422.981,606.97
1423.873,641.40
1424.764,627.47
1425.657,620.13
1426.549,641.80
1427.440,586.73
1428.331,623.40
1429.222,627.60
1430.113,596.33
1431.006,608.07
1431.897,609.30
1432.787,612.90
1433.678,587.60
1434.568,603.13
1435.459,587.37
1436.351,593.07
1437.241,603.57
1438.131,614.77
1439.021,617.83
1439.911,615.07
1440.801,591.83
1441.693,611.60
1442.583,611.07
1443.472,588.13
1444.362,600.73
1445.251,592.90
1446.140,573.07
1447.030,608.27
1447.921,581.70
1448.810,612.00
1449.699,585.67
1450.588,584.23
1451.476,588.33
1452.365,586.47
1453.254,560.17
1454.144,577.97
1455.032,630.63
1455.921,612.17
1456.809,625.37
1457.697,560.93
1458.585,567.17
1459.473,589.67
1460.361,572.83
1461.251,558.40
1462.138,564.87
1463.026,575.53
1463.913,583.33
1464.801,559.33
1465.688,560.27
1466.575,544.40
1467.463,586.57
1468.351,571.40
1469.238,568.87
1470.125,558.80
1471.012,587.53
1471.899,559.33
1472.785,542.63
1473.672,528.27
1474.558,548.27
1475.446,579.33
1476.333,557.10
1477.219,529.57
1478.105,570.23
1478.991,530.67
1479.877,559.37
1480.762,541.20
1481.648,544.13
1482.534,510.80
1483.419,555.13
1484.307,507.00
1485.192,529.87
1486.077,562.27
1486.962,555.73
1487.847,563.53
1488.732,493.93
1489.617,531.57
1490.502,527.67
1491.387,515.20
1492.271,575.70
1493.156,493.00
1494.042,478.53
1494.927,515.67
1495.811,537.20
1496.695,458.87
1497.579,531.93
1498.463,540.77
1499.347,502.90
1500.231,554.50
1501.114,516.10
1501.998,548.60
1502.881,498.83
1503.765,553.10
1504.648,465.60
1505.533,531.30
1506.417,540.10
1507.300,515.67
1508.183,514.70
1509.066,509.63
1509.948,517.80
1510.831,514.63
1511.714,486.40
1512.596,509.20
1513.479,483.03
1514.361,535.23
1515.243,516.47
1516.125,507.03
1517.008,529.17
1517.890,546.00
1518.771,501.17
1519.655,522.97
1520.537,535.37
1521.419,517.67
1522.300,464.27
1523.182,491.47
1524.063,488.93
1524.944,508.57
1525.825,507.50
1526.707,489.80
1527.588,483.53
1528.468,520.07
1529.349,481.20
1530.230,502.10
1531.111,464.43
1531.991,483.80
1532.872,478.93
1533.752,480.17
1534.632,465.40
1535.513,500.17
1536.393,526.73
1537.273,512.47
1538.153,513.73
1539.032,498.77
1539.912,490.07
1540.792,476.97
1541.672,480.27
1542.551,464.97
1543.430,443.90
1544.310,491.00
1545.189,427.10
1546.068,449.10
1546.947,454.03
1547.826,490.53
1548.705,502.23
1549.584,471.63
1550.462,468.27
1551.341,484.43
1552.219,444.47
1553.098,483.37
1553.976,492.10
1554.854,494.47
1555.733,498.80
1556.611,497.77
1557.489,430.37
1558.367,457.07
1559.244,471.77
1560.122,473.23
1561.000,477.03
1561.877,458.10
1562.755,480.27
1563.632,490.30
1564.509,450.00
1565.386,467.23
1566.264,432.63
1567.141,471.43
1568.017,424.47
1568.894,449.60
1569.771,468.90
1570.648,475.43
1571.524,463.77
1572.401,435.57
1573.277,455.20
1574.153,487.77
1575.029,458.47
1575.906,456.97
1576.781,463.17
1577.657,453.33
1578.533,432.07
1579.409,461.87
1580.285,450.40
1581.160,434.77
1582.036,423.97
1582.911,438.17
1583.786,450.27
1584.662,439.90
1585.537,480.07
1586.412,422.33
1587.287,464.40
1588.160,467.63
1589.035,421.03
1589.909,461.27
1590.784,449.03
1591.658,436.47
1592.533,436.97
1593.407,461.07
1594.281,423.90
1595.155,453.30
1596.029,447.10
1596.903,443.63
1597.777,448.40
1598.651,428.53
1599.525,447.57
1600.398,456.13
1601.272,454.47
1602.144,413.50
1603.017,411.77
1603.890,441.50
1604.763,448.60
1605.636,431.50
1606.509,436.87
1607.382,403.13
1608.255,466.97
1609.128,445.27
1610.000,417.90
1610.873,425.40
1611.746,466.40
1612.616,466.13
1613.488,423.13
1614.361,443.43
1615.233,433.13
1616.105,449.10
1616.977,443.00
1617.849,439.43
1618.720,416.33
1619.592,429.60
1620.464,416.70
1621.333,427.23
1622.205,406.73
1623.076,452.83
1623.947,426.07
1624.818,447.57
1625.689,430.73
1626.560,435.13
1627.431,408.13
1628.302,425.87
1629.171,415.00
1630.042,451.10
1630.912,432.80
1631.782,411.77
1632.653,427.37
1633.523,407.80
1634.393,411.57
1635.263,423.17
1636.131,388.03
1637.001,404.83
1637.871,434.47
1638.741,410.50
1639.611,399.93
1640.480,390.47
1641.350,393.17
1642.219,383.30
1643.087,420.03
1643.956,453.30
1644.825,440.47
1645.694,422.97
1646.563,414.40
1647.432,386.00
1648.299,430.17
1649.167,412.93
1650.036,429.53
1650.904,470.10
1651.773,448.50
1652.641,403.93
1653.509,373.60
1654.376,428.47
1655.244,384.00
1656.112,425.23
1656.980,410.10
1657.847,383.37
1658.715,409.27
1659.581,426.50
1660.448,431.07
1661.316,415.53
1662.183,406.50
1663.051,388.23
1663.918,384.90
1664.783,422.27
1665.650,447.00
1666.517,407.03
1667.384,390.50
1668.251,389.20
1669.115,405.70
1669.982,421.53
1670.849,402.07
1671.715,398.37
1672.581,392.50
1673.446,396.37
1674.312,410.43
1675.178,392.30
1676.044,388.37
1676.910,398.83
1677.774,409.07
1678.639,417.00
1679.505,392.73
1680.370,429.80
1681.236,386.17
1682.099,424.93
1682.965,444.80
1683.830,414.13
1684.695,386.03
1685.560,393.90
1686.423,403.40
1687.288,396.23
1688.153,441.40
1689.017,391.03
1689.880,385.83
1690.745,403.77
1691.609,359.37
1692.473,395.17
1693.338,410.27
1694.200,392.47
1695.064,344.93
1695.928,395.70
1696.792,416.23
1697.654,410.57
1698.517,369.07
1699.381,408.23
1700.245,377.03
1701.106,421.07
1701.969,397.97
1702.833,410.00
1703.696,383.13
1704.557,413.03
1705.420,416.27
1706.283,361.30
1707.146,400.13
1708.007,379.47
1708.870,386.73
1709.732,377.00
1710.595,379.37
1711.455,395.30
1712.318,351.10
1713.180,423.07
1714.040,378.60
1714.902,378.10
1715.764,382.20
1716.626,396.60
1717.486,391.13
1718.348,393.43
1719.209,574.03
1720.071,394.33
1720.930,395.87
1721.792,387.47
1722.653,403.40
1723.512,425.03
1724.374,367.00
1725.234,403.60
1726.095,384.13
1726.954,383.20
1727.815,354.30
1728.676,389.33
1729.535,360.40
1730.395,404.83
1731.256,383.33
1732.114,357.37
1732.974,389.20
1733.834,391.97
1734.693,394.50
1735.553,346.47
1736.413,395.00
1737.272,430.37
1738.130,370.60
1738.990,364.07
1739.849,375.13
1740.707,362.97
1741.566,382.93
1742.426,389.53
1743.283,429.63
1744.142,380.33
1745.001,352.90
1745.858,370.83
1746.717,405.80
1747.576,395.43
1748.433,344.97
1749.292,430.83
1750.150,346.03
1751.007,382.30
1751.865,357.87
1752.723,405.90
1753.579,365.07
1754.438,368.47
1755.296,362.20
1756.152,359.17
1757.010,385.93
1757.865,389.13
1758.723,388.40
1759.581,379.60
1760.436,337.33
1761.294,344.20
1762.151,379.17
1763.006,368.67
1763.864,375.87
1764.721,381.60
1765.576,365.80
1766.433,387.37
1767.288,368.37
1768.144,366.07
1769.001,410.27
1769.856,385.87
1770.712,387.43
1771.568,349.03
1772.423,394.17
1773.279,366.30
1774.133,367.73
1774.989,388.83
1775.845,408.23
1776.699,360.47
1777.555,338.40
1778.409,391.43
1779.265,389.53
1780.120,353.93
1780.974,376.23
1781.829,355.47
1782.682,398.73
1783.538,360.60
1784.393,411.60
1785.246,397.47
1786.101,387.47
1786.954,347.07
1787.808,365.90
1788.661,365.10
1789.516,349.87
1790.370,365.43
1791.223,393.90
1792.077,382.43
1792.930,354.73
1793.784,379.53
1794.636,376.40
1795.490,340.13
1796.344,330.30
1797.196,339.37
1798.049,380.27
1798.901,359.37
1799.755,358.40
1800.606,354.60
1801.460,393.50
1802.311,349.37
1803.165,362.93
1804.018,359.70
1804.869,404.63
1805.722,364.80
1806.573,393.90
1807.426,388.23
1808.276,359.87
1809.129,336.33
1809.980,386.60
1810.832,325.73
1811.683,358.57
1812.535,341.37
1813.385,351.90
1814.237,340.97
1815.089,346.03
1815.940,339.50
1816.791,349.17
1817.641,369.20
1818.493,377.20
1819.343,354.43
1820.194,330.77
1821.044,335.53
1821.895,356.50
1822.745,341.73
1823.596,368.03
1824.445,384.97
1825.296,371.63
1826.145,368.40
1826.996,364.97
1827.845,350.27
1828.695,337.90
1829.544,345.83
1830.395,388.53
1831.243,387.97
1832.094,353.23
1832.942,361.77
1833.792,366.53
1834.640,324.00
1835.490,341.73
1836.338,340.63
1837.186,346.17
1838.036,350.50
1838.884,356.77
1839.733,354.50
1840.581,348.47
1841.430,321.67
1842.278,381.97
1843.127,355.97
1843.974,338.13
1844.823,324.60
1845.671,356.67
1846.519,321.30
1847.366,341.07
1848.213,329.90
1849.062,334.50
1849.909,339.03
1850.757,366.20
1851.604,346.50
1852.452,345.73
1853.298,364.77
1854.146,341.20
1854.993,336.87
1855.839,358.03
1856.687,331.13
1857.532,361.50
1858.380,383.40
1859.226,322.70
1860.073,315.47
1860.919,349.03
1861.765,332.43
1862.612,364.73
1863.457,313.20
1864.304,386.20
1865.150,367.87
1865.995,351.53
1866.842,350.73
1867.686,349.97
1868.533,360.27
1869.378,333.77
1870.223,324.13
1871.069,365.23
1871.914,354.10
1872.760,321.50
1873.604,360.97
1874.448,358.67
1875.294,347.43
1876.139,360.17
1876.984,365.03
1877.828,321.97
1878.672,349.13
1879.518,336.77
1880.361,356.00
1881.205,340.13
1882.050,356.53
1882.894,345.30
1883.739,364.27
1884.582,343.13
1885.425,304.23
1886.270,387.53
1887.113,372.40
1887.956,335.63
1888.801,340.50
1889.644,348.20
1890.486,325.53
1891.331,348.03
1892.173,369.90
1893.017,356.10
1893.860,313.73
1894.702,366.20
1895.546,366.17
1896.388,339.03
1897.230,351.97
1898.074,339.87
1898.916,322.80
1899.757,319.30
1900.601,355.37
1901.443,355.87
1902.284,347.70
1903.125,390.03
1903.969,360.57
1904.810,356.63
1905.651,321.90
1906.494,392.27
1907.335,338.83
1908.176,316.43
1909.018,362.03
1909.859,336.47
1910.700,304.10
1911.542,338.90
1912.383,360.90
1913.223,299.80
1914.064,319.07
1914.906,331.43
1915.746,334.20
1916.586,363.50
1917.428,332.20
1918.268,338.97
1919.107,322.30
1919.947,342.73
1920.789,357.27
1921.628,362.53
1922.468,389.27
1923.309,339.57
1924.148,350.10
1924.988,340.37
1925.827,338.13
1926.667,323.60
1927.507,347.23
1928.345,346.23
1929.184,361.77
1930.025,320.40
1930.864,320.37
1931.702,346.13
1932.541,358.83
1933.381,344.80
1934.219,374.87
1935.057,337.63
1935.896,313.83
1936.735,338.60
1937.573,331.27
1938.411,341.83
1939.249,301.97
1940.089,327.90
1940.927,344.97
1941.764,364.23
1942.602,342.37
1943.439,336.90
1944.278,338.60
1945.115,358.87
1945.953,334.87
1946.790,315.40
1947.628,342.67
1948.465,350.23
1949.302,349.57
1950.139,351.57
1950.976,347.97
1951.814,342.40
1952.651,342.63
1953.487,323.60
1954.323,301.53
1955.160,353.63
1955.998,307.17
1956.834,343.43
1957.670,367.63
1958.506,331.90
1959.342,324.33
1960.177,311.73
1961.015,364.80
1961.850,326.43
1962.686,314.90
1963.521,334.90
1964.357,330.73
1965.192,340.30
1966.029,378.83
1966.864,337.00
1967.699,295.30
1968.534,312.43
1969.369,348.17
1970.204,325.13
1971.040,317.13
1971.875,334.27
1972.709,324.93
1973.544,319.63
1974.378,323.73
1975.212,317.73
1976.047,323.47
1976.882,319.10
1977.716,328.70
1978.550,336.23
1979.384,329.53
1980.218,361.63
1981.052,310.63
1981.885,323.40
1982.719,294.80
1983.554,333.20
1984.388,325.90
1985.221,324.00
1986.054,329.50
1986.887,315.53
1987.720,324.60
1988.553,337.40
1989.386,340.30
1990.219,321.77
1991.053,345.00
1991.886,322.50
1992.719,330.70
1993.551,349.40
1994.383,321.13
1995.216,337.63
1996.048,371.87
1996.880,338.73
1997.712,333.40
1998.544,329.23
1999.376,342.10
2000.208,300.60
2000.208,300.60

Max Intensity Wave.,223.016
Max Intensity Data,5399.33
Min Intensity Wave.,1982.719
Min Intensity Data,294.80
FWHM Wave.,402.254
FWHM Value,0.60
Pressure Wave.,687.613
Pressure Value [GPa],-17.20203
G/D Ratio,0.42866
G/D Gband Wave.,1548.509
G/D Gband Intensity,503.29
G/D Dband Wave.,1303.494
G/D Dband Intensity,1174.10

<< BACKGROUND SPECTRUM >>
Wave[dcm-1],No201
146.591,2262.00
147.626,2117.00
148.664,2065.00
149.699,2511.00
150.737,2232.00
151.772,2409.00
152.809,2386.00
153.846,2303.00
154.881,2391.00
155.918,1961.00
156.953,2291.00
157.989,2572.00
159.026,2446.00
160.060,2607.00
161.096,2855.00
162.130,2502.00
163.167,2564.00
164.200,2440.00
165.236,2606.00
166.272,2671.00
167.305,2288.00
168.341,2549.00
169.374,2732.00
170.409,2756.00
171.445,2730.00
172.477,2493.00
173.512,2386.00
174.545,2680.00
175.580,2873.00
176.614,3017.00
177.647,2838.00
178.681,3036.00
179.713,3277.00
180.747,2790.00
181.781,2730.00
182.813,2969.00
183.847,3093.00
184.878,2703.00
185.912,2969.00
186.945,3085.00
187.976,3070.00
189.010,2686.00
190.043,2846.00
191.073,2923.00
192.106,2714.00
193.137,3189.00
194.170,2577.00
195.202,2921.00
196.232,2666.00
197.265,2988.00
198.297,3031.00
199.327,2791.00
200.359,2911.00
201.388,3293.00
202.420,2909.00
203.452,3090.00
204.481,2658.00
205.512,3279.00
206.544,3035.00
207.573,3047.00
208.604,3381.00
209.635,3505.00
210.663,2907.00
211.694,2963.00
212.725,2783.00
213.753,2802.00
214.783,3382.00
215.813,3218.00
216.841,3022.00
217.871,3147.00
218.899,2900.00
219.929,3108.00
220.959,2861.00
221.986,3181.00
223.016,2727.00
224.045,3145.00
225.072,3057.00
226.101,3159.00
227.130,3239.00
228.157,2799.00
229.185,2338.00
230.214,3178.00
231.241,2807.00
232.269,2478.00
233.297,2706.00
234.323,3209.00
235.351,2792.00
236.379,3078.00
237.407,2733.00
238.433,2932.00
239.460,3059.00
240.488,3112.00
241.513,3209.00
242.540,3102.00
243.568,3152.00
244.592,3214.00
245.619,3181.00
246.646,2918.00
247.671,2904.00
248.697,2789.00
249.724,3016.00
250.748,3010.00
251.774,2957.00
252.801,3248.00
253.827,3094.00
254.850,3048.00
255.876,2637.00
256.902,3138.00
257.925,2977.00
258.951,2744.00
259.976,2808.00
260.999,3086.00
262.024,2789.00
263.049,3622.00
264.074,3121.00
265.097,3017.00
266.122,3085.00
267.146,2999.00
268.168,3216.00
269.193,2838.00
270.217,3174.00
271.241,2722.00
272.263,2903.00
273.287,3189.00
274.311,2748.00
275.332,3244.00
276.356,2828.00
277.379,3102.00
278.402,3091.00
279.424,2941.00
280.447,2853.00
281.470,2709.00
282.492,3088.00
283.513,2907.00
284.536,3170.00
285.558,3175.00
286.581,3122.00
287.601,2840.00
288.623,2754.00
289.645,3048.00
290.665,3106.00
291.687,3132.00
292.709,3100.00
293.730,3377.00
294.750,2881.00
295.771,2757.00
296.792,3080.00
297.813,2909.00
298.832,3027.00
299.853,2759.00
300.874,2966.00
301.895,2956.00
302.913,2974.00
303.934,3254.00
304.954,2990.00
305.975,3188.00
306.993,2724.00
308.013,3097.00
309.033,2960.00
310.052,2885.00
311.072,2861.00
312.090,3041.00
313.109,3254.00
314.129,3424.00
315.148,2998.00
316.165,3051.00
317.184,3251.00
318.203,2757.00
319.222,2741.00
320.238,3093.00
321.257,2815.00
322.275,2706.00
323.294,2959.00
324.312,3159.00
325.328,3214.00
326.346,3294.00
327.364,3268.00
328.382,3147.00
329.397,3151.00
330.415,3217.00
331.432,3220.00
332.450,3228.00
333.467,3447.00
334.482,2595.00
335.499,3330.00
336.516,2865.00
337.533,2565.00
338.547,2791.00
339.564,2842.00
340.580,3096.00
341.597,2971.00
342.613,3430.00
343.627,2954.00
344.643,2993.00
345.659,3092.00
346.675,2978.00
347.690,2860.00
348.704,3052.00
349.719,2878.00
350.735,2773.00
351.750,3137.00
352.765,3021.00
353.778,2973.00
354.793,3129.00
355.808,2815.00
356.822,3178.00
357.837,2626.00
358.851,3239.00
359.864,2934.00
360.878,2687.00
361.892,2925.00
362.906,3136.00
363.920,2559.00
364.932,3072.00
365.945,3071.00
366.959,3027.00
367.972,2929.00
368.986,2714.00
369.999,3317.00
371.010,2838.00
372.023,3311.00
373.036,2934.00
374.049,3309.00
375.061,3078.00
376.072,3012.00
377.084,2855.00
378.097,2696.00
379.109,3202.00
380.121,2969.00
381.133,2668.00
382.143,3119.00
383.155,2716.00
384.166,2860.00
385.178,3102.00
386.189,3188.00
387.201,2738.00
388.212,2929.00
389.221,2940.00
390.232,3033.00
391.243,2905.00
392.254,3000.00
393.264,2799.00
394.275,3228.00
395.283,3174.00
396.294,3578.00
397.304,3520.00
398.314,3103.00
399.324,3008.00
400.334,2657.00
401.344,3156.00
402.351,2588.00
403.361,3234.00
404.370,2957.00
405.380,2890.00
406.389,3341.00
407.398,3169.00
408.407,3041.00
409.414,3114.00
410.423,3324.00
411.431,2778.00
412.440,2659.00
413.448,3278.00
414.457,2837.00
415.465,2809.00
416.471,2920.00
417.479,3018.00
418.487,2813.00
419.495,3307.00
420.503,3075.00
421.510,2616.00
422.518,3172.00
423.525,3159.00
424.530,3383.00
425.537,2890.00
426.544,3236.00
427.551,2844.00
428.558,3567.00
429.565,3406.00
430.571,2857.00
431.578,2865.00
432.582,2824.00
433.588,2963.00
434.595,2628.00
435.601,3291.00
436.607,3242.00
437.612,2768.00
438.618,3354.00
439.624,2956.00
440.627,2954.00
441.633,3101.00
442.638,3633.00
443.643,3072.00
444.648,3013.00
445.653,3197.00
446.658,2899.00
447.663,3022.00
448.667,2893.00
449.672,2923.00
450.674,2975.00
451.678,2670.00
452.682,2856.00
453.687,2843.00
454.690,3599.00
455.694,3246.00
456.698,2565.00
457.702,2652.00
458.705,2794.00
459.709,2810.00
460.710,2828.00
461.713,3027.00
462.716,3001.00
463.719,2993.00
464.722,3176.00
465.725,2944.00
466.727,2799.00
467.730,3010.00
468.732,2771.00
469.735,3261.00
470.737,2900.00
471.737,2871.00
472.739,2864.00
473.741,2842.00
474.742,3027.00
475.744,3108.00
476.746,3011.00
477.747,2928.00
478.748,3148.00
479.750,2903.00
480.751,3025.00
481.752,3742.00
482.753,3080.00
483.751,3472.00
484.752,2599.00
485.753,2951.00
486.753,2856.00
487.753,2985.00
488.754,3429.00
489.754,2711.00
490.754,3274.00
491.754,3121.00
492.754,2646.00
493.753,3014.00
494.753,2883.00
495.752,3329.00
496.752,3066.00
497.749,3024.00
498.748,2876.00
499.747,3406.00
500.746,3071.00
501.745,2764.00
502.744,2729.00
503.742,3304.00
504.741,2956.00
505.739,2451.00
506.737,2901.00
507.735,3115.00
508.734,3356.00
509.732,3113.00
510.729,3291.00
511.727,2879.00
512.725,2867.00
513.720,2773.00
514.718,3259.00
515.715,2698.00
516.712,2635.00
517.709,2978.00
518.706,2887.00
519.703,2999.00
520.700,3176.00
521.696,3346.00
522.693,2904.00
523.689,2819.00
524.686,3111.00
525.682,2760.00
526.678,3456.00
527.674,2873.00
528.670,2591.00
529.666,3519.00
530.661,3473.00
531.657,3605.00
532.652,3115.00
533.648,2994.00
534.641,3179.00
535.636,3083.00
536.631,3046.00
537.626,3143.00
538.621,2749.00
539.616,2578.00
540.610,2514.00
541.605,3025.00
542.599,3051.00
543.593,2986.00
544.587,3877.00
545.581,2828.00
546.575,3031.00
547.569,3042.00
548.563,2692.00
549.557,2639.00
550.550,2773.00
551.543,2727.00
552.537,3161.00
553.530,2761.00
554.523,2739.00
555.516,3099.00
556.509,2955.00
557.502,2607.00
558.494,3178.00
559.487,2899.00
560.479,3131.00
561.472,3267.00
562.464,3127.00
563.456,3297.00
564.448,2946.00
565.440,3002.00
566.432,3367.00
567.423,2902.00
568.415,2899.00
569.404,3097.00
570.396,2821.00
571.387,3143.00
572.378,2972.00
573.369,3934.00
574.360,3659.00
575.351,2934.00
576.341,2814.00
577.332,2841.00
578.323,2696.00
579.313,2874.00
580.303,3217.00
581.293,3132.00
582.283,2954.00
583.273,3108.00
584.263,3004.00
585.253,3090.00
586.243,3132.00
587.232,2624.00
588.222,2932.00
589.211,3193.00
590.200,3085.00
591.189,2924.00
592.178,2960.00
593.167,3385.00
594.156,3258.00
595.145,2902.00
596.133,3417.00
597.122,3093.00
598.110,3227.00
599.098,3065.00
600.086,3000.00
601.074,3146.00
602.062,2839.00
603.050,2779.00
604.038,3091.00
605.025,2793.00
606.013,3200.00
607.000,3362.00
607.987,3058.00
608.975,3047.00
609.962,2743.00
610.949,3077.00
611.936,3224.00
612.922,3136.00
613.909,2659.00
614.895,3318.00
615.882,2827.00
616.868,2976.00
617.854,2740.00
618.841,3018.00
619.826,3101.00
620.812,2990.00
621.798,2796.00
622.784,3181.00
623.769,3092.00
624.755,2691.00
625.740,3064.00
626.725,2720.00
627.711,2843.00
628.698,3080.00
629.683,2762.00
630.667,3172.00
631.652,2737.00
632.637,2967.00
633.621,3180.00
634.606,2933.00
635.590,3121.00
636.574,2939.00
637.558,3054.00
638.542,3021.00
639.526,2846.00
640.510,2654.00
641.493,2990.00
642.477,3001.00
643.460,2639.00
644.444,3252.00
645.427,3212.00
646.410,2664.00
647.393,2946.00
648.376,3051.00
649.359,2872.00
650.341,3065.00
651.324,3084.00
652.307,3024.00
653.289,2958.00
654.271,2865.00
655.253,2911.00
656.235,3092.00
657.217,3181.00
658.199,2608.00
659.181,2742.00
660.163,2979.00
661.144,2792.00
662.126,2903.00
663.107,2809.00
664.088,6225.00
665.069,3198.00
666.050,2792.00
667.033,2739.00
668.014,3054.00
668.995,2591.00
669.975,2952.00
670.956,3013.00
671.936,3118.00
672.916,2928.00
673.896,3062.00
674.876,2912.00
675.856,2843.00
676.836,2733.00
677.816,2317.00
678.795,2825.00
679.775,2673.00
680.754,3022.00
681.734,3139.00
682.713,3170.00
683.692,2763.00
684.671,2655.00
685.650,2765.00
686.629,2875.00
687.607,2705.00
688.586,2763.00
689.564,2830.00
690.543,3250.00
691.523,2403.00
692.501,2799.00
693.479,2902.00
694.457,2800.00
695.435,2849.00
696.413,2623.00
697.390,2547.00
698.368,2680.00
699.345,3056.00
700.322,2943.00
701.300,3090.00
702.277,3098.00
703.254,3245.00
704.231,2560.00
705.207,2963.00
706.184,2741.00
707.161,2609.00
708.137,2815.00
709.113,2801.00
710.090,2795.00
711.068,2615.00
712.044,2595.00
713.020,2879.00
713.996,2630.00
714.971,2830.00
715.947,2819.00
716.922,2802.00
717.898,2755.00
718.873,2844.00
719.848,2684.00
720.823,2731.00
721.798,2960.00
722.773,2731.00
723.748,2504.00
724.723,3000.00
725.697,2838.00
726.672,2733.00
727.646,2506.00
728.622,2953.00
729.596,2589.00
730.570,2724.00
731.544,3063.00
732.518,3265.00
733.492,2826.00
734.466,2871.00
735.439,2985.00
736.413,3130.00
737.386,2451.00
738.359,2428.00
739.332,2507.00
740.305,2803.00
741.278,3309.00
742.251,2919.00
743.224,2720.00
744.196,2546.00
745.171,3103.00
746.143,3027.00
747.115,2778.00
748.087,2700.00
749.059,3092.00
750.031,2927.00
751.003,3662.00
751.975,3265.00
752.947,2649.00
753.918,3080.00
754.890,2534.00
755.861,2733.00
756.832,3006.00
757.803,2835.00
758.774,2801.00
759.747,2612.00
760.718,3190.00
761.689,2773.00
762.659,2599.00
763.630,3130.00
764.600,2569.00
765.570,3065.00
766.540,3098.00
767.510,2938.00
768.480,3052.00
769.450,2718.00
770.420,2866.00
771.390,2645.00
772.359,2749.00
773.329,2665.00
774.300,2509.00
775.269,2712.00
776.238,2979.00
777.207,3171.00
778.176,2503.00
779.145,2794.00
780.114,2645.00
781.083,2590.00
782.051,2734.00
783.019,2679.00
783.988,3049.00
784.956,2871.00
785.924,2981.00
786.894,2857.00
787.862,2690.00
788.830,3155.00
789.797,2647.00
790.765,2595.00
791.732,2738.00
792.700,2596.00
793.667,2550.00
794.634,2767.00
795.601,2746.00
796.568,2768.00
797.535,2841.00
798.502,3448.00
799.468,2891.00
800.437,2413.00
801.403,2656.00
802.370,3295.00
803.336,2984.00
804.302,2890.00
805.268,2458.00
806.234,2577.00
807.200,2738.00
808.166,2760.00
809.131,2529.00
810.097,3000.00
811.062,3630.00
812.027,3032.00
812.994,2592.00
813.960,2606.00
814.925,2944.00
815.889,2489.00
816.854,3045.00
817.819,2633.00
818.783,2741.00
819.748,3076.00
820.712,2738.00
821.677,2663.00
822.641,2727.00
823.605,2698.00
824.571,3109.00
825.534,2728.00
826.498,2702.00
827.462,2778.00
828.425,2629.00
829.389,3047.00
830.352,2836.00
831.315,2904.00
832.279,2504.00
833.242,2754.00
834.204,2659.00
835.167,2677.00
836.132,3057.00
837.095,2492.00
838.057,2696.00
839.020,2846.00
839.982,2842.00
840.944,2666.00
841.906,2648.00
842.868,2952.00
843.830,2525.00
844.792,3029.00
845.753,2660.00
846.715,2409.00
847.679,2592.00
848.640,2638.00
849.601,2738.00
850.562,3229.00
851.523,2671.00
852.484,2444.00
853.445,2969.00
854.406,2708.00
855.367,2731.00
856.327,3058.00
857.288,2541.00
858.248,2695.00
859.210,2664.00
860.170,2527.00
861.130,3016.00
862.090,2431.00
863.050,2670.00
864.010,2661.00
864.969,2862.00
865.929,2589.00
866.888,2482.00
867.848,2816.00
868.807,2655.00
869.766,2837.00
870.727,2714.00
871.686,2988.00
872.645,3004.00
873.604,3275.00
874.562,2778.00
875.521,2792.00
876.479,3356.00
877.437,2568.00
878.396,2587.00
879.354,3196.00
880.312,2597.00
881.270,2661.00
882.229,3140.00
883.187,2626.00
884.145,2677.00
885.102,2907.00
886.059,2830.00
887.017,2904.00
887.974,2925.00
888.931,3091.00
889.888,2510.00
890.845,2444.00
891.802,2344.00
892.758,2682.00
893.717,2426.00
894.673,2565.00
895.630,2661.00
896.586,2925.00
897.542,2657.00
898.498,2544.00
899.454,2810.00
900.410,2702.00
901.366,2659.00
902.321,2634.00
903.277,2705.00
904.232,2737.00
905.189,2468.00
906.145,2686.00
907.100,2228.00
908.055,2710.00
909.010,2938.00
909.965,2345.00
910.919,2821.00
911.874,2576.00
912.828,2745.00
913.783,2800.00
914.737,2363.00
915.693,2750.00
916.648,2925.00
917.602,2966.00
918.555,2796.00
919.509,2863.00
920.463,2744.00
921.417,2758.00
922.370,2584.00
923.324,2701.00
924.277,2667.00
925.230,2760.00
926.183,2440.00
927.138,2689.00
928.091,2966.00
929.044,2815.00
929.996,2644.00
930.949,2661.00
931.902,2846.00
932.854,2849.00
933.806,2607.00
934.758,2972.00
935.711,3002.00
936.663,2785.00
937.614,2795.00
938.568,2742.00
939.520,2440.00
940.471,2673.00
941.423,2811.00
942.374,2931.00
943.326,2753.00
944.277,2636.00
945.228,2854.00
946.179,2698.00
947.130,3030.00
948.080,2634.00
949.031,2573.00
949.984,2701.00
950.934,2684.00
951.884,2496.00
952.835,2713.00
953.785,2767.00
954.735,2598.00
955.685,2380.00
956.635,2629.00
957.585,2642.00
958.534,2671.00
959.484,2760.00
960.433,2644.00
961.383,2495.00
962.334,2961.00
963.283,2763.00
964.232,2861.00
965.181,2689.00
966.130,2787.00
967.079,2623.00
968.027,2742.00
968.976,2718.00
969.924,2610.00
970.873,2835.00
971.821,2715.00
972.769,2920.00
973.719,2829.00
974.667,2488.00
975.615,2699.00
976.562,2711.00
977.510,2412.00
978.458,2626.00
979.405,2860.00
980.352,2754.00
981.300,2975.00
982.247,2824.00
983.194,2577.00
984.141,2604.00
985.088,2740.00
986.036,2791.00
986.983,3008.00
987.930,3142.00
988.876,2381.00
989.822,2944.00
990.769,2554.00
991.715,2608.00
992.661,2409.00
993.607,2791.00
994.553,3248.00
995.498,2597.00
996.444,2284.00
997.389,2758.00
998.337,2514.00
999.282,2924.00
1000.227,2662.00
1001.173,2745.00
1002.118,2465.00
1003.062,2921.00
1004.007,2692.00
1004.952,3005.00
1005.897,2934.00
1006.841,2702.00
1007.786,2458.00
1008.730,2417.00
1009.674,3158.00
1010.618,2673.00
1011.564,2508.00
1012.508,2416.00
1013.452,2914.00
1014.396,2757.00
1015.339,2595.00
1016.283,2708.00
1017.226,2765.00
1018.170,2716.00
1019.113,2902.00
1020.056,2758.00
1020.999,2701.00
1021.942,2607.00
1022.885,2877.00
1023.828,3008.00
1024.770,2501.00
1025.715,2739.00
1026.657,2722.00
1027.600,2758.00
1028.542,2941.00
1029.484,2755.00
1030.426,2851.00
1031.368,2740.00
1032.310,2621.00
1033.251,2570.00
1034.193,2686.00
1035.135,2490.00
1036.076,2661.00
1037.017,2499.00
1037.959,2836.00
1038.900,2829.00
1039.843,2812.00
1040.784,2782.00
1041.725,2794.00
1042.665,2625.00
1043.606,2743.00
1044.547,2772.00
1045.487,2393.00
1046.427,2653.00
1047.368,2815.00
1048.308,2251.00
1049.248,2533.00
1050.188,2678.00
1051.128,2622.00
1052.067,2619.00
1053.007,2434.00
1053.947,2382.00
1054.886,2592.00
1055.827,2488.00
1056.766,2899.00
1057.706,2449.00
1058.645,2681.00
1059.584,2761.00
1060.522,3001.00
1061.461,2426.00
1062.400,2463.00
1063.338,2646.00
1064.277,2499.00
1065.215,2514.00
1066.154,2412.00
1067.092,2595.00
1068.030,2625.00
1068.968,2874.00
1069.906,3009.00
1070.843,2965.00
1071.781,2738.00
1072.720,2823.00
1073.658,2828.00
1074.595,2599.00
1075.533,2555.00
1076.470,2617.00
1077.407,2942.00
1078.344,2800.00
1079.281,2810.00
1080.217,2290.00
1081.154,2682.00
1082.091,2736.00
1083.027,2460.00
1083.964,2940.00
1084.900,2565.00
1085.836,2640.00
1086.772,2837.00
1087.708,2457.00
1088.644,2829.00
1089.580,2706.00
1090.515,2753.00
1091.451,2623.00
1092.388,2711.00
1093.324,2435.00
1094.259,3161.00
1095.194,2762.00
1096.129,2627.00
1097.064,2602.00
1097.999,2842.00
1098.934,2543.00
1099.869,2548.00
1100.803,2695.00
1101.738,2704.00
1102.672,2413.00
1103.607,2834.00
1104.541,2561.00
1105.475,2546.00
1106.409,2389.00
1107.343,2594.00
1108.277,2472.00
1109.210,2718.00
1110.144,2684.00
1111.078,2666.00
1112.011,2476.00
1112.944,2757.00
1113.878,2744.00
1114.811,2212.00
1115.744,2573.00
1116.678,2296.00
1117.611,2574.00
1118.544,2588.00
1119.477,2740.00
1120.409,2583.00
1121.342,3109.00
1122.274,2732.00
1123.206,3084.00
1124.138,2661.00
1125.070,2967.00
1126.002,2842.00
1126.934,2296.00
1127.866,2593.00
1128.798,2331.00
1129.729,2382.00
1130.661,2684.00
1131.592,2560.00
1132.523,2747.00
1133.454,2763.00
1134.385,2305.00
1135.317,2664.00
1136.247,2601.00
1137.178,2886.00
1138.109,2367.00
1139.039,3011.00
1139.970,2821.00
1140.900,2562.00
1141.831,2336.00
1142.761,2258.00
1143.691,2782.00
1144.621,2646.00
1145.551,2713.00
1146.480,2693.00
1147.410,2836.00
1148.340,2281.00
1149.269,2388.00
1150.199,2619.00
1151.128,3035.00
1152.057,2436.00
1152.979,2570.00
1153.898,2624.00
1154.819,2719.00
1155.739,2630.00
1156.658,2552.00
1157.579,2669.00
1158.498,2669.00
1159.419,2214.00
1160.338,2648.00
1161.256,2669.00
1162.177,2510.00
1163.095,2606.00
1164.016,2684.00
1164.934,2881.00
1165.852,2803.00
1166.772,2629.00
1167.690,2684.00
1168.610,2717.00
1169.528,2659.00
1170.446,2191.00
1171.365,2595.00
1172.283,2524.00
1173.202,2631.00
1174.120,2711.00
1175.037,2507.00
1175.956,2474.00
1176.873,2524.00
1177.792,2515.00
1178.709,3087.00
1179.626,2551.00
1180.544,2833.00
1181.461,2505.00
1182.379,2706.00
1183.296,2634.00
1184.212,2319.00
1185.130,2511.00
1186.046,2951.00
1186.962,2648.00
1187.880,2909.00
1188.796,2667.00
1189.714,2438.00
1190.629,2778.00
1191.545,2717.00
1192.462,2598.00
1193.378,2630.00
1194.295,2325.00
1195.210,2645.00
1196.125,2790.00
1197.042,2701.00
1197.957,2629.00
1198.872,2503.00
1199.788,2542.00
1200.703,3005.00
1201.619,2631.00
1202.534,2502.00
1203.448,2687.00
1204.364,2545.00
1205.278,2327.00
1206.192,2698.00
1207.108,3137.00
1208.022,3023.00
1208.938,2490.00
1209.851,2758.00
1210.765,2869.00
1211.680,2510.00
1212.594,2415.00
1213.507,2564.00
1214.422,3004.00
1215.335,2678.00
1216.248,2553.00
1217.163,2606.00
1218.076,3240.00
1218.990,2752.00
1219.903,2396.00
1220.816,2470.00
1221.730,2628.00
1222.642,2497.00
1223.554,2516.00
1224.469,2732.00
1225.380,2560.00
1226.292,2288.00
1227.206,2738.00
1228.118,2952.00
1229.032,2261.00
1229.943,2524.00
1230.855,2556.00
1231.768,2388.00
1232.679,2741.00
1233.590,2606.00
1234.503,2869.00
1235.414,2493.00
1236.325,2521.00
1237.238,2686.00
1238.149,2752.00
1239.059,2475.00
1239.972,2827.00
1240.882,2455.00
1241.793,2732.00
1242.705,2976.00
1243.615,2590.00
1244.525,2707.00
1245.437,2206.00
1246.347,2729.00
1247.259,2748.00
1248.168,3041.00
1249.078,2906.00
1249.989,2897.00
1250.899,2438.00
1251.808,2524.00
1252.719,2538.00
1253.628,2513.00
1254.537,3015.00
1255.448,2464.00
1256.357,2480.00
1257.266,2625.00
1258.176,2438.00
1259.085,2382.00
1259.993,2456.00
1260.904,2489.00
1261.812,2438.00
1262.720,3212.00
1263.630,2777.00
1264.538,2469.00
1265.446,2735.00
1266.356,2632.00
1267.263,2881.00
1268.171,2418.00
1269.080,2686.00
1269.988,2786.00
1270.895,2552.00
1271.804,2591.00
1272.711,2772.00
1273.619,2781.00
1274.527,2460.00
1275.434,2757.00
1276.341,2419.00
1277.248,2664.00
1278.156,2930.00
1279.063,2520.00
1279.969,2730.00
1280.877,3511.00
1281.783,2801.00
1282.690,2657.00
1283.598,2561.00
1284.503,2496.00
1285.409,2466.00
1286.317,2999.00
1287.223,3018.00
1288.128,2706.00
1289.036,2532.00
1289.941,2588.00
1290.846,2659.00
1291.751,2477.00
1292.658,2537.00
1293.563,3072.00
1294.468,2633.00
1295.375,2754.00
1296.280,2870.00
1297.184,3350.00
1298.091,2716.00
1298.995,2734.00
1299.900,2997.00
1300.806,2557.00
1301.710,2413.00
1302.614,2232.00
1303.518,2845.00
1304.424,2591.00
1305.327,2810.00
1306.231,2587.00
1307.137,2800.00
1308.040,2695.00
1308.943,2667.00
1309.847,2849.00
1310.752,2822.00
1311.655,2320.00
1312.558,2410.00
1313.463,2582.00
1314.366,2514.00
1315.269,2684.00
1316.171,2609.00
1317.076,2520.00
1317.978,2437.00
1318.881,2240.00
1319.785,2533.00
1320.687,2478.00
1321.589,2249.00
1322.491,2475.00
1323.395,2724.00
1324.297,3223.00
1325.198,2740.00
1326.102,2446.00
1327.004,2451.00
1327.905,3005.00
1328.806,2614.00
1329.709,2704.00
1330.611,2529.00
1331.512,2414.00
1332.413,3082.00
1333.316,2676.00
1334.216,2793.00
1335.117,2363.00
1336.020,2661.00
1336.920,2676.00
1337.821,2524.00
1338.721,2903.00
1339.623,2663.00
1340.523,2598.00
1341.423,2504.00
1342.323,2929.00
1343.225,2707.00
1344.125,2446.00
1345.025,2517.00
1345.924,2288.00
1346.826,2982.00
1347.725,3042.00
1348.624,2861.00
1349.524,2486.00
1350.425,2588.00
1351.324,2744.00
1352.223,2809.00
1353.121,2634.00
1354.022,2837.00
1354.921,3016.00
1355.819,2745.00
1356.718,2695.00
1357.618,2388.00
1358.516,2743.00
1359.415,3032.00
1360.313,2711.00
1361.213,2587.00
1362.111,2872.00
1363.008,3298.00
1363.906,2600.00
1364.806,2650.00
1365.703,2726.00
1366.601,2453.00
1367.498,2440.00
1368.397,2841.00
1369.295,2684.00
1370.192,2481.00
1371.089,2731.00
1371.987,2625.00
1372.884,2862.00
1373.781,2452.00
1374.678,2639.00
1375.574,2443.00
1376.473,2770.00
1377.369,2852.00
1378.265,2461.00
1379.161,2586.00
1380.059,2355.00
1380.955,2709.00
1381.851,2409.00
1382.747,2487.00
1383.643,2597.00
1384.540,2430.00
1385.436,2534.00
1386.331,2678.00
1387.227,2799.00
1388.124,2739.00
1389.019,2440.00
1389.914,2604.00
1390.809,2269.00
1391.704,3027.00
1392.601,2522.00
1393.495,2909.00
1394.390,2797.00
1395.285,2883.00
1396.179,2742.00
1397.075,2601.00
1397.969,2699.00
1398.864,2339.00
1399.758,2594.00
1400.652,2641.00
1401.547,2470.00
1402.441,2414.00
1403.335,2951.00
1404.229,2676.00
1405.122,2718.00
1406.017,2605.00
1406.911,2741.00
1407.804,2995.00
1408.697,2588.00
1409.590,2485.00
1410.485,2803.00
1411.378,2679.00
1412.271,2350.00
1413.163,2721.00
1414.056,2779.00
1414.949,3011.00
1415.843,2667.00
1416.735,2609.00
1417.627,2663.00
1418.520,2618.00
1419.412,2891.00
1420.306,2811.00
1421.197,2898.00
1422.089,2854.00
1422.981,3109.00
1423.873,2799.00
1424.764,2743.00
1425.657,2665.00
1426.549,2752.00
1427.440,2866.00
1428.331,2543.00
1429.222,2322.00
1430.113,2702.00
1431.006,2820.00
1431.897,2544.00
1432.787,2666.00
1433.678,2596.00
1434.568,2469.00
1435.459,2888.00
1436.351,2816.00
1437.241,2781.00
1438.131,2776.00
1439.021,2386.00
1439.911,2597.00
1440.801,2705.00
1441.693,2858.00
1442.583,2625.00
1443.472,2640.00
1444.362,2739.00
1445.251,2587.00
1446.140,2584.00
1447.030,2811.00
1447.921,2845.00
1448.810,2439.00
1449.699,3010.00
1450.588,2677.00
1451.476,2542.00
1452.365,2743.00
1453.254,2562.00
1454.144,2521.00
1455.032,2734.00
1455.921,2345.00
1456.809,2891.00
1457.697,2457.00
1458.585,2598.00
1459.473,2565.00
1460.361,2482.00
1461.251,2715.00
1462.138,2715.00
1463.026,2596.00
1463.913,2862.00
1464.801,2557.00
1465.688,2735.00
1466.575,2674.00
1467.463,3065.00
1468.351,2492.00
1469.238,2606.00
1470.125,2251.00
1471.012,2660.00
1471.899,2719.00
1472.785,2477.00
1473.672,2649.00
1474.558,2871.00
1475.446,2744.00
1476.333,2795.00
1477.219,2466.00
1478.105,2594.00
1478.991,2623.00
1479.877,2924.00
1480.762,2639.00
1481.648,2509.00
1482.534,2817.00
1483.419,2699.00
1484.307,2781.00
1485.192,2622.00
1486.077,2478.00
1486.962,2487.00
1487.847,2374.00
1488.732,2523.00
1489.617,2657.00
1490.502,2921.00
1491.387,2794.00
1492.271,2441.00
1493.156,2518.00
1494.042,2506.00
1494.927,2855.00
1495.811,2528.00
1496.695,2858.00
1497.579,2916.00
1498.463,2628.00
1499.347,2711.00
1500.231,2645.00
1501.114,2712.00
1501.998,2884.00
1502.881,2705.00
1503.765,2906.00
1504.648,3102.00
1505.533,2737.00
1506.417,2632.00
1507.300,2611.00
1508.183,2716.00
1509.066,2148.00
1509.948,2874.00
1510.831,2988.00
1511.714,2470.00
1512.596,2776.00
1513.479,2905.00
1514.361,2824.00
1515.243,2661.00
1516.125,2812.00
1517.008,2880.00
1517.890,2570.00
1518.771,2669.00
1519.655,2851.00
1520.537,2573.00
1521.419,2469.00
1522.300,2733.00
1523.182,2790.00
1524.063,2794.00
1524.944,2935.00
1525.825,2823.00
1526.707,2479.00
1527.588,2449.00
1528.468,2700.00
1529.349,2335.00
1530.230,2562.00
1531.111,2859.00
1531.991,2702.00
1532.872,2377.00
1533.752,2638.00
1534.632,2533.00
1535.513,2519.00
1536.393,2757.00
1537.273,2915.00
1538.153,3272.00
1539.032,2394.00
1539.912,2630.00
1540.792,2670.00
1541.672,2662.00
1542.551,2780.00
1543.430,3276.00
1544.310,2672.00
1545.189,2597.00
1546.068,3101.00
1546.947,2788.00
1547.826,2957.00
1548.705,2621.00
1549.584,2886.00
1550.462,2626.00
1551.341,2805.00
1552.219,2735.00
1553.098,2790.00
1553.976,2860.00
1554.854,3045.00
1555.733,2831.00
1556.611,2558.00
1557.489,2501.00
1558.367,2673.00
1559.244,2810.00
1560.122,2642.00
1561.000,2716.00
1561.877,2959.00
1562.755,2527.00
1563.632,2601.00
1564.509,2940.00
1565.386,3024.00
1566.264,2446.00
1567.141,2286.00
1568.017,2838.00
1568.894,2665.00
1569.771,2700.00
1570.648,2760.00
1571.524,2676.00
1572.401,2445.00
1573.277,2446.00
1574.153,2672.00
1575.029,2528.00
1575.906,3353.00
1576.781,2818.00
1577.657,2604.00
1578.533,2908.00
1579.409,2296.00
1580.285,2618.00
1581.160,3097.00
1582.036,2849.00
1582.911,2497.00
1583.786,2989.00
1584.662,2481.00
1585.537,2595.00
1586.412,2730.00
1587.287,2490.00
1588.160,2814.00
1589.035,2351.00
1589.909,2667.00
1590.784,2644.00
1591.658,2476.00
1592.533,2732.00
1593.407,2655.00
1594.281,2574.00
1595.155,3053.00
1596.029,2576.00
1596.903,2613.00
1597.777,2583.00
1598.651,2929.00
1599.525,2374.00
1600.398,2668.00
1601.272,2598.00
1602.144,3215.00
1603.017,2638.00
1603.890,2908.00
1604.763,2757.00
1605.636,2828.00
1606.509,2382.00
1607.382,2529.00
1608.255,2713.00
1609.128,2879.00
1610.000,2640.00
1610.873,2381.00
1611.746,2539.00
1612.616,2571.00
1613.488,2266.00
1614.361,2644.00
1615.233,2623.00
1616.105,2879.00
1616.977,2574.00
1617.849,2500.00
1618.720,2981.00
1619.592,2978.00
1620.464,2770.00
1621.333,3120.00
1622.205,2685.00
1623.076,2619.00
1623.947,2648.00
1624.818,2892.00
1625.689,2784.00
1626.560,2570.00
1627.431,2735.00
1628.302,3049.00
1629.171,2808.00
1630.042,2957.00
1630.912,3261.00
1631.782,3255.00
1632.653,2479.00
1633.523,2829.00
1634.393,2907.00
1635.263,2542.00
1636.131,2682.00
1637.001,2599.00
1637.871,2286.00
1638.741,2327.00
1639.611,2440.00
1640.480,2816.00
1641.350,2554.00
1642.219,2541.00
1643.087,2179.00
1643.956,3064.00
1644.825,2885.00
1645.694,2860.00
1646.563,2823.00
1647.432,2742.00
1648.299,2681.00
1649.167,2807.00
1650.036,2472.00
1650.904,2802.00
1651.773,2857.00
1652.641,2698.00
1653.509,2914.00
1654.376,2525.00
1655.244,2744.00
1656.112,2702.00
1656.980,2692.00
1657.847,2557.00
1658.715,2846.00
1659.581,2561.00
1660.448,2873.00
1661.316,2185.00
1662.183,2714.00
1663.051,2740.00
1663.918,2727.00
1664.783,2678.00
1665.650,2723.00
1666.517,2833.00
1667.384,2705.00
1668.251,2723.00
1669.115,2876.00
1669.982,2619.00
1670.849,2951.00
1671.715,2659.00
1672.581,2830.00
1673.446,2781.00
1674.312,2686.00
1675.178,3075.00
1676.044,2779.00
1676.910,2757.00
1677.774,2710.00
1678.639,2316.00
1679.505,2675.00
1680.370,2771.00
1681.236,3322.00
1682.099,2593.00
1682.965,2645.00
1683.830,2275.00
1684.695,2514.00
1685.560,2605.00
1686.423,2798.00
1687.288,2802.00
1688.153,2675.00
1689.017,2604.00
1689.880,2762.00
1690.745,2816.00
1691.609,2548.00
1692.473,2834.00
1693.338,2888.00
1694.200,2937.00
1695.064,2732.00
1695.928,2581.00
1696.792,2657.00
1697.654,3160.00
1698.517,2735.00
1699.381,2424.00
1700.245,2363.00
1701.106,2943.00
1701.969,2568.00
1702.833,2798.00
1703.696,2601.00
1704.557,2626.00
1705.420,2522.00
1706.283,2728.00
1707.146,2804.00
1708.007,2503.00
1708.870,2489.00
1709.732,2384.00
1710.595,2576.00
1711.455,2444.00
1712.318,2627.00
1713.180,2911.00
1714.040,2733.00
1714.902,2856.00
1715.764,2697.00
1716.626,2454.00
1717.486,2630.00
1718.348,2935.00
1719.209,4121.00
1720.071,2334.00
1720.930,2432.00
1721.792,2533.00
1722.653,2518.00
1723.512,2531.00
1724.374,2652.00
1725.234,2708.00
1726.095,2698.00
1726.954,2673.00
1727.815,2839.00
1728.676,2669.00
1729.535,2909.00
1730.395,2629.00
1731.256,2598.00
1732.114,2750.00
1732.974,2158.00
1733.834,3030.00
1734.693,2834.00
1735.553,2732.00
1736.413,3085.00
1737.272,2520.00
1738.130,2633.00
1738.990,2776.00
1739.849,2576.00
1740.707,3675.00
1741.566,2717.00
1742.426,2715.00
1743.283,3025.00
1744.142,2576.00
1745.001,2383.00
1745.858,2862.00
1746.717,2719.00
1747.576,2770.00
1748.433,2864.00
1749.292,3195.00
1750.150,3316.00
1751.007,2878.00
1751.865,2905.00
1752.723,2681.00
1753.579,2627.00
1754.438,2912.00
1755.296,2908.00
1756.152,2274.00
1757.010,2355.00
1757.865,2866.00
1758.723,2337.00
1759.581,2985.00
1760.436,2689.00
1761.294,3082.00
1762.151,2661.00
1763.006,2611.00
1763.864,2338.00
1764.721,2871.00
1765.576,2716.00
1766.433,2818.00
1767.288,2594.00
1768.144,2732.00
1769.001,2603.00
1769.856,2757.00
1770.712,2888.00
1771.568,2504.00
1772.423,2556.00
1773.279,2606.00
1774.133,2590.00
1774.989,3060.00
1775.845,3209.00
1776.699,2941.00
1777.555,2697.00
1778.409,3193.00
1779.265,2624.00
1780.120,2655.00
1780.974,2667.00
1781.829,2310.00
1782.682,2710.00
1783.538,2509.00
1784.393,2682.00
1785.246,2547.00
1786.101,2765.00
1786.954,2825.00
1787.808,2894.00
1788.661,2416.00
1789.516,2626.00
1790.370,2630.00
1791.223,2842.00
1792.077,2669.00
1792.930,2773.00
1793.784,2549.00
1794.636,2700.00
1795.490,2680.00
1796.344,2738.00
1797.196,2706.00
1798.049,2830.00
1798.901,2584.00
1799.755,2912.00
1800.606,2501.00
1801.460,3176.00
1802.311,2992.00
1803.165,3092.00
1804.018,3037.00
1804.869,2730.00
1805.722,3145.00
1806.573,2697.00
1807.426,2492.00
1808.276,2691.00
1809.129,2628.00
1809.980,2863.00
1810.832,3002.00
1811.683,2609.00
1812.535,3030.00
1813.385,2640.00
1814.237,2983.00
1815.089,2744.00
1815.940,2983.00
1816.791,2648.00
1817.641,2561.00
1818.493,2822.00
1819.343,2773.00
1820.194,2594.00
1821.044,2821.00
1821.895,2903.00
1822.745,2433.00
1823.596,2578.00
1824.445,3072.00
1825.296,2783.00
1826.145,2659.00
1826.996,2866.00
1827.845,2749.00
1828.695,2780.00
1829.544,2694.00
1830.395,2714.00
1831.243,2580.00
1832.094,2447.00
1832.942,3292.00
1833.792,2801.00
1834.640,2788.00
1835.490,2720.00
1836.338,2770.00
1837.186,2608.00
1838.036,2563.00
1838.884,2684.00
1839.733,3021.00
1840.581,2885.00
1841.430,2853.00
1842.278,2999.00
1843.127,2585.00
1843.974,2407.00
1844.823,3154.00
1845.671,2838.00
1846.519,2747.00
1847.366,2786.00
1848.213,2367.00
1849.062,2529.00
1849.909,2453.00
1850.757,3314.00
1851.604,2816.00
1852.452,2638.00
1853.298,2866.00
1854.146,2751.00
1854.993,2756.00
1855.839,3205.00
1856.687,2840.00
1857.532,2825.00
1858.380,2682.00
1859.226,2788.00
1860.073,2850.00
1860.919,2536.00
1861.765,2606.00
1862.612,2908.00
1863.457,2940.00
1864.304,2604.00
1865.150,2800.00
1865.995,2685.00
1866.842,2813.00
1867.686,2936.00
1868.533,2760.00
1869.378,2773.00
1870.223,2754.00
1871.069,2578.00
1871.914,2724.00
1872.760,2721.00
1873.604,2491.00
1874.448,2849.00
1875.294,2877.00
1876.139,2568.00
1876.984,2807.00
1877.828,2394.00
1878.672,2226.00
1879.518,2590.00
1880.361,2877.00
1881.205,2859.00
1882.050,2513.00
1882.894,3196.00
1883.739,2564.00
1884.582,2490.00
1885.425,2575.00
1886.270,2907.00
1887.113,2440.00
1887.956,2813.00
1888.801,2760.00
1889.644,2523.00
1890.486,2323.00
1891.331,2641.00
1892.173,2718.00
1893.017,2764.00
1893.860,3019.00
1894.702,2986.00
1895.546,2698.00
1896.388,3389.00
1897.230,3045.00
1898.074,2622.00
1898.916,2528.00
1899.757,2568.00
1900.601,3359.00
1901.443,2970.00
1902.284,3000.00
1903.125,3129.00
1903.969,2885.00
1904.810,2931.00
1905.651,2812.00
1906.494,2981.00
1907.335,3159.00
1908.176,2859.00
1909.018,2783.00
1909.859,2684.00
1910.700,2607.00
1911.542,3239.00
1912.383,2766.00
1913.223,2394.00
1914.064,2864.00
1914.906,2986.00
1915.746,3043.00
1916.586,3153.00
1917.428,2712.00
1918.268,2753.00
1919.107,2628.00
1919.947,2491.00
1920.789,2622.00
1921.628,2924.00
1922.468,2658.00
1923.309,2565.00
1924.148,3006.00
1924.988,2788.00
1925.827,2693.00
1926.667,2621.00
1927.507,2754.00
1928.345,2537.00
1929.184,2849.00
1930.025,2558.00
1930.864,2962.00
1931.702,3017.00
1932.541,2602.00
1933.381,2839.00
1934.219,2836.00
1935.057,3005.00
1935.896,2450.00
1936.735,2672.00
1937.573,2635.00
1938.411,2513.00
1939.249,2918.00
1940.089,2616.00
1940.927,2953.00
1941.764,2971.00
1942.602,2635.00
1943.439,2612.00
1944.278,2685.00
1945.115,2622.00
1945.953,2467.00
1946.790,2803.00
1947.628,3056.00
1948.465,2806.00
1949.302,2849.00
1950.139,2846.00
1950.976,2583.00
1951.814,2864.00
1952.651,2764.00
1953.487,2534.00
1954.323,3008.00
1955.160,2683.00
1955.998,3108.00
1956.834,2693.00
1957.670,2752.00
1958.506,2944.00
1959.342,2827.00
1960.177,2789.00
1961.015,2815.00
1961.850,2773.00
1962.686,2785.00
1963.521,2767.00
1964.357,3006.00
1965.192,2511.00
1966.029,2818.00
1966.864,2642.00
1967.699,2991.00
1968.534,2777.00
1969.369,2983.00
1970.204,2693.00
1971.040,2780.00
1971.875,2659.00
1972.709,2766.00
1973.544,2583.00
1974.378,2638.00
1975.212,2837.00
1976.047,2623.00
1976.882,2605.00
1977.716,3103.00
1978.550,2432.00
1979.384,2698.00
1980.218,2663.00
1981.052,2682.00
1981.885,2766.00
1982.719,2757.00
1983.554,2872.00
1984.388,3030.00
1985.221,2808.00
1986.054,2972.00
1986.887,2787.00
1987.720,2581.00
1988.553,3024.00
1989.386,2809.00
1990.219,2877.00
1991.053,3030.00
1991.886,2638.00
1992.719,2925.00
1993.551,2247.00
1994.383,2878.00
1995.216,2652.00
1996.048,2421.00
1996.880,2886.00
1997.712,2614.00
1998.544,2737.00
1999.376,2801.00
2000.208,3035.00
