RamanScope Measure Spectrum Data V3.72

<< MEASURE CONDITION >>
Exposure Type,Aver
Exposure Time [sec],15
Exposure Count,4
Measure Time,2023/07/15 16:18:29
Data Name,""
Data Comment,""
Rayleigh Wave[nm],532.0

<< SAMPLE SPECTRUM >>
Wave[dcm-1],No165
146.591,878.00
147.626,1026.75
148.664,1215.75
149.699,1347.00
150.737,1569.25
151.772,1696.75
152.809,1856.00
153.846,1949.75
154.881,2106.50
155.918,2221.25
156.953,2355.00
157.989,2337.00
159.026,2456.25
160.060,2481.00
161.096,2582.75
162.130,2617.50
163.167,2664.25
164.200,2685.25
165.236,2699.25
166.272,2767.75
167.305,2828.50
168.341,2890.75
169.374,2955.75
170.409,3023.75
171.445,3019.00
172.477,3061.25
173.512,3094.00
174.545,3139.25
175.580,3114.75
176.614,3178.75
177.647,3206.00
178.681,3164.75
179.713,3142.00
180.747,3172.50
181.781,3157.00
182.813,3164.50
183.847,3166.50
184.878,3152.25
185.912,3092.50
186.945,3142.25
187.976,3208.75
189.010,3211.25
190.043,3208.00
191.073,3212.00
192.106,3277.00
193.137,3326.00
194.170,3321.25
195.202,3359.25
196.232,3366.75
197.265,3480.75
198.297,3513.50
199.327,3595.25
200.359,3675.00
201.388,3676.75
202.420,3795.50
203.452,3904.50
204.481,3947.00
205.512,4105.50
206.544,4110.00
207.573,4272.00
208.604,4410.50
209.635,4566.50
210.663,4644.75
211.694,4792.50
212.725,4999.25
213.753,5061.50
214.783,5211.75
215.813,5237.75
216.841,5278.50
217.871,5315.75
218.899,5291.75
219.929,5271.25
220.959,5173.00
221.986,5092.00
223.016,4967.00
224.045,4831.00
225.072,4701.25
226.101,4613.50
227.130,4495.25
228.157,4357.75
229.185,4276.00
230.214,4233.75
231.241,4216.25
232.269,4077.00
233.297,4064.25
234.323,4025.25
235.351,4014.50
236.379,3968.00
237.407,3993.25
238.433,3991.25
239.460,4043.00
240.488,3998.50
241.513,4025.50
242.540,4107.00
243.568,4097.25
244.592,4127.75
245.619,4162.25
246.646,4129.25
247.671,4089.75
248.697,4067.25
249.724,4078.25
250.748,4082.00
251.774,4057.25
252.801,4062.00
253.827,4133.25
254.850,4103.75
255.876,4072.75
256.902,4126.00
257.925,4173.75
258.951,4251.00
259.976,4237.75
260.999,4263.75
262.024,4280.00
263.049,4334.00
264.074,4307.00
265.097,4456.00
266.122,4497.50
267.146,4564.50
268.168,4574.50
269.193,4639.25
270.217,4691.25
271.241,4708.75
272.263,4782.50
273.287,4830.50
274.311,4841.00
275.332,4885.75
276.356,4889.00
277.379,4914.25
278.402,4832.75
279.424,4854.75
280.447,4779.00
281.470,4754.50
282.492,4733.75
283.513,4591.75
284.536,4586.50
285.558,4498.50
286.581,4450.50
287.601,4380.50
288.623,4246.50
289.645,4246.50
290.665,4203.50
291.687,4097.00
292.709,4057.00
293.730,3963.50
294.750,3903.75
295.771,3904.75
296.792,3855.75
297.813,3777.75
298.832,3713.25
299.853,3667.25
300.874,3625.00
301.895,3549.75
302.913,3485.00
303.934,3501.25
304.954,3408.50
305.975,3414.50
306.993,3377.75
308.013,3332.75
309.033,3278.25
310.052,3271.25
311.072,3269.75
312.090,3205.75
313.109,3199.75
314.129,3191.25
315.148,3151.75
316.165,3177.75
317.184,3178.75
318.203,3084.25
319.222,3063.25
320.238,3118.50
321.257,3077.50
322.275,3042.00
323.294,3015.75
324.312,3004.75
325.328,2988.25
326.346,2973.75
327.364,3001.50
328.382,3020.75
329.397,2952.00
330.415,2949.00
331.432,3005.75
332.450,2970.75
333.467,2945.75
334.482,2920.50
335.499,2871.50
336.516,2968.00
337.533,2926.25
338.547,2885.25
339.564,2905.25
340.580,2888.00
341.597,2872.00
342.613,2904.00
343.627,2892.75
344.643,2878.75
345.659,2820.50
346.675,2876.25
347.690,2833.25
348.704,2858.25
349.719,2865.00
350.735,2857.50
351.750,2885.00
352.765,2876.00
353.778,2906.75
354.793,2839.00
355.808,2969.50
356.822,2921.50
357.837,2882.75
358.851,2890.75
359.864,2957.00
360.878,2907.25
361.892,2904.75
362.906,2925.75
363.920,2923.00
364.932,2959.00
365.945,2901.25
366.959,2988.00
367.972,2961.00
368.986,2927.00
369.999,2870.75
371.010,2884.50
372.023,3028.75
373.036,2985.00
374.049,2965.75
375.061,2991.25
376.072,3002.50
377.084,3005.25
378.097,3060.25
379.109,3058.25
380.121,3067.25
381.133,3022.25
382.143,3045.75
383.155,3004.00
384.166,3012.00
385.178,3057.25
386.189,3042.25
387.201,3032.25
388.212,3090.50
389.221,3047.75
390.232,3001.75
391.243,3055.75
392.254,3040.75
393.264,3014.75
394.275,2971.25
395.283,2962.50
396.294,2942.25
397.304,2966.00
398.314,2957.50
399.324,2941.00
400.334,2895.25
401.344,2883.00
402.351,2849.25
403.361,2869.00
404.370,2892.25
405.380,2842.00
406.389,2854.25
407.398,2853.00
408.407,2771.00
409.414,2796.75
410.423,2852.75
411.431,2741.75
412.440,2768.00
413.448,2766.25
414.457,2787.00
415.465,2734.25
416.471,2699.50
417.479,2750.75
418.487,2701.00
419.495,2699.75
420.503,2728.75
421.510,2715.75
422.518,2639.25
423.525,2667.25
424.530,2711.25
425.537,2728.00
426.544,2647.75
427.551,2640.00
428.558,2636.00
429.565,2674.00
430.571,2618.50
431.578,2602.75
432.582,2689.00
433.588,2616.50
434.595,2629.50
435.601,2616.75
436.607,2625.75
437.612,2584.50
438.618,2626.50
439.624,2594.25
440.627,2630.75
441.633,2574.00
442.638,2624.50
443.643,2661.75
444.648,2596.75
445.653,2634.25
446.658,2633.50
447.663,2646.00
448.667,2606.00
449.672,2628.75
450.674,2643.00
451.678,2656.75
452.682,2661.25
453.687,2669.00
454.690,2643.75
455.694,2686.75
456.698,2660.25
457.702,2625.75
458.705,2642.75
459.709,2670.25
460.710,2629.00
461.713,2638.00
462.716,2649.75
463.719,2619.00
464.722,2661.75
465.725,2688.00
466.727,2642.50
467.730,2655.25
468.732,2695.75
469.735,2672.25
470.737,2665.00
471.737,2659.75
472.739,2690.75
473.741,2652.00
474.742,2705.00
475.744,2760.25
476.746,2686.75
477.747,2671.25
478.748,2684.75
479.750,2672.50
480.751,2676.00
481.752,2696.00
482.753,2699.75
483.751,2629.75
484.752,2720.25
485.753,2693.25
486.753,2682.25
487.753,2682.00
488.754,2649.25
489.754,2646.50
490.754,2606.00
491.754,2651.75
492.754,2712.75
493.753,2662.75
494.753,2633.00
495.752,2680.75
496.752,2658.50
497.749,2691.25
498.748,2649.75
499.747,2636.50
500.746,2677.00
501.745,2599.50
502.744,2627.25
503.742,2634.75
504.741,2642.50
505.739,2582.25
506.737,2575.75
507.735,2625.25
508.734,2602.50
509.732,2587.00
510.729,2589.00
511.727,2593.75
512.725,2559.00
513.720,2606.25
514.718,2555.25
515.715,2502.00
516.712,2577.00
517.709,2541.50
518.706,2569.25
519.703,2526.00
520.700,2516.25
521.696,2546.25
522.693,2532.25
523.689,2592.50
524.686,2508.25
525.682,2551.75
526.678,2520.00
527.674,2583.00
528.670,2492.50
529.666,2539.00
530.661,2601.75
531.657,2523.75
532.652,2593.25
533.648,2617.25
534.641,2577.25
535.636,2540.25
536.631,2566.00
537.626,2503.75
538.621,2543.00
539.616,2564.75
540.610,2554.25
541.605,2549.50
542.599,2574.75
543.593,2545.50
544.587,2552.00
545.581,2533.00
546.575,2538.25
547.569,2587.75
548.563,2575.50
549.557,2599.50
550.550,2540.50
551.543,2558.00
552.537,2546.00
553.530,2602.50
554.523,2568.00
555.516,2602.75
556.509,2560.75
557.502,2542.25
558.494,2576.50
559.487,2570.50
560.479,2594.00
561.472,2577.00
562.464,2549.25
563.456,2513.00
564.448,2550.25
565.440,2557.50
566.432,2624.50
567.423,2560.00
568.415,2636.00
569.404,2617.00
570.396,2618.50
571.387,2605.25
572.378,2634.25
573.369,2674.50
574.360,2664.25
575.351,2677.25
576.341,2619.50
577.332,2654.75
578.323,2637.25
579.313,2640.50
580.303,2635.00
581.293,2654.50
582.283,2641.75
583.273,2648.00
584.263,2664.00
585.253,2694.75
586.243,2608.00
587.232,2641.25
588.222,2639.75
589.211,2680.25
590.200,2655.25
591.189,2652.25
592.178,2655.75
593.167,2634.25
594.156,2624.25
595.145,2634.25
596.133,2641.50
597.122,2639.00
598.110,2673.75
599.098,2613.25
600.086,2653.75
601.074,2651.25
602.062,2615.50
603.050,2661.50
604.038,2564.75
605.025,2575.00
606.013,2603.00
607.000,2628.00
607.987,2540.00
608.975,2534.00
609.962,2527.75
610.949,2562.00
611.936,2543.25
612.922,2517.00
613.909,2494.75
614.895,2498.50
615.882,2444.25
616.868,2506.00
617.854,2494.25
618.841,2442.00
619.826,2441.75
620.812,2400.25
621.798,2411.50
622.784,2374.50
623.769,2359.50
624.755,2340.75
625.740,2413.25
626.725,2286.50
627.711,2382.25
628.698,2297.00
629.683,2254.50
630.667,2230.75
631.652,2250.00
632.637,2299.50
633.621,2231.25
634.606,2226.25
635.590,2196.50
636.574,2178.50
637.558,2199.25
638.542,2204.25
639.526,2177.00
640.510,2166.50
641.493,2171.25
642.477,2177.25
643.460,2137.00
644.444,2133.50
645.427,2126.50
646.410,2167.50
647.393,2119.00
648.376,2129.50
649.359,2114.25
650.341,2052.75
651.324,2100.50
652.307,2045.00
653.289,2062.25
654.271,2085.00
655.253,2035.75
656.235,2024.75
657.217,2028.50
658.199,2075.00
659.181,2056.50
660.163,1991.00
661.144,1994.00
662.126,2032.75
663.107,2021.25
664.088,1971.50
665.069,1995.75
666.050,2009.00
667.033,2009.75
668.014,1955.75
668.995,1973.50
669.975,1964.25
670.956,1968.25
671.936,1916.50
672.916,1927.75
673.896,1950.50
674.876,1902.75
675.856,1893.25
676.836,1858.50
677.816,1867.50
678.795,1905.25
679.775,1850.75
680.754,1899.25
681.734,1824.25
682.713,1834.25
683.692,1835.75
684.671,1844.75
685.650,1846.75
686.629,1814.00
687.607,1741.00
688.586,1767.75
689.564,1770.75
690.543,1771.00
691.523,1798.50
692.501,1755.50
693.479,1726.00
694.457,1716.25
695.435,1716.25
696.413,1724.50
697.390,1707.50
698.368,1704.75
699.345,1723.25
700.322,1716.75
701.300,1670.25
702.277,1692.75
703.254,1658.50
704.231,1650.00
705.207,1679.00
706.184,1667.75
707.161,1650.25
708.137,1669.75
709.113,1638.50
710.090,1667.00
711.068,1633.25
712.044,1639.00
713.020,1607.25
713.996,1600.50
714.971,1623.50
715.947,1621.25
716.922,1614.50
717.898,1568.50
718.873,1570.00
719.848,1558.25
720.823,1631.00
721.798,1576.50
722.773,1584.00
723.748,1564.75
724.723,1531.25
725.697,1603.75
726.672,1567.50
727.646,1542.75
728.622,1528.25
729.596,1526.50
730.570,1575.50
731.544,1568.50
732.518,1535.25
733.492,1550.00
734.466,1590.50
735.439,1513.50
736.413,1510.50
737.386,1463.25
738.359,1544.50
739.332,1545.50
740.305,1504.00
741.278,1503.50
742.251,1507.00
743.224,1473.00
744.196,1489.75
745.171,1474.50
746.143,1454.50
747.115,1510.25
748.087,1509.25
749.059,1469.75
750.031,1470.50
751.003,1446.75
751.975,1471.00
752.947,1474.25
753.918,1436.25
754.890,1481.50
755.861,1436.25
756.832,1435.00
757.803,1408.50
758.774,1430.75
759.747,1416.50
760.718,1461.00
761.689,1396.50
762.659,1438.50
763.630,1410.00
764.600,1392.50
765.570,1364.00
766.540,1368.50
767.510,1460.50
768.480,1439.25
769.450,1388.00
770.420,1437.00
771.390,1377.00
772.359,1353.25
773.329,1377.75
774.300,1367.50
775.269,1406.50
776.238,1381.75
777.207,1336.25
778.176,1334.75
779.145,1377.75
780.114,1379.00
781.083,1359.75
782.051,1329.75
783.019,1347.75
783.988,1374.25
784.956,1325.25
785.924,1336.25
786.894,1370.75
787.862,1311.75
788.830,1304.75
789.797,1299.25
790.765,1262.75
791.732,1290.25
792.700,1321.00
793.667,1282.75
794.634,1310.25
795.601,1322.00
796.568,1310.00
797.535,1281.50
798.502,1310.00
799.468,1280.50
800.437,1273.25
801.403,1292.75
802.370,1267.75
803.336,1287.00
804.302,1247.75
805.268,1279.50
806.234,1287.25
807.200,1239.00
808.166,1252.25
809.131,1305.00
810.097,1228.75
811.062,1342.00
812.027,1230.25
812.994,1274.00
813.960,1232.75
814.925,1230.50
815.889,1273.75
816.854,1216.25
817.819,1240.25
818.783,1202.00
819.748,1287.75
820.712,1227.75
821.677,1229.00
822.641,1218.25
823.605,1199.75
824.571,1247.25
825.534,1235.00
826.498,1251.00
827.462,1229.75
828.425,1217.25
829.389,1242.50
830.352,1219.50
831.315,1262.75
832.279,1248.25
833.242,1237.50
834.204,1208.50
835.167,1218.75
836.132,1216.75
837.095,1212.00
838.057,1184.50
839.020,1229.25
839.982,1218.25
840.944,1176.75
841.906,1210.00
842.868,1231.25
843.830,1227.00
844.792,1211.75
845.753,1223.25
846.715,1175.75
847.679,1229.50
848.640,1202.00
849.601,1203.75
850.562,1226.50
851.523,1229.75
852.484,1236.50
853.445,1215.00
854.406,1209.25
855.367,1231.25
856.327,1232.25
857.288,1176.75
858.248,1236.25
859.210,1206.00
860.170,1225.00
861.130,1196.25
862.090,1180.50
863.050,1203.25
864.010,1205.50
864.969,1207.25
865.929,1211.25
866.888,1203.25
867.848,1233.25
868.807,1201.00
869.766,1212.00
870.727,1203.00
871.686,1193.50
872.645,1221.00
873.604,1209.75
874.562,1240.00
875.521,1215.75
876.479,1195.25
877.437,1210.00
878.396,1200.00
879.354,1245.50
880.312,1234.75
881.270,1178.25
882.229,1213.25
883.187,1225.25
884.145,1211.75
885.102,1250.00
886.059,1230.75
887.017,1235.00
887.974,1231.50
888.931,1208.00
889.888,1236.75
890.845,1247.25
891.802,1244.25
892.758,1176.25
893.717,1202.25
894.673,1241.75
895.630,1222.75
896.586,1152.25
897.542,1162.00
898.498,1245.25
899.454,1235.50
900.410,1189.75
901.366,1245.75
902.321,1197.50
903.277,1205.25
904.232,1233.00
905.189,1222.25
906.145,1230.00
907.100,1207.25
908.055,1252.00
909.010,1233.50
909.965,1224.50
910.919,1205.00
911.874,1230.00
912.828,1216.50
913.783,1241.75
914.737,1256.75
915.693,1222.75
916.648,1249.00
917.602,1254.50
918.555,1206.50
919.509,1248.25
920.463,1233.25
921.417,1221.50
922.370,1219.00
923.324,1237.75
924.277,1205.25
925.230,1224.75
926.183,1214.75
927.138,1229.50
928.091,1212.75
929.044,1204.00
929.996,1250.00
930.949,1194.00
931.902,1257.50
932.854,1232.50
933.806,1193.50
934.758,1241.50
935.711,1239.50
936.663,1192.50
937.614,1235.75
938.568,1220.75
939.520,1205.75
940.471,1213.25
941.423,1246.75
942.374,1222.75
943.326,1167.00
944.277,1217.50
945.228,1199.25
946.179,1188.00
947.130,1216.25
948.080,1224.50
949.031,1190.75
949.984,1222.00
950.934,1236.50
951.884,1212.00
952.835,1220.00
953.785,1186.50
954.735,1224.00
955.685,1166.50
956.635,1199.00
957.585,1207.50
958.534,1173.00
959.484,1208.50
960.433,1182.50
961.383,1140.75
962.334,1213.75
963.283,1157.25
964.232,1187.00
965.181,1160.50
966.130,1158.00
967.079,1141.00
968.027,1181.00
968.976,1195.25
969.924,1155.00
970.873,1130.75
971.821,1166.75
972.769,1134.25
973.719,1169.75
974.667,1143.25
975.615,1170.25
976.562,1160.75
977.510,1201.75
978.458,1172.75
979.405,1164.75
980.352,1156.75
981.300,1188.25
982.247,1158.75
983.194,1144.75
984.141,1182.75
985.088,1137.50
986.036,1133.00
986.983,1183.00
987.930,1164.50
988.876,1139.00
989.822,1173.00
990.769,1164.50
991.715,1159.50
992.661,1139.25
993.607,1131.50
994.553,1193.25
995.498,1133.50
996.444,1191.75
997.389,1159.00
998.337,1144.25
999.282,1182.50
1000.227,1124.25
1001.173,1134.00
1002.118,1101.25
1003.062,1170.50
1004.007,1122.25
1004.952,1132.00
1005.897,1156.25
1006.841,1107.00
1007.786,1105.25
1008.730,1153.25
1009.674,1114.50
1010.618,1122.25
1011.564,1138.75
1012.508,1148.00
1013.452,1152.25
1014.396,1110.75
1015.339,1070.50
1016.283,1101.50
1017.226,1120.25
1018.170,1114.25
1019.113,1117.00
1020.056,1131.50
1020.999,1141.75
1021.942,1177.25
1022.885,1111.00
1023.828,1129.50
1024.770,1164.75
1025.715,1177.25
1026.657,1163.00
1027.600,1115.00
1028.542,1157.25
1029.484,1130.25
1030.426,1127.00
1031.368,1149.50
1032.310,1129.50
1033.251,1091.00
1034.193,1131.25
1035.135,1165.75
1036.076,1115.00
1037.017,1141.50
1037.959,1160.00
1038.900,1127.50
1039.843,1130.00
1040.784,1195.25
1041.725,1183.25
1042.665,1166.50
1043.606,1157.75
1044.547,1131.50
1045.487,1180.25
1046.427,1165.75
1047.368,1129.00
1048.308,1145.00
1049.248,1138.00
1050.188,1137.00
1051.128,1181.00
1052.067,1148.75
1053.007,1174.25
1053.947,1161.50
1054.886,1125.75
1055.827,1139.25
1056.766,1138.00
1057.706,1143.50
1058.645,1174.00
1059.584,1181.00
1060.522,1195.00
1061.461,1194.00
1062.400,1177.50
1063.338,1196.00
1064.277,1173.75
1065.215,1163.25
1066.154,1180.50
1067.092,1171.50
1068.030,1187.25
1068.968,1223.75
1069.906,1178.75
1070.843,1208.25
1071.781,1217.75
1072.720,1187.25
1073.658,1207.75
1074.595,1230.25
1075.533,1200.50
1076.470,1204.00
1077.407,1185.75
1078.344,1200.25
1079.281,1217.25
1080.217,1196.75
1081.154,1221.75
1082.091,1218.75
1083.027,1202.75
1083.964,1165.25
1084.900,1206.25
1085.836,1272.75
1086.772,1214.75
1087.708,1242.00
1088.644,1189.00
1089.580,1203.25
1090.515,1248.00
1091.451,1180.25
1092.388,1184.00
1093.324,1178.25
1094.259,1181.00
1095.194,1196.25
1096.129,1188.00
1097.064,1169.25
1097.999,1168.00
1098.934,1202.50
1099.869,1212.75
1100.803,1180.25
1101.738,1181.25
1102.672,1163.50
1103.607,1162.50
1104.541,1167.00
1105.475,1180.25
1106.409,1170.75
1107.343,1149.25
1108.277,1117.50
1109.210,1138.50
1110.144,1138.00
1111.078,1158.00
1112.011,1139.00
1112.944,1104.75
1113.878,1155.00
1114.811,1129.25
1115.744,1114.25
1116.678,1099.75
1117.611,1105.75
1118.544,1101.50
1119.477,1084.75
1120.409,1101.00
1121.342,1116.00
1122.274,1116.25
1123.206,1054.25
1124.138,1059.25
1125.070,1062.50
1126.002,1046.25
1126.934,1079.25
1127.866,1077.00
1128.798,1059.00
1129.729,1076.50
1130.661,1051.75
1131.592,1081.00
1132.523,1009.50
1133.454,1043.75
1134.385,1039.00
1135.317,1050.00
1136.247,1046.50
1137.178,1037.00
1138.109,1031.25
1139.039,1025.25
1139.970,1046.25
1140.900,1025.50
1141.831,1078.25
1142.761,1009.00
1143.691,531.00
1144.621,1030.25
1145.551,1062.75
1146.480,1012.25
1147.410,1015.00
1148.340,1008.25
1149.269,1001.00
1150.199,979.25
1151.128,1003.75
1152.057,1022.50
1152.979,977.75
1153.898,1019.50
1154.819,1015.00
1155.739,1021.75
1156.658,1004.25
1157.579,1001.00
1158.498,969.25
1159.419,1020.25
1160.338,989.00
1161.256,1006.00
1162.177,982.00
1163.095,1006.25
1164.016,996.50
1164.934,995.25
1165.852,986.25
1166.772,940.50
1167.690,1030.00
1168.610,1019.50
1169.528,1004.75
1170.446,960.00
1171.365,995.75
1172.283,960.25
1173.202,968.75
1174.120,1006.00
1175.037,946.25
1175.956,963.00
1176.873,984.00
1177.792,954.75
1178.709,981.25
1179.626,994.25
1180.544,943.25
1181.461,997.00
1182.379,964.00
1183.296,957.25
1184.212,968.00
1185.130,1007.00
1186.046,949.00
1186.962,951.50
1187.880,959.75
1188.796,953.25
1189.714,927.50
1190.629,949.75
1191.545,924.75
1192.462,951.75
1193.378,949.75
1194.295,981.00
1195.210,984.50
1196.125,950.00
1197.042,985.00
1197.957,909.75
1198.872,972.00
1199.788,940.50
1200.703,917.50
1201.619,931.25
1202.534,960.25
1203.448,959.25
1204.364,976.25
1205.278,907.75
1206.192,982.50
1207.108,924.25
1208.022,913.25
1208.938,994.50
1209.851,923.75
1210.765,916.00
1211.680,990.25
1212.594,941.75
1213.507,935.25
1214.422,930.00
1215.335,941.50
1216.248,945.00
1217.163,980.00
1218.076,923.00
1218.990,1043.50
1219.903,962.50
1220.816,968.75
1221.730,1006.50
1222.642,961.00
1223.554,992.25
1224.469,973.25
1225.380,984.75
1226.292,953.50
1227.206,946.50
1228.118,1019.00
1229.032,971.00
1229.943,996.25
1230.855,961.25
1231.768,974.50
1232.679,990.00
1233.590,970.75
1234.503,990.25
1235.414,953.25
1236.325,993.00
1237.238,990.25
1238.149,975.25
1239.059,998.00
1239.972,990.25
1240.882,965.75
1241.793,1022.00
1242.705,985.25
1243.615,981.50
1244.525,968.00
1245.437,992.75
1246.347,983.75
1247.259,967.25
1248.168,1004.50
1249.078,996.25
1249.989,976.75
1250.899,987.50
1251.808,991.75
1252.719,995.50
1253.628,1013.25
1254.537,977.25
1255.448,996.50
1256.357,979.50
1257.266,957.50
1258.176,980.25
1259.085,1008.50
1259.993,984.75
1260.904,980.00
1261.812,961.50
1262.720,1004.00
1263.630,1019.75
1264.538,1029.00
1265.446,981.25
1266.356,989.75
1267.263,946.50
1268.171,1022.00
1269.080,1043.50
1269.988,1018.25
1270.895,1018.50
1271.804,986.25
1272.711,976.50
1273.619,1006.00
1274.527,989.50
1275.434,990.00
1276.341,1000.75
1277.248,988.75
1278.156,995.50
1279.063,983.25
1279.969,993.75
1280.877,965.25
1281.783,955.25
1282.690,990.50
1283.598,1030.25
1284.503,1020.25
1285.409,1000.50
1286.317,966.50
1287.223,949.25
1288.128,974.75
1289.036,1008.25
1289.941,1003.25
1290.846,935.25
1291.751,919.25
1292.658,966.00
1293.563,904.75
1294.468,971.50
1295.375,978.00
1296.280,957.25
1297.184,970.00
1298.091,961.00
1298.995,972.00
1299.900,947.25
1300.806,944.00
1301.710,959.75
1302.614,967.50
1303.518,950.25
1304.424,937.50
1305.327,924.50
1306.231,926.00
1307.137,939.75
1308.040,952.00
1308.943,942.50
1309.847,904.50
1310.752,896.25
1311.655,979.25
1312.558,905.25
1313.463,885.50
1314.366,919.50
1315.269,901.75
1316.171,885.75
1317.076,857.00
1317.978,908.75
1318.881,860.50
1319.785,882.00
1320.687,923.75
1321.589,882.50
1322.491,886.25
1323.395,894.75
1324.297,912.75
1325.198,905.75
1326.102,852.50
1327.004,865.25
1327.905,869.25
1328.806,885.50
1329.709,879.00
1330.611,863.25
1331.512,894.00
1332.413,885.00
1333.316,884.50
1334.216,848.75
1335.117,849.25
1336.020,837.00
1336.920,895.25
1337.821,904.50
1338.721,879.75
1339.623,821.75
1340.523,865.25
1341.423,832.25
1342.323,815.75
1343.225,809.50
1344.125,871.25
1345.025,815.50
1345.924,815.25
1346.826,847.50
1347.725,818.25
1348.624,858.75
1349.524,768.75
1350.425,802.00
1351.324,813.25
1352.223,851.25
1353.121,781.25
1354.022,794.25
1354.921,792.75
1355.819,796.75
1356.718,780.00
1357.618,807.00
1358.516,806.75
1359.415,860.75
1360.313,826.00
1361.213,805.50
1362.111,807.00
1363.008,789.25
1363.906,793.75
1364.806,774.75
1365.703,815.75
1366.601,768.50
1367.498,752.25
1368.397,789.00
1369.295,798.00
1370.192,764.00
1371.089,751.75
1371.987,752.75
1372.884,730.50
1373.781,797.50
1374.678,751.50
1375.574,775.25
1376.473,749.25
1377.369,719.75
1378.265,746.50
1379.161,746.75
1380.059,745.75
1380.955,751.25
1381.851,748.00
1382.747,746.75
1383.643,766.25
1384.540,751.00
1385.436,750.50
1386.331,734.50
1387.227,734.75
1388.124,690.25
1389.019,744.50
1389.914,703.50
1390.809,713.75
1391.704,711.00
1392.601,740.50
1393.495,727.50
1394.390,689.75
1395.285,731.00
1396.179,724.50
1397.075,684.25
1397.969,703.75
1398.864,724.25
1399.758,715.50
1400.652,711.75
1401.547,671.00
1402.441,706.75
1403.335,719.00
1404.229,684.50
1405.122,720.50
1406.017,728.25
1406.911,675.00
1407.804,725.00
1408.697,666.75
1409.590,698.75
1410.485,712.75
1411.378,663.75
1412.271,672.75
1413.163,741.00
1414.056,721.25
1414.949,693.25
1415.843,716.00
1416.735,700.00
1417.627,688.75
1418.520,680.50
1419.412,695.25
1420.306,673.50
1421.197,644.25
1422.089,725.75
1422.981,679.25
1423.873,685.75
1424.764,653.50
1425.657,681.25
1426.549,710.75
1427.440,671.00
1428.331,695.50
1429.222,685.75
1430.113,695.00
1431.006,652.75
1431.897,649.50
1432.787,708.25
1433.678,674.00
1434.568,680.25
1435.459,668.75
1436.351,675.75
1437.241,693.00
1438.131,675.25
1439.021,1119.75
1439.911,660.75
1440.801,642.25
1441.693,684.00
1442.583,648.75
1443.472,660.00
1444.362,686.25
1445.251,637.00
1446.140,654.75
1447.030,680.25
1447.921,715.25
1448.810,676.00
1449.699,654.25
1450.588,652.25
1451.476,661.25
1452.365,650.75
1453.254,653.50
1454.144,681.75
1455.032,627.00
1455.921,633.00
1456.809,625.00
1457.697,641.75
1458.585,601.75
1459.473,625.00
1460.361,614.00
1461.251,636.50
1462.138,655.25
1463.026,594.75
1463.913,660.50
1464.801,644.50
1465.688,662.75
1466.575,616.25
1467.463,665.00
1468.351,637.00
1469.238,666.00
1470.125,641.75
1471.012,613.00
1471.899,618.25
1472.785,614.50
1473.672,595.75
1474.558,633.00
1475.446,639.50
1476.333,645.00
1477.219,639.00
1478.105,622.00
1478.991,586.50
1479.877,625.75
1480.762,631.25
1481.648,602.50
1482.534,609.25
1483.419,588.75
1484.307,628.75
1485.192,662.50
1486.077,580.75
1486.962,616.75
1487.847,596.25
1488.732,583.50
1489.617,606.25
1490.502,619.25
1491.387,613.50
1492.271,612.50
1493.156,615.25
1494.042,584.75
1494.927,631.00
1495.811,604.50
1496.695,615.25
1497.579,599.00
1498.463,619.00
1499.347,627.25
1500.231,599.00
1501.114,591.50
1501.998,631.50
1502.881,537.75
1503.765,593.00
1504.648,567.75
1505.533,583.50
1506.417,548.75
1507.300,565.25
1508.183,592.75
1509.066,594.00
1509.948,589.50
1510.831,567.25
1511.714,603.75
1512.596,579.25
1513.479,625.75
1514.361,569.25
1515.243,570.00
1516.125,615.50
1517.008,559.75
1517.890,605.50
1518.771,581.25
1519.655,615.25
1520.537,561.50
1521.419,632.50
1522.300,570.75
1523.182,597.00
1524.063,557.00
1524.944,566.50
1525.825,533.00
1526.707,558.25
1527.588,576.50
1528.468,539.25
1529.349,590.50
1530.230,576.75
1531.111,621.25
1531.991,559.50
1532.872,533.00
1533.752,586.50
1534.632,558.75
1535.513,587.25
1536.393,605.75
1537.273,543.75
1538.153,622.25
1539.032,548.00
1539.912,564.25
1540.792,547.00
1541.672,590.75
1542.551,590.75
1543.430,559.50
1544.310,529.00
1545.189,552.75
1546.068,590.50
1546.947,525.00
1547.826,598.25
1548.705,597.75
1549.584,570.50
1550.462,560.50
1551.341,580.75
1552.219,542.25
1553.098,559.25
1553.976,547.25
1554.854,573.75
1555.733,579.25
1556.611,560.50
1557.489,537.00
1558.367,532.00
1559.244,564.25
1560.122,548.75
1561.000,516.50
1561.877,532.00
1562.755,576.25
1563.632,583.75
1564.509,580.75
1565.386,518.75
1566.264,502.25
1567.141,527.00
1568.017,499.25
1568.894,598.75
1569.771,528.25
1570.648,491.00
1571.524,597.25
1572.401,538.75
1573.277,523.75
1574.153,544.50
1575.029,575.50
1575.906,507.50
1576.781,530.75
1577.657,530.25
1578.533,527.00
1579.409,549.25
1580.285,537.75
1581.160,559.25
1582.036,531.00
1582.911,568.25
1583.786,511.25
1584.662,527.25
1585.537,512.00
1586.412,519.50
1587.287,520.00
1588.160,506.75
1589.035,512.50
1589.909,488.75
1590.784,517.50
1591.658,551.75
1592.533,517.75
1593.407,526.25
1594.281,543.00
1595.155,504.00
1596.029,529.25
1596.903,532.00
1597.777,497.50
1598.651,501.50
1599.525,515.25
1600.398,558.50
1601.272,525.25
1602.144,534.50
1603.017,535.75
1603.890,511.25
1604.763,513.25
1605.636,529.50
1606.509,488.00
1607.382,512.75
1608.255,534.00
1609.128,522.00
1610.000,557.50
1610.873,522.50
1611.746,506.25
1612.616,498.50
1613.488,515.25
1614.361,520.50
1615.233,498.75
1616.105,545.75
1616.977,548.50
1617.849,515.00
1618.720,568.25
1619.592,535.00
1620.464,474.00
1621.333,474.50
1622.205,514.50
1623.076,510.25
1623.947,493.00
1624.818,499.75
1625.689,508.50
1626.560,514.75
1627.431,551.25
1628.302,544.50
1629.171,490.00
1630.042,498.25
1630.912,537.50
1631.782,495.50
1632.653,501.75
1633.523,512.75
1634.393,523.00
1635.263,465.50
1636.131,559.25
1637.001,524.25
1637.871,506.75
1638.741,459.75
1639.611,480.75
1640.480,492.00
1641.350,487.75
1642.219,486.75
1643.087,490.50
1643.956,541.25
1644.825,487.00
1645.694,490.50
1646.563,497.00
1647.432,449.50
1648.299,471.75
1649.167,482.75
1650.036,521.00
1650.904,560.75
1651.773,493.50
1652.641,493.50
1653.509,470.75
1654.376,482.75
1655.244,456.75
1656.112,514.75
1656.980,503.75
1657.847,500.00
1658.715,511.00
1659.581,523.00
1660.448,497.25
1661.316,468.75
1662.183,515.50
1663.051,486.00
1663.918,455.00
1664.783,456.00
1665.650,479.75
1666.517,485.00
1667.384,500.50
1668.251,486.25
1669.115,501.50
1669.982,498.25
1670.849,505.50
1671.715,482.50
1672.581,504.00
1673.446,484.50
1674.312,470.00
1675.178,485.25
1676.044,423.25
1676.910,486.25
1677.774,478.50
1678.639,469.00
1679.505,471.25
1680.370,450.00
1681.236,496.00
1682.099,478.50
1682.965,461.25
1683.830,495.00
1684.695,433.50
1685.560,513.25
1686.423,495.50
1687.288,465.75
1688.153,457.75
1689.017,487.50
1689.880,501.00
1690.745,503.25
1691.609,502.25
1692.473,501.00
1693.338,491.25
1694.200,507.25
1695.064,492.00
1695.928,476.25
1696.792,479.50
1697.654,428.25
1698.517,501.00
1699.381,432.50
1700.245,458.75
1701.106,452.75
1701.969,523.00
1702.833,469.75
1703.696,498.25
1704.557,506.75
1705.420,491.25
1706.283,495.25
1707.146,435.00
1708.007,478.25
1708.870,469.00
1709.732,449.25
1710.595,504.25
1711.455,462.50
1712.318,502.50
1713.180,474.00
1714.040,437.00
1714.902,465.25
1715.764,460.25
1716.626,506.50
1717.486,459.50
1718.348,438.25
1719.209,1246.75
1720.071,458.00
1720.930,482.25
1721.792,511.50
1722.653,461.25
1723.512,464.25
1724.374,496.25
1725.234,482.00
1726.095,477.50
1726.954,430.50
1727.815,457.75
1728.676,461.00
1729.535,453.25
1730.395,482.75
1731.256,458.75
1732.114,489.00
1732.974,464.25
1733.834,495.75
1734.693,448.00
1735.553,486.25
1736.413,445.50
1737.272,462.75
1738.130,467.75
1738.990,408.50
1739.849,489.00
1740.707,427.00
1741.566,476.50
1742.426,482.75
1743.283,491.50
1744.142,467.25
1745.001,460.50
1745.858,466.75
1746.717,483.25
1747.576,486.00
1748.433,471.75
1749.292,448.50
1750.150,464.00
1751.007,444.00
1751.865,418.75
1752.723,470.25
1753.579,502.50
1754.438,475.50
1755.296,493.50
1756.152,482.00
1757.010,478.25
1757.865,481.50
1758.723,466.75
1759.581,511.00
1760.436,438.50
1761.294,484.75
1762.151,447.00
1763.006,500.00
1763.864,446.50
1764.721,422.50
1765.576,416.25
1766.433,467.00
1767.288,463.75
1768.144,430.00
1769.001,441.00
1769.856,468.00
1770.712,439.50
1771.568,504.00
1772.423,442.50
1773.279,467.75
1774.133,442.25
1774.989,426.00
1775.845,461.75
1776.699,467.75
1777.555,414.00
1778.409,444.00
1779.265,468.75
1780.120,464.25
1780.974,438.00
1781.829,460.25
1782.682,445.50
1783.538,503.00
1784.393,451.75
1785.246,433.50
1786.101,437.50
1786.954,512.50
1787.808,453.50
1788.661,441.75
1789.516,438.50
1790.370,476.50
1791.223,468.75
1792.077,454.00
1792.930,422.50
1793.784,447.75
1794.636,469.75
1795.490,443.75
1796.344,471.25
1797.196,463.50
1798.049,439.00
1798.901,446.75
1799.755,421.50
1800.606,433.25
1801.460,428.00
1802.311,437.50
1803.165,418.00
1804.018,451.50
1804.869,420.50
1805.722,417.25
1806.573,475.50
1807.426,469.00
1808.276,420.25
1809.129,443.50
1809.980,475.75
1810.832,411.25
1811.683,452.50
1812.535,454.00
1813.385,436.25
1814.237,431.00
1815.089,478.25
1815.940,454.00
1816.791,477.75
1817.641,427.00
1818.493,426.50
1819.343,440.25
1820.194,386.25
1821.044,447.00
1821.895,410.00
1822.745,448.75
1823.596,444.50
1824.445,406.00
1825.296,437.75
1826.145,419.00
1826.996,415.75
1827.845,479.75
1828.695,439.00
1829.544,423.00
1830.395,422.75
1831.243,463.25
1832.094,445.25
1832.942,485.75
1833.792,447.25
1834.640,459.00
1835.490,476.25
1836.338,433.00
1837.186,467.00
1838.036,460.00
1838.884,435.50
1839.733,462.00
1840.581,437.25
1841.430,454.25
1842.278,416.50
1843.127,450.25
1843.974,403.50
1844.823,426.00
1845.671,443.25
1846.519,426.75
1847.366,432.00
1848.213,456.50
1849.062,430.50
1849.909,463.00
1850.757,422.00
1851.604,443.75
1852.452,446.25
1853.298,423.25
1854.146,421.50
1854.993,432.50
1855.839,440.75
1856.687,432.75
1857.532,430.00
1858.380,417.75
1859.226,441.75
1860.073,414.00
1860.919,405.25
1861.765,437.50
1862.612,483.75
1863.457,445.25
1864.304,442.75
1865.150,442.75
1865.995,415.75
1866.842,396.50
1867.686,388.50
1868.533,426.75
1869.378,476.00
1870.223,414.00
1871.069,447.25
1871.914,386.50
1872.760,404.75
1873.604,405.50
1874.448,450.25
1875.294,452.25
1876.139,394.50
1876.984,446.50
1877.828,415.00
1878.672,456.00
1879.518,405.25
1880.361,441.25
1881.205,454.50
1882.050,492.50
1882.894,392.75
1883.739,417.25
1884.582,410.75
1885.425,426.50
1886.270,447.50
1887.113,451.00
1887.956,419.00
1888.801,451.00
1889.644,453.25
1890.486,460.50
1891.331,444.50
1892.173,403.50
1893.017,430.00
1893.860,436.75
1894.702,414.50
1895.546,423.75
1896.388,432.00
1897.230,419.00
1898.074,443.25
1898.916,466.00
1899.757,393.00
1900.601,444.50
1901.443,418.25
1902.284,404.00
1903.125,382.50
1903.969,403.50
1904.810,411.75
1905.651,400.75
1906.494,398.00
1907.335,444.25
1908.176,417.75
1909.018,406.00
1909.859,416.75
1910.700,399.50
1911.542,427.00
1912.383,431.75
1913.223,398.50
1914.064,422.00
1914.906,439.00
1915.746,404.50
1916.586,390.75
1917.428,397.00
1918.268,427.50
1919.107,405.50
1919.947,374.00
1920.789,430.50
1921.628,422.50
1922.468,422.75
1923.309,458.50
1924.148,425.00
1924.988,400.25
1925.827,416.25
1926.667,422.75
1927.507,452.75
1928.345,418.00
1929.184,426.00
1930.025,454.75
1930.864,374.75
1931.702,401.00
1932.541,439.25
1933.381,414.50
1934.219,418.00
1935.057,427.25
1935.896,394.50
1936.735,404.00
1937.573,421.00
1938.411,415.50
1939.249,425.00
1940.089,438.50
1940.927,405.50
1941.764,395.50
1942.602,405.50
1943.439,432.25
1944.278,402.00
1945.115,436.50
1945.953,441.50
1946.790,421.75
1947.628,407.75
1948.465,408.75
1949.302,413.75
1950.139,409.25
1950.976,424.00
1951.814,445.00
1952.651,391.75
1953.487,426.25
1954.323,425.00
1955.160,396.25
1955.998,438.00
1956.834,397.00
1957.670,386.25
1958.506,361.00
1959.342,439.00
1960.177,399.75
1961.015,428.50
1961.850,379.00
1962.686,389.25
1963.521,433.50
1964.357,387.25
1965.192,392.75
1966.029,418.50
1966.864,415.25
1967.699,395.50
1968.534,408.25
1969.369,454.50
1970.204,404.75
1971.040,445.00
1971.875,393.50
1972.709,399.25
1973.544,415.25
1974.378,412.75
1975.212,418.75
1976.047,442.00
1976.882,382.75
1977.716,414.75
1978.550,436.25
1979.384,420.25
1980.218,423.25
1981.052,400.00
1981.885,450.75
1982.719,376.25
1983.554,405.75
1984.388,412.75
1985.221,390.50
1986.054,447.00
1986.887,410.75
1987.720,424.25
1988.553,382.00
1989.386,401.50
1990.219,444.75
1991.053,433.25
1991.886,392.00
1992.719,410.75
1993.551,393.50
1994.383,398.25
1995.216,386.00
1996.048,381.75
1996.880,408.25
1997.712,403.75
1998.544,363.00
1999.376,364.50
2000.208,441.00
2001.040,406.75
2001.873,447.50
2002.705,393.75
2003.536,427.50
2004.367,421.25
2005.199,429.50
2006.030,385.50
2006.861,450.25
2007.692,421.75
2008.523,424.75
2009.354,402.75
2010.185,421.25
2011.016,403.00
2011.846,376.50
2012.677,386.25
2013.507,425.75
2014.338,393.00
2015.168,413.50
2015.999,421.25
2016.829,409.25
2017.659,362.25
2018.489,449.50
2019.319,425.75
2020.149,387.75
2020.980,424.00
2021.810,410.00
2022.639,382.25
2023.469,353.25
2024.298,404.00
2025.128,372.50
2025.957,470.25
2026.786,402.00
2027.615,389.75
2028.444,413.00
2029.273,408.75
2030.102,415.00
2030.931,400.75
2031.758,460.25
2032.586,420.50
2033.415,442.00
2034.243,396.50
2035.072,432.00
2035.900,388.50
2036.728,397.75
2037.556,425.75
2038.385,390.75
2039.213,417.75
2040.040,402.00
2040.868,425.00
2041.696,413.75
2042.524,436.00
2043.351,401.25
2044.179,413.50
2045.006,414.50
2045.006,414.50

Max Intensity Wave.,217.871
Max Intensity Data,5315.75
Min Intensity Wave.,2023.469
Min Intensity Data,353.25
FWHM Wave.,384.809
FWHM Value,27.11
Pressure Wave.,685.217
Pressure Value [GPa],-23.49461
G/D Ratio,0.61203
G/D Gband Wave.,1568.969
G/D Gband Intensity,599.37
G/D Dband Wave.,1311.681
G/D Dband Intensity,979.31

<< BACKGROUND SPECTRUM >>
Wave[dcm-1],No165
146.591,2271.00
147.626,2122.00
148.664,2038.00
149.699,2547.00
150.737,2248.00
151.772,2406.00
152.809,2397.00
153.846,2333.00
154.881,2422.00
155.918,1985.00
156.953,2249.00
157.989,2655.00
159.026,2455.00
160.060,2657.00
161.096,2855.00
162.130,2530.00
163.167,2559.00
164.200,2475.00
165.236,2687.00
166.272,2715.00
167.305,2289.00
168.341,2563.00
169.374,2787.00
170.409,2763.00
171.445,2782.00
172.477,2555.00
173.512,2414.00
174.545,2703.00
175.580,2907.00
176.614,3037.00
177.647,2810.00
178.681,3077.00
179.713,3391.00
180.747,2831.00
181.781,2731.00
182.813,3009.00
183.847,3111.00
184.878,2743.00
185.912,3027.00
186.945,3195.00
187.976,3090.00
189.010,2707.00
190.043,2871.00
191.073,2958.00
192.106,2739.00
193.137,3185.00
194.170,2602.00
195.202,2947.00
196.232,2745.00
197.265,3007.00
198.297,3091.00
199.327,2788.00
200.359,2943.00
201.388,3347.00
202.420,2922.00
203.452,3114.00
204.481,2729.00
205.512,3318.00
206.544,3130.00
207.573,3057.00
208.604,3424.00
209.635,3562.00
210.663,3001.00
211.694,3036.00
212.725,2834.00
213.753,2844.00
214.783,3420.00
215.813,3258.00
216.841,3053.00
217.871,3192.00
218.899,2964.00
219.929,3156.00
220.959,2896.00
221.986,3166.00
223.016,2768.00
224.045,3188.00
225.072,3169.00
226.101,3220.00
227.130,3256.00
228.157,2900.00
229.185,2389.00
230.214,3202.00
231.241,2845.00
232.269,2492.00
233.297,2688.00
234.323,3254.00
235.351,2849.00
236.379,3130.00
237.407,2777.00
238.433,2976.00
239.460,3137.00
240.488,3134.00
241.513,3229.00
242.540,3071.00
243.568,3229.00
244.592,3238.00
245.619,3212.00
246.646,2922.00
247.671,2983.00
248.697,2863.00
249.724,3049.00
250.748,3021.00
251.774,3008.00
252.801,3338.00
253.827,3090.00
254.850,3114.00
255.876,2719.00
256.902,3152.00
257.925,2993.00
258.951,2736.00
259.976,2793.00
260.999,3103.00
262.024,2813.00
263.049,3655.00
264.074,3164.00
265.097,3039.00
266.122,3118.00
267.146,3038.00
268.168,3263.00
269.193,2888.00
270.217,3275.00
271.241,2736.00
272.263,2893.00
273.287,3167.00
274.311,2832.00
275.332,3303.00
276.356,2885.00
277.379,3103.00
278.402,3162.00
279.424,2956.00
280.447,2926.00
281.470,2770.00
282.492,3091.00
283.513,2932.00
284.536,3161.00
285.558,3181.00
286.581,3128.00
287.601,2859.00
288.623,2849.00
289.645,3083.00
290.665,3127.00
291.687,3148.00
292.709,3138.00
293.730,3439.00
294.750,2923.00
295.771,2750.00
296.792,3076.00
297.813,2937.00
298.832,3082.00
299.853,2759.00
300.874,3001.00
301.895,3012.00
302.913,3023.00
303.934,3288.00
304.954,3071.00
305.975,3202.00
306.993,2761.00
308.013,3127.00
309.033,3053.00
310.052,2971.00
311.072,2925.00
312.090,3094.00
313.109,3307.00
314.129,3439.00
315.148,3046.00
316.165,3087.00
317.184,3232.00
318.203,2787.00
319.222,2811.00
320.238,3100.00
321.257,2834.00
322.275,2712.00
323.294,3010.00
324.312,3183.00
325.328,3296.00
326.346,3320.00
327.364,3268.00
328.382,3172.00
329.397,3159.00
330.415,3272.00
331.432,3221.00
332.450,3261.00
333.467,3492.00
334.482,2583.00
335.499,3421.00
336.516,2874.00
337.533,2586.00
338.547,2885.00
339.564,2870.00
340.580,3123.00
341.597,3017.00
342.613,3481.00
343.627,3011.00
344.643,3069.00
345.659,3162.00
346.675,3006.00
347.690,2958.00
348.704,3095.00
349.719,2910.00
350.735,2785.00
351.750,3244.00
352.765,3033.00
353.778,2962.00
354.793,3196.00
355.808,2790.00
356.822,3172.00
357.837,2682.00
358.851,3253.00
359.864,2944.00
360.878,2736.00
361.892,2996.00
362.906,3185.00
363.920,2622.00
364.932,3101.00
365.945,3117.00
366.959,2980.00
367.972,2959.00
368.986,2749.00
369.999,3462.00
371.010,2894.00
372.023,3348.00
373.036,2983.00
374.049,3422.00
375.061,3097.00
376.072,3005.00
377.084,2925.00
378.097,2695.00
379.109,3188.00
380.121,3002.00
381.133,2710.00
382.143,3167.00
383.155,2779.00
384.166,2940.00
385.178,3108.00
386.189,3236.00
387.201,2743.00
388.212,2910.00
389.221,2953.00
390.232,3065.00
391.243,2908.00
392.254,3034.00
393.264,2869.00
394.275,3242.00
395.283,3195.00
396.294,3636.00
397.304,3473.00
398.314,3143.00
399.324,3057.00
400.334,2703.00
401.344,3161.00
402.351,2715.00
403.361,3215.00
404.370,2962.00
405.380,2930.00
406.389,3366.00
407.398,3118.00
408.407,3130.00
409.414,3181.00
410.423,3277.00
411.431,2797.00
412.440,2705.00
413.448,3340.00
414.457,2859.00
415.465,2835.00
416.471,2899.00
417.479,3022.00
418.487,2837.00
419.495,3330.00
420.503,3118.00
421.510,2622.00
422.518,3196.00
423.525,3222.00
424.530,3384.00
425.537,2872.00
426.544,3260.00
427.551,2868.00
428.558,3624.00
429.565,3449.00
430.571,2933.00
431.578,2937.00
432.582,2860.00
433.588,2976.00
434.595,2627.00
435.601,3334.00
436.607,3270.00
437.612,2801.00
438.618,3349.00
439.624,2994.00
440.627,2953.00
441.633,3189.00
442.638,3631.00
443.643,3055.00
444.648,3060.00
445.653,3222.00
446.658,2890.00
447.663,3023.00
448.667,2915.00
449.672,2957.00
450.674,2988.00
451.678,2732.00
452.682,2890.00
453.687,2839.00
454.690,3622.00
455.694,3280.00
456.698,2561.00
457.702,2685.00
458.705,2827.00
459.709,2797.00
460.710,2932.00
461.713,3070.00
462.716,3091.00
463.719,3034.00
464.722,3207.00
465.725,2981.00
466.727,2852.00
467.730,3063.00
468.732,2789.00
469.735,3307.00
470.737,2946.00
471.737,2924.00
472.739,2915.00
473.741,2838.00
474.742,3066.00
475.744,3092.00
476.746,3077.00
477.747,2967.00
478.748,3204.00
479.750,2944.00
480.751,3040.00
481.752,3762.00
482.753,3118.00
483.751,3584.00
484.752,2616.00
485.753,3001.00
486.753,2881.00
487.753,3012.00
488.754,3472.00
489.754,2733.00
490.754,3378.00
491.754,3147.00
492.754,2693.00
493.753,3048.00
494.753,2959.00
495.752,3324.00
496.752,3039.00
497.749,2987.00
498.748,2853.00
499.747,3390.00
500.746,3088.00
501.745,2811.00
502.744,2786.00
503.742,3335.00
504.741,2940.00
505.739,2513.00
506.737,2926.00
507.735,3145.00
508.734,3370.00
509.732,3157.00
510.729,3351.00
511.727,2888.00
512.725,2942.00
513.720,2780.00
514.718,3278.00
515.715,2715.00
516.712,2632.00
517.709,3020.00
518.706,2908.00
519.703,3076.00
520.700,3227.00
521.696,3360.00
522.693,2948.00
523.689,2817.00
524.686,3213.00
525.682,2771.00
526.678,3497.00
527.674,2908.00
528.670,2635.00
529.666,3510.00
530.661,3462.00
531.657,3190.00
532.652,3176.00
533.648,2979.00
534.641,3224.00
535.636,3104.00
536.631,3128.00
537.626,3217.00
538.621,2763.00
539.616,2617.00
540.610,2513.00
541.605,3008.00
542.599,3058.00
543.593,2998.00
544.587,3939.00
545.581,2862.00
546.575,3077.00
547.569,3044.00
548.563,2696.00
549.557,2651.00
550.550,2784.00
551.543,2754.00
552.537,3172.00
553.530,2760.00
554.523,2787.00
555.516,3101.00
556.509,2977.00
557.502,2664.00
558.494,3229.00
559.487,2934.00
560.479,3211.00
561.472,3254.00
562.464,3180.00
563.456,3367.00
564.448,2988.00
565.440,3042.00
566.432,3396.00
567.423,2937.00
568.415,2855.00
569.404,3116.00
570.396,2828.00
571.387,3117.00
572.378,3039.00
573.369,3903.00
574.360,3681.00
575.351,2936.00
576.341,2870.00
577.332,2858.00
578.323,2687.00
579.313,2910.00
580.303,3260.00
581.293,3149.00
582.283,2989.00
583.273,3142.00
584.263,3000.00
585.253,3085.00
586.243,3235.00
587.232,2683.00
588.222,2973.00
589.211,3168.00
590.200,3094.00
591.189,2958.00
592.178,2974.00
593.167,3458.00
594.156,3329.00
595.145,2909.00
596.133,3488.00
597.122,3117.00
598.110,3213.00
599.098,3078.00
600.086,2990.00
601.074,3172.00
602.062,2871.00
603.050,2758.00
604.038,3129.00
605.025,2852.00
606.013,3212.00
607.000,3387.00
607.987,3065.00
608.975,3115.00
609.962,2817.00
610.949,3157.00
611.936,3255.00
612.922,3191.00
613.909,2726.00
614.895,3362.00
615.882,2878.00
616.868,3007.00
617.854,2739.00
618.841,3020.00
619.826,3121.00
620.812,3008.00
621.798,2802.00
622.784,3187.00
623.769,3113.00
624.755,2735.00
625.740,3036.00
626.725,2749.00
627.711,2846.00
628.698,3110.00
629.683,2850.00
630.667,3233.00
631.652,2798.00
632.637,2936.00
633.621,3177.00
634.606,2940.00
635.590,3158.00
636.574,2989.00
637.558,3108.00
638.542,3035.00
639.526,2856.00
640.510,2629.00
641.493,3027.00
642.477,2972.00
643.460,2690.00
644.444,3253.00
645.427,3251.00
646.410,2663.00
647.393,2981.00
648.376,3073.00
649.359,2919.00
650.341,3090.00
651.324,3095.00
652.307,3054.00
653.289,2963.00
654.271,2870.00
655.253,2900.00
656.235,3142.00
657.217,3249.00
658.199,2626.00
659.181,2737.00
660.163,3024.00
661.144,2880.00
662.126,2878.00
663.107,2804.00
664.088,4735.00
665.069,3228.00
666.050,2820.00
667.033,2696.00
668.014,3057.00
668.995,2578.00
669.975,2992.00
670.956,3005.00
671.936,3160.00
672.916,2950.00
673.896,3089.00
674.876,2929.00
675.856,2870.00
676.836,2752.00
677.816,2333.00
678.795,2811.00
679.775,2703.00
680.754,3000.00
681.734,3161.00
682.713,3150.00
683.692,2766.00
684.671,2610.00
685.650,2741.00
686.629,2855.00
687.607,2773.00
688.586,2789.00
689.564,2876.00
690.543,3266.00
691.523,2362.00
692.501,2838.00
693.479,2967.00
694.457,2833.00
695.435,2896.00
696.413,2652.00
697.390,2540.00
698.368,2706.00
699.345,3106.00
700.322,2933.00
701.300,3105.00
702.277,3056.00
703.254,3273.00
704.231,2589.00
705.207,2955.00
706.184,2795.00
707.161,2668.00
708.137,2830.00
709.113,2806.00
710.090,2778.00
711.068,2610.00
712.044,2628.00
713.020,2892.00
713.996,2649.00
714.971,2809.00
715.947,2833.00
716.922,2812.00
717.898,2753.00
718.873,2891.00
719.848,2755.00
720.823,2682.00
721.798,2976.00
722.773,2738.00
723.748,2515.00
724.723,3026.00
725.697,2836.00
726.672,2772.00
727.646,2512.00
728.622,2998.00
729.596,2632.00
730.570,2724.00
731.544,3061.00
732.518,3297.00
733.492,2825.00
734.466,2840.00
735.439,3004.00
736.413,3110.00
737.386,2507.00
738.359,2398.00
739.332,2516.00
740.305,2841.00
741.278,3329.00
742.251,2930.00
743.224,2769.00
744.196,2553.00
745.171,3151.00
746.143,3054.00
747.115,2772.00
748.087,2687.00
749.059,3099.00
750.031,2899.00
751.003,3700.00
751.975,3248.00
752.947,2706.00
753.918,3115.00
754.890,2559.00
755.861,2784.00
756.832,3049.00
757.803,2861.00
758.774,2827.00
759.747,2610.00
760.718,3168.00
761.689,2751.00
762.659,2579.00
763.630,3159.00
764.600,2557.00
765.570,3085.00
766.540,3134.00
767.510,2899.00
768.480,3011.00
769.450,2758.00
770.420,2806.00
771.390,2668.00
772.359,2794.00
773.329,2666.00
774.300,2532.00
775.269,2761.00
776.238,2993.00
777.207,3177.00
778.176,2533.00
779.145,2781.00
780.114,2666.00
781.083,2583.00
782.051,2771.00
783.019,2698.00
783.988,3062.00
784.956,2876.00
785.924,2970.00
786.894,2870.00
787.862,2720.00
788.830,3144.00
789.797,2656.00
790.765,2657.00
791.732,2792.00
792.700,2648.00
793.667,2632.00
794.634,2769.00
795.601,2739.00
796.568,2781.00
797.535,2820.00
798.502,3416.00
799.468,2927.00
800.437,2442.00
801.403,2650.00
802.370,3309.00
803.336,2980.00
804.302,2899.00
805.268,2445.00
806.234,2552.00
807.200,2766.00
808.166,2804.00
809.131,2571.00
810.097,3019.00
811.062,3581.00
812.027,3032.00
812.994,2576.00
813.960,2622.00
814.925,2950.00
815.889,2511.00
816.854,3033.00
817.819,2657.00
818.783,2765.00
819.748,3077.00
820.712,2775.00
821.677,2630.00
822.641,2718.00
823.605,2755.00
824.571,3131.00
825.534,2743.00
826.498,2661.00
827.462,2828.00
828.425,2631.00
829.389,3047.00
830.352,2823.00
831.315,2910.00
832.279,2484.00
833.242,2775.00
834.204,2666.00
835.167,2654.00
836.132,3044.00
837.095,2541.00
838.057,2723.00
839.020,2813.00
839.982,2833.00
840.944,2701.00
841.906,2627.00
842.868,2947.00
843.830,2551.00
844.792,3055.00
845.753,2670.00
846.715,2486.00
847.679,2587.00
848.640,2630.00
849.601,2742.00
850.562,3245.00
851.523,2705.00
852.484,2470.00
853.445,2985.00
854.406,2717.00
855.367,2699.00
856.327,3018.00
857.288,2553.00
858.248,2666.00
859.210,2699.00
860.170,2510.00
861.130,3036.00
862.090,2463.00
863.050,2620.00
864.010,2678.00
864.969,2893.00
865.929,2592.00
866.888,2522.00
867.848,2813.00
868.807,2656.00
869.766,2839.00
870.727,2712.00
871.686,2992.00
872.645,2994.00
873.604,3293.00
874.562,2746.00
875.521,2788.00
876.479,3400.00
877.437,2596.00
878.396,2602.00
879.354,3156.00
880.312,2597.00
881.270,2696.00
882.229,3109.00
883.187,2617.00
884.145,2665.00
885.102,2918.00
886.059,2821.00
887.017,2890.00
887.974,2931.00
888.931,3063.00
889.888,2521.00
890.845,2402.00
891.802,2329.00
892.758,2690.00
893.717,2446.00
894.673,2550.00
895.630,2625.00
896.586,2963.00
897.542,2732.00
898.498,2508.00
899.454,2840.00
900.410,2711.00
901.366,2643.00
902.321,2709.00
903.277,2684.00
904.232,2749.00
905.189,2482.00
906.145,2646.00
907.100,2227.00
908.055,2700.00
909.010,2907.00
909.965,2333.00
910.919,2821.00
911.874,2559.00
912.828,2781.00
913.783,2763.00
914.737,2342.00
915.693,2759.00
916.648,2870.00
917.602,2931.00
918.555,2790.00
919.509,2840.00
920.463,2731.00
921.417,2797.00
922.370,2575.00
923.324,2660.00
924.277,2709.00
925.230,2771.00
926.183,2414.00
927.138,2686.00
928.091,2949.00
929.044,2839.00
929.996,2639.00
930.949,2681.00
931.902,2812.00
932.854,2859.00
933.806,2619.00
934.758,2946.00
935.711,2983.00
936.663,2797.00
937.614,2778.00
938.568,2750.00
939.520,2413.00
940.471,2695.00
941.423,2750.00
942.374,2900.00
943.326,2792.00
944.277,2610.00
945.228,2830.00
946.179,2696.00
947.130,3037.00
948.080,2648.00
949.031,2556.00
949.984,2660.00
950.934,2697.00
951.884,2470.00
952.835,2704.00
953.785,2745.00
954.735,2588.00
955.685,2395.00
956.635,2617.00
957.585,2620.00
958.534,2642.00
959.484,2725.00
960.433,2614.00
961.383,2495.00
962.334,2928.00
963.283,2792.00
964.232,2851.00
965.181,2737.00
966.130,2811.00
967.079,2636.00
968.027,2692.00
968.976,2702.00
969.924,2627.00
970.873,2838.00
971.821,2737.00
972.769,2952.00
973.719,2833.00
974.667,2503.00
975.615,2697.00
976.562,2726.00
977.510,2401.00
978.458,2602.00
979.405,2830.00
980.352,2767.00
981.300,2933.00
982.247,2807.00
983.194,2545.00
984.141,2612.00
985.088,2743.00
986.036,2774.00
986.983,2979.00
987.930,3119.00
988.876,2372.00
989.822,2927.00
990.769,2544.00
991.715,2587.00
992.661,2450.00
993.607,2812.00
994.553,3254.00
995.498,2592.00
996.444,2255.00
997.389,2748.00
998.337,2532.00
999.282,2849.00
1000.227,2669.00
1001.173,2698.00
1002.118,2468.00
1003.062,2872.00
1004.007,2714.00
1004.952,2998.00
1005.897,2900.00
1006.841,2732.00
1007.786,2481.00
1008.730,2424.00
1009.674,3197.00
1010.618,2653.00
1011.564,2520.00
1012.508,2398.00
1013.452,2929.00
1014.396,2743.00
1015.339,2662.00
1016.283,2720.00
1017.226,2760.00
1018.170,2719.00
1019.113,2911.00
1020.056,2720.00
1020.999,2720.00
1021.942,2580.00
1022.885,2866.00
1023.828,3006.00
1024.770,2485.00
1025.715,2717.00
1026.657,2673.00
1027.600,2768.00
1028.542,2932.00
1029.484,2758.00
1030.426,2835.00
1031.368,2782.00
1032.310,2609.00
1033.251,2561.00
1034.193,2700.00
1035.135,2478.00
1036.076,2660.00
1037.017,2534.00
1037.959,2826.00
1038.900,2785.00
1039.843,2813.00
1040.784,2729.00
1041.725,2769.00
1042.665,2601.00
1043.606,2746.00
1044.547,2750.00
1045.487,2334.00
1046.427,2687.00
1047.368,2807.00
1048.308,2244.00
1049.248,2537.00
1050.188,2713.00
1051.128,2595.00
1052.067,2678.00
1053.007,2416.00
1053.947,2403.00
1054.886,2591.00
1055.827,2518.00
1056.766,2989.00
1057.706,2484.00
1058.645,2663.00
1059.584,2734.00
1060.522,2965.00
1061.461,2454.00
1062.400,2492.00
1063.338,2631.00
1064.277,2532.00
1065.215,2530.00
1066.154,2413.00
1067.092,2597.00
1068.030,2619.00
1068.968,2844.00
1069.906,3017.00
1070.843,2939.00
1071.781,2727.00
1072.720,2811.00
1073.658,2821.00
1074.595,2567.00
1075.533,2538.00
1076.470,2586.00
1077.407,2987.00
1078.344,2762.00
1079.281,2771.00
1080.217,2317.00
1081.154,2657.00
1082.091,2727.00
1083.027,2452.00
1083.964,2943.00
1084.900,2538.00
1085.836,2551.00
1086.772,2859.00
1087.708,2433.00
1088.644,2830.00
1089.580,2681.00
1090.515,2695.00
1091.451,2606.00
1092.388,2710.00
1093.324,2465.00
1094.259,3234.00
1095.194,2754.00
1096.129,2605.00
1097.064,2564.00
1097.999,2838.00
1098.934,2520.00
1099.869,2505.00
1100.803,2698.00
1101.738,2693.00
1102.672,2385.00
1103.607,2796.00
1104.541,2559.00
1105.475,2529.00
1106.409,2407.00
1107.343,2611.00
1108.277,2444.00
1109.210,2727.00
1110.144,2675.00
1111.078,2650.00
1112.011,2438.00
1112.944,2777.00
1113.878,2678.00
1114.811,2179.00
1115.744,2576.00
1116.678,2296.00
1117.611,2594.00
1118.544,2597.00
1119.477,2774.00
1120.409,2533.00
1121.342,3096.00
1122.274,2737.00
1123.206,3011.00
1124.138,2693.00
1125.070,2995.00
1126.002,2861.00
1126.934,2310.00
1127.866,2567.00
1128.798,2327.00
1129.729,2354.00
1130.661,2663.00
1131.592,2528.00
1132.523,2786.00
1133.454,2763.00
1134.385,2309.00
1135.317,2647.00
1136.247,2577.00
1137.178,2860.00
1138.109,2387.00
1139.039,3010.00
1139.970,2835.00
1140.900,2574.00
1141.831,2316.00
1142.761,2242.00
1143.691,3260.00
1144.621,2627.00
1145.551,2672.00
1146.480,2704.00
1147.410,2853.00
1148.340,2304.00
1149.269,2390.00
1150.199,2612.00
1151.128,3048.00
1152.057,2438.00
1152.979,2593.00
1153.898,2608.00
1154.819,2701.00
1155.739,2612.00
1156.658,2536.00
1157.579,2675.00
1158.498,2640.00
1159.419,2154.00
1160.338,2652.00
1161.256,2688.00
1162.177,2487.00
1163.095,2604.00
1164.016,2681.00
1164.934,2872.00
1165.852,2817.00
1166.772,2642.00
1167.690,2608.00
1168.610,2682.00
1169.528,2629.00
1170.446,2198.00
1171.365,2533.00
1172.283,2524.00
1173.202,2629.00
1174.120,2630.00
1175.037,2513.00
1175.956,2475.00
1176.873,2485.00
1177.792,2531.00
1178.709,3100.00
1179.626,2498.00
1180.544,2863.00
1181.461,2491.00
1182.379,2727.00
1183.296,2648.00
1184.212,2276.00
1185.130,2431.00
1186.046,2967.00
1186.962,2638.00
1187.880,2888.00
1188.796,2677.00
1189.714,2439.00
1190.629,2775.00
1191.545,2712.00
1192.462,2565.00
1193.378,2614.00
1194.295,2326.00
1195.210,2626.00
1196.125,2780.00
1197.042,2671.00
1197.957,2664.00
1198.872,2492.00
1199.788,2553.00
1200.703,2980.00
1201.619,2663.00
1202.534,2496.00
1203.448,2696.00
1204.364,2563.00
1205.278,2328.00
1206.192,2675.00
1207.108,3148.00
1208.022,3028.00
1208.938,2451.00
1209.851,2789.00
1210.765,2895.00
1211.680,2521.00
1212.594,2425.00
1213.507,2607.00
1214.422,3042.00
1215.335,2763.00
1216.248,2578.00
1217.163,2619.00
1218.076,3246.00
1218.990,2681.00
1219.903,2419.00
1220.816,2449.00
1221.730,2554.00
1222.642,2513.00
1223.554,2530.00
1224.469,2710.00
1225.380,2570.00
1226.292,2281.00
1227.206,2778.00
1228.118,2885.00
1229.032,2265.00
1229.943,2509.00
1230.855,2586.00
1231.768,2377.00
1232.679,2711.00
1233.590,2602.00
1234.503,2831.00
1235.414,2473.00
1236.325,2486.00
1237.238,2698.00
1238.149,2713.00
1239.059,2435.00
1239.972,2802.00
1240.882,2452.00
1241.793,2729.00
1242.705,2978.00
1243.615,2606.00
1244.525,2760.00
1245.437,2220.00
1246.347,2671.00
1247.259,2809.00
1248.168,3065.00
1249.078,2865.00
1249.989,2924.00
1250.899,2459.00
1251.808,2483.00
1252.719,2550.00
1253.628,2478.00
1254.537,3021.00
1255.448,2462.00
1256.357,2459.00
1257.266,2633.00
1258.176,2364.00
1259.085,2354.00
1259.993,2452.00
1260.904,2482.00
1261.812,2474.00
1262.720,3149.00
1263.630,2781.00
1264.538,2452.00
1265.446,2728.00
1266.356,2616.00
1267.263,2935.00
1268.171,2427.00
1269.080,2668.00
1269.988,2769.00
1270.895,2533.00
1271.804,2598.00
1272.711,2818.00
1273.619,2765.00
1274.527,2458.00
1275.434,2743.00
1276.341,2440.00
1277.248,2664.00
1278.156,2894.00
1279.063,2508.00
1279.969,2714.00
1280.877,3533.00
1281.783,2837.00
1282.690,2701.00
1283.598,2552.00
1284.503,2460.00
1285.409,2435.00
1286.317,3014.00
1287.223,3035.00
1288.128,2704.00
1289.036,2505.00
1289.941,2555.00
1290.846,2672.00
1291.751,2502.00
1292.658,2553.00
1293.563,3102.00
1294.468,2643.00
1295.375,2764.00
1296.280,2860.00
1297.184,3322.00
1298.091,2732.00
1298.995,2763.00
1299.900,3005.00
1300.806,2545.00
1301.710,2380.00
1302.614,2180.00
1303.518,2871.00
1304.424,2578.00
1305.327,2850.00
1306.231,2628.00
1307.137,2781.00
1308.040,2682.00
1308.943,2621.00
1309.847,2841.00
1310.752,2837.00
1311.655,2247.00
1312.558,2425.00
1313.463,2582.00
1314.366,2514.00
1315.269,2683.00
1316.171,2627.00
1317.076,2550.00
1317.978,2436.00
1318.881,2284.00
1319.785,2487.00
1320.687,2483.00
1321.589,2256.00
1322.491,2469.00
1323.395,2713.00
1324.297,3179.00
1325.198,2742.00
1326.102,2453.00
1327.004,2466.00
1327.905,3023.00
1328.806,2586.00
1329.709,2684.00
1330.611,2562.00
1331.512,2416.00
1332.413,3050.00
1333.316,2664.00
1334.216,2808.00
1335.117,2384.00
1336.020,2685.00
1336.920,2593.00
1337.821,2452.00
1338.721,2861.00
1339.623,2716.00
1340.523,2595.00
1341.423,2506.00
1342.323,2928.00
1343.225,2719.00
1344.125,2441.00
1345.025,2550.00
1345.924,2305.00
1346.826,2953.00
1347.725,3023.00
1348.624,2827.00
1349.524,2552.00
1350.425,2599.00
1351.324,2742.00
1352.223,2779.00
1353.121,2642.00
1354.022,2829.00
1354.921,3022.00
1355.819,2777.00
1356.718,2702.00
1357.618,2385.00
1358.516,2739.00
1359.415,2960.00
1360.313,2710.00
1361.213,2569.00
1362.111,2911.00
1363.008,3266.00
1363.906,2600.00
1364.806,2652.00
1365.703,2702.00
1366.601,2474.00
1367.498,2465.00
1368.397,2816.00
1369.295,2684.00
1370.192,2453.00
1371.089,2732.00
1371.987,2627.00
1372.884,2897.00
1373.781,2413.00
1374.678,2651.00
1375.574,2444.00
1376.473,2775.00
1377.369,2866.00
1378.265,2486.00
1379.161,2610.00
1380.059,2320.00
1380.955,2758.00
1381.851,2409.00
1382.747,2517.00
1383.643,2548.00
1384.540,2413.00
1385.436,2520.00
1386.331,2691.00
1387.227,2770.00
1388.124,2773.00
1389.019,2430.00
1389.914,2640.00
1390.809,2302.00
1391.704,3081.00
1392.601,2542.00
1393.495,2905.00
1394.390,2817.00
1395.285,2872.00
1396.179,2723.00
1397.075,2637.00
1397.969,2699.00
1398.864,2323.00
1399.758,2608.00
1400.652,2662.00
1401.547,2482.00
1402.441,2403.00
1403.335,2979.00
1404.229,2788.00
1405.122,2693.00
1406.017,2596.00
1406.911,2798.00
1407.804,3014.00
1408.697,2628.00
1409.590,2459.00
1410.485,2780.00
1411.378,2721.00
1412.271,2340.00
1413.163,2657.00
1414.056,2767.00
1414.949,3009.00
1415.843,2647.00
1416.735,2585.00
1417.627,2670.00
1418.520,2603.00
1419.412,2871.00
1420.306,2794.00
1421.197,2967.00
1422.089,2836.00
1422.981,3111.00
1423.873,2822.00
1424.764,2776.00
1425.657,2683.00
1426.549,2737.00
1427.440,2854.00
1428.331,2532.00
1429.222,2328.00
1430.113,2663.00
1431.006,2835.00
1431.897,2556.00
1432.787,2624.00
1433.678,2585.00
1434.568,2459.00
1435.459,2854.00
1436.351,2809.00
1437.241,2777.00
1438.131,2798.00
1439.021,2627.00
1439.911,2596.00
1440.801,2714.00
1441.693,2859.00
1442.583,2661.00
1443.472,2642.00
1444.362,2728.00
1445.251,2617.00
1446.140,2571.00
1447.030,2803.00
1447.921,2813.00
1448.810,2465.00
1449.699,3022.00
1450.588,2674.00
1451.476,2542.00
1452.365,2742.00
1453.254,2570.00
1454.144,2505.00
1455.032,2789.00
1455.921,2384.00
1456.809,2949.00
1457.697,2468.00
1458.585,2618.00
1459.473,2599.00
1460.361,2509.00
1461.251,2710.00
1462.138,2704.00
1463.026,2648.00
1463.913,2858.00
1464.801,2554.00
1465.688,2709.00
1466.575,2693.00
1467.463,3052.00
1468.351,2501.00
1469.238,2601.00
1470.125,2258.00
1471.012,2707.00
1471.899,2744.00
1472.785,2483.00
1473.672,2662.00
1474.558,2857.00
1475.446,2778.00
1476.333,2812.00
1477.219,2435.00
1478.105,2625.00
1478.991,2642.00
1479.877,2948.00
1480.762,2620.00
1481.648,2530.00
1482.534,2790.00
1483.419,2741.00
1484.307,2781.00
1485.192,2577.00
1486.077,2540.00
1486.962,2528.00
1487.847,2419.00
1488.732,2510.00
1489.617,2675.00
1490.502,2901.00
1491.387,2764.00
1492.271,2462.00
1493.156,2497.00
1494.042,2475.00
1494.927,2822.00
1495.811,2532.00
1496.695,2765.00
1497.579,2939.00
1498.463,2627.00
1499.347,2669.00
1500.231,2685.00
1501.114,2726.00
1501.998,2898.00
1502.881,2746.00
1503.765,2943.00
1504.648,3071.00
1505.533,2768.00
1506.417,2701.00
1507.300,2625.00
1508.183,2703.00
1509.066,2138.00
1509.948,2905.00
1510.831,3022.00
1511.714,2450.00
1512.596,2795.00
1513.479,2885.00
1514.361,2863.00
1515.243,2681.00
1516.125,2801.00
1517.008,2938.00
1517.890,2598.00
1518.771,2675.00
1519.655,2830.00
1520.537,2602.00
1521.419,2449.00
1522.300,2684.00
1523.182,2779.00
1524.063,2808.00
1524.944,2945.00
1525.825,2879.00
1526.707,2488.00
1527.588,2438.00
1528.468,2769.00
1529.349,2330.00
1530.230,2586.00
1531.111,2788.00
1531.991,2716.00
1532.872,2415.00
1533.752,2609.00
1534.632,2548.00
1535.513,2517.00
1536.393,2781.00
1537.273,2978.00
1538.153,3247.00
1539.032,2424.00
1539.912,2671.00
1540.792,2671.00
1541.672,2673.00
1542.551,2734.00
1543.430,3261.00
1544.310,2730.00
1545.189,2562.00
1546.068,3050.00
1546.947,2800.00
1547.826,2942.00
1548.705,2601.00
1549.584,2873.00
1550.462,2612.00
1551.341,2804.00
1552.219,2720.00
1553.098,2775.00
1553.976,2875.00
1554.854,3040.00
1555.733,2853.00
1556.611,2584.00
1557.489,2490.00
1558.367,2679.00
1559.244,2805.00
1560.122,2658.00
1561.000,2760.00
1561.877,2969.00
1562.755,2518.00
1563.632,2610.00
1564.509,2892.00
1565.386,3060.00
1566.264,2467.00
1567.141,2297.00
1568.017,2861.00
1568.894,2600.00
1569.771,2732.00
1570.648,2827.00
1571.524,2646.00
1572.401,2415.00
1573.277,2444.00
1574.153,2705.00
1575.029,2515.00
1575.906,3400.00
1576.781,2858.00
1577.657,2617.00
1578.533,2931.00
1579.409,2307.00
1580.285,2625.00
1581.160,3077.00
1582.036,2862.00
1582.911,2486.00
1583.786,3051.00
1584.662,2475.00
1585.537,2643.00
1586.412,2728.00
1587.287,2508.00
1588.160,2879.00
1589.035,2366.00
1589.909,2718.00
1590.784,2656.00
1591.658,2465.00
1592.533,2742.00
1593.407,2697.00
1594.281,2561.00
1595.155,3101.00
1596.029,2583.00
1596.903,2621.00
1597.777,2602.00
1598.651,2930.00
1599.525,2383.00
1600.398,2682.00
1601.272,2646.00
1602.144,3205.00
1603.017,2612.00
1603.890,2919.00
1604.763,2780.00
1605.636,2812.00
1606.509,2399.00
1607.382,2544.00
1608.255,2759.00
1609.128,2868.00
1610.000,2636.00
1610.873,2390.00
1611.746,2585.00
1612.616,2615.00
1613.488,2276.00
1614.361,2684.00
1615.233,2621.00
1616.105,2866.00
1616.977,2554.00
1617.849,2513.00
1618.720,2956.00
1619.592,2971.00
1620.464,2804.00
1621.333,3140.00
1622.205,2650.00
1623.076,2681.00
1623.947,2670.00
1624.818,2925.00
1625.689,2793.00
1626.560,2593.00
1627.431,2714.00
1628.302,3049.00
1629.171,2814.00
1630.042,2982.00
1630.912,3302.00
1631.782,3273.00
1632.653,2511.00
1633.523,2844.00
1634.393,2925.00
1635.263,2592.00
1636.131,2619.00
1637.001,2587.00
1637.871,2321.00
1638.741,2354.00
1639.611,2429.00
1640.480,2814.00
1641.350,2570.00
1642.219,2526.00
1643.087,2177.00
1643.956,3079.00
1644.825,2952.00
1645.694,2896.00
1646.563,2853.00
1647.432,2770.00
1648.299,2726.00
1649.167,2816.00
1650.036,2468.00
1650.904,2827.00
1651.773,2905.00
1652.641,2689.00
1653.509,2893.00
1654.376,2565.00
1655.244,2742.00
1656.112,2727.00
1656.980,2686.00
1657.847,2554.00
1658.715,2843.00
1659.581,2572.00
1660.448,2899.00
1661.316,2229.00
1662.183,2669.00
1663.051,2762.00
1663.918,2740.00
1664.783,2723.00
1665.650,2786.00
1666.517,2843.00
1667.384,2692.00
1668.251,2728.00
1669.115,2882.00
1669.982,2657.00
1670.849,2923.00
1671.715,2685.00
1672.581,2809.00
1673.446,2809.00
1674.312,2707.00
1675.178,3099.00
1676.044,2827.00
1676.910,2762.00
1677.774,2715.00
1678.639,2370.00
1679.505,2703.00
1680.370,2859.00
1681.236,3317.00
1682.099,2639.00
1682.965,2721.00
1683.830,2279.00
1684.695,2566.00
1685.560,2598.00
1686.423,2823.00
1687.288,2843.00
1688.153,2750.00
1689.017,2632.00
1689.880,2752.00
1690.745,2823.00
1691.609,2518.00
1692.473,2836.00
1693.338,2909.00
1694.200,2948.00
1695.064,2702.00
1695.928,2609.00
1696.792,2696.00
1697.654,3234.00
1698.517,2724.00
1699.381,2476.00
1700.245,2343.00
1701.106,3008.00
1701.969,2552.00
1702.833,2845.00
1703.696,2588.00
1704.557,2634.00
1705.420,2553.00
1706.283,2701.00
1707.146,2863.00
1708.007,2505.00
1708.870,2493.00
1709.732,2394.00
1710.595,2578.00
1711.455,2462.00
1712.318,2598.00
1713.180,2955.00
1714.040,2785.00
1714.902,2868.00
1715.764,2708.00
1716.626,2460.00
1717.486,2686.00
1718.348,2983.00
1719.209,4053.00
1720.071,2369.00
1720.930,2440.00
1721.792,2517.00
1722.653,2550.00
1723.512,2607.00
1724.374,2615.00
1725.234,2745.00
1726.095,2722.00
1726.954,2725.00
1727.815,2827.00
1728.676,2670.00
1729.535,2931.00
1730.395,2665.00
1731.256,2623.00
1732.114,2738.00
1732.974,2184.00
1733.834,3034.00
1734.693,2898.00
1735.553,2706.00
1736.413,3145.00
1737.272,2581.00
1738.130,2633.00
1738.990,2812.00
1739.849,2565.00
1740.707,3723.00
1741.566,2714.00
1742.426,2718.00
1743.283,3081.00
1744.142,2599.00
1745.001,2374.00
1745.858,2861.00
1746.717,2749.00
1747.576,2791.00
1748.433,2847.00
1749.292,3293.00
1750.150,3330.00
1751.007,2903.00
1751.865,2931.00
1752.723,2702.00
1753.579,2598.00
1754.438,2920.00
1755.296,2895.00
1756.152,2231.00
1757.010,2353.00
1757.865,2893.00
1758.723,2333.00
1759.581,2991.00
1760.436,2694.00
1761.294,3023.00
1762.151,2695.00
1763.006,2611.00
1763.864,2378.00
1764.721,2925.00
1765.576,2735.00
1766.433,2863.00
1767.288,2587.00
1768.144,2765.00
1769.001,2679.00
1769.856,2779.00
1770.712,2943.00
1771.568,2438.00
1772.423,2635.00
1773.279,2595.00
1774.133,2607.00
1774.989,3122.00
1775.845,3076.00
1776.699,2939.00
1777.555,2710.00
1778.409,3246.00
1779.265,2645.00
1780.120,2652.00
1780.974,2694.00
1781.829,2308.00
1782.682,2772.00
1783.538,2490.00
1784.393,2752.00
1785.246,2625.00
1786.101,2792.00
1786.954,2784.00
1787.808,2901.00
1788.661,2440.00
1789.516,2618.00
1790.370,2629.00
1791.223,2880.00
1792.077,2702.00
1792.930,2812.00
1793.784,2560.00
1794.636,2694.00
1795.490,2676.00
1796.344,2733.00
1797.196,2697.00
1798.049,2868.00
1798.901,2604.00
1799.755,2968.00
1800.606,2498.00
1801.460,3255.00
1802.311,3045.00
1803.165,3109.00
1804.018,3044.00
1804.869,2816.00
1805.722,3206.00
1806.573,2730.00
1807.426,2511.00
1808.276,2729.00
1809.129,2592.00
1809.980,2904.00
1810.832,3020.00
1811.683,2626.00
1812.535,3047.00
1813.385,2665.00
1814.237,2989.00
1815.089,2740.00
1815.940,2980.00
1816.791,2634.00
1817.641,2594.00
1818.493,2870.00
1819.343,2777.00
1820.194,2625.00
1821.044,2821.00
1821.895,2972.00
1822.745,2441.00
1823.596,2599.00
1824.445,3146.00
1825.296,2826.00
1826.145,2704.00
1826.996,2923.00
1827.845,2719.00
1828.695,2760.00
1829.544,2717.00
1830.395,2764.00
1831.243,2639.00
1832.094,2458.00
1832.942,3277.00
1833.792,2831.00
1834.640,2776.00
1835.490,2695.00
1836.338,2792.00
1837.186,2583.00
1838.036,2550.00
1838.884,2725.00
1839.733,3030.00
1840.581,2904.00
1841.430,2847.00
1842.278,3088.00
1843.127,2599.00
1843.974,2425.00
1844.823,3148.00
1845.671,2870.00
1846.519,2748.00
1847.366,2791.00
1848.213,2338.00
1849.062,2540.00
1849.909,2456.00
1850.757,3380.00
1851.604,2835.00
1852.452,2612.00
1853.298,2909.00
1854.146,2797.00
1854.993,2760.00
1855.839,3210.00
1856.687,2833.00
1857.532,2851.00
1858.380,2710.00
1859.226,2780.00
1860.073,2853.00
1860.919,2563.00
1861.765,2599.00
1862.612,2925.00
1863.457,2940.00
1864.304,2651.00
1865.150,2831.00
1865.995,2703.00
1866.842,2850.00
1867.686,2996.00
1868.533,2783.00
1869.378,2743.00
1870.223,2747.00
1871.069,2616.00
1871.914,2776.00
1872.760,2723.00
1873.604,2535.00
1874.448,2866.00
1875.294,2901.00
1876.139,2632.00
1876.984,2863.00
1877.828,2411.00
1878.672,2228.00
1879.518,2626.00
1880.361,2896.00
1881.205,2874.00
1882.050,2482.00
1882.894,3272.00
1883.739,2608.00
1884.582,2501.00
1885.425,2540.00
1886.270,2964.00
1887.113,2465.00
1887.956,2845.00
1888.801,2751.00
1889.644,2541.00
1890.486,2301.00
1891.331,2651.00
1892.173,2802.00
1893.017,2794.00
1893.860,3011.00
1894.702,3022.00
1895.546,2739.00
1896.388,3405.00
1897.230,3105.00
1898.074,2607.00
1898.916,2497.00
1899.757,2586.00
1900.601,3370.00
1901.443,3038.00
1902.284,3063.00
1903.125,3223.00
1903.969,2945.00
1904.810,2960.00
1905.651,2845.00
1906.494,3062.00
1907.335,3151.00
1908.176,2859.00
1909.018,2832.00
1909.859,2703.00
1910.700,2605.00
1911.542,3242.00
1912.383,2795.00
1913.223,2392.00
1914.064,2867.00
1914.906,2991.00
1915.746,3089.00
1916.586,3247.00
1917.428,2761.00
1918.268,2783.00
1919.107,2639.00
1919.947,2527.00
1920.789,2654.00
1921.628,2974.00
1922.468,2746.00
1923.309,2582.00
1924.148,3058.00
1924.988,2824.00
1925.827,2729.00
1926.667,2612.00
1927.507,2773.00
1928.345,2577.00
1929.184,2892.00
1930.025,2526.00
1930.864,3021.00
1931.702,3070.00
1932.541,2639.00
1933.381,2889.00
1934.219,2881.00
1935.057,3023.00
1935.896,2481.00
1936.735,2723.00
1937.573,2631.00
1938.411,2539.00
1939.249,2907.00
1940.089,2603.00
1940.927,2979.00
1941.764,3054.00
1942.602,2678.00
1943.439,2634.00
1944.278,2735.00
1945.115,2671.00
1945.953,2469.00
1946.790,2805.00
1947.628,3096.00
1948.465,2859.00
1949.302,2883.00
1950.139,2875.00
1950.976,2614.00
1951.814,2885.00
1952.651,2814.00
1953.487,2550.00
1954.323,2999.00
1955.160,2752.00
1955.998,3078.00
1956.834,2745.00
1957.670,2840.00
1958.506,3030.00
1959.342,2817.00
1960.177,2804.00
1961.015,2878.00
1961.850,2817.00
1962.686,2813.00
1963.521,2791.00
1964.357,3052.00
1965.192,2553.00
1966.029,2887.00
1966.864,2694.00
1967.699,2983.00
1968.534,2820.00
1969.369,2994.00
1970.204,2735.00
1971.040,2740.00
1971.875,2699.00
1972.709,2773.00
1973.544,2593.00
1974.378,2654.00
1975.212,2877.00
1976.047,2626.00
1976.882,2639.00
1977.716,3167.00
1978.550,2421.00
1979.384,2690.00
1980.218,2713.00
1981.052,2694.00
1981.885,2759.00
1982.719,2795.00
1983.554,2904.00
1984.388,3059.00
1985.221,2856.00
1986.054,2962.00
1986.887,2803.00
1987.720,2589.00
1988.553,3078.00
1989.386,2868.00
1990.219,2868.00
1991.053,3042.00
1991.886,2639.00
1992.719,2960.00
1993.551,2300.00
1994.383,2893.00
1995.216,2701.00
1996.048,2486.00
1996.880,2916.00
1997.712,2641.00
1998.544,2786.00
1999.376,2854.00
2000.208,3028.00
2001.040,3208.00
2001.873,2559.00
2002.705,2588.00
2003.536,2804.00
2004.367,2808.00
2005.199,2788.00
2006.030,2655.00
2006.861,2529.00
2007.692,2772.00
2008.523,2625.00
2009.354,2804.00
2010.185,2567.00
2011.016,2938.00
2011.846,2993.00
2012.677,2731.00
2013.507,3081.00
2014.338,3022.00
2015.168,2677.00
2015.999,3279.00
2016.829,2695.00
2017.659,3018.00
2018.489,3273.00
2019.319,2566.00
2020.149,2959.00
2020.980,2782.00
2021.810,2573.00
2022.639,2663.00
2023.469,2693.00
2024.298,2466.00
2025.128,2424.00
2025.957,2326.00
2026.786,2230.00
2027.615,2414.00
2028.444,2613.00
2029.273,2796.00
2030.102,2377.00
2030.931,2617.00
2031.758,2853.00
2032.586,2539.00
2033.415,2613.00
2034.243,2263.00
2035.072,2026.00
2035.900,2531.00
2036.728,2359.00
2037.556,2382.00
2038.385,2414.00
2039.213,2221.00
2040.040,2195.00
2040.868,2150.00
2041.696,2224.00
2042.524,2229.00
2043.351,2454.00
2044.179,2214.00
2045.006,2016.00
