RamanScope Measure Spectrum Data V3.72

<< MEASURE CONDITION >>
Exposure Type,Aver
Exposure Time [sec],15
Exposure Count,30
Measure Time,2023/07/04 14:35:35
Data Name,""
Data Comment,""
Rayleigh Wave[nm],532.0

<< SAMPLE SPECTRUM >>
Wave[dcm-1],No250
146.591,686.17
147.626,807.83
148.664,976.37
149.699,1142.13
150.737,1329.97
151.772,1506.90
152.809,1702.13
153.846,1882.13
154.881,2061.40
155.918,2193.87
156.953,2380.00
157.989,2503.40
159.026,2598.27
160.060,2700.83
161.096,2761.63
162.130,2835.10
163.167,2877.40
164.200,2947.67
165.236,2981.93
166.272,3063.50
167.305,3083.53
168.341,3138.70
169.374,3162.90
170.409,3268.93
171.445,3315.87
172.477,3384.33
173.512,3418.10
174.545,3465.90
175.580,3527.40
176.614,3544.47
177.647,3596.53
178.681,3597.47
179.713,3656.73
180.747,3605.80
181.781,3554.07
182.813,3565.60
183.847,3542.20
184.878,3566.33
185.912,3555.83
186.945,3635.57
187.976,3593.90
189.010,3588.17
190.043,3647.23
191.073,3665.43
192.106,3731.47
193.137,3708.17
194.170,3831.20
195.202,3808.10
196.232,3922.70
197.265,3928.27
198.297,3998.63
199.327,4096.53
200.359,4169.57
201.388,4218.17
202.420,4328.87
203.452,4423.83
204.481,4513.37
205.512,4696.07
206.544,4803.90
207.573,4934.03
208.604,5035.27
209.635,5269.23
210.663,5483.57
211.694,5666.83
212.725,5929.93
213.753,6142.13
214.783,6316.00
215.813,6491.03
216.841,6687.10
217.871,6754.07
218.899,6798.33
219.929,6857.30
220.959,6856.50
221.986,6738.50
223.016,6593.63
224.045,6437.00
225.072,6302.30
226.101,6098.53
227.130,5918.90
228.157,5712.63
229.185,5579.17
230.214,5406.33
231.241,5327.70
232.269,5187.60
233.297,5109.10
234.323,4996.50
235.351,4965.23
236.379,4869.20
237.407,4830.93
238.433,4841.30
239.460,4829.87
240.488,4804.93
241.513,4798.47
242.540,4838.63
243.568,4813.00
244.592,4879.40
245.619,4910.53
246.646,4941.90
247.671,4945.37
248.697,4910.57
249.724,4937.90
250.748,4862.80
251.774,4874.70
252.801,4923.27
253.827,4843.10
254.850,4854.27
255.876,4930.00
256.902,4941.07
257.925,4955.07
258.951,4966.17
259.976,5023.70
260.999,5064.70
262.024,5128.10
263.049,5160.57
264.074,5245.00
265.097,5260.63
266.122,5318.37
267.146,5412.07
268.168,5478.60
269.193,5531.17
270.217,5597.13
271.241,5645.73
272.263,5752.87
273.287,5783.63
274.311,5811.83
275.332,5882.17
276.356,5858.77
277.379,5883.20
278.402,5857.10
279.424,5814.93
280.447,5777.53
281.470,5752.90
282.492,5707.20
283.513,5623.40
284.536,5534.53
285.558,5517.50
286.581,5377.50
287.601,5336.03
288.623,5271.73
289.645,5165.77
290.665,5062.47
291.687,5013.10
292.709,4952.50
293.730,4832.73
294.750,4723.07
295.771,4654.23
296.792,4605.07
297.813,4583.07
298.832,4457.87
299.853,4398.10
300.874,4359.50
301.895,4246.30
302.913,4203.57
303.934,4172.73
304.954,4105.77
305.975,4060.50
306.993,4017.77
308.013,3975.70
309.033,3896.23
310.052,3860.83
311.072,3812.00
312.090,3799.53
313.109,3781.20
314.129,3757.87
315.148,3743.57
316.165,3740.80
317.184,3667.43
318.203,3645.73
319.222,3654.80
320.238,3595.63
321.257,3589.03
322.275,3563.73
323.294,3605.57
324.312,3563.90
325.328,3510.10
326.346,3541.93
327.364,3504.20
328.382,3522.60
329.397,3507.33
330.415,3446.83
331.432,3462.83
332.450,3391.23
333.467,3404.80
334.482,3439.33
335.499,3463.93
336.516,3432.20
337.533,3418.27
338.547,3375.60
339.564,3419.20
340.580,3415.50
341.597,3384.33
342.613,3406.03
343.627,3363.03
344.643,3399.53
345.659,3424.07
346.675,3349.47
347.690,3341.53
348.704,3338.10
349.719,3377.70
350.735,3390.23
351.750,3323.03
352.765,3359.03
353.778,3362.30
354.793,3356.70
355.808,3328.40
356.822,3318.20
357.837,3357.60
358.851,3339.00
359.864,3359.53
360.878,3413.40
361.892,3388.20
362.906,3353.87
363.920,3368.20
364.932,3412.67
365.945,3387.77
366.959,3400.40
367.972,3388.50
368.986,3391.60
369.999,3427.07
371.010,3443.10
372.023,3436.00
373.036,3431.13
374.049,3431.27
375.061,3483.70
376.072,3510.03
377.084,3454.57
378.097,3484.07
379.109,3478.20
380.121,3510.40
381.133,3533.53
382.143,3512.07
383.155,3456.93
384.166,3492.00
385.178,3522.73
386.189,3517.00
387.201,3519.60
388.212,3520.60
389.221,3485.73
390.232,3490.73
391.243,3511.83
392.254,3503.27
393.264,3476.10
394.275,3450.50
395.283,3468.80
396.294,3443.00
397.304,3400.37
398.314,3376.87
399.324,3379.20
400.334,3369.13
401.344,3368.57
402.351,3311.17
403.361,3303.40
404.370,3288.70
405.380,3280.43
406.389,3262.20
407.398,3262.37
408.407,3210.50
409.414,2782.27
410.423,3202.23
411.431,3221.97
412.440,3177.93
413.448,3145.83
414.457,3131.63
415.465,3138.33
416.471,3111.87
417.479,3139.90
418.487,3079.10
419.495,3105.10
420.503,3087.90
421.510,3103.17
422.518,3045.40
423.525,3014.83
424.530,3034.70
425.537,3028.20
426.544,3025.27
427.551,3066.40
428.558,3052.07
429.565,2973.63
430.571,2990.30
431.578,2989.07
432.582,2995.67
433.588,2983.93
434.595,3030.80
435.601,2987.03
436.607,2994.03
437.612,3019.47
438.618,3016.20
439.624,2962.00
440.627,2948.27
441.633,2966.47
442.638,2961.77
443.643,2973.83
444.648,2964.83
445.653,2959.07
446.658,2994.27
447.663,3004.50
448.667,2996.63
449.672,2964.77
450.674,2954.43
451.678,2939.83
452.682,3028.17
453.687,3014.30
454.690,2986.13
455.694,3008.00
456.698,3012.83
457.702,3025.73
458.705,3022.00
459.709,3002.23
460.710,2996.23
461.713,3011.63
462.716,3030.03
463.719,3010.23
464.722,2974.77
465.725,2999.50
466.727,3030.17
467.730,3053.27
468.732,3035.47
469.735,3015.20
470.737,3051.27
471.737,3054.47
472.739,3064.83
473.741,3077.77
474.742,3084.50
475.744,3039.80
476.746,3063.20
477.747,3019.93
478.748,3068.37
479.750,3079.93
480.751,3058.80
481.752,3039.87
482.753,3069.33
483.751,3130.40
484.752,3075.37
485.753,3125.50
486.753,3095.90
487.753,3080.47
488.754,3075.80
489.754,3088.60
490.754,3037.57
491.754,3096.97
492.754,3042.27
493.753,3041.50
494.753,3078.77
495.752,3044.13
496.752,3065.37
497.749,3078.07
498.748,3096.17
499.747,3072.67
500.746,3057.80
501.745,3044.77
502.744,3021.00
503.742,3043.97
504.741,3011.90
505.739,2986.53
506.737,3001.37
507.735,2976.37
508.734,2984.07
509.732,2984.40
510.729,2971.33
511.727,2972.50
512.725,2945.87
513.720,2954.73
514.718,2933.77
515.715,2928.23
516.712,2913.37
517.709,2922.10
518.706,2918.47
519.703,2896.13
520.700,2953.77
521.696,2953.83
522.693,2906.07
523.689,2905.60
524.686,2891.03
525.682,2908.80
526.678,2909.57
527.674,2933.37
528.670,2921.63
529.666,2931.20
530.661,2925.03
531.657,2939.60
532.652,2950.10
533.648,2885.57
534.641,2928.27
535.636,2926.37
536.631,2951.20
537.626,2959.00
538.621,2974.37
539.616,2937.37
540.610,2969.03
541.605,2969.93
542.599,2947.33
543.593,2949.30
544.587,2955.13
545.581,3016.10
546.575,2958.47
547.569,2958.67
548.563,2939.03
549.557,2995.30
550.550,2982.27
551.543,3001.53
552.537,3026.27
553.530,2974.43
554.523,3006.80
555.516,3019.23
556.509,3003.97
557.502,2994.37
558.494,3018.27
559.487,2985.03
560.479,2962.33
561.472,3012.20
562.464,3006.70
563.456,2960.97
564.448,3008.23
565.440,3026.67
566.432,3053.30
567.423,3055.23
568.415,3029.23
569.404,3035.10
570.396,3064.53
571.387,3080.37
572.378,3082.83
573.369,3100.17
574.360,3041.60
575.351,3082.83
576.341,3126.23
577.332,3136.87
578.323,3138.47
579.313,3166.23
580.303,3141.43
581.293,3163.63
582.283,3202.67
583.273,3208.43
584.263,3165.40
585.253,3128.27
586.243,3173.77
587.232,3174.70
588.222,3188.23
589.211,3184.87
590.200,3186.30
591.189,3171.80
592.178,3210.10
593.167,3252.33
594.156,3176.97
595.145,3162.50
596.133,3200.03
597.122,3201.47
598.110,3202.33
599.098,3157.77
600.086,3172.50
601.074,3150.43
602.062,3199.50
603.050,3199.70
604.038,3197.60
605.025,3175.93
606.013,3181.73
607.000,3175.93
607.987,3111.77
608.975,3159.87
609.962,3147.87
610.949,3106.47
611.936,3147.17
612.922,3107.77
613.909,3132.40
614.895,3080.73
615.882,2999.70
616.868,3058.90
617.854,3043.53
618.841,3017.40
619.826,3018.20
620.812,2948.43
621.798,2929.20
622.784,2956.40
623.769,2918.80
624.755,2935.23
625.740,2884.17
626.725,2862.63
627.711,2856.73
628.698,2880.43
629.683,2810.23
630.667,2797.07
631.652,2819.10
632.637,2833.87
633.621,2765.80
634.606,2784.23
635.590,2782.93
636.574,2711.63
637.558,2675.27
638.542,2731.33
639.526,2700.23
640.510,2657.83
641.493,2664.30
642.477,2640.63
643.460,2646.23
644.444,2656.17
645.427,2653.13
646.410,2626.70
647.393,2607.90
648.376,2622.27
649.359,2563.73
650.341,2546.60
651.324,2575.30
652.307,2531.60
653.289,2557.70
654.271,2533.73
655.253,2529.07
656.235,2506.67
657.217,2518.93
658.199,2467.53
659.181,2457.10
660.163,2507.80
661.144,2444.03
662.126,2491.03
663.107,2503.87
664.088,2491.27
665.069,2421.60
666.050,2440.30
667.033,2439.77
668.014,2404.70
668.995,2391.07
669.975,2422.77
670.956,2416.80
671.936,2395.83
672.916,2372.83
673.896,2396.47
674.876,2373.03
675.856,2346.53
676.836,2337.60
677.816,2313.20
678.795,2278.00
679.775,2301.53
680.754,2276.73
681.734,2241.13
682.713,2223.13
683.692,2206.83
684.671,2241.00
685.650,2191.30
686.629,2205.00
687.607,2209.33
688.586,2160.97
689.564,2162.33
690.543,2162.97
691.523,2156.00
692.501,2149.97
693.479,2167.30
694.457,2138.83
695.435,2121.43
696.413,2101.93
697.390,2078.40
698.368,2109.90
699.345,2086.57
700.322,2041.80
701.300,2033.90
702.277,2024.57
703.254,2081.07
704.231,2064.23
705.207,2028.10
706.184,2029.07
707.161,2023.37
708.137,2004.33
709.113,2002.27
710.090,1979.73
711.068,1982.53
712.044,1989.40
713.020,1992.77
713.996,1974.60
714.971,1945.50
715.947,1871.03
716.922,1971.70
717.898,1983.67
718.873,1988.80
719.848,1934.67
720.823,1945.73
721.798,1915.80
722.773,1933.43
723.748,1905.10
724.723,1933.40
725.697,1886.20
726.672,1908.60
727.646,1892.33
728.622,1904.70
729.596,1890.63
730.570,1911.40
731.544,1878.20
732.518,1882.03
733.492,1863.93
734.466,1893.33
735.439,1838.10
736.413,1878.20
737.386,1833.97
738.359,1864.70
739.332,1860.90
740.305,1840.53
741.278,1827.67
742.251,1859.03
743.224,1832.00
744.196,1831.13
745.171,1830.17
746.143,1802.67
747.115,1810.57
748.087,1836.20
749.059,1811.33
750.031,1814.77
751.003,1802.73
751.975,1809.67
752.947,1789.60
753.918,1805.37
754.890,1810.00
755.861,1788.67
756.832,1734.67
757.803,1795.87
758.774,1763.13
759.747,1756.97
760.718,1747.20
761.689,1727.97
762.659,1728.00
763.630,1745.63
764.600,1719.17
765.570,1769.20
766.540,1733.07
767.510,1653.97
768.480,1709.07
769.450,1742.37
770.420,1735.70
771.390,1708.77
772.359,1726.43
773.329,1668.43
774.300,1738.47
775.269,1729.97
776.238,1661.30
777.207,1656.67
778.176,1666.93
779.145,1684.23
780.114,1662.60
781.083,1670.93
782.051,1686.63
783.019,1655.27
783.988,1684.70
784.956,1665.77
785.924,1669.63
786.894,1677.63
787.862,1669.87
788.830,1615.53
789.797,1655.30
790.765,1633.80
791.732,1626.97
792.700,1645.70
793.667,1664.23
794.634,1626.80
795.601,1659.13
796.568,1615.53
797.535,1673.23
798.502,1596.53
799.468,1603.50
800.437,1600.93
801.403,1626.13
802.370,1608.17
803.336,1565.03
804.302,1579.60
805.268,1598.10
806.234,1634.13
807.200,1592.60
808.166,1595.67
809.131,1585.43
810.097,1566.63
811.062,1562.63
812.027,1545.43
812.994,1540.77
813.960,1585.07
814.925,1566.03
815.889,1573.47
816.854,1583.70
817.819,1539.87
818.783,1557.87
819.748,1529.43
820.712,1569.73
821.677,1563.10
822.641,1523.17
823.605,1544.63
824.571,1537.23
825.534,1532.17
826.498,1527.33
827.462,1520.07
828.425,1545.30
829.389,1519.50
830.352,1462.00
831.315,1558.77
832.279,1506.10
833.242,1517.50
834.204,1522.13
835.167,1523.87
836.132,1457.07
837.095,1526.03
838.057,1494.60
839.020,1516.43
839.982,1512.43
840.944,1471.90
841.906,1549.10
842.868,1535.97
843.830,1480.07
844.792,1490.77
845.753,1477.33
846.715,1448.30
847.679,1492.87
848.640,1497.43
849.601,1468.47
850.562,1476.27
851.523,1465.83
852.484,1463.90
853.445,1474.37
854.406,1452.63
855.367,1463.13
856.327,1481.13
857.288,1458.47
858.248,1481.07
859.210,1489.60
860.170,1454.33
861.130,1435.03
862.090,1503.80
863.050,1455.57
864.010,1464.20
864.969,1429.63
865.929,1415.47
866.888,1418.97
867.848,1419.90
868.807,1449.77
869.766,1432.90
870.727,1419.33
871.686,1397.83
872.645,1399.00
873.604,1406.40
874.562,1418.50
875.521,1408.30
876.479,1463.77
877.437,1406.67
878.396,1398.53
879.354,1411.43
880.312,1443.53
881.270,1307.73
882.229,1405.30
883.187,1430.67
884.145,1393.33
885.102,1410.00
886.059,1375.13
887.017,1381.90
887.974,1423.33
888.931,1410.50
889.888,1406.90
890.845,1402.83
891.802,1434.67
892.758,1385.07
893.717,1385.53
894.673,1381.67
895.630,1391.30
896.586,1412.80
897.542,1418.87
898.498,1418.20
899.454,1369.10
900.410,1406.23
901.366,1388.20
902.321,1410.30
903.277,1388.00
904.232,1388.00
905.189,1379.83
906.145,1426.23
907.100,1382.27
908.055,1420.37
909.010,1425.30
909.965,1417.53
910.919,1400.87
911.874,1373.43
912.828,1395.50
913.783,1385.43
914.737,1394.40
915.693,1444.70
916.648,1385.97
917.602,1424.93
918.555,1382.57
919.509,1380.93
920.463,1384.60
921.417,1427.17
922.370,1393.60
923.324,1433.77
924.277,1385.93
925.230,1387.93
926.183,1370.27
927.138,1404.53
928.091,1402.07
929.044,1381.23
929.996,1390.10
930.949,1413.40
931.902,1396.20
932.854,1412.67
933.806,1432.40
934.758,1435.07
935.711,1432.50
936.663,1470.70
937.614,1417.50
938.568,1431.77
939.520,1422.47
940.471,1435.07
941.423,1409.17
942.374,1408.90
943.326,1465.20
944.277,1419.63
945.228,1403.33
946.179,1426.67
947.130,1432.13
948.080,1419.73
949.031,1423.20
949.984,1427.27
950.934,1382.07
951.884,1417.80
952.835,1377.97
953.785,1405.43
954.735,1428.27
955.685,1403.63
956.635,1410.77
957.585,1453.47
958.534,1382.30
959.484,1446.33
960.433,1418.10
961.383,1406.40
962.334,1392.10
963.283,1400.50
964.232,1431.93
965.181,1409.87
966.130,1410.33
967.079,1395.07
968.027,1401.50
968.976,1393.67
969.924,1422.13
970.873,1415.77
971.821,1420.07
972.769,1424.27
973.719,1409.43
974.667,1398.80
975.615,1430.27
976.562,1392.47
977.510,1388.50
978.458,1423.87
979.405,1410.90
980.352,1428.13
981.300,1389.07
982.247,1419.33
983.194,1391.60
984.141,1433.43
985.088,1421.20
986.036,1390.50
986.983,1371.53
987.930,1403.93
988.876,1397.43
989.822,1409.60
990.769,1427.60
991.715,1427.13
992.661,1418.20
993.607,1390.20
994.553,1405.30
995.498,1426.33
996.444,1413.67
997.389,1383.67
998.337,1370.53
999.282,1411.87
1000.227,1425.20
1001.173,1385.17
1002.118,1383.47
1003.062,1405.97
1004.007,1408.63
1004.952,1390.07
1005.897,1386.70
1006.841,1437.10
1007.786,1395.70
1008.730,1377.50
1009.674,1404.87
1010.618,1406.83
1011.564,1407.70
1012.508,1403.57
1013.452,1392.57
1014.396,1416.97
1015.339,1415.50
1016.283,1399.97
1017.226,1420.30
1018.170,1431.67
1019.113,1389.83
1020.056,1415.63
1020.999,1433.60
1021.942,1420.83
1022.885,1440.30
1023.828,1431.60
1024.770,1443.33
1025.715,1440.17
1026.657,1441.57
1027.600,1439.23
1028.542,1415.77
1029.484,1480.07
1030.426,1431.60
1031.368,1430.93
1032.310,1411.77
1033.251,1405.13
1034.193,1452.17
1035.135,1446.80
1036.076,1442.50
1037.017,1460.47
1037.959,1417.83
1038.900,1464.40
1039.843,1440.77
1040.784,1459.13
1041.725,1397.00
1042.665,1433.00
1043.606,1456.90
1044.547,1461.07
1045.487,1424.90
1046.427,1462.67
1047.368,1428.87
1048.308,1476.63
1049.248,1443.90
1050.188,1461.83
1051.128,1441.87
1052.067,1470.80
1053.007,1476.63
1053.947,1504.80
1054.886,1464.20
1055.827,1460.33
1056.766,1489.87
1057.706,1499.90
1058.645,1503.33
1059.584,1472.03
1060.522,1501.50
1061.461,1519.30
1062.400,1497.23
1063.338,1462.47
1064.277,1521.57
1065.215,1473.50
1066.154,1496.93
1067.092,1514.67
1068.030,1529.70
1068.968,1548.03
1069.906,1486.27
1070.843,1516.43
1071.781,1500.33
1072.720,1536.10
1073.658,1517.60
1074.595,1551.33
1075.533,1556.23
1076.470,1559.90
1077.407,1536.00
1078.344,1553.97
1079.281,1571.10
1080.217,1543.20
1081.154,1530.00
1082.091,1577.03
1083.027,1571.37
1083.964,1565.63
1084.900,1522.60
1085.836,1531.80
1086.772,1553.37
1087.708,1598.23
1088.644,1521.10
1089.580,1577.50
1090.515,1563.37
1091.451,1527.47
1092.388,1515.13
1093.324,1580.90
1094.259,1568.30
1095.194,1537.67
1096.129,1576.60
1097.064,1566.90
1097.999,1615.87
1098.934,1563.57
1099.869,1596.47
1100.803,1568.53
1101.738,1546.67
1102.672,1556.43
1103.607,1541.60
1104.541,1507.13
1105.475,1528.47
1106.409,1579.03
1107.343,1545.90
1108.277,1504.53
1109.210,1474.83
1110.144,1536.87
1111.078,1494.57
1112.011,1508.47
1112.944,1495.77
1113.878,1512.93
1114.811,1492.67
1115.744,1501.83
1116.678,1540.57
1117.611,1504.77
1118.544,1510.50
1119.477,1448.17
1120.409,1468.13
1121.342,1473.97
1122.274,1458.27
1123.206,1500.73
1124.138,1425.57
1125.070,1438.60
1126.002,1449.97
1126.934,1462.50
1127.866,1434.13
1128.798,1435.23
1129.729,1408.73
1130.661,1401.03
1131.592,1417.97
1132.523,1427.50
1133.454,1367.77
1134.385,1402.87
1135.317,1412.23
1136.247,1397.07
1137.178,1357.93
1138.109,1431.77
1139.039,1368.30
1139.970,1416.70
1140.900,1384.80
1141.831,1404.20
1142.761,1370.07
1143.691,1403.60
1144.621,1348.90
1145.551,1381.40
1146.480,1368.73
1147.410,1413.67
1148.340,1366.80
1149.269,1325.77
1150.199,1375.43
1151.128,1357.60
1152.057,1362.67
1152.979,1338.97
1153.898,1358.57
1154.819,1341.57
1155.739,1329.73
1156.658,1339.73
1157.579,1350.77
1158.498,1342.30
1159.419,1368.80
1160.338,1314.43
1161.256,1359.87
1162.177,1326.03
1163.095,1356.20
1164.016,1333.27
1164.934,1296.37
1165.852,1341.20
1166.772,1324.47
1167.690,1292.87
1168.610,1308.33
1169.528,1305.67
1170.446,1334.53
1171.365,1339.73
1172.283,1290.70
1173.202,1318.57
1174.120,1332.93
1175.037,1295.30
1175.956,1319.53
1176.873,1318.17
1177.792,1315.40
1178.709,1293.60
1179.626,1286.83
1180.544,1345.57
1181.461,1317.17
1182.379,1327.70
1183.296,1317.13
1184.212,1283.63
1185.130,1333.80
1186.046,1295.67
1186.962,1320.90
1187.880,1277.77
1188.796,1299.20
1189.714,1302.63
1190.629,1298.37
1191.545,1290.27
1192.462,1336.43
1193.378,1327.23
1194.295,1299.07
1195.210,1338.73
1196.125,1316.60
1197.042,1279.47
1197.957,1328.70
1198.872,1326.93
1199.788,1305.10
1200.703,1326.10
1201.619,1307.33
1202.534,1322.67
1203.448,1305.47
1204.364,1288.10
1205.278,1294.50
1206.192,1306.67
1207.108,1303.47
1208.022,1295.50
1208.938,1319.00
1209.851,1328.50
1210.765,1331.87
1211.680,1327.53
1212.594,1338.40
1213.507,1323.43
1214.422,1294.07
1215.335,1289.83
1216.248,1340.33
1217.163,1320.60
1218.076,1344.77
1218.990,1337.20
1219.903,1337.67
1220.816,1293.33
1221.730,1331.93
1222.642,1320.10
1223.554,1297.37
1224.469,1351.13
1225.380,1331.83
1226.292,1338.97
1227.206,1367.30
1228.118,1310.93
1229.032,1346.77
1229.943,1337.17
1230.855,1295.83
1231.768,1339.43
1232.679,1305.00
1233.590,1369.10
1234.503,1339.97
1235.414,1352.47
1236.325,1358.93
1237.238,1353.30
1238.149,1344.57
1239.059,1360.53
1239.972,1365.50
1240.882,1363.67
1241.793,1347.13
1242.705,1304.97
1243.615,1391.60
1244.525,1342.33
1245.437,1367.87
1246.347,1335.23
1247.259,1401.27
1248.168,1356.30
1249.078,1341.13
1249.989,1347.23
1250.899,1366.97
1251.808,1357.90
1252.719,1363.00
1253.628,1351.47
1254.537,1358.60
1255.448,1378.93
1256.357,1335.50
1257.266,1354.17
1258.176,1362.93
1259.085,1368.03
1259.993,1361.60
1260.904,1389.17
1261.812,1365.97
1262.720,1349.10
1263.630,1356.37
1264.538,1363.77
1265.446,1378.53
1266.356,1355.30
1267.263,1383.03
1268.171,1368.93
1269.080,1378.13
1269.988,1393.30
1270.895,1392.97
1271.804,1313.27
1272.711,1325.13
1273.619,1363.00
1274.527,1312.83
1275.434,1371.80
1276.341,1355.40
1277.248,1383.23
1278.156,1320.80
1279.063,1343.57
1279.969,1344.00
1280.877,1352.60
1281.783,1329.87
1282.690,1365.33
1283.598,1386.03
1284.503,1381.30
1285.409,1327.43
1286.317,1325.07
1287.223,1363.33
1288.128,1334.30
1289.036,1338.23
1289.941,1324.50
1290.846,1368.63
1291.751,1337.90
1292.658,1322.07
1293.563,1351.80
1294.468,1323.57
1295.375,1317.27
1296.280,1317.87
1297.184,1327.00
1298.091,1329.07
1298.995,1318.20
1299.900,1285.83
1300.806,1311.13
1301.710,1325.30
1302.614,1272.30
1303.518,1270.40
1304.424,1296.17
1305.327,1273.90
1306.231,1274.57
1307.137,1263.07
1308.040,1298.20
1308.943,1274.90
1309.847,1254.93
1310.752,1270.57
1311.655,1298.07
1312.558,1273.83
1313.463,1255.67
1314.366,1249.57
1315.269,1231.83
1316.171,1231.53
1317.076,1255.13
1317.978,1212.03
1318.881,1231.73
1319.785,1208.60
1320.687,1202.37
1321.589,1222.33
1322.491,1231.03
1323.395,1206.17
1324.297,1222.50
1325.198,1193.73
1326.102,1216.03
1327.004,1234.00
1327.905,1183.50
1328.806,1182.07
1329.709,1174.07
1330.611,1210.83
1331.512,1161.17
1332.413,1196.80
1333.316,1164.53
1334.216,1176.10
1335.117,1204.17
1336.020,1181.87
1336.920,1185.73
1337.821,1186.73
1338.721,1192.13
1339.623,1213.47
1340.523,1192.17
1341.423,1168.93
1342.323,1154.80
1343.225,1189.67
1344.125,1157.80
1345.025,1144.23
1345.924,1116.63
1346.826,1115.83
1347.725,1132.50
1348.624,1145.93
1349.524,1101.10
1350.425,1122.27
1351.324,1147.67
1352.223,1112.03
1353.121,1097.97
1354.022,1109.70
1354.921,1110.83
1355.819,1086.63
1356.718,1078.87
1357.618,1150.60
1358.516,1080.30
1359.415,1109.73
1360.313,1035.53
1361.213,1091.30
1362.111,1085.40
1363.008,1072.50
1363.906,1067.83
1364.806,1098.60
1365.703,1006.03
1366.601,1035.03
1367.498,1057.37
1368.397,1095.00
1369.295,1057.93
1370.192,1074.27
1371.089,1070.53
1371.987,1061.50
1372.884,1090.80
1373.781,1075.87
1374.678,1063.13
1375.574,1044.23
1376.473,1052.23
1377.369,1051.30
1378.265,1056.20
1379.161,1051.23
1380.059,1048.83
1380.955,1034.97
1381.851,1064.63
1382.747,1025.30
1383.643,1021.07
1384.540,1064.83
1385.436,1033.87
1386.331,1014.83
1387.227,1033.10
1388.124,998.30
1389.019,1016.80
1389.914,1039.87
1390.809,1029.17
1391.704,994.87
1392.601,1052.47
1393.495,1004.83
1394.390,988.77
1395.285,1002.60
1396.179,1069.70
1397.075,972.03
1397.969,986.43
1398.864,990.00
1399.758,987.20
1400.652,991.43
1401.547,988.63
1402.441,1015.03
1403.335,993.93
1404.229,1003.13
1405.122,956.80
1406.017,1003.20
1406.911,959.63
1407.804,1023.53
1408.697,994.50
1409.590,979.13
1410.485,976.10
1411.378,1013.50
1412.271,952.33
1413.163,1003.20
1414.056,972.37
1414.949,990.00
1415.843,962.97
1416.735,1010.47
1417.627,990.73
1418.520,950.87
1419.412,966.17
1420.306,975.17
1421.197,959.13
1422.089,946.43
1422.981,973.13
1423.873,963.57
1424.764,974.27
1425.657,968.20
1426.549,972.57
1427.440,958.20
1428.331,956.20
1429.222,940.00
1430.113,931.27
1431.006,982.77
1431.897,951.93
1432.787,943.63
1433.678,948.93
1434.568,946.73
1435.459,934.37
1436.351,923.03
1437.241,922.53
1438.131,899.33
1439.021,941.03
1439.911,961.87
1440.801,934.33
1441.693,928.27
1442.583,938.50
1443.472,946.07
1444.362,938.57
1445.251,947.30
1446.140,924.23
1447.030,933.03
1447.921,933.03
1448.810,906.20
1449.699,960.77
1450.588,930.97
1451.476,899.27
1452.365,941.23
1453.254,932.27
1454.144,963.73
1455.032,960.53
1455.921,918.27
1456.809,929.67
1457.697,925.90
1458.585,912.97
1459.473,902.73
1460.361,892.70
1461.251,916.47
1462.138,918.07
1463.026,892.03
1463.913,859.33
1464.801,857.17
1465.688,884.43
1466.575,923.97
1467.463,897.27
1468.351,908.07
1469.238,905.00
1470.125,884.70
1471.012,879.07
1471.899,881.30
1472.785,872.07
1473.672,858.47
1474.558,881.20
1475.446,903.07
1476.333,896.73
1477.219,895.67
1478.105,924.40
1478.991,889.93
1479.877,885.37
1480.762,873.30
1481.648,884.20
1482.534,851.87
1483.419,875.17
1484.307,869.33
1485.192,890.90
1486.077,879.77
1486.962,885.83
1487.847,862.27
1488.732,890.47
1489.617,857.97
1490.502,861.73
1491.387,859.73
1492.271,858.80
1493.156,879.60
1494.042,869.97
1494.927,860.07
1495.811,907.40
1496.695,912.97
1497.579,876.27
1498.463,868.60
1499.347,887.17
1500.231,872.07
1501.114,844.73
1501.998,866.20
1502.881,848.83
1503.765,852.53
1504.648,854.40
1505.533,854.93
1506.417,804.87
1507.300,825.03
1508.183,870.37
1509.066,868.37
1509.948,855.30
1510.831,862.97
1511.714,840.53
1512.596,849.63
1513.479,807.17
1514.361,866.53
1515.243,835.43
1516.125,809.87
1517.008,857.33
1517.890,857.23
1518.771,846.30
1519.655,809.07
1520.537,860.43
1521.419,825.80
1522.300,844.27
1523.182,898.23
1524.063,822.73
1524.944,854.97
1525.825,805.90
1526.707,873.00
1527.588,827.77
1528.468,856.77
1529.349,823.43
1530.230,834.27
1531.111,827.80
1531.991,853.33
1532.872,854.50
1533.752,811.93
1534.632,803.10
1535.513,832.07
1536.393,782.73
1537.273,832.53
1538.153,833.80
1539.032,804.73
1539.912,823.70
1540.792,836.43
1541.672,843.87
1542.551,818.33
1543.430,837.37
1544.310,751.73
1545.189,794.77
1546.068,821.30
1546.947,795.43
1547.826,791.27
1548.705,805.17
1549.584,813.07
1550.462,787.83
1551.341,807.80
1552.219,822.33
1553.098,776.97
1553.976,786.67
1554.854,795.30
1555.733,797.57
1556.611,803.43
1557.489,801.10
1558.367,806.83
1559.244,811.63
1560.122,820.23
1561.000,783.63
1561.877,800.33
1562.755,818.27
1563.632,793.17
1564.509,795.73
1565.386,818.57
1566.264,777.37
1567.141,769.17
1568.017,769.40
1568.894,776.00
1569.771,776.03
1570.648,783.30
1571.524,819.20
1572.401,781.00
1573.277,774.37
1574.153,818.47
1575.029,765.63
1575.906,783.63
1576.781,813.43
1577.657,804.80
1578.533,796.73
1579.409,779.13
1580.285,818.03
1581.160,766.97
1582.036,778.50
1582.911,791.93
1583.786,810.03
1584.662,773.90
1585.537,746.50
1586.412,781.63
1587.287,747.20
1588.160,784.40
1589.035,737.93
1589.909,763.53
1590.784,777.47
1591.658,780.50
1592.533,777.97
1593.407,776.00
1594.281,785.17
1595.155,778.07
1596.029,777.87
1596.903,771.60
1597.777,801.10
1598.651,754.97
1599.525,787.13
1600.398,799.83
1601.272,754.90
1602.144,759.70
1603.017,774.67
1603.890,746.87
1604.763,823.37
1605.636,779.77
1606.509,772.03
1607.382,778.40
1608.255,789.40
1609.128,765.90
1610.000,753.20
1610.873,750.33
1611.746,750.43
1612.616,812.27
1613.488,767.83
1614.361,757.67
1615.233,771.80
1616.105,760.00
1616.977,750.40
1617.849,766.87
1618.720,773.60
1619.592,788.10
1620.464,742.90
1621.333,744.73
1622.205,762.60
1623.076,783.87
1623.947,710.50
1624.818,724.53
1625.689,775.87
1626.560,742.87
1627.431,759.30
1628.302,749.17
1629.171,800.93
1630.042,748.10
1630.912,903.40
1631.782,816.80
1632.653,731.97
1633.523,754.17
1634.393,799.80
1635.263,759.40
1636.131,751.77
1637.001,769.80
1637.871,751.20
1638.741,741.23
1639.611,740.40
1640.480,756.60
1641.350,727.27
1642.219,768.83
1643.087,754.93
1643.956,738.27
1644.825,745.50
1645.694,766.03
1646.563,746.47
1647.432,762.43
1648.299,750.43
1649.167,765.03
1650.036,747.07
1650.904,754.83
1651.773,773.53
1652.641,763.07
1653.509,748.70
1654.376,736.23
1655.244,703.97
1656.112,743.43
1656.980,733.70
1657.847,764.53
1658.715,786.17
1659.581,744.70
1660.448,743.10
1661.316,730.23
1662.183,716.63
1663.051,719.90
1663.918,738.13
1664.783,750.43
1665.650,749.70
1666.517,719.30
1667.384,759.27
1668.251,742.70
1669.115,733.60
1669.982,741.17
1670.849,722.87
1671.715,738.13
1672.581,760.67
1673.446,739.13
1674.312,739.40
1675.178,756.57
1676.044,759.70
1676.910,724.43
1677.774,760.27
1678.639,734.73
1679.505,770.63
1680.370,731.10
1681.236,731.23
1682.099,743.00
1682.965,732.00
1683.830,729.20
1684.695,757.37
1685.560,735.13
1686.423,722.63
1687.288,699.40
1688.153,718.97
1689.017,711.77
1689.880,715.50
1690.745,745.63
1691.609,696.27
1692.473,653.97
1693.338,721.90
1694.200,732.40
1695.064,729.77
1695.928,717.57
1696.792,720.90
1697.654,708.47
1698.517,741.33
1699.381,737.63
1700.245,715.47
1701.106,704.97
1701.969,747.00
1702.833,718.77
1703.696,715.63
1704.557,731.20
1705.420,757.23
1706.283,732.00
1707.146,710.53
1708.007,713.87
1708.870,740.73
1709.732,706.90
1710.595,719.30
1711.455,691.37
1712.318,703.20
1713.180,720.83
1714.040,740.67
1714.902,721.90
1715.764,717.23
1716.626,686.37
1717.486,708.33
1718.348,689.67
1719.209,700.23
1720.071,717.13
1720.930,723.83
1721.792,746.03
1722.653,727.17
1723.512,697.70
1724.374,678.47
1725.234,692.13
1726.095,721.17
1726.954,731.70
1727.815,706.87
1728.676,715.17
1729.535,689.30
1730.395,712.80
1731.256,754.00
1732.114,727.80
1732.974,720.30
1733.834,709.67
1734.693,690.17
1735.553,704.30
1736.413,709.30
1737.272,717.20
1738.130,686.73
1738.990,697.43
1739.849,694.87
1740.707,715.43
1741.566,707.83
1742.426,709.57
1743.283,704.13
1744.142,678.27
1745.001,716.00
1745.858,701.87
1746.717,736.93
1747.576,718.90
1748.433,722.03
1749.292,683.20
1750.150,709.53
1751.007,727.20
1751.865,732.27
1752.723,713.80
1753.579,682.27
1754.438,697.90
1755.296,714.87
1756.152,715.90
1757.010,732.87
1757.865,709.97
1758.723,667.43
1759.581,691.53
1760.436,699.00
1761.294,700.43
1762.151,740.23
1763.006,736.70
1763.864,711.53
1764.721,723.50
1765.576,712.97
1766.433,715.13
1767.288,695.23
1768.144,732.57
1769.001,714.10
1769.856,696.93
1770.712,748.50
1771.568,712.10
1772.423,681.80
1773.279,656.70
1774.133,703.30
1774.989,676.27
1775.845,694.60
1776.699,738.77
1777.555,679.90
1778.409,726.07
1779.265,731.60
1780.120,693.80
1780.974,713.93
1781.829,721.93
1782.682,696.97
1783.538,715.30
1784.393,729.37
1785.246,665.03
1786.101,709.20
1786.954,665.93
1787.808,700.30
1788.661,699.03
1789.516,683.63
1790.370,712.73
1791.223,693.43
1792.077,703.00
1792.930,687.37
1793.784,704.97
1794.636,671.97
1795.490,690.00
1796.344,688.90
1797.196,687.23
1798.049,684.90
1798.901,646.67
1799.755,683.90
1800.606,694.30
1801.460,673.13
1802.311,690.03
1803.165,675.57
1804.018,681.97
1804.869,734.87
1805.722,717.53
1806.573,703.40
1807.426,688.07
1808.276,744.53
1809.129,702.03
1809.980,659.30
1810.832,696.10
1811.683,713.63
1812.535,676.00
1813.385,735.43
1814.237,678.67
1815.089,701.37
1815.940,669.53
1816.791,690.40
1817.641,686.20
1818.493,699.30
1819.343,645.83
1820.194,692.53
1821.044,701.73
1821.895,711.87
1822.745,679.27
1823.596,696.03
1824.445,721.57
1825.296,666.63
1826.145,684.57
1826.996,682.30
1827.845,677.43
1828.695,686.70
1829.544,668.57
1830.395,733.67
1831.243,693.53
1832.094,685.00
1832.942,664.23
1833.792,714.33
1834.640,693.23
1835.490,715.23
1836.338,676.57
1837.186,692.63
1838.036,657.23
1838.884,705.83
1839.733,693.80
1840.581,679.00
1841.430,687.50
1842.278,663.87
1843.127,700.67
1843.974,691.83
1844.823,659.90
1845.671,684.70
1846.519,691.80
1847.366,675.20
1848.213,670.20
1849.062,644.90
1849.909,695.10
1850.757,696.30
1851.604,667.63
1852.452,700.10
1853.298,674.83
1854.146,657.53
1854.993,664.30
1855.839,677.53
1856.687,677.17
1857.532,673.67
1858.380,690.83
1859.226,717.00
1860.073,686.63
1860.919,660.37
1861.765,678.87
1862.612,675.00
1863.457,689.03
1864.304,700.00
1865.150,689.23
1865.995,683.87
1866.842,659.50
1867.686,681.77
1868.533,641.40
1869.378,693.57
1870.223,680.80
1871.069,642.50
1871.914,641.33
1872.760,643.63
1873.604,687.00
1874.448,641.63
1875.294,682.43
1876.139,665.97
1876.984,683.77
1877.828,682.40
1878.672,687.83
1879.518,644.13
1880.361,684.87
1881.205,682.20
1882.050,633.30
1882.894,633.73
1883.739,651.07
1884.582,705.47
1885.425,649.33
1886.270,679.57
1887.113,650.40
1887.956,689.37
1888.801,681.40
1889.644,694.60
1890.486,707.73
1891.331,714.87
1892.173,630.50
1893.017,689.87
1893.860,682.30
1894.702,675.37
1895.546,650.70
1896.388,665.40
1897.230,671.27
1898.074,619.67
1898.916,685.73
1899.757,679.77
1900.601,692.80
1901.443,675.07
1902.284,693.83
1903.125,685.90
1903.969,638.13
1904.810,693.37
1905.651,686.90
1906.494,705.47
1907.335,629.53
1908.176,650.97
1909.018,673.30
1909.859,649.20
1910.700,653.17
1911.542,690.17
1912.383,699.67
1913.223,681.33
1914.064,679.30
1914.906,709.17
1915.746,639.77
1916.586,641.73
1917.428,662.43
1918.268,694.30
1919.107,654.87
1919.947,650.63
1920.789,655.60
1921.628,670.67
1922.468,657.43
1923.309,664.83
1924.148,693.30
1924.988,682.63
1925.827,675.60
1926.667,672.07
1927.507,671.63
1928.345,677.27
1929.184,632.30
1930.025,636.60
1930.864,702.47
1931.702,689.60
1932.541,669.83
1933.381,652.27
1934.219,648.27
1935.057,660.80
1935.896,682.97
1936.735,621.03
1937.573,657.13
1938.411,699.27
1939.249,719.00
1940.089,693.00
1940.927,690.57
1941.764,706.60
1942.602,707.60
1943.439,634.73
1944.278,642.23
1945.115,675.57
1945.953,686.50
1946.790,633.63
1947.628,650.83
1948.465,672.80
1949.302,656.10
1950.139,658.07
1950.976,651.53
1951.814,665.57
1952.651,622.07
1953.487,638.70
1954.323,700.97
1955.160,692.13
1955.998,631.10
1956.834,658.00
1957.670,659.30
1958.506,635.37
1959.342,629.53
1960.177,667.83
1961.015,698.23
1961.850,649.83
1962.686,672.10
1963.521,658.70
1964.357,614.17
1965.192,654.20
1966.029,647.80
1966.864,642.73
1967.699,615.90
1968.534,646.77
1969.369,682.80
1970.204,627.40
1971.040,646.43
1971.875,635.47
1972.709,647.77
1973.544,664.37
1974.378,641.50
1975.212,649.27
1976.047,644.97
1976.882,667.73
1977.716,664.60
1978.550,657.73
1979.384,647.57
1980.218,663.00
1981.052,658.63
1981.885,703.20
1982.719,643.37
1983.554,666.00
1984.388,694.23
1985.221,657.07
1986.054,667.47
1986.887,657.43
1987.720,644.67
1988.553,679.70
1989.386,654.00
1990.219,649.47
1991.053,643.10
1991.886,652.37
1992.719,635.80
1993.551,647.27
1994.383,668.60
1995.216,664.83
1996.048,678.53
1996.880,667.30
1997.712,674.83
1998.544,669.00
1999.376,670.10
2000.208,646.20
2000.208,646.20

Max Intensity Wave.,219.929
Max Intensity Data,6857.30
Min Intensity Wave.,1964.357
Min Intensity Data,614.17
FWHM Wave.,382.486
FWHM Value,37.93
Pressure Wave.,684.671
Pressure Value [GPa],-24.91530
G/D Ratio,0.68205
G/D Gband Wave.,1631.036
G/D Gband Intensity,905.84
G/D Dband Wave.,1301.448
G/D Dband Intensity,1328.11

<< BACKGROUND SPECTRUM >>
Wave[dcm-1],No250
146.591,2211.00
147.626,2086.00
148.664,2031.00
149.699,2510.00
150.737,2218.00
151.772,2374.00
152.809,2360.00
153.846,2286.00
154.881,2349.00
155.918,1980.00
156.953,2248.00
157.989,2544.00
159.026,2424.00
160.060,2595.00
161.096,2828.00
162.130,2449.00
163.167,2545.00
164.200,2412.00
165.236,2627.00
166.272,2620.00
167.305,2242.00
168.341,2519.00
169.374,2768.00
170.409,2734.00
171.445,2693.00
172.477,2480.00
173.512,2367.00
174.545,2661.00
175.580,2841.00
176.614,3030.00
177.647,2780.00
178.681,3030.00
179.713,3283.00
180.747,2794.00
181.781,2729.00
182.813,2960.00
183.847,3085.00
184.878,2690.00
185.912,2960.00
186.945,3054.00
187.976,3020.00
189.010,2702.00
190.043,2809.00
191.073,2908.00
192.106,2685.00
193.137,3180.00
194.170,2492.00
195.202,2922.00
196.232,2665.00
197.265,2978.00
198.297,3053.00
199.327,2733.00
200.359,2920.00
201.388,3323.00
202.420,2868.00
203.452,3071.00
204.481,2690.00
205.512,3260.00
206.544,3050.00
207.573,3036.00
208.604,3403.00
209.635,3508.00
210.663,2949.00
211.694,2988.00
212.725,2797.00
213.753,2754.00
214.783,3357.00
215.813,3239.00
216.841,2961.00
217.871,3135.00
218.899,2900.00
219.929,3094.00
220.959,2854.00
221.986,3130.00
223.016,2739.00
224.045,3088.00
225.072,3048.00
226.101,3144.00
227.130,3180.00
228.157,2787.00
229.185,2296.00
230.214,3161.00
231.241,2772.00
232.269,2457.00
233.297,2646.00
234.323,3196.00
235.351,2742.00
236.379,3092.00
237.407,2771.00
238.433,2892.00
239.460,3045.00
240.488,3085.00
241.513,3208.00
242.540,3087.00
243.568,3193.00
244.592,3203.00
245.619,3182.00
246.646,2912.00
247.671,2934.00
248.697,2810.00
249.724,2967.00
250.748,3013.00
251.774,3001.00
252.801,3232.00
253.827,3133.00
254.850,3066.00
255.876,2630.00
256.902,3106.00
257.925,2972.00
258.951,2743.00
259.976,2757.00
260.999,3077.00
262.024,2764.00
263.049,3617.00
264.074,3062.00
265.097,2990.00
266.122,3047.00
267.146,3021.00
268.168,3174.00
269.193,2813.00
270.217,3157.00
271.241,2687.00
272.263,2830.00
273.287,3124.00
274.311,2758.00
275.332,3210.00
276.356,2826.00
277.379,3060.00
278.402,3121.00
279.424,2920.00
280.447,2881.00
281.470,2684.00
282.492,3033.00
283.513,2890.00
284.536,3144.00
285.558,3063.00
286.581,3104.00
287.601,2811.00
288.623,2769.00
289.645,3025.00
290.665,3098.00
291.687,3073.00
292.709,3059.00
293.730,3347.00
294.750,2895.00
295.771,2733.00
296.792,3023.00
297.813,2866.00
298.832,3022.00
299.853,2726.00
300.874,2911.00
301.895,2939.00
302.913,2969.00
303.934,3237.00
304.954,3000.00
305.975,3167.00
306.993,2706.00
308.013,3086.00
309.033,3038.00
310.052,2905.00
311.072,2914.00
312.090,3037.00
313.109,3245.00
314.129,3396.00
315.148,2971.00
316.165,2988.00
317.184,3242.00
318.203,2747.00
319.222,2716.00
320.238,3114.00
321.257,2773.00
322.275,2692.00
323.294,2919.00
324.312,3108.00
325.328,3261.00
326.346,3231.00
327.364,3196.00
328.382,3123.00
329.397,3093.00
330.415,3219.00
331.432,3183.00
332.450,3264.00
333.467,3470.00
334.482,2574.00
335.499,3282.00
336.516,2839.00
337.533,2556.00
338.547,2864.00
339.564,2828.00
340.580,3052.00
341.597,2927.00
342.613,3349.00
343.627,2972.00
344.643,2984.00
345.659,3040.00
346.675,2962.00
347.690,2887.00
348.704,3084.00
349.719,2857.00
350.735,2709.00
351.750,3188.00
352.765,2978.00
353.778,2953.00
354.793,3142.00
355.808,2834.00
356.822,3193.00
357.837,2613.00
358.851,3247.00
359.864,2944.00
360.878,2684.00
361.892,2911.00
362.906,3151.00
363.920,2583.00
364.932,3060.00
365.945,3064.00
366.959,2971.00
367.972,2906.00
368.986,2727.00
369.999,3328.00
371.010,2813.00
372.023,3314.00
373.036,2916.00
374.049,3366.00
375.061,3052.00
376.072,2954.00
377.084,2881.00
378.097,2705.00
379.109,3184.00
380.121,2988.00
381.133,2648.00
382.143,3118.00
383.155,2738.00
384.166,2880.00
385.178,3069.00
386.189,3197.00
387.201,2704.00
388.212,2889.00
389.221,2929.00
390.232,3015.00
391.243,2890.00
392.254,2989.00
393.264,2806.00
394.275,3202.00
395.283,3142.00
396.294,3584.00
397.304,3463.00
398.314,3097.00
399.324,2997.00
400.334,2644.00
401.344,3128.00
402.351,2667.00
403.361,3186.00
404.370,2943.00
405.380,2892.00
406.389,3317.00
407.398,3094.00
408.407,3097.00
409.414,3730.00
410.423,3300.00
411.431,2727.00
412.440,2661.00
413.448,3306.00
414.457,2845.00
415.465,2793.00
416.471,2875.00
417.479,2967.00
418.487,2816.00
419.495,3266.00
420.503,3074.00
421.510,2587.00
422.518,3150.00
423.525,3188.00
424.530,3373.00
425.537,2877.00
426.544,3223.00
427.551,2817.00
428.558,3520.00
429.565,3415.00
430.571,2890.00
431.578,2906.00
432.582,2870.00
433.588,2948.00
434.595,2563.00
435.601,3261.00
436.607,3216.00
437.612,2721.00
438.618,3288.00
439.624,2930.00
440.627,2951.00
441.633,3104.00
442.638,3594.00
443.643,3092.00
444.648,3009.00
445.653,3175.00
446.658,2860.00
447.663,2992.00
448.667,2856.00
449.672,2902.00
450.674,2982.00
451.678,2756.00
452.682,2828.00
453.687,2805.00
454.690,3584.00
455.694,3233.00
456.698,2544.00
457.702,2637.00
458.705,2762.00
459.709,2804.00
460.710,2863.00
461.713,3029.00
462.716,3054.00
463.719,3016.00
464.722,3212.00
465.725,2962.00
466.727,2827.00
467.730,3009.00
468.732,2765.00
469.735,3281.00
470.737,2865.00
471.737,2858.00
472.739,2870.00
473.741,2778.00
474.742,3031.00
475.744,3099.00
476.746,3021.00
477.747,2992.00
478.748,3145.00
479.750,2898.00
480.751,2994.00
481.752,3714.00
482.753,3064.00
483.751,3475.00
484.752,2625.00
485.753,2884.00
486.753,2821.00
487.753,2956.00
488.754,3399.00
489.754,2686.00
490.754,3305.00
491.754,3055.00
492.754,2696.00
493.753,3019.00
494.753,2885.00
495.752,3314.00
496.752,2994.00
497.749,2924.00
498.748,2803.00
499.747,3350.00
500.746,3056.00
501.745,2729.00
502.744,2737.00
503.742,3278.00
504.741,2936.00
505.739,2500.00
506.737,2887.00
507.735,3107.00
508.734,3352.00
509.732,3121.00
510.729,3320.00
511.727,2850.00
512.725,2882.00
513.720,2756.00
514.718,3247.00
515.715,2672.00
516.712,2628.00
517.709,2972.00
518.706,2880.00
519.703,3050.00
520.700,3157.00
521.696,3277.00
522.693,2893.00
523.689,2825.00
524.686,3168.00
525.682,2806.00
526.678,3455.00
527.674,2890.00
528.670,2579.00
529.666,3480.00
530.661,3469.00
531.657,3119.00
532.652,3120.00
533.648,3022.00
534.641,3209.00
535.636,3035.00
536.631,3095.00
537.626,3128.00
538.621,2692.00
539.616,2591.00
540.610,2503.00
541.605,2979.00
542.599,3044.00
543.593,2976.00
544.587,3882.00
545.581,2790.00
546.575,3054.00
547.569,3024.00
548.563,2692.00
549.557,2621.00
550.550,2757.00
551.543,2708.00
552.537,3080.00
553.530,2749.00
554.523,2739.00
555.516,3062.00
556.509,2937.00
557.502,2632.00
558.494,3139.00
559.487,2899.00
560.479,3188.00
561.472,3223.00
562.464,3124.00
563.456,3323.00
564.448,2927.00
565.440,2976.00
566.432,3355.00
567.423,2840.00
568.415,2883.00
569.404,3102.00
570.396,2793.00
571.387,3094.00
572.378,3009.00
573.369,3910.00
574.360,3692.00
575.351,2943.00
576.341,2821.00
577.332,2855.00
578.323,2661.00
579.313,2825.00
580.303,3202.00
581.293,3103.00
582.283,2942.00
583.273,3070.00
584.263,2983.00
585.253,3093.00
586.243,3134.00
587.232,2652.00
588.222,2937.00
589.211,3162.00
590.200,3039.00
591.189,2941.00
592.178,2933.00
593.167,3343.00
594.156,3264.00
595.145,2915.00
596.133,3406.00
597.122,3114.00
598.110,3174.00
599.098,3081.00
600.086,2990.00
601.074,3180.00
602.062,2805.00
603.050,2724.00
604.038,3066.00
605.025,2768.00
606.013,3168.00
607.000,3347.00
607.987,3053.00
608.975,3032.00
609.962,2741.00
610.949,3108.00
611.936,3183.00
612.922,3139.00
613.909,2653.00
614.895,3311.00
615.882,2857.00
616.868,2951.00
617.854,2695.00
618.841,3006.00
619.826,3059.00
620.812,2970.00
621.798,2811.00
622.784,3138.00
623.769,3088.00
624.755,2686.00
625.740,3033.00
626.725,2710.00
627.711,2841.00
628.698,3028.00
629.683,2825.00
630.667,3158.00
631.652,2716.00
632.637,2879.00
633.621,3153.00
634.606,2890.00
635.590,3056.00
636.574,2925.00
637.558,3086.00
638.542,2990.00
639.526,2821.00
640.510,2648.00
641.493,3026.00
642.477,2965.00
643.460,2677.00
644.444,3198.00
645.427,3196.00
646.410,2637.00
647.393,2935.00
648.376,3015.00
649.359,2904.00
650.341,3093.00
651.324,3062.00
652.307,3022.00
653.289,2902.00
654.271,2864.00
655.253,2887.00
656.235,3125.00
657.217,3216.00
658.199,2645.00
659.181,2768.00
660.163,2979.00
661.144,2887.00
662.126,2849.00
663.107,2722.00
664.088,6137.00
665.069,3250.00
666.050,2819.00
667.033,2707.00
668.014,3052.00
668.995,2594.00
669.975,2964.00
670.956,2958.00
671.936,3110.00
672.916,2928.00
673.896,3045.00
674.876,2892.00
675.856,2857.00
676.836,2716.00
677.816,2293.00
678.795,2806.00
679.775,2656.00
680.754,3015.00
681.734,3157.00
682.713,3162.00
683.692,2788.00
684.671,2609.00
685.650,2758.00
686.629,2842.00
687.607,2708.00
688.586,2760.00
689.564,2827.00
690.543,3220.00
691.523,2360.00
692.501,2816.00
693.479,2877.00
694.457,2751.00
695.435,2833.00
696.413,2664.00
697.390,2528.00
698.368,2651.00
699.345,3063.00
700.322,2946.00
701.300,3080.00
702.277,3069.00
703.254,3215.00
704.231,2535.00
705.207,2945.00
706.184,2761.00
707.161,2658.00
708.137,2838.00
709.113,2791.00
710.090,2795.00
711.068,2595.00
712.044,2608.00
713.020,2876.00
713.996,2615.00
714.971,2815.00
715.947,2919.00
716.922,2788.00
717.898,2713.00
718.873,2847.00
719.848,2710.00
720.823,2662.00
721.798,2972.00
722.773,2750.00
723.748,2554.00
724.723,2993.00
725.697,2853.00
726.672,2748.00
727.646,2525.00
728.622,2969.00
729.596,2606.00
730.570,2707.00
731.544,3056.00
732.518,3255.00
733.492,2823.00
734.466,2852.00
735.439,3015.00
736.413,3080.00
737.386,2471.00
738.359,2407.00
739.332,2536.00
740.305,2835.00
741.278,3300.00
742.251,2878.00
743.224,2735.00
744.196,2549.00
745.171,3111.00
746.143,3016.00
747.115,2764.00
748.087,2678.00
749.059,3082.00
750.031,2890.00
751.003,3645.00
751.975,3216.00
752.947,2696.00
753.918,3056.00
754.890,2544.00
755.861,2751.00
756.832,3052.00
757.803,2804.00
758.774,2812.00
759.747,2616.00
760.718,3207.00
761.689,2752.00
762.659,2600.00
763.630,3128.00
764.600,2572.00
765.570,3011.00
766.540,3117.00
767.510,2992.00
768.480,3037.00
769.450,2685.00
770.420,2811.00
771.390,2650.00
772.359,2732.00
773.329,2694.00
774.300,2467.00
775.269,2714.00
776.238,3009.00
777.207,3176.00
778.176,2501.00
779.145,2782.00
780.114,2696.00
781.083,2582.00
782.051,2741.00
783.019,2695.00
783.988,3053.00
784.956,2849.00
785.924,2976.00
786.894,2834.00
787.862,2678.00
788.830,3159.00
789.797,2606.00
790.765,2608.00
791.732,2776.00
792.700,2628.00
793.667,2554.00
794.634,2736.00
795.601,2709.00
796.568,2793.00
797.535,2777.00
798.502,3421.00
799.468,2892.00
800.437,2395.00
801.403,2622.00
802.370,3250.00
803.336,3006.00
804.302,2869.00
805.268,2435.00
806.234,2500.00
807.200,2737.00
808.166,2761.00
809.131,2554.00
810.097,2966.00
811.062,3644.00
812.027,3031.00
812.994,2618.00
813.960,2581.00
814.925,2920.00
815.889,2493.00
816.854,2982.00
817.819,2657.00
818.783,2714.00
819.748,3096.00
820.712,2699.00
821.677,2648.00
822.641,2714.00
823.605,2696.00
824.571,3116.00
825.534,2707.00
826.498,2689.00
827.462,2813.00
828.425,2597.00
829.389,3049.00
830.352,2874.00
831.315,2843.00
832.279,2515.00
833.242,2751.00
834.204,2638.00
835.167,2632.00
836.132,3079.00
837.095,2491.00
838.057,2714.00
839.020,2792.00
839.982,2821.00
840.944,2699.00
841.906,2566.00
842.868,2908.00
843.830,2548.00
844.792,3042.00
845.753,2671.00
846.715,2465.00
847.679,2581.00
848.640,2596.00
849.601,2749.00
850.562,3231.00
851.523,2698.00
852.484,2475.00
853.445,2973.00
854.406,2719.00
855.367,2707.00
856.327,3005.00
857.288,2495.00
858.248,2654.00
859.210,2650.00
860.170,2515.00
861.130,3002.00
862.090,2363.00
863.050,2616.00
864.010,2656.00
864.969,2903.00
865.929,2609.00
866.888,2527.00
867.848,2836.00
868.807,2632.00
869.766,2843.00
870.727,2734.00
871.686,3010.00
872.645,3016.00
873.604,3308.00
874.562,2774.00
875.521,2809.00
876.479,3304.00
877.437,2596.00
878.396,2605.00
879.354,3184.00
880.312,2566.00
881.270,2769.00
882.229,3093.00
883.187,2587.00
884.145,2673.00
885.102,2940.00
886.059,2867.00
887.017,2914.00
887.974,2927.00
888.931,3067.00
889.888,2516.00
890.845,2435.00
891.802,2328.00
892.758,2651.00
893.717,2451.00
894.673,2593.00
895.630,2634.00
896.586,2892.00
897.542,2658.00
898.498,2503.00
899.454,2882.00
900.410,2661.00
901.366,2684.00
902.321,2608.00
903.277,2690.00
904.232,2753.00
905.189,2502.00
906.145,2640.00
907.100,2241.00
908.055,2692.00
909.010,2899.00
909.965,2329.00
910.919,2797.00
911.874,2603.00
912.828,2777.00
913.783,2782.00
914.737,2359.00
915.693,2714.00
916.648,2934.00
917.602,2927.00
918.555,2800.00
919.509,2851.00
920.463,2752.00
921.417,2733.00
922.370,2583.00
923.324,2657.00
924.277,2671.00
925.230,2776.00
926.183,2446.00
927.138,2686.00
928.091,2946.00
929.044,2831.00
929.996,2673.00
930.949,2640.00
931.902,2836.00
932.854,2841.00
933.806,2570.00
934.758,2950.00
935.711,2969.00
936.663,2732.00
937.614,2795.00
938.568,2729.00
939.520,2389.00
940.471,2694.00
941.423,2789.00
942.374,2898.00
943.326,2714.00
944.277,2594.00
945.228,2852.00
946.179,2698.00
947.130,3004.00
948.080,2664.00
949.031,2549.00
949.984,2673.00
950.934,2733.00
951.884,2468.00
952.835,2737.00
953.785,2763.00
954.735,2595.00
955.685,2358.00
956.635,2625.00
957.585,2594.00
958.534,2663.00
959.484,2707.00
960.433,2605.00
961.383,2459.00
962.334,2965.00
963.283,2775.00
964.232,2822.00
965.181,2723.00
966.130,2786.00
967.079,2619.00
968.027,2718.00
968.976,2749.00
969.924,2598.00
970.873,2789.00
971.821,2722.00
972.769,2896.00
973.719,2839.00
974.667,2492.00
975.615,2691.00
976.562,2733.00
977.510,2424.00
978.458,2583.00
979.405,2812.00
980.352,2746.00
981.300,2974.00
982.247,2784.00
983.194,2550.00
984.141,2600.00
985.088,2712.00
986.036,2792.00
986.983,3036.00
987.930,3125.00
988.876,2372.00
989.822,2953.00
990.769,2533.00
991.715,2589.00
992.661,2427.00
993.607,2796.00
994.553,3275.00
995.498,2586.00
996.444,2291.00
997.389,2807.00
998.337,2557.00
999.282,2855.00
1000.227,2629.00
1001.173,2730.00
1002.118,2479.00
1003.062,2902.00
1004.007,2679.00
1004.952,2990.00
1005.897,2953.00
1006.841,2666.00
1007.786,2473.00
1008.730,2470.00
1009.674,3165.00
1010.618,2654.00
1011.564,2520.00
1012.508,2402.00
1013.452,2948.00
1014.396,2714.00
1015.339,2616.00
1016.283,2712.00
1017.226,2729.00
1018.170,2684.00
1019.113,2917.00
1020.056,2721.00
1020.999,2692.00
1021.942,2611.00
1022.885,2837.00
1023.828,2994.00
1024.770,2478.00
1025.715,2733.00
1026.657,2655.00
1027.600,2738.00
1028.542,2932.00
1029.484,2681.00
1030.426,2843.00
1031.368,2762.00
1032.310,2592.00
1033.251,2561.00
1034.193,2671.00
1035.135,2483.00
1036.076,2628.00
1037.017,2508.00
1037.959,2846.00
1038.900,2759.00
1039.843,2807.00
1040.784,2732.00
1041.725,2840.00
1042.665,2645.00
1043.606,2766.00
1044.547,2755.00
1045.487,2397.00
1046.427,2676.00
1047.368,2794.00
1048.308,2232.00
1049.248,2526.00
1050.188,2710.00
1051.128,2625.00
1052.067,2649.00
1053.007,2408.00
1053.947,2369.00
1054.886,2596.00
1055.827,2511.00
1056.766,2879.00
1057.706,2432.00
1058.645,2647.00
1059.584,2776.00
1060.522,2967.00
1061.461,2434.00
1062.400,2472.00
1063.338,2671.00
1064.277,2501.00
1065.215,2551.00
1066.154,2417.00
1067.092,2588.00
1068.030,2615.00
1068.968,2831.00
1069.906,3039.00
1070.843,2966.00
1071.781,2772.00
1072.720,2798.00
1073.658,2827.00
1074.595,2594.00
1075.533,2540.00
1076.470,2576.00
1077.407,2988.00
1078.344,2751.00
1079.281,2796.00
1080.217,2332.00
1081.154,2700.00
1082.091,2712.00
1083.027,2443.00
1083.964,2904.00
1084.900,2589.00
1085.836,2632.00
1086.772,2884.00
1087.708,2427.00
1088.644,2856.00
1089.580,2674.00
1090.515,2748.00
1091.451,2640.00
1092.388,2758.00
1093.324,2432.00
1094.259,3229.00
1095.194,2781.00
1096.129,2609.00
1097.064,2565.00
1097.999,2768.00
1098.934,2526.00
1099.869,2514.00
1100.803,2699.00
1101.738,2702.00
1102.672,2381.00
1103.607,2808.00
1104.541,2573.00
1105.475,2542.00
1106.409,2380.00
1107.343,2578.00
1108.277,2448.00
1109.210,2747.00
1110.144,2657.00
1111.078,2680.00
1112.011,2452.00
1112.944,2780.00
1113.878,2707.00
1114.811,2183.00
1115.744,2569.00
1116.678,2268.00
1117.611,2541.00
1118.544,2571.00
1119.477,2758.00
1120.409,2551.00
1121.342,3108.00
1122.274,2747.00
1123.206,3030.00
1124.138,2700.00
1125.070,2978.00
1126.002,2824.00
1126.934,2275.00
1127.866,2572.00
1128.798,2333.00
1129.729,2392.00
1130.661,2673.00
1131.592,2562.00
1132.523,2732.00
1133.454,2807.00
1134.385,2309.00
1135.317,2643.00
1136.247,2576.00
1137.178,2905.00
1138.109,2347.00
1139.039,3038.00
1139.970,2810.00
1140.900,2565.00
1141.831,2318.00
1142.761,2247.00
1143.691,2749.00
1144.621,2669.00
1145.551,2691.00
1146.480,2700.00
1147.410,2814.00
1148.340,2310.00
1149.269,2411.00
1150.199,2570.00
1151.128,3033.00
1152.057,2433.00
1152.979,2589.00
1153.898,2623.00
1154.819,2744.00
1155.739,2650.00
1156.658,2571.00
1157.579,2658.00
1158.498,2634.00
1159.419,2172.00
1160.338,2716.00
1161.256,2674.00
1162.177,2505.00
1163.095,2601.00
1164.016,2708.00
1164.934,2932.00
1165.852,2817.00
1166.772,2622.00
1167.690,2678.00
1168.610,2721.00
1169.528,2665.00
1170.446,2195.00
1171.365,2552.00
1172.283,2545.00
1173.202,2634.00
1174.120,2658.00
1175.037,2523.00
1175.956,2460.00
1176.873,2502.00
1177.792,2524.00
1178.709,3129.00
1179.626,2554.00
1180.544,2825.00
1181.461,2508.00
1182.379,2705.00
1183.296,2614.00
1184.212,2297.00
1185.130,2475.00
1186.046,2976.00
1186.962,2622.00
1187.880,2936.00
1188.796,2682.00
1189.714,2443.00
1190.629,2773.00
1191.545,2712.00
1192.462,2541.00
1193.378,2593.00
1194.295,2355.00
1195.210,2619.00
1196.125,2776.00
1197.042,2738.00
1197.957,2611.00
1198.872,2491.00
1199.788,2547.00
1200.703,2928.00
1201.619,2649.00
1202.534,2486.00
1203.448,2706.00
1204.364,2578.00
1205.278,2312.00
1206.192,2683.00
1207.108,3136.00
1208.022,3012.00
1208.938,2472.00
1209.851,2769.00
1210.765,2843.00
1211.680,2517.00
1212.594,2393.00
1213.507,2569.00
1214.422,3042.00
1215.335,2783.00
1216.248,2547.00
1217.163,2650.00
1218.076,3203.00
1218.990,2732.00
1219.903,2379.00
1220.816,2491.00
1221.730,2588.00
1222.642,2511.00
1223.554,2572.00
1224.469,2678.00
1225.380,2566.00
1226.292,2289.00
1227.206,2723.00
1228.118,2965.00
1229.032,2245.00
1229.943,2504.00
1230.855,2606.00
1231.768,2378.00
1232.679,2746.00
1233.590,2574.00
1234.503,2844.00
1235.414,2476.00
1236.325,2492.00
1237.238,2685.00
1238.149,2728.00
1239.059,2436.00
1239.972,2796.00
1240.882,2424.00
1241.793,2751.00
1242.705,3024.00
1243.615,2548.00
1244.525,2732.00
1245.437,2200.00
1246.347,2711.00
1247.259,2733.00
1248.168,3057.00
1249.078,2889.00
1249.989,2905.00
1250.899,2431.00
1251.808,2495.00
1252.719,2566.00
1253.628,2502.00
1254.537,2998.00
1255.448,2447.00
1256.357,2487.00
1257.266,2649.00
1258.176,2380.00
1259.085,2352.00
1259.993,2447.00
1260.904,2443.00
1261.812,2455.00
1262.720,3240.00
1263.630,2800.00
1264.538,2467.00
1265.446,2711.00
1266.356,2623.00
1267.263,2880.00
1268.171,2416.00
1269.080,2675.00
1269.988,2778.00
1270.895,2518.00
1271.804,2637.00
1272.711,2832.00
1273.619,2774.00
1274.527,2489.00
1275.434,2729.00
1276.341,2431.00
1277.248,2628.00
1278.156,2937.00
1279.063,2499.00
1279.969,2734.00
1280.877,3514.00
1281.783,2860.00
1282.690,2670.00
1283.598,2554.00
1284.503,2456.00
1285.409,2477.00
1286.317,3021.00
1287.223,2992.00
1288.128,2689.00
1289.036,2517.00
1289.941,2583.00
1290.846,2598.00
1291.751,2461.00
1292.658,2534.00
1293.563,3027.00
1294.468,2647.00
1295.375,2785.00
1296.280,2858.00
1297.184,3325.00
1298.091,2699.00
1298.995,2766.00
1299.900,3026.00
1300.806,2525.00
1301.710,2366.00
1302.614,2231.00
1303.518,2892.00
1304.424,2565.00
1305.327,2826.00
1306.231,2621.00
1307.137,2786.00
1308.040,2664.00
1308.943,2655.00
1309.847,2861.00
1310.752,2806.00
1311.655,2261.00
1312.558,2401.00
1313.463,2563.00
1314.366,2527.00
1315.269,2696.00
1316.171,2623.00
1317.076,2507.00
1317.978,2442.00
1318.881,2246.00
1319.785,2501.00
1320.687,2510.00
1321.589,2247.00
1322.491,2452.00
1323.395,2716.00
1324.297,3174.00
1325.198,2768.00
1326.102,2435.00
1327.004,2436.00
1327.905,3037.00
1328.806,2617.00
1329.709,2713.00
1330.611,2542.00
1331.512,2477.00
1332.413,3067.00
1333.316,2699.00
1334.216,2803.00
1335.117,2345.00
1336.020,2659.00
1336.920,2619.00
1337.821,2494.00
1338.721,2867.00
1339.623,2631.00
1340.523,2563.00
1341.423,2486.00
1342.323,2893.00
1343.225,2682.00
1344.125,2450.00
1345.025,2502.00
1345.924,2329.00
1346.826,2979.00
1347.725,3029.00
1348.624,2849.00
1349.524,2516.00
1350.425,2579.00
1351.324,2699.00
1352.223,2810.00
1353.121,2626.00
1354.022,2821.00
1354.921,3026.00
1355.819,2774.00
1356.718,2693.00
1357.618,2336.00
1358.516,2762.00
1359.415,2981.00
1360.313,2777.00
1361.213,2582.00
1362.111,2905.00
1363.008,3269.00
1363.906,2627.00
1364.806,2623.00
1365.703,2784.00
1366.601,2494.00
1367.498,2462.00
1368.397,2790.00
1369.295,2702.00
1370.192,2452.00
1371.089,2708.00
1371.987,2617.00
1372.884,2844.00
1373.781,2412.00
1374.678,2628.00
1375.574,2469.00
1376.473,2746.00
1377.369,2845.00
1378.265,2464.00
1379.161,2576.00
1380.059,2334.00
1380.955,2761.00
1381.851,2378.00
1382.747,2524.00
1383.643,2572.00
1384.540,2392.00
1385.436,2518.00
1386.331,2700.00
1387.227,2760.00
1388.124,2769.00
1389.019,2453.00
1389.914,2589.00
1390.809,2264.00
1391.704,3056.00
1392.601,2502.00
1393.495,2919.00
1394.390,2810.00
1395.285,2885.00
1396.179,2636.00
1397.075,2617.00
1397.969,2707.00
1398.864,2329.00
1399.758,2595.00
1400.652,2664.00
1401.547,2470.00
1402.441,2390.00
1403.335,2958.00
1404.229,2659.00
1405.122,2737.00
1406.017,2605.00
1406.911,2800.00
1407.804,2992.00
1408.697,2598.00
1409.590,2463.00
1410.485,2818.00
1411.378,2656.00
1412.271,2361.00
1413.163,2673.00
1414.056,2787.00
1414.949,2988.00
1415.843,2681.00
1416.735,2554.00
1417.627,2622.00
1418.520,2622.00
1419.412,2844.00
1420.306,2790.00
1421.197,2908.00
1422.089,2856.00
1422.981,3069.00
1423.873,2797.00
1424.764,2729.00
1425.657,2652.00
1426.549,2757.00
1427.440,2823.00
1428.331,2546.00
1429.222,2346.00
1430.113,2692.00
1431.006,2779.00
1431.897,2530.00
1432.787,2657.00
1433.678,2560.00
1434.568,2468.00
1435.459,2867.00
1436.351,2816.00
1437.241,2795.00
1438.131,2829.00
1439.021,2397.00
1439.911,2598.00
1440.801,2692.00
1441.693,2866.00
1442.583,2647.00
1443.472,2619.00
1444.362,2741.00
1445.251,2573.00
1446.140,2569.00
1447.030,2811.00
1447.921,2822.00
1448.810,2499.00
1449.699,2955.00
1450.588,2659.00
1451.476,2570.00
1452.365,2728.00
1453.254,2531.00
1454.144,2483.00
1455.032,2734.00
1455.921,2368.00
1456.809,2916.00
1457.697,2426.00
1458.585,2579.00
1459.473,2592.00
1460.361,2492.00
1461.251,2701.00
1462.138,2709.00
1463.026,2615.00
1463.913,2912.00
1464.801,2597.00
1465.688,2739.00
1466.575,2634.00
1467.463,3095.00
1468.351,2493.00
1469.238,2614.00
1470.125,2266.00
1471.012,2705.00
1471.899,2738.00
1472.785,2482.00
1473.672,2672.00
1474.558,2873.00
1475.446,2774.00
1476.333,2784.00
1477.219,2448.00
1478.105,2581.00
1478.991,2595.00
1479.877,2933.00
1480.762,2649.00
1481.648,2504.00
1482.534,2798.00
1483.419,2699.00
1484.307,2762.00
1485.192,2602.00
1486.077,2488.00
1486.962,2500.00
1487.847,2410.00
1488.732,2477.00
1489.617,2664.00
1490.502,2908.00
1491.387,2768.00
1492.271,2493.00
1493.156,2474.00
1494.042,2445.00
1494.927,2836.00
1495.811,2493.00
1496.695,2723.00
1497.579,2901.00
1498.463,2638.00
1499.347,2660.00
1500.231,2659.00
1501.114,2722.00
1501.998,2886.00
1502.881,2689.00
1503.765,2933.00
1504.648,3035.00
1505.533,2749.00
1506.417,2700.00
1507.300,2622.00
1508.183,2698.00
1509.066,2119.00
1509.948,2867.00
1510.831,2964.00
1511.714,2440.00
1512.596,2772.00
1513.479,2923.00
1514.361,2822.00
1515.243,2673.00
1516.125,2825.00
1517.008,2877.00
1517.890,2575.00
1518.771,2661.00
1519.655,2891.00
1520.537,2574.00
1521.419,2486.00
1522.300,2667.00
1523.182,2715.00
1524.063,2783.00
1524.944,2905.00
1525.825,2853.00
1526.707,2431.00
1527.588,2439.00
1528.468,2694.00
1529.349,2330.00
1530.230,2558.00
1531.111,2822.00
1531.991,2670.00
1532.872,2333.00
1533.752,2629.00
1534.632,2537.00
1535.513,2513.00
1536.393,2836.00
1537.273,2931.00
1538.153,3275.00
1539.032,2402.00
1539.912,2615.00
1540.792,2641.00
1541.672,2610.00
1542.551,2754.00
1543.430,3208.00
1544.310,2734.00
1545.189,2550.00
1546.068,3052.00
1546.947,2784.00
1547.826,2984.00
1548.705,2652.00
1549.584,2872.00
1550.462,2633.00
1551.341,2797.00
1552.219,2697.00
1553.098,2824.00
1553.976,2880.00
1554.854,3055.00
1555.733,2862.00
1556.611,2582.00
1557.489,2453.00
1558.367,2649.00
1559.244,2790.00
1560.122,2617.00
1561.000,2736.00
1561.877,2934.00
1562.755,2515.00
1563.632,2633.00
1564.509,2907.00
1565.386,2992.00
1566.264,2424.00
1567.141,2318.00
1568.017,2815.00
1568.894,2667.00
1569.771,2729.00
1570.648,2780.00
1571.524,2652.00
1572.401,2419.00
1573.277,2454.00
1574.153,2670.00
1575.029,2548.00
1575.906,3369.00
1576.781,2798.00
1577.657,2577.00
1578.533,2876.00
1579.409,2308.00
1580.285,2603.00
1581.160,3077.00
1582.036,2818.00
1582.911,2472.00
1583.786,2968.00
1584.662,2470.00
1585.537,2654.00
1586.412,2692.00
1587.287,2517.00
1588.160,2821.00
1589.035,2361.00
1589.909,2697.00
1590.784,2629.00
1591.658,2451.00
1592.533,2702.00
1593.407,2666.00
1594.281,2539.00
1595.155,3043.00
1596.029,2563.00
1596.903,2604.00
1597.777,2549.00
1598.651,2918.00
1599.525,2354.00
1600.398,2658.00
1601.272,2637.00
1602.144,3194.00
1603.017,2604.00
1603.890,2916.00
1604.763,2705.00
1605.636,2803.00
1606.509,2365.00
1607.382,2484.00
1608.255,2716.00
1609.128,2879.00
1610.000,2630.00
1610.873,2378.00
1611.746,2577.00
1612.616,2552.00
1613.488,2234.00
1614.361,2664.00
1615.233,2593.00
1616.105,2878.00
1616.977,2588.00
1617.849,2485.00
1618.720,2949.00
1619.592,2942.00
1620.464,2772.00
1621.333,3112.00
1622.205,2655.00
1623.076,2618.00
1623.947,2689.00
1624.818,2924.00
1625.689,2757.00
1626.560,2583.00
1627.431,2708.00
1628.302,3035.00
1629.171,2740.00
1630.042,2987.00
1630.912,3315.00
1631.782,3169.00
1632.653,2490.00
1633.523,2805.00
1634.393,2838.00
1635.263,2527.00
1636.131,2634.00
1637.001,2564.00
1637.871,2294.00
1638.741,2313.00
1639.611,2418.00
1640.480,2772.00
1641.350,2552.00
1642.219,2481.00
1643.087,2167.00
1643.956,3084.00
1644.825,2900.00
1645.694,2837.00
1646.563,2819.00
1647.432,2682.00
1648.299,2677.00
1649.167,2780.00
1650.036,2462.00
1650.904,2770.00
1651.773,2852.00
1652.641,2674.00
1653.509,2856.00
1654.376,2533.00
1655.244,2736.00
1656.112,2701.00
1656.980,2681.00
1657.847,2501.00
1658.715,2790.00
1659.581,2564.00
1660.448,2887.00
1661.316,2191.00
1662.183,2707.00
1663.051,2728.00
1663.918,2685.00
1664.783,2675.00
1665.650,2731.00
1666.517,2834.00
1667.384,2661.00
1668.251,2695.00
1669.115,2863.00
1669.982,2623.00
1670.849,2952.00
1671.715,2626.00
1672.581,2778.00
1673.446,2767.00
1674.312,2671.00
1675.178,3021.00
1676.044,2717.00
1676.910,2752.00
1677.774,2671.00
1678.639,2327.00
1679.505,2618.00
1680.370,2786.00
1681.236,3304.00
1682.099,2594.00
1682.965,2682.00
1683.830,2276.00
1684.695,2457.00
1685.560,2580.00
1686.423,2812.00
1687.288,2821.00
1688.153,2721.00
1689.017,2610.00
1689.880,2761.00
1690.745,2793.00
1691.609,2538.00
1692.473,2882.00
1693.338,2892.00
1694.200,2915.00
1695.064,2662.00
1695.928,2576.00
1696.792,2673.00
1697.654,3172.00
1698.517,2667.00
1699.381,2409.00
1700.245,2336.00
1701.106,2970.00
1701.969,2540.00
1702.833,2803.00
1703.696,2583.00
1704.557,2617.00
1705.420,2492.00
1706.283,2677.00
1707.146,2818.00
1708.007,2487.00
1708.870,2447.00
1709.732,2368.00
1710.595,2554.00
1711.455,2457.00
1712.318,2598.00
1713.180,2919.00
1714.040,2688.00
1714.902,2837.00
1715.764,2671.00
1716.626,2481.00
1717.486,2622.00
1718.348,2945.00
1719.209,5114.00
1720.071,2326.00
1720.930,2407.00
1721.792,2493.00
1722.653,2515.00
1723.512,2568.00
1724.374,2653.00
1725.234,2731.00
1726.095,2682.00
1726.954,2638.00
1727.815,2789.00
1728.676,2659.00
1729.535,2902.00
1730.395,2641.00
1731.256,2544.00
1732.114,2707.00
1732.974,2147.00
1733.834,3021.00
1734.693,2851.00
1735.553,2692.00
1736.413,3071.00
1737.272,2551.00
1738.130,2626.00
1738.990,2754.00
1739.849,2581.00
1740.707,3635.00
1741.566,2703.00
1742.426,2717.00
1743.283,3065.00
1744.142,2583.00
1745.001,2338.00
1745.858,2843.00
1746.717,2703.00
1747.576,2759.00
1748.433,2802.00
1749.292,3249.00
1750.150,3271.00
1751.007,2847.00
1751.865,2847.00
1752.723,2688.00
1753.579,2611.00
1754.438,2891.00
1755.296,2866.00
1756.152,2235.00
1757.010,2328.00
1757.865,2862.00
1758.723,2367.00
1759.581,2989.00
1760.436,2639.00
1761.294,3025.00
1762.151,2609.00
1763.006,2563.00
1763.864,2315.00
1764.721,2835.00
1765.576,2675.00
1766.433,2806.00
1767.288,2579.00
1768.144,2683.00
1769.001,2622.00
1769.856,2762.00
1770.712,2841.00
1771.568,2450.00
1772.423,2590.00
1773.279,2629.00
1774.133,2573.00
1774.989,3078.00
1775.845,3049.00
1776.699,2876.00
1777.555,2674.00
1778.409,3178.00
1779.265,2597.00
1780.120,2634.00
1780.974,2648.00
1781.829,2265.00
1782.682,2724.00
1783.538,2482.00
1784.393,2681.00
1785.246,2596.00
1786.101,2758.00
1786.954,2829.00
1787.808,2877.00
1788.661,2398.00
1789.516,2605.00
1790.370,2596.00
1791.223,2847.00
1792.077,2663.00
1792.930,2761.00
1793.784,2538.00
1794.636,2713.00
1795.490,2635.00
1796.344,2703.00
1797.196,2667.00
1798.049,2840.00
1798.901,2606.00
1799.755,2914.00
1800.606,2470.00
1801.460,3199.00
1802.311,2973.00
1803.165,3084.00
1804.018,3028.00
1804.869,2712.00
1805.722,3098.00
1806.573,2703.00
1807.426,2501.00
1808.276,2612.00
1809.129,2577.00
1809.980,2900.00
1810.832,2954.00
1811.683,2562.00
1812.535,3016.00
1813.385,2566.00
1814.237,2960.00
1815.089,2693.00
1815.940,2964.00
1816.791,2624.00
1817.641,2541.00
1818.493,2804.00
1819.343,2799.00
1820.194,2548.00
1821.044,2765.00
1821.895,2866.00
1822.745,2416.00
1823.596,2551.00
1824.445,3041.00
1825.296,2795.00
1826.145,2652.00
1826.996,2872.00
1827.845,2735.00
1828.695,2738.00
1829.544,2679.00
1830.395,2681.00
1831.243,2589.00
1832.094,2414.00
1832.942,3300.00
1833.792,2758.00
1834.640,2727.00
1835.490,2651.00
1836.338,2752.00
1837.186,2576.00
1838.036,2568.00
1838.884,2646.00
1839.733,2991.00
1840.581,2860.00
1841.430,2801.00
1842.278,3033.00
1843.127,2561.00
1843.974,2362.00
1844.823,3141.00
1845.671,2819.00
1846.519,2678.00
1847.366,2758.00
1848.213,2340.00
1849.062,2550.00
1849.909,2407.00
1850.757,3296.00
1851.604,2800.00
1852.452,2585.00
1853.298,2869.00
1854.146,2751.00
1854.993,2744.00
1855.839,3173.00
1856.687,2807.00
1857.532,2815.00
1858.380,2690.00
1859.226,2708.00
1860.073,2798.00
1860.919,2538.00
1861.765,2567.00
1862.612,2932.00
1863.457,2880.00
1864.304,2613.00
1865.150,2797.00
1865.995,2658.00
1866.842,2813.00
1867.686,2908.00
1868.533,2791.00
1869.378,2730.00
1870.223,2701.00
1871.069,2607.00
1871.914,2741.00
1872.760,2706.00
1873.604,2465.00
1874.448,2871.00
1875.294,2862.00
1876.139,2562.00
1876.984,2801.00
1877.828,2358.00
1878.672,2198.00
1879.518,2600.00
1880.361,2853.00
1881.205,2827.00
1882.050,2545.00
1882.894,3209.00
1883.739,2580.00
1884.582,2430.00
1885.425,2539.00
1886.270,2934.00
1887.113,2483.00
1887.956,2769.00
1888.801,2745.00
1889.644,2479.00
1890.486,2264.00
1891.331,2579.00
1892.173,2771.00
1893.017,2738.00
1893.860,2950.00
1894.702,2973.00
1895.546,2718.00
1896.388,3375.00
1897.230,3040.00
1898.074,2648.00
1898.916,2470.00
1899.757,2513.00
1900.601,3327.00
1901.443,2960.00
1902.284,2961.00
1903.125,3133.00
1903.969,2902.00
1904.810,2898.00
1905.651,2760.00
1906.494,2974.00
1907.335,3175.00
1908.176,2832.00
1909.018,2780.00
1909.859,2673.00
1910.700,2576.00
1911.542,3203.00
1912.383,2741.00
1913.223,2328.00
1914.064,2810.00
1914.906,2912.00
1915.746,3054.00
1916.586,3183.00
1917.428,2692.00
1918.268,2713.00
1919.107,2612.00
1919.947,2493.00
1920.789,2639.00
1921.628,2924.00
1922.468,2702.00
1923.309,2549.00
1924.148,2978.00
1924.988,2763.00
1925.827,2668.00
1926.667,2589.00
1927.507,2730.00
1928.345,2520.00
1929.184,2886.00
1930.025,2561.00
1930.864,2910.00
1931.702,2981.00
1932.541,2609.00
1933.381,2844.00
1934.219,2870.00
1935.057,2988.00
1935.896,2403.00
1936.735,2703.00
1937.573,2620.00
1938.411,2476.00
1939.249,2813.00
1940.089,2563.00
1940.927,2922.00
1941.764,2937.00
1942.602,2584.00
1943.439,2623.00
1944.278,2699.00
1945.115,2621.00
1945.953,2427.00
1946.790,2808.00
1947.628,3051.00
1948.465,2806.00
1949.302,2855.00
1950.139,2850.00
1950.976,2592.00
1951.814,2858.00
1952.651,2812.00
1953.487,2534.00
1954.323,2917.00
1955.160,2669.00
1955.998,3089.00
1956.834,2697.00
1957.670,2769.00
1958.506,2954.00
1959.342,2826.00
1960.177,2747.00
1961.015,2810.00
1961.850,2763.00
1962.686,2745.00
1963.521,2757.00
1964.357,3023.00
1965.192,2505.00
1966.029,2867.00
1966.864,2647.00
1967.699,2978.00
1968.534,2755.00
1969.369,2958.00
1970.204,2710.00
1971.040,2758.00
1971.875,2677.00
1972.709,2759.00
1973.544,2553.00
1974.378,2624.00
1975.212,2817.00
1976.047,2615.00
1976.882,2570.00
1977.716,3087.00
1978.550,2429.00
1979.384,2683.00
1980.218,2678.00
1981.052,2653.00
1981.885,2706.00
1982.719,2730.00
1983.554,2855.00
1984.388,2964.00
1985.221,2794.00
1986.054,2953.00
1986.887,2764.00
1987.720,2578.00
1988.553,2988.00
1989.386,2800.00
1990.219,2859.00
1991.053,3033.00
1991.886,2601.00
1992.719,2929.00
1993.551,2257.00
1994.383,2855.00
1995.216,2630.00
1996.048,2431.00
1996.880,2867.00
1997.712,2583.00
1998.544,2711.00
1999.376,2769.00
2000.208,2999.00
