RamanScope Measure Spectrum Data V3.72

<< MEASURE CONDITION >>
Exposure Type,Aver
Exposure Time [sec],15
Exposure Count,30
Measure Time,2023/07/04 14:13:28
Data Name,""
Data Comment,""
Rayleigh Wave[nm],532.0

<< SAMPLE SPECTRUM >>
Wave[dcm-1],No243
146.591,610.43
147.626,718.67
148.664,842.77
149.699,1056.80
150.737,1178.57
151.772,1339.90
152.809,1499.30
153.846,1704.03
154.881,1854.03
155.918,1966.37
156.953,2114.27
157.989,2224.93
159.026,2307.93
160.060,2357.93
161.096,2435.13
162.130,2473.60
163.167,2528.40
164.200,2586.37
165.236,2661.17
166.272,2718.03
167.305,2696.57
168.341,2813.10
169.374,2821.07
170.409,2880.97
171.445,2908.70
172.477,2994.70
173.512,3005.30
174.545,3074.80
175.580,3139.83
176.614,3166.13
177.647,3216.90
178.681,3166.20
179.713,3234.17
180.747,3246.33
181.781,3192.03
182.813,3159.83
183.847,3213.60
184.878,3211.83
185.912,3195.30
186.945,3190.13
187.976,3230.77
189.010,3202.30
190.043,3210.37
191.073,3303.73
192.106,3289.07
193.137,3302.87
194.170,3352.77
195.202,3382.40
196.232,3412.43
197.265,3471.67
198.297,3503.10
199.327,3600.67
200.359,3634.27
201.388,3718.20
202.420,3757.93
203.452,3857.17
204.481,3958.80
205.512,4011.97
206.544,4171.30
207.573,4231.90
208.604,4360.07
209.635,4529.10
210.663,4684.53
211.694,4882.63
212.725,5037.77
213.753,5200.03
214.783,5365.87
215.813,5593.13
216.841,5688.23
217.871,5817.27
218.899,5920.73
219.929,5955.33
220.959,5972.07
221.986,5897.43
223.016,5762.80
224.045,5663.43
225.072,5458.77
226.101,5352.53
227.130,5185.03
228.157,4984.17
229.185,4831.10
230.214,4718.63
231.241,4637.60
232.269,4573.60
233.297,4398.13
234.323,4441.13
235.351,4380.17
236.379,4357.53
237.407,4310.03
238.433,4285.00
239.460,4224.77
240.488,4280.83
241.513,4314.60
242.540,4269.73
243.568,4313.23
244.592,4330.47
245.619,4388.00
246.646,4412.57
247.671,4424.70
248.697,4390.13
249.724,4343.00
250.748,4371.07
251.774,4378.73
252.801,4348.23
253.827,4332.70
254.850,4371.57
255.876,4315.27
256.902,4406.77
257.925,4397.63
258.951,4427.00
259.976,4484.23
260.999,4533.27
262.024,4589.27
263.049,4608.60
264.074,4664.27
265.097,4705.77
266.122,4768.37
267.146,4864.87
268.168,4953.03
269.193,4978.87
270.217,5013.00
271.241,5064.30
272.263,5162.37
273.287,5222.77
274.311,5295.90
275.332,5308.37
276.356,5363.83
277.379,5405.37
278.402,5374.93
279.424,5354.33
280.447,5306.33
281.470,5276.33
282.492,5243.10
283.513,5186.03
284.536,5094.67
285.558,5003.80
286.581,4942.50
287.601,4901.53
288.623,4821.53
289.645,4703.37
290.665,4580.37
291.687,4557.10
292.709,4478.23
293.730,4412.60
294.750,4294.90
295.771,4254.30
296.792,4179.37
297.813,4082.73
298.832,4067.07
299.853,3975.93
300.874,3918.43
301.895,3852.23
302.913,3823.90
303.934,3742.50
304.954,3704.97
305.975,3624.70
306.993,3603.63
308.013,3526.20
309.033,3538.80
310.052,3462.10
311.072,3409.40
312.090,3433.50
313.109,3373.70
314.129,3377.40
315.148,3375.87
316.165,3317.07
317.184,3277.90
318.203,3334.70
319.222,3256.53
320.238,3265.07
321.257,3242.07
322.275,3213.03
323.294,3230.53
324.312,3232.73
325.328,3162.03
326.346,3151.30
327.364,3146.10
328.382,3185.47
329.397,3148.33
330.415,3142.80
331.432,3100.30
332.450,3132.90
333.467,3114.87
334.482,3117.77
335.499,3065.47
336.516,3093.27
337.533,3078.47
338.547,3061.77
339.564,3055.93
340.580,3048.87
341.597,3078.63
342.613,3107.23
343.627,3071.03
344.643,3069.63
345.659,3062.37
346.675,3039.97
347.690,2999.73
348.704,3080.57
349.719,3031.97
350.735,3045.90
351.750,3040.60
352.765,3046.80
353.778,3076.50
354.793,3075.00
355.808,3071.73
356.822,3024.07
357.837,3058.57
358.851,3097.40
359.864,3074.30
360.878,3101.77
361.892,3102.60
362.906,3068.50
363.920,3128.07
364.932,3106.67
365.945,3115.57
366.959,3126.30
367.972,3117.57
368.986,3138.87
369.999,3164.07
371.010,3168.07
372.023,3204.23
373.036,3159.60
374.049,3193.23
375.061,3214.27
376.072,3237.17
377.084,3248.50
378.097,3243.87
379.109,3292.20
380.121,3255.10
381.133,3246.87
382.143,3276.40
383.155,3284.60
384.166,3247.60
385.178,3289.37
386.189,3280.63
387.201,3302.07
388.212,3298.40
389.221,3276.77
390.232,3251.00
391.243,3284.97
392.254,3250.87
393.264,3215.90
394.275,3157.57
395.283,3192.80
396.294,3141.43
397.304,3156.73
398.314,3135.33
399.324,3133.40
400.334,3162.67
401.344,3100.63
402.351,3113.10
403.361,3038.93
404.370,3065.50
405.380,2995.87
406.389,2966.20
407.398,2994.50
408.407,2973.47
409.414,3007.80
410.423,2944.53
411.431,2943.90
412.440,2934.13
413.448,2916.93
414.457,2838.00
415.465,2850.27
416.471,2817.03
417.479,2804.27
418.487,2815.97
419.495,2801.07
420.503,2793.53
421.510,2805.20
422.518,2792.47
423.525,2809.80
424.530,2796.33
425.537,2771.73
426.544,2762.70
427.551,2776.03
428.558,2717.07
429.565,2693.60
430.571,2725.37
431.578,2767.47
432.582,2710.57
433.588,2691.37
434.595,2671.00
435.601,2704.90
436.607,2669.40
437.612,2680.80
438.618,2693.23
439.624,2650.60
440.627,2686.67
441.633,2735.60
442.638,2698.60
443.643,2685.50
444.648,2733.20
445.653,2673.87
446.658,2690.23
447.663,2642.40
448.667,2649.73
449.672,2654.37
450.674,2663.00
451.678,2669.63
452.682,2688.20
453.687,2689.13
454.690,2688.77
455.694,2704.83
456.698,2701.40
457.702,2738.93
458.705,2718.93
459.709,2669.53
460.710,2707.30
461.713,2746.13
462.716,2730.53
463.719,2711.07
464.722,2696.47
465.725,2687.47
466.727,2727.93
467.730,2718.40
468.732,2746.90
469.735,2740.07
470.737,2696.27
471.737,2708.80
472.739,2756.87
473.741,2737.40
474.742,2755.50
475.744,2773.80
476.746,2720.77
477.747,2740.63
478.748,2715.27
479.750,2755.20
480.751,2750.40
481.752,2726.47
482.753,2723.13
483.751,2727.13
484.752,2745.27
485.753,2759.50
486.753,2724.00
487.753,2750.40
488.754,2755.83
489.754,2758.87
490.754,2725.53
491.754,2743.17
492.754,2761.60
493.753,2710.83
494.753,2766.83
495.752,2723.53
496.752,2695.83
497.749,2744.70
498.748,2740.27
499.747,2733.93
500.746,2766.17
501.745,2730.83
502.744,2710.30
503.742,2677.30
504.741,2687.43
505.739,2705.90
506.737,2677.03
507.735,2705.90
508.734,2680.43
509.732,2669.10
510.729,2650.93
511.727,2643.03
512.725,2614.17
513.720,2613.63
514.718,2661.17
515.715,2600.37
516.712,2624.67
517.709,2643.63
518.706,2575.27
519.703,2674.97
520.700,2650.83
521.696,2593.30
522.693,2614.20
523.689,2624.43
524.686,2620.30
525.682,2660.70
526.678,2620.67
527.674,2576.53
528.670,2638.73
529.666,2619.37
530.661,2654.77
531.657,2596.57
532.652,2660.60
533.648,2664.07
534.641,2657.87
535.636,2642.73
536.631,2688.43
537.626,2664.10
538.621,2650.83
539.616,2654.00
540.610,2671.87
541.605,2686.97
542.599,2692.70
543.593,2665.73
544.587,2707.80
545.581,2732.80
546.575,2684.10
547.569,2710.60
548.563,2675.70
549.557,2680.40
550.550,2702.43
551.543,2698.97
552.537,2700.60
553.530,2693.63
554.523,2707.80
555.516,2746.30
556.509,2721.00
557.502,2705.00
558.494,2738.50
559.487,2718.07
560.479,2741.13
561.472,2720.73
562.464,2758.97
563.456,2730.37
564.448,2762.60
565.440,2729.23
566.432,2802.33
567.423,2758.03
568.415,2778.23
569.404,2756.13
570.396,2833.77
571.387,2838.60
572.378,2826.20
573.369,2853.80
574.360,2847.87
575.351,2834.10
576.341,2874.50
577.332,2861.20
578.323,2903.73
579.313,2866.57
580.303,2915.43
581.293,2885.20
582.283,2937.57
583.273,2910.40
584.263,2855.73
585.253,2924.77
586.243,2875.13
587.232,2899.90
588.222,2891.47
589.211,2908.13
590.200,2899.67
591.189,2909.33
592.178,2891.43
593.167,2907.90
594.156,2944.80
595.145,2894.93
596.133,2913.37
597.122,2931.60
598.110,2907.73
599.098,2932.97
600.086,2885.57
601.074,2871.43
602.062,2883.23
603.050,2910.17
604.038,2884.00
605.025,2915.27
606.013,2863.23
607.000,2902.63
607.987,2865.40
608.975,2853.30
609.962,2809.40
610.949,2788.07
611.936,2801.53
612.922,2788.20
613.909,2792.27
614.895,2749.47
615.882,2751.07
616.868,2746.50
617.854,2779.50
618.841,2749.20
619.826,2688.43
620.812,2658.93
621.798,2633.00
622.784,2637.83
623.769,2646.83
624.755,2598.77
625.740,2620.67
626.725,2584.07
627.711,2572.00
628.698,2563.07
629.683,2519.00
630.667,2543.10
631.652,2529.90
632.637,2494.93
633.621,2481.00
634.606,2475.03
635.590,2440.00
636.574,2444.73
637.558,2392.43
638.542,2422.07
639.526,2414.93
640.510,2402.70
641.493,2388.97
642.477,2407.03
643.460,2339.97
644.444,2383.87
645.427,2386.97
646.410,2343.37
647.393,2329.77
648.376,2308.13
649.359,2284.53
650.341,2297.30
651.324,2306.40
652.307,2277.07
653.289,2280.83
654.271,2282.27
655.253,2326.57
656.235,2266.40
657.217,2267.13
658.199,2220.97
659.181,2211.97
660.163,2245.33
661.144,2212.37
662.126,2187.80
663.107,2213.60
664.088,2173.30
665.069,2205.90
666.050,2209.03
667.033,2218.73
668.014,2161.40
668.995,2200.03
669.975,2168.30
670.956,2198.37
671.936,2154.07
672.916,2127.90
673.896,2117.43
674.876,2110.63
675.856,2106.50
676.836,2117.77
677.816,2072.07
678.795,2075.77
679.775,2057.93
680.754,2044.27
681.734,2083.17
682.713,2030.83
683.692,2016.70
684.671,1989.90
685.650,1933.80
686.629,1929.90
687.607,1976.43
688.586,1999.23
689.564,1931.27
690.543,1917.47
691.523,1929.30
692.501,1946.27
693.479,1926.43
694.457,1900.27
695.435,1876.10
696.413,1909.90
697.390,1878.43
698.368,1837.73
699.345,1883.13
700.322,1849.73
701.300,1850.23
702.277,1886.67
703.254,1884.50
704.231,1841.10
705.207,1872.80
706.184,1794.87
707.161,1787.67
708.137,1794.10
709.113,1821.03
710.090,1789.07
711.068,1788.47
712.044,1828.13
713.020,1821.17
713.996,1766.73
714.971,1721.20
715.947,1796.73
716.922,1763.27
717.898,1736.77
718.873,1812.73
719.848,1719.23
720.823,1749.47
721.798,1791.90
722.773,1747.57
723.748,1746.33
724.723,1730.43
725.697,1712.93
726.672,1741.00
727.646,1708.60
728.622,1782.37
729.596,1763.73
730.570,1713.80
731.544,1753.90
732.518,1729.30
733.492,1745.23
734.466,1700.43
735.439,1707.37
736.413,1678.17
737.386,1682.07
738.359,1686.37
739.332,1720.10
740.305,1685.93
741.278,1696.37
742.251,1688.60
743.224,1699.27
744.196,1653.47
745.171,1699.60
746.143,1615.03
747.115,1651.17
748.087,1658.20
749.059,1623.87
750.031,1680.30
751.003,1646.47
751.975,1610.40
752.947,1613.73
753.918,1635.20
754.890,1632.40
755.861,1608.97
756.832,1675.97
757.803,1622.10
758.774,1612.80
759.747,1602.80
760.718,1575.53
761.689,1605.60
762.659,1622.23
763.630,1588.17
764.600,1590.53
765.570,1574.47
766.540,1582.30
767.510,1560.20
768.480,1596.60
769.450,1577.23
770.420,1575.03
771.390,1552.57
772.359,1555.03
773.329,1529.57
774.300,1578.67
775.269,1578.17
776.238,1567.90
777.207,1533.67
778.176,1533.17
779.145,1544.57
780.114,1540.57
781.083,1540.13
782.051,1533.40
783.019,1552.57
783.988,1527.47
784.956,1529.80
785.924,1525.37
786.894,1484.90
787.862,1473.63
788.830,1527.17
789.797,1492.30
790.765,1513.60
791.732,1516.57
792.700,1496.70
793.667,1472.90
794.634,1499.47
795.601,1500.80
796.568,1531.53
797.535,1477.10
798.502,1471.27
799.468,1469.37
800.437,1439.00
801.403,1473.40
802.370,1440.80
803.336,1419.43
804.302,1450.30
805.268,1470.67
806.234,1430.97
807.200,1451.53
808.166,1452.47
809.131,1421.23
810.097,1433.97
811.062,1456.43
812.027,1439.93
812.994,1455.60
813.960,1423.07
814.925,1449.87
815.889,1404.70
816.854,1440.57
817.819,1415.23
818.783,1441.23
819.748,1428.10
820.712,1424.43
821.677,1396.20
822.641,1437.57
823.605,1389.93
824.571,1412.93
825.534,1428.50
826.498,1425.13
827.462,1417.97
828.425,1409.60
829.389,1390.00
830.352,1386.87
831.315,1412.73
832.279,1384.40
833.242,1397.83
834.204,1401.77
835.167,1412.03
836.132,1386.77
837.095,1384.97
838.057,1410.70
839.020,1374.57
839.982,1370.40
840.944,1357.20
841.906,1368.80
842.868,1355.10
843.830,1369.50
844.792,1350.63
845.753,1348.23
846.715,1372.47
847.679,1323.63
848.640,1375.57
849.601,1362.03
850.562,1327.17
851.523,1345.67
852.484,1320.90
853.445,1371.37
854.406,1309.27
855.367,1340.50
856.327,1342.77
857.288,1342.17
858.248,1335.53
859.210,1343.00
860.170,1305.73
861.130,1294.63
862.090,1331.30
863.050,1297.83
864.010,1337.77
864.969,1319.97
865.929,1333.50
866.888,1325.47
867.848,1304.20
868.807,1338.73
869.766,1364.70
870.727,1277.73
871.686,1316.23
872.645,1301.73
873.604,1305.43
874.562,1295.20
875.521,1304.67
876.479,1347.60
877.437,1306.70
878.396,1300.40
879.354,1301.30
880.312,1296.80
881.270,1288.50
882.229,1320.77
883.187,1303.80
884.145,1282.23
885.102,1303.47
886.059,1310.17
887.017,1309.27
887.974,1275.37
888.931,1320.27
889.888,1309.03
890.845,1278.37
891.802,1293.67
892.758,1312.50
893.717,1275.60
894.673,1267.33
895.630,1295.33
896.586,1298.20
897.542,1295.63
898.498,1264.87
899.454,1279.93
900.410,1285.30
901.366,1294.97
902.321,1269.33
903.277,1287.53
904.232,1279.30
905.189,1277.63
906.145,1290.83
907.100,1319.10
908.055,1300.73
909.010,1324.43
909.965,1291.13
910.919,1305.20
911.874,1275.20
912.828,1273.47
913.783,1287.30
914.737,1277.83
915.693,1310.60
916.648,1298.60
917.602,1327.97
918.555,1268.80
919.509,1276.27
920.463,1311.30
921.417,1300.17
922.370,1300.53
923.324,1269.30
924.277,1285.87
925.230,1313.63
926.183,1295.10
927.138,1319.67
928.091,1295.80
929.044,1274.80
929.996,1329.10
930.949,1275.77
931.902,1329.47
932.854,1326.27
933.806,1298.63
934.758,1310.33
935.711,1304.73
936.663,1321.70
937.614,1329.63
938.568,1283.30
939.520,1286.10
940.471,1280.17
941.423,1346.87
942.374,1329.57
943.326,1266.70
944.277,1315.03
945.228,1328.87
946.179,1311.43
947.130,1304.47
948.080,1310.20
949.031,1327.73
949.984,1283.37
950.934,1287.47
951.884,1291.47
952.835,1293.03
953.785,1350.83
954.735,1268.77
955.685,1291.03
956.635,1313.90
957.585,1296.27
958.534,1293.10
959.484,1282.70
960.433,1297.77
961.383,1302.73
962.334,1295.93
963.283,1291.87
964.232,1312.97
965.181,1281.33
966.130,1338.23
967.079,1244.67
968.027,1294.97
968.976,1244.50
969.924,1274.63
970.873,1295.97
971.821,1298.57
972.769,1302.70
973.719,1287.93
974.667,1299.50
975.615,1256.77
976.562,1278.23
977.510,1274.67
978.458,1318.13
979.405,1298.67
980.352,1285.17
981.300,1335.80
982.247,1279.57
983.194,1283.93
984.141,1284.70
985.088,1284.30
986.036,1263.40
986.983,1324.57
987.930,1285.20
988.876,1305.87
989.822,1279.87
990.769,1301.67
991.715,1307.43
992.661,1285.63
993.607,1281.90
994.553,1296.07
995.498,1332.80
996.444,1279.67
997.389,1269.00
998.337,1297.63
999.282,1320.70
1000.227,1296.90
1001.173,1257.30
1002.118,1307.17
1003.062,1279.63
1004.007,1299.67
1004.952,1279.23
1005.897,1276.47
1006.841,1317.13
1007.786,1283.87
1008.730,1286.03
1009.674,1317.00
1010.618,1290.97
1011.564,1310.97
1012.508,1317.33
1013.452,1276.43
1014.396,1287.63
1015.339,1284.77
1016.283,1323.53
1017.226,1304.93
1018.170,1303.70
1019.113,1287.20
1020.056,1310.60
1020.999,1302.83
1021.942,1337.97
1022.885,1342.03
1023.828,1325.47
1024.770,1338.87
1025.715,1304.67
1026.657,1315.57
1027.600,1295.13
1028.542,1285.03
1029.484,1294.23
1030.426,1320.27
1031.368,1272.43
1032.310,1342.13
1033.251,1310.07
1034.193,1327.47
1035.135,1342.43
1036.076,1316.73
1037.017,1331.57
1037.959,1351.87
1038.900,1337.43
1039.843,1347.23
1040.784,1323.40
1041.725,1365.20
1042.665,1368.23
1043.606,1354.87
1044.547,1301.23
1045.487,1346.07
1046.427,1354.03
1047.368,1367.57
1048.308,1362.20
1049.248,1333.97
1050.188,1387.53
1051.128,1391.27
1052.067,1351.13
1053.007,1392.03
1053.947,1357.13
1054.886,1359.17
1055.827,1350.90
1056.766,1365.00
1057.706,1365.83
1058.645,1398.13
1059.584,1371.53
1060.522,1423.13
1061.461,1384.20
1062.400,1378.63
1063.338,1360.43
1064.277,1408.00
1065.215,1426.03
1066.154,1387.40
1067.092,1401.93
1068.030,1431.40
1068.968,1458.40
1069.906,1445.57
1070.843,1403.70
1071.781,1444.67
1072.720,1442.00
1073.658,1431.30
1074.595,1464.47
1075.533,1443.60
1076.470,1460.27
1077.407,1437.13
1078.344,1442.37
1079.281,1422.03
1080.217,1471.13
1081.154,1456.00
1082.091,1443.83
1083.027,1432.13
1083.964,1442.20
1084.900,1436.50
1085.836,1474.30
1086.772,1443.03
1087.708,1445.57
1088.644,1443.67
1089.580,1431.10
1090.515,1452.03
1091.451,1470.33
1092.388,1438.83
1093.324,1437.67
1094.259,1429.50
1095.194,1471.23
1096.129,1487.07
1097.064,1467.53
1097.999,1436.50
1098.934,1428.00
1099.869,1434.47
1100.803,1450.57
1101.738,1450.03
1102.672,1409.97
1103.607,1451.77
1104.541,1416.03
1105.475,1433.40
1106.409,1424.77
1107.343,1438.37
1108.277,1404.17
1109.210,1398.07
1110.144,1399.47
1111.078,1400.13
1112.011,1405.20
1112.944,1380.37
1113.878,1401.63
1114.811,1406.07
1115.744,1406.00
1116.678,1330.30
1117.611,1354.37
1118.544,1369.30
1119.477,1332.23
1120.409,1353.23
1121.342,1349.07
1122.274,1355.70
1123.206,1351.03
1124.138,1345.37
1125.070,1349.60
1126.002,1340.87
1126.934,1320.33
1127.866,1312.30
1128.798,1338.93
1129.729,1376.03
1130.661,1288.73
1131.592,1288.63
1132.523,1326.83
1133.454,1347.40
1134.385,1306.17
1135.317,1312.50
1136.247,1305.30
1137.178,1278.40
1138.109,1294.23
1139.039,1334.03
1139.970,1274.23
1140.900,1279.53
1141.831,1277.20
1142.761,1272.87
1143.691,1307.23
1144.621,1276.87
1145.551,1273.43
1146.480,1278.33
1147.410,1274.63
1148.340,1257.97
1149.269,1273.07
1150.199,1299.17
1151.128,1280.20
1152.057,1259.40
1152.979,1276.27
1153.898,1246.47
1154.819,1223.30
1155.739,1278.23
1156.658,1233.27
1157.579,1261.87
1158.498,1273.07
1159.419,1234.30
1160.338,1234.00
1161.256,1252.70
1162.177,1239.40
1163.095,1242.70
1164.016,1230.83
1164.934,1260.07
1165.852,1234.63
1166.772,1230.20
1167.690,1196.47
1168.610,1223.93
1169.528,1241.73
1170.446,1238.43
1171.365,1232.43
1172.283,1184.60
1173.202,1249.60
1174.120,1231.37
1175.037,1226.53
1175.956,1228.73
1176.873,1192.10
1177.792,1220.50
1178.709,1213.03
1179.626,1207.97
1180.544,1209.57
1181.461,1245.37
1182.379,1200.67
1183.296,1212.97
1184.212,1236.73
1185.130,1233.27
1186.046,1188.13
1186.962,1217.03
1187.880,1214.80
1188.796,1224.17
1189.714,1236.50
1190.629,1244.47
1191.545,1215.17
1192.462,1252.43
1193.378,1219.83
1194.295,1227.27
1195.210,1244.37
1196.125,1225.03
1197.042,1247.57
1197.957,1270.43
1198.872,1225.17
1199.788,1216.27
1200.703,1197.93
1201.619,1204.07
1202.534,1248.70
1203.448,1207.10
1204.364,1227.57
1205.278,1198.37
1206.192,1184.60
1207.108,1210.83
1208.022,1234.43
1208.938,1253.67
1209.851,1220.40
1210.765,1202.57
1211.680,1279.70
1212.594,1247.70
1213.507,1239.50
1214.422,1207.53
1215.335,1245.13
1216.248,1245.93
1217.163,1218.13
1218.076,1244.83
1218.990,1234.77
1219.903,1245.37
1220.816,1236.67
1221.730,1251.13
1222.642,1251.03
1223.554,1256.80
1224.469,1236.27
1225.380,1242.53
1226.292,1231.03
1227.206,1286.10
1228.118,1221.83
1229.032,1260.03
1229.943,1264.33
1230.855,1268.87
1231.768,1245.77
1232.679,1259.00
1233.590,1219.30
1234.503,1227.73
1235.414,1251.50
1236.325,1237.60
1237.238,1242.80
1238.149,1266.57
1239.059,1255.13
1239.972,1225.53
1240.882,1261.33
1241.793,1276.23
1242.705,1238.77
1243.615,1239.20
1244.525,1280.30
1245.437,1265.60
1246.347,1262.87
1247.259,1274.63
1248.168,1284.00
1249.078,1251.43
1249.989,1272.53
1250.899,1277.30
1251.808,1287.93
1252.719,1261.67
1253.628,1254.57
1254.537,1289.50
1255.448,1260.60
1256.357,1278.93
1257.266,1268.43
1258.176,1282.23
1259.085,1257.67
1259.993,1277.30
1260.904,1301.87
1261.812,1268.07
1262.720,1303.10
1263.630,1271.20
1264.538,1261.63
1265.446,1289.47
1266.356,1273.93
1267.263,1279.80
1268.171,1248.60
1269.080,1306.87
1269.988,1296.63
1270.895,1265.33
1271.804,1291.97
1272.711,1259.17
1273.619,1282.43
1274.527,1276.10
1275.434,1291.17
1276.341,1258.80
1277.248,1280.07
1278.156,1262.30
1279.063,1251.33
1279.969,1272.23
1280.877,1302.00
1281.783,1252.07
1282.690,1292.00
1283.598,1260.73
1284.503,1235.13
1285.409,1292.23
1286.317,1279.47
1287.223,1236.10
1288.128,1222.43
1289.036,1259.27
1289.941,1264.50
1290.846,1241.17
1291.751,1258.60
1292.658,1218.53
1293.563,1237.17
1294.468,1253.70
1295.375,1243.10
1296.280,1241.27
1297.184,1229.33
1298.091,1213.20
1298.995,1190.00
1299.900,1222.47
1300.806,1204.57
1301.710,1233.93
1302.614,1226.30
1303.518,1196.03
1304.424,1186.47
1305.327,1202.63
1306.231,1195.37
1307.137,1206.60
1308.040,1211.67
1308.943,1196.37
1309.847,1175.90
1310.752,1190.23
1311.655,1181.83
1312.558,1173.80
1313.463,1181.93
1314.366,1177.70
1315.269,1163.13
1316.171,1177.70
1317.076,1175.53
1317.978,1140.57
1318.881,1137.10
1319.785,1174.87
1320.687,1135.57
1321.589,1159.50
1322.491,1165.33
1323.395,1121.93
1324.297,1154.77
1325.198,1128.97
1326.102,1118.97
1327.004,1131.30
1327.905,1128.67
1328.806,1151.67
1329.709,1115.03
1330.611,1109.20
1331.512,1131.30
1332.413,1129.20
1333.316,1094.97
1334.216,1103.53
1335.117,1113.87
1336.020,1107.97
1336.920,1115.50
1337.821,1062.27
1338.721,1035.67
1339.623,1110.03
1340.523,1064.63
1341.423,1127.70
1342.323,1070.17
1343.225,1078.33
1344.125,1085.33
1345.025,1054.37
1345.924,1058.60
1346.826,1079.50
1347.725,1065.60
1348.624,1030.83
1349.524,1062.67
1350.425,1043.07
1351.324,1047.70
1352.223,1053.43
1353.121,1065.07
1354.022,1042.20
1354.921,1041.63
1355.819,1029.83
1356.718,1042.07
1357.618,1021.50
1358.516,1030.40
1359.415,1027.97
1360.313,1005.37
1361.213,1037.87
1362.111,994.13
1363.008,987.80
1363.906,999.30
1364.806,1021.23
1365.703,1037.33
1366.601,1024.03
1367.498,1009.60
1368.397,973.73
1369.295,982.53
1370.192,994.20
1371.089,992.77
1371.987,1005.60
1372.884,1030.67
1373.781,970.93
1374.678,965.77
1375.574,973.53
1376.473,1004.00
1377.369,959.20
1378.265,983.10
1379.161,960.40
1380.059,951.90
1380.955,997.57
1381.851,966.83
1382.747,947.40
1383.643,959.17
1384.540,1004.10
1385.436,970.53
1386.331,958.40
1387.227,977.27
1388.124,969.67
1389.019,991.37
1389.914,951.33
1390.809,946.20
1391.704,939.23
1392.601,927.60
1393.495,955.90
1394.390,935.37
1395.285,926.07
1396.179,988.57
1397.075,944.47
1397.969,938.27
1398.864,925.43
1399.758,902.27
1400.652,968.37
1401.547,925.50
1402.441,910.30
1403.335,953.93
1404.229,981.40
1405.122,934.97
1406.017,889.43
1406.911,897.63
1407.804,955.23
1408.697,897.37
1409.590,923.77
1410.485,946.17
1411.378,952.60
1412.271,955.03
1413.163,917.23
1414.056,912.70
1414.949,904.90
1415.843,914.80
1416.735,917.60
1417.627,960.03
1418.520,924.63
1419.412,908.87
1420.306,923.10
1421.197,906.73
1422.089,896.13
1422.981,937.20
1423.873,905.83
1424.764,930.63
1425.657,897.47
1426.549,907.70
1427.440,884.20
1428.331,893.97
1429.222,871.53
1430.113,913.17
1431.006,888.47
1431.897,910.03
1432.787,919.00
1433.678,909.13
1434.568,898.07
1435.459,897.50
1436.351,882.70
1437.241,913.17
1438.131,881.37
1439.021,901.83
1439.911,873.73
1440.801,916.73
1441.693,907.77
1442.583,886.43
1443.472,847.53
1444.362,877.97
1445.251,867.90
1446.140,885.03
1447.030,878.27
1447.921,895.90
1448.810,901.53
1449.699,881.33
1450.588,867.67
1451.476,868.40
1452.365,855.23
1453.254,889.87
1454.144,850.30
1455.032,858.43
1455.921,889.13
1456.809,869.50
1457.697,871.60
1458.585,860.43
1459.473,881.00
1460.361,860.83
1461.251,861.87
1462.138,836.27
1463.026,841.03
1463.913,865.23
1464.801,852.37
1465.688,869.57
1466.575,875.20
1467.463,854.27
1468.351,872.80
1469.238,858.47
1470.125,848.63
1471.012,854.00
1471.899,860.73
1472.785,828.30
1473.672,844.20
1474.558,848.70
1475.446,864.57
1476.333,813.17
1477.219,837.93
1478.105,831.90
1478.991,857.60
1479.877,844.87
1480.762,842.00
1481.648,810.07
1482.534,875.63
1483.419,832.67
1484.307,836.80
1485.192,837.93
1486.077,821.43
1486.962,818.30
1487.847,842.83
1488.732,831.17
1489.617,811.70
1490.502,845.70
1491.387,842.77
1492.271,806.53
1493.156,830.77
1494.042,796.83
1494.927,849.77
1495.811,844.37
1496.695,823.33
1497.579,855.07
1498.463,857.47
1499.347,802.13
1500.231,852.57
1501.114,852.93
1501.998,812.87
1502.881,831.10
1503.765,805.27
1504.648,806.63
1505.533,799.83
1506.417,804.07
1507.300,787.30
1508.183,851.60
1509.066,797.63
1509.948,815.67
1510.831,811.70
1511.714,830.93
1512.596,812.30
1513.479,807.80
1514.361,846.20
1515.243,818.20
1516.125,806.57
1517.008,791.43
1517.890,778.17
1518.771,826.10
1519.655,805.17
1520.537,784.83
1521.419,783.77
1522.300,818.07
1523.182,797.90
1524.063,779.77
1524.944,771.37
1525.825,811.03
1526.707,835.27
1527.588,783.93
1528.468,789.57
1529.349,765.43
1530.230,809.13
1531.111,800.67
1531.991,784.57
1532.872,821.83
1533.752,787.27
1534.632,758.87
1535.513,790.50
1536.393,782.13
1537.273,759.53
1538.153,799.93
1539.032,788.70
1539.912,788.10
1540.792,770.57
1541.672,748.00
1542.551,789.07
1543.430,803.20
1544.310,788.93
1545.189,752.17
1546.068,779.17
1546.947,754.03
1547.826,806.73
1548.705,769.03
1549.584,781.30
1550.462,787.30
1551.341,734.53
1552.219,805.23
1553.098,772.57
1553.976,800.97
1554.854,769.00
1555.733,756.70
1556.611,783.43
1557.489,774.37
1558.367,788.57
1559.244,795.03
1560.122,745.77
1561.000,799.60
1561.877,762.80
1562.755,756.47
1563.632,766.07
1564.509,797.20
1565.386,790.87
1566.264,801.27
1567.141,754.10
1568.017,807.10
1568.894,750.70
1569.771,776.83
1570.648,746.40
1571.524,731.60
1572.401,739.47
1573.277,759.67
1574.153,807.77
1575.029,772.10
1575.906,747.70
1576.781,788.43
1577.657,754.60
1578.533,749.27
1579.409,772.93
1580.285,749.23
1581.160,759.17
1582.036,754.70
1582.911,709.97
1583.786,753.57
1584.662,761.97
1585.537,772.97
1586.412,742.63
1587.287,754.57
1588.160,726.83
1589.035,726.60
1589.909,726.73
1590.784,745.33
1591.658,741.10
1592.533,780.00
1593.407,748.60
1594.281,733.57
1595.155,766.87
1596.029,745.70
1596.903,750.87
1597.777,731.57
1598.651,744.60
1599.525,713.40
1600.398,736.77
1601.272,704.33
1602.144,777.30
1603.017,748.07
1603.890,766.43
1604.763,729.47
1605.636,758.57
1606.509,739.20
1607.382,770.90
1608.255,756.07
1609.128,778.03
1610.000,753.33
1610.873,754.27
1611.746,777.50
1612.616,770.07
1613.488,754.50
1614.361,754.10
1615.233,758.40
1616.105,738.27
1616.977,737.37
1617.849,709.37
1618.720,733.33
1619.592,728.07
1620.464,722.30
1621.333,710.27
1622.205,742.43
1623.076,735.50
1623.947,725.63
1624.818,772.03
1625.689,690.33
1626.560,702.90
1627.431,717.00
1628.302,733.93
1629.171,741.13
1630.042,701.80
1630.912,537.57
1631.782,711.73
1632.653,750.93
1633.523,708.67
1634.393,729.40
1635.263,701.43
1636.131,739.70
1637.001,738.07
1637.871,734.37
1638.741,705.33
1639.611,728.03
1640.480,736.23
1641.350,723.47
1642.219,717.67
1643.087,735.83
1643.956,716.23
1644.825,730.97
1645.694,726.67
1646.563,696.33
1647.432,732.57
1648.299,723.43
1649.167,705.40
1650.036,681.63
1650.904,713.23
1651.773,743.40
1652.641,712.67
1653.509,740.23
1654.376,698.27
1655.244,684.93
1656.112,686.50
1656.980,756.83
1657.847,710.17
1658.715,748.50
1659.581,719.33
1660.448,714.43
1661.316,712.27
1662.183,734.50
1663.051,716.17
1663.918,700.73
1664.783,704.93
1665.650,728.13
1666.517,714.17
1667.384,688.80
1668.251,701.67
1669.115,713.87
1669.982,714.37
1670.849,764.87
1671.715,712.97
1672.581,757.67
1673.446,730.07
1674.312,732.77
1675.178,757.83
1676.044,714.60
1676.910,717.97
1677.774,710.00
1678.639,725.43
1679.505,697.00
1680.370,735.97
1681.236,735.57
1682.099,725.03
1682.965,718.17
1683.830,709.27
1684.695,701.40
1685.560,692.17
1686.423,728.27
1687.288,706.60
1688.153,697.80
1689.017,696.07
1689.880,704.60
1690.745,725.27
1691.609,703.83
1692.473,689.40
1693.338,697.17
1694.200,722.43
1695.064,734.93
1695.928,682.07
1696.792,685.73
1697.654,716.67
1698.517,725.83
1699.381,680.73
1700.245,702.63
1701.106,667.23
1701.969,676.10
1702.833,736.67
1703.696,684.80
1704.557,683.53
1705.420,692.87
1706.283,725.47
1707.146,724.37
1708.007,712.20
1708.870,712.20
1709.732,704.30
1710.595,702.27
1711.455,664.27
1712.318,697.03
1713.180,691.97
1714.040,678.67
1714.902,712.27
1715.764,712.67
1716.626,694.40
1717.486,644.13
1718.348,717.47
1719.209,1184.53
1720.071,673.90
1720.930,654.60
1721.792,692.37
1722.653,662.33
1723.512,715.30
1724.374,675.63
1725.234,683.33
1726.095,718.17
1726.954,694.30
1727.815,686.00
1728.676,672.07
1729.535,715.10
1730.395,684.20
1731.256,712.70
1732.114,707.03
1732.974,703.60
1733.834,730.53
1734.693,683.60
1735.553,692.07
1736.413,732.60
1737.272,713.00
1738.130,674.80
1738.990,731.93
1739.849,715.87
1740.707,660.20
1741.566,704.23
1742.426,684.60
1743.283,709.63
1744.142,697.70
1745.001,697.77
1745.858,682.80
1746.717,686.23
1747.576,724.87
1748.433,669.97
1749.292,699.83
1750.150,732.67
1751.007,660.47
1751.865,727.63
1752.723,671.23
1753.579,670.83
1754.438,703.17
1755.296,677.83
1756.152,682.97
1757.010,677.37
1757.865,705.43
1758.723,709.90
1759.581,702.50
1760.436,695.83
1761.294,673.43
1762.151,646.90
1763.006,687.27
1763.864,675.10
1764.721,695.07
1765.576,701.57
1766.433,710.27
1767.288,692.60
1768.144,660.27
1769.001,725.73
1769.856,672.90
1770.712,684.77
1771.568,692.00
1772.423,698.10
1773.279,663.40
1774.133,660.03
1774.989,713.80
1775.845,752.50
1776.699,669.07
1777.555,705.17
1778.409,686.27
1779.265,684.03
1780.120,689.27
1780.974,678.17
1781.829,684.40
1782.682,692.50
1783.538,677.33
1784.393,655.00
1785.246,676.60
1786.101,661.93
1786.954,697.57
1787.808,724.00
1788.661,701.53
1789.516,648.57
1790.370,637.73
1791.223,623.63
1792.077,686.53
1792.930,670.53
1793.784,688.47
1794.636,653.53
1795.490,661.17
1796.344,675.93
1797.196,677.63
1798.049,646.63
1798.901,677.50
1799.755,682.03
1800.606,694.20
1801.460,683.03
1802.311,663.87
1803.165,682.73
1804.018,674.73
1804.869,729.27
1805.722,677.00
1806.573,648.13
1807.426,658.33
1808.276,649.30
1809.129,705.07
1809.980,649.60
1810.832,684.80
1811.683,695.67
1812.535,667.10
1813.385,679.20
1814.237,682.27
1815.089,687.63
1815.940,668.00
1816.791,690.77
1817.641,699.10
1818.493,662.97
1819.343,670.07
1820.194,655.80
1821.044,652.80
1821.895,704.73
1822.745,668.63
1823.596,654.53
1824.445,642.73
1825.296,657.57
1826.145,692.60
1826.996,640.07
1827.845,649.70
1828.695,659.47
1829.544,691.30
1830.395,699.90
1831.243,672.00
1832.094,697.70
1832.942,702.97
1833.792,682.23
1834.640,696.43
1835.490,699.97
1836.338,662.13
1837.186,675.70
1838.036,683.60
1838.884,651.37
1839.733,646.67
1840.581,664.20
1841.430,677.43
1842.278,691.73
1843.127,673.40
1843.974,672.53
1844.823,672.47
1845.671,682.73
1846.519,701.70
1847.366,666.53
1848.213,691.67
1849.062,656.93
1849.909,661.80
1850.757,647.17
1851.604,667.03
1852.452,710.93
1853.298,691.53
1854.146,646.00
1854.993,698.77
1855.839,662.97
1856.687,653.70
1857.532,647.17
1858.380,695.60
1859.226,654.30
1860.073,652.33
1860.919,674.73
1861.765,675.57
1862.612,698.30
1863.457,644.20
1864.304,649.77
1865.150,709.50
1865.995,677.27
1866.842,702.70
1867.686,647.27
1868.533,686.53
1869.378,639.23
1870.223,640.27
1871.069,665.40
1871.914,666.40
1872.760,674.83
1873.604,673.93
1874.448,671.60
1875.294,656.50
1876.139,658.23
1876.984,695.70
1877.828,633.53
1878.672,664.20
1879.518,663.63
1880.361,655.10
1881.205,681.60
1882.050,665.10
1882.894,661.47
1883.739,659.10
1884.582,694.50
1885.425,654.63
1886.270,622.20
1887.113,672.17
1887.956,663.93
1888.801,678.27
1889.644,671.23
1890.486,661.70
1891.331,682.60
1892.173,660.90
1893.017,652.77
1893.860,711.30
1894.702,648.83
1895.546,626.17
1896.388,650.47
1897.230,659.87
1898.074,683.00
1898.916,684.47
1899.757,668.60
1900.601,603.03
1901.443,674.63
1902.284,677.27
1903.125,704.20
1903.969,660.37
1904.810,652.37
1905.651,675.63
1906.494,648.27
1907.335,699.77
1908.176,659.13
1909.018,667.93
1909.859,648.50
1910.700,671.57
1911.542,668.63
1912.383,658.63
1913.223,640.87
1914.064,633.33
1914.906,676.47
1915.746,707.43
1916.586,679.17
1917.428,646.73
1918.268,628.17
1919.107,654.90
1919.947,678.40
1920.789,668.70
1921.628,670.93
1922.468,644.70
1923.309,686.83
1924.148,631.40
1924.988,712.60
1925.827,672.87
1926.667,662.23
1927.507,671.47
1928.345,661.77
1929.184,677.03
1930.025,634.87
1930.864,650.80
1931.702,717.47
1932.541,633.37
1933.381,648.37
1934.219,659.33
1935.057,656.77
1935.896,638.03
1936.735,672.17
1937.573,666.00
1938.411,618.03
1939.249,681.73
1940.089,667.83
1940.927,662.30
1941.764,661.23
1942.602,647.37
1943.439,664.87
1944.278,681.47
1945.115,667.97
1945.953,667.87
1946.790,662.40
1947.628,649.93
1948.465,625.40
1949.302,691.57
1950.139,658.10
1950.976,645.07
1951.814,658.17
1952.651,670.57
1953.487,644.37
1954.323,678.07
1955.160,663.37
1955.998,684.73
1956.834,655.17
1957.670,677.33
1958.506,630.07
1959.342,666.47
1960.177,673.73
1961.015,662.97
1961.850,682.50
1962.686,667.43
1963.521,678.60
1964.357,689.97
1965.192,644.83
1966.029,658.03
1966.864,684.57
1967.699,678.30
1968.534,601.97
1969.369,641.30
1970.204,656.67
1971.040,660.13
1971.875,660.97
1972.709,674.83
1973.544,653.77
1974.378,679.07
1975.212,665.57
1976.047,638.27
1976.882,669.07
1977.716,631.73
1978.550,632.93
1979.384,620.07
1980.218,637.60
1981.052,630.47
1981.885,670.03
1982.719,650.10
1983.554,651.50
1984.388,663.43
1985.221,650.07
1986.054,646.80
1986.887,664.80
1987.720,652.03
1988.553,673.70
1989.386,716.30
1990.219,642.40
1991.053,697.30
1991.886,615.70
1992.719,653.97
1993.551,691.20
1994.383,697.73
1995.216,686.37
1996.048,665.90
1996.880,632.93
1997.712,684.50
1998.544,666.70
1999.376,652.53
2000.208,621.17
2001.040,667.17
2001.873,644.47
2002.705,640.53
2003.536,664.00
2004.367,682.90
2005.199,666.37
2006.030,693.33
2006.861,643.03
2007.692,668.03
2008.523,661.77
2009.354,650.47
2010.185,674.33
2011.016,706.83
2011.846,636.10
2012.677,656.03
2013.507,638.00
2014.338,670.43
2015.168,661.50
2015.999,652.43
2016.829,663.93
2017.659,664.63
2018.489,700.60
2019.319,665.23
2020.149,624.97
2020.980,668.90
2021.810,674.27
2022.639,692.17
2023.469,641.77
2024.298,673.67
2025.128,712.07
2025.957,684.13
2026.786,697.47
2027.615,641.97
2028.444,664.70
2029.273,730.83
2030.102,691.63
2030.931,653.70
2031.758,663.07
2032.586,689.27
2033.415,712.07
2034.243,689.53
2035.072,664.10
2035.900,678.03
2036.728,650.37
2037.556,668.37
2038.385,695.73
2039.213,681.77
2040.040,699.93
2040.868,698.77
2041.696,687.13
2042.524,676.67
2043.351,688.60
2044.179,694.77
2045.006,672.13
2045.006,672.13

Max Intensity Wave.,220.959
Max Intensity Data,5972.07
Min Intensity Wave.,1630.912
Min Intensity Data,537.57
FWHM Wave.,400.098
FWHM Value,1.32
Pressure Wave.,688.342
Pressure Value [GPa],-15.27079
G/D Ratio,0.65397
G/D Gband Wave.,1574.218
G/D Gband Intensity,808.00
G/D Dband Wave.,1301.975
G/D Dband Intensity,1235.53

<< BACKGROUND SPECTRUM >>
Wave[dcm-1],No243
146.591,2216.00
147.626,2074.00
148.664,2051.00
149.699,2460.00
150.737,2218.00
151.772,2380.00
152.809,2373.00
153.846,2243.00
154.881,2337.00
155.918,1961.00
156.953,2249.00
157.989,2558.00
159.026,2431.00
160.060,2634.00
161.096,2839.00
162.130,2502.00
163.167,2569.00
164.200,2443.00
165.236,2612.00
166.272,2639.00
167.305,2272.00
168.341,2482.00
169.374,2751.00
170.409,2765.00
171.445,2714.00
172.477,2484.00
173.512,2384.00
174.545,2654.00
175.580,2823.00
176.614,3009.00
177.647,2749.00
178.681,3065.00
179.713,3313.00
180.747,2771.00
181.781,2723.00
182.813,2987.00
183.847,3034.00
184.878,2683.00
185.912,2938.00
186.945,3106.00
187.976,2990.00
189.010,2684.00
190.043,2822.00
191.073,2853.00
192.106,2696.00
193.137,3137.00
194.170,2504.00
195.202,2876.00
196.232,2687.00
197.265,2933.00
198.297,3035.00
199.327,2716.00
200.359,2920.00
201.388,3251.00
202.420,2874.00
203.452,3026.00
204.481,2629.00
205.512,3276.00
206.544,2986.00
207.573,3009.00
208.604,3320.00
209.635,3451.00
210.663,2913.00
211.694,2905.00
212.725,2786.00
213.753,2756.00
214.783,3350.00
215.813,3187.00
216.841,2998.00
217.871,3125.00
218.899,2861.00
219.929,3089.00
220.959,2834.00
221.986,3093.00
223.016,2731.00
224.045,3062.00
225.072,3102.00
226.101,3112.00
227.130,3158.00
228.157,2795.00
229.185,2337.00
230.214,3164.00
231.241,2796.00
232.269,2416.00
233.297,2738.00
234.323,3155.00
235.351,2768.00
236.379,3040.00
237.407,2729.00
238.433,2889.00
239.460,3095.00
240.488,3048.00
241.513,3153.00
242.540,3118.00
243.568,3158.00
244.592,3195.00
245.619,3172.00
246.646,2903.00
247.671,2909.00
248.697,2768.00
249.724,3014.00
250.748,2980.00
251.774,2959.00
252.801,3275.00
253.827,3096.00
254.850,3025.00
255.876,2692.00
256.902,3107.00
257.925,2974.00
258.951,2725.00
259.976,2739.00
260.999,3065.00
262.024,2766.00
263.049,3629.00
264.074,3087.00
265.097,2990.00
266.122,3038.00
267.146,3001.00
268.168,3139.00
269.193,2803.00
270.217,3201.00
271.241,2728.00
272.263,2863.00
273.287,3151.00
274.311,2739.00
275.332,3266.00
276.356,2820.00
277.379,3043.00
278.402,3102.00
279.424,2911.00
280.447,2861.00
281.470,2681.00
282.492,3047.00
283.513,2848.00
284.536,3115.00
285.558,3107.00
286.581,3086.00
287.601,2778.00
288.623,2745.00
289.645,3030.00
290.665,3123.00
291.687,3068.00
292.709,3060.00
293.730,3339.00
294.750,2868.00
295.771,2710.00
296.792,3012.00
297.813,2928.00
298.832,2994.00
299.853,2712.00
300.874,2929.00
301.895,2913.00
302.913,2932.00
303.934,3236.00
304.954,2997.00
305.975,4218.00
306.993,2714.00
308.013,3129.00
309.033,2985.00
310.052,2902.00
311.072,2921.00
312.090,3016.00
313.109,3267.00
314.129,3383.00
315.148,2977.00
316.165,3035.00
317.184,3244.00
318.203,2698.00
319.222,2755.00
320.238,3091.00
321.257,2767.00
322.275,2692.00
323.294,2936.00
324.312,3094.00
325.328,3255.00
326.346,3270.00
327.364,3208.00
328.382,3120.00
329.397,3101.00
330.415,3202.00
331.432,3209.00
332.450,3192.00
333.467,3436.00
334.482,2559.00
335.499,3333.00
336.516,2850.00
337.533,2576.00
338.547,2841.00
339.564,2874.00
340.580,3102.00
341.597,2929.00
342.613,3333.00
343.627,2951.00
344.643,3001.00
345.659,3085.00
346.675,2963.00
347.690,2902.00
348.704,3034.00
349.719,2886.00
350.735,2734.00
351.750,3163.00
352.765,2985.00
353.778,2941.00
354.793,3121.00
355.808,2808.00
356.822,3183.00
357.837,2614.00
358.851,3203.00
359.864,2939.00
360.878,2692.00
361.892,2906.00
362.906,3148.00
363.920,2546.00
364.932,3071.00
365.945,3061.00
366.959,2964.00
367.972,2905.00
368.986,2709.00
369.999,3326.00
371.010,2811.00
372.023,3285.00
373.036,2927.00
374.049,3346.00
375.061,3056.00
376.072,2978.00
377.084,2822.00
378.097,2690.00
379.109,3120.00
380.121,2984.00
381.133,2677.00
382.143,3108.00
383.155,2669.00
384.166,2893.00
385.178,3052.00
386.189,3174.00
387.201,2680.00
388.212,2863.00
389.221,2899.00
390.232,3012.00
391.243,2873.00
392.254,2984.00
393.264,2814.00
394.275,3243.00
395.283,3165.00
396.294,3630.00
397.304,3449.00
398.314,3085.00
399.324,3003.00
400.334,2594.00
401.344,3120.00
402.351,2606.00
403.361,3191.00
404.370,2903.00
405.380,2917.00
406.389,3341.00
407.398,3080.00
408.407,3055.00
409.414,3091.00
410.423,3267.00
411.431,2718.00
412.440,2636.00
413.448,3255.00
414.457,2858.00
415.465,2799.00
416.471,2897.00
417.479,3017.00
418.487,2806.00
419.495,3277.00
420.503,3079.00
421.510,2595.00
422.518,3115.00
423.525,3109.00
424.530,3319.00
425.537,2854.00
426.544,3190.00
427.551,2814.00
428.558,3566.00
429.565,3418.00
430.571,2852.00
431.578,2828.00
432.582,2861.00
433.588,2936.00
434.595,2624.00
435.601,3245.00
436.607,3233.00
437.612,2743.00
438.618,3313.00
439.624,2948.00
440.627,2907.00
441.633,3055.00
442.638,3558.00
443.643,3074.00
444.648,2941.00
445.653,3162.00
446.658,2858.00
447.663,3037.00
448.667,2884.00
449.672,2902.00
450.674,2960.00
451.678,2709.00
452.682,2851.00
453.687,2821.00
454.690,3568.00
455.694,3228.00
456.698,2546.00
457.702,2614.00
458.705,2755.00
459.709,2813.00
460.710,2848.00
461.713,2977.00
462.716,3037.00
463.719,2998.00
464.722,3178.00
465.725,2965.00
466.727,2810.00
467.730,3011.00
468.732,2740.00
469.735,3232.00
470.737,2898.00
471.737,2877.00
472.739,2870.00
473.741,2809.00
474.742,3036.00
475.744,3029.00
476.746,3039.00
477.747,2944.00
478.748,3175.00
479.750,2908.00
480.751,2987.00
481.752,3702.00
482.753,3089.00
483.751,3551.00
484.752,2620.00
485.753,2934.00
486.753,2873.00
487.753,2966.00
488.754,3395.00
489.754,2680.00
490.754,3300.00
491.754,3082.00
492.754,2652.00
493.753,3031.00
494.753,2873.00
495.752,3321.00
496.752,3053.00
497.749,2952.00
498.748,2831.00
499.747,3378.00
500.746,3030.00
501.745,2735.00
502.744,2729.00
503.742,3322.00
504.741,2940.00
505.739,2461.00
506.737,2891.00
507.735,3086.00
508.734,3353.00
509.732,3132.00
510.729,3323.00
511.727,2883.00
512.725,2925.00
513.720,2791.00
514.718,3216.00
515.715,2694.00
516.712,2614.00
517.709,2939.00
518.706,2926.00
519.703,2972.00
520.700,3161.00
521.696,3332.00
522.693,2883.00
523.689,2805.00
524.686,3133.00
525.682,2762.00
526.678,3445.00
527.674,2939.00
528.670,2559.00
529.666,3490.00
530.661,3445.00
531.657,3631.00
532.652,3111.00
533.648,2959.00
534.641,3188.00
535.636,3027.00
536.631,3071.00
537.626,3130.00
538.621,2735.00
539.616,2580.00
540.610,2507.00
541.605,2970.00
542.599,3024.00
543.593,2958.00
544.587,3845.00
545.581,2798.00
546.575,3049.00
547.569,3001.00
548.563,2672.00
549.557,2647.00
550.550,2752.00
551.543,2730.00
552.537,3123.00
553.530,2756.00
554.523,2767.00
555.516,3073.00
556.509,2952.00
557.502,2635.00
558.494,3153.00
559.487,2903.00
560.479,3151.00
561.472,3249.00
562.464,3106.00
563.456,3287.00
564.448,2926.00
565.440,3010.00
566.432,3334.00
567.423,2885.00
568.415,2879.00
569.404,3128.00
570.396,2780.00
571.387,3089.00
572.378,3014.00
573.369,3915.00
574.360,3641.00
575.351,2941.00
576.341,2830.00
577.332,2857.00
578.323,2646.00
579.313,2866.00
580.303,3183.00
581.293,3125.00
582.283,2938.00
583.273,3097.00
584.263,3025.00
585.253,3042.00
586.243,3155.00
587.232,2660.00
588.222,2958.00
589.211,3162.00
590.200,3041.00
591.189,2931.00
592.178,2976.00
593.167,3389.00
594.156,3216.00
595.145,2891.00
596.133,3419.00
597.122,3089.00
598.110,3187.00
599.098,3005.00
600.086,2987.00
601.074,3154.00
602.062,2811.00
603.050,2698.00
604.038,3075.00
605.025,2727.00
606.013,3172.00
607.000,3314.00
607.987,2997.00
608.975,3030.00
609.962,2775.00
610.949,3117.00
611.936,3225.00
612.922,3146.00
613.909,2684.00
614.895,3347.00
615.882,2814.00
616.868,2967.00
617.854,2673.00
618.841,2969.00
619.826,3095.00
620.812,2981.00
621.798,2811.00
622.784,3159.00
623.769,3067.00
624.755,2715.00
625.740,3018.00
626.725,2699.00
627.711,2818.00
628.698,3054.00
629.683,2823.00
630.667,3133.00
631.652,2715.00
632.637,2933.00
633.621,3152.00
634.606,2907.00
635.590,3111.00
636.574,2914.00
637.558,3086.00
638.542,3024.00
639.526,2826.00
640.510,2635.00
641.493,3028.00
642.477,2936.00
643.460,2701.00
644.444,3188.00
645.427,3182.00
646.410,2649.00
647.393,2928.00
648.376,3046.00
649.359,2905.00
650.341,3073.00
651.324,3050.00
652.307,3012.00
653.289,2912.00
654.271,2854.00
655.253,2842.00
656.235,3096.00
657.217,3204.00
658.199,2633.00
659.181,2752.00
660.163,2968.00
661.144,2852.00
662.126,2889.00
663.107,2743.00
664.088,6189.00
665.069,3205.00
666.050,2780.00
667.033,2674.00
668.014,3039.00
668.995,2543.00
669.975,2963.00
670.956,2941.00
671.936,3112.00
672.916,2934.00
673.896,3067.00
674.876,2902.00
675.856,2855.00
676.836,2716.00
677.816,2313.00
678.795,2782.00
679.775,2661.00
680.754,3006.00
681.734,3097.00
682.713,3127.00
683.692,2761.00
684.671,2638.00
685.650,2792.00
686.629,2895.00
687.607,2718.00
688.586,2706.00
689.564,2845.00
690.543,3257.00
691.523,2387.00
692.501,2801.00
693.479,2905.00
694.457,2775.00
695.435,2867.00
696.413,2650.00
697.390,2522.00
698.368,2707.00
699.345,3075.00
700.322,2926.00
701.300,3056.00
702.277,3009.00
703.254,3195.00
704.231,2558.00
705.207,2912.00
706.184,2801.00
707.161,2686.00
708.137,2850.00
709.113,2768.00
710.090,2797.00
711.068,2586.00
712.044,2581.00
713.020,2848.00
713.996,2624.00
714.971,2847.00
715.947,2808.00
716.922,2810.00
717.898,2769.00
718.873,2828.00
719.848,2742.00
720.823,2684.00
721.798,2925.00
722.773,2758.00
723.748,2536.00
724.723,3020.00
725.697,2837.00
726.672,2734.00
727.646,2520.00
728.622,2916.00
729.596,2549.00
730.570,2718.00
731.544,3013.00
732.518,3228.00
733.492,2769.00
734.466,2871.00
735.439,2981.00
736.413,3115.00
737.386,2444.00
738.359,2422.00
739.332,2495.00
740.305,2811.00
741.278,3259.00
742.251,2889.00
743.224,2696.00
744.196,2558.00
745.171,3074.00
746.143,3046.00
747.115,2763.00
748.087,2697.00
749.059,3105.00
750.031,2853.00
751.003,3644.00
751.975,3242.00
752.947,2702.00
753.918,3070.00
754.890,2559.00
755.861,2768.00
756.832,2945.00
757.803,2817.00
758.774,2820.00
759.747,2607.00
760.718,3225.00
761.689,2719.00
762.659,2554.00
763.630,3125.00
764.600,2547.00
765.570,3046.00
766.540,3111.00
767.510,2924.00
768.480,3007.00
769.450,2698.00
770.420,2809.00
771.390,2659.00
772.359,2740.00
773.329,2679.00
774.300,2485.00
775.269,2711.00
776.238,2942.00
777.207,3144.00
778.176,2494.00
779.145,2778.00
780.114,2659.00
781.083,2564.00
782.051,2732.00
783.019,2644.00
783.988,3056.00
784.956,2842.00
785.924,2956.00
786.894,2885.00
787.862,2728.00
788.830,3116.00
789.797,2628.00
790.765,2584.00
791.732,2735.00
792.700,2644.00
793.667,2585.00
794.634,2725.00
795.601,2728.00
796.568,2734.00
797.535,2829.00
798.502,3418.00
799.468,2898.00
800.437,2408.00
801.403,2641.00
802.370,3275.00
803.336,3021.00
804.302,2845.00
805.268,2432.00
806.234,2574.00
807.200,2738.00
808.166,2767.00
809.131,2575.00
810.097,2957.00
811.062,3617.00
812.027,3000.00
812.994,2582.00
813.960,2614.00
814.925,2899.00
815.889,2526.00
816.854,2985.00
817.819,2637.00
818.783,2692.00
819.748,3050.00
820.712,2712.00
821.677,2674.00
822.641,2671.00
823.605,2721.00
824.571,3113.00
825.534,2689.00
826.498,2653.00
827.462,2783.00
828.425,2599.00
829.389,3046.00
830.352,2822.00
831.315,2858.00
832.279,2498.00
833.242,2734.00
834.204,2624.00
835.167,2620.00
836.132,3029.00
837.095,2501.00
838.057,2665.00
839.020,2805.00
839.982,2844.00
840.944,2683.00
841.906,2627.00
842.868,2963.00
843.830,2538.00
844.792,3040.00
845.753,2670.00
846.715,2414.00
847.679,2626.00
848.640,2596.00
849.601,2732.00
850.562,3252.00
851.523,2696.00
852.484,2496.00
853.445,2949.00
854.406,2733.00
855.367,2713.00
856.327,3020.00
857.288,2492.00
858.248,2670.00
859.210,2687.00
860.170,2538.00
861.130,3028.00
862.090,2409.00
863.050,2640.00
864.010,2663.00
864.969,2897.00
865.929,2568.00
866.888,2511.00
867.848,2828.00
868.807,2623.00
869.766,2794.00
870.727,2749.00
871.686,2970.00
872.645,3001.00
873.604,3286.00
874.562,2769.00
875.521,2794.00
876.479,3293.00
877.437,2575.00
878.396,2588.00
879.354,3167.00
880.312,2596.00
881.270,2671.00
882.229,3070.00
883.187,2596.00
884.145,2666.00
885.102,2917.00
886.059,2806.00
887.017,2873.00
887.974,2957.00
888.931,3036.00
889.888,2510.00
890.845,2445.00
891.802,2351.00
892.758,2614.00
893.717,2440.00
894.673,2593.00
895.630,2623.00
896.586,2894.00
897.542,2664.00
898.498,2537.00
899.454,2859.00
900.410,2666.00
901.366,2661.00
902.321,2624.00
903.277,2678.00
904.232,2742.00
905.189,2488.00
906.145,2655.00
907.100,2201.00
908.055,2693.00
909.010,2869.00
909.965,2340.00
910.919,2775.00
911.874,2579.00
912.828,2779.00
913.783,2758.00
914.737,2361.00
915.693,2731.00
916.648,2907.00
917.602,2910.00
918.555,2789.00
919.509,2851.00
920.463,2719.00
921.417,2746.00
922.370,2561.00
923.324,2691.00
924.277,2655.00
925.230,2719.00
926.183,2416.00
927.138,2658.00
928.091,2930.00
929.044,2827.00
929.996,2614.00
930.949,2668.00
931.902,2789.00
932.854,2812.00
933.806,2583.00
934.758,2949.00
935.711,2972.00
936.663,2759.00
937.614,2772.00
938.568,2758.00
939.520,2411.00
940.471,2732.00
941.423,2727.00
942.374,2861.00
943.326,2780.00
944.277,2571.00
945.228,2804.00
946.179,2694.00
947.130,3023.00
948.080,2660.00
949.031,2530.00
949.984,2692.00
950.934,2713.00
951.884,2479.00
952.835,2704.00
953.785,2700.00
954.735,2640.00
955.685,2358.00
956.635,2603.00
957.585,2624.00
958.534,2628.00
959.484,2744.00
960.433,2596.00
961.383,2455.00
962.334,2945.00
963.283,2772.00
964.232,2828.00
965.181,2725.00
966.130,2742.00
967.079,2647.00
968.027,2709.00
968.976,2777.00
969.924,2630.00
970.873,2793.00
971.821,2730.00
972.769,2903.00
973.719,2846.00
974.667,2476.00
975.615,2751.00
976.562,2729.00
977.510,2415.00
978.458,2572.00
979.405,2816.00
980.352,2775.00
981.300,2915.00
982.247,2807.00
983.194,2540.00
984.141,2636.00
985.088,2735.00
986.036,2802.00
986.983,2967.00
987.930,3120.00
988.876,2356.00
989.822,2958.00
990.769,2552.00
991.715,2590.00
992.661,2444.00
993.607,2789.00
994.553,3276.00
995.498,2569.00
996.444,2305.00
997.389,2805.00
998.337,2522.00
999.282,2841.00
1000.227,2651.00
1001.173,2746.00
1002.118,2434.00
1003.062,2908.00
1004.007,2682.00
1004.952,2998.00
1005.897,2944.00
1006.841,2669.00
1007.786,2473.00
1008.730,2440.00
1009.674,3136.00
1010.618,2661.00
1011.564,2495.00
1012.508,2387.00
1013.452,2956.00
1014.396,2736.00
1015.339,2630.00
1016.283,2683.00
1017.226,2734.00
1018.170,2709.00
1019.113,2897.00
1020.056,2724.00
1020.999,2719.00
1021.942,2580.00
1022.885,2818.00
1023.828,2983.00
1024.770,2477.00
1025.715,2755.00
1026.657,2676.00
1027.600,2780.00
1028.542,2950.00
1029.484,2763.00
1030.426,2858.00
1031.368,2808.00
1032.310,2552.00
1033.251,2541.00
1034.193,2690.00
1035.135,2480.00
1036.076,2633.00
1037.017,2529.00
1037.959,2807.00
1038.900,2768.00
1039.843,2785.00
1040.784,2766.00
1041.725,2774.00
1042.665,2591.00
1043.606,2757.00
1044.547,2790.00
1045.487,2376.00
1046.427,2672.00
1047.368,2742.00
1048.308,2246.00
1049.248,2532.00
1050.188,2669.00
1051.128,2581.00
1052.067,2669.00
1053.007,2381.00
1053.947,2412.00
1054.886,2594.00
1055.827,2514.00
1056.766,2894.00
1057.706,2463.00
1058.645,2645.00
1059.584,2764.00
1060.522,2941.00
1061.461,2445.00
1062.400,2487.00
1063.338,2679.00
1064.277,2496.00
1065.215,2490.00
1066.154,2415.00
1067.092,2598.00
1068.030,2603.00
1068.968,2812.00
1069.906,2969.00
1070.843,2966.00
1071.781,2717.00
1072.720,2786.00
1073.658,2804.00
1074.595,2559.00
1075.533,2548.00
1076.470,2558.00
1077.407,2972.00
1078.344,2761.00
1079.281,2823.00
1080.217,2285.00
1081.154,2653.00
1082.091,2721.00
1083.027,2466.00
1083.964,2919.00
1084.900,2571.00
1085.836,2582.00
1086.772,2883.00
1087.708,2468.00
1088.644,2827.00
1089.580,2703.00
1090.515,2753.00
1091.451,2583.00
1092.388,2728.00
1093.324,2455.00
1094.259,3238.00
1095.194,2742.00
1096.129,2578.00
1097.064,2549.00
1097.999,2822.00
1098.934,2549.00
1099.869,2556.00
1100.803,2697.00
1101.738,2691.00
1102.672,2404.00
1103.607,2775.00
1104.541,2541.00
1105.475,2526.00
1106.409,2414.00
1107.343,2589.00
1108.277,2438.00
1109.210,2711.00
1110.144,2665.00
1111.078,2665.00
1112.011,2443.00
1112.944,2789.00
1113.878,2715.00
1114.811,2163.00
1115.744,2550.00
1116.678,2355.00
1117.611,2594.00
1118.544,2611.00
1119.477,2766.00
1120.409,2552.00
1121.342,3126.00
1122.274,2736.00
1123.206,3063.00
1124.138,2664.00
1125.070,2964.00
1126.002,2828.00
1126.934,2312.00
1127.866,2582.00
1128.798,2321.00
1129.729,2337.00
1130.661,2684.00
1131.592,2596.00
1132.523,2721.00
1133.454,2726.00
1134.385,2302.00
1135.317,2641.00
1136.247,2560.00
1137.178,2878.00
1138.109,2373.00
1139.039,2977.00
1139.970,2850.00
1140.900,2576.00
1141.831,2353.00
1142.761,2247.00
1143.691,2743.00
1144.621,2644.00
1145.551,2688.00
1146.480,2691.00
1147.410,2835.00
1148.340,2311.00
1149.269,2356.00
1150.199,2548.00
1151.128,3018.00
1152.057,2438.00
1152.979,2558.00
1153.898,2629.00
1154.819,2761.00
1155.739,2608.00
1156.658,2572.00
1157.579,2652.00
1158.498,2610.00
1159.419,2203.00
1160.338,2685.00
1161.256,2680.00
1162.177,2485.00
1163.095,2616.00
1164.016,2711.00
1164.934,2871.00
1165.852,2820.00
1166.772,2619.00
1167.690,2676.00
1168.610,2703.00
1169.528,2635.00
1170.446,2188.00
1171.365,2563.00
1172.283,2548.00
1173.202,2603.00
1174.120,2666.00
1175.037,2501.00
1175.956,2458.00
1176.873,2536.00
1177.792,2527.00
1178.709,3109.00
1179.626,2539.00
1180.544,2872.00
1181.461,2488.00
1182.379,2731.00
1183.296,2630.00
1184.212,2255.00
1185.130,2481.00
1186.046,2985.00
1186.962,2635.00
1187.880,2909.00
1188.796,2658.00
1189.714,2407.00
1190.629,2742.00
1191.545,2686.00
1192.462,2519.00
1193.378,2609.00
1194.295,2334.00
1195.210,2620.00
1196.125,2769.00
1197.042,2687.00
1197.957,2574.00
1198.872,2504.00
1199.788,2544.00
1200.703,2966.00
1201.619,2654.00
1202.534,2468.00
1203.448,2713.00
1204.364,2553.00
1205.278,2320.00
1206.192,2704.00
1207.108,3133.00
1208.022,2966.00
1208.938,2442.00
1209.851,2773.00
1210.765,2880.00
1211.680,2467.00
1212.594,2397.00
1213.507,2557.00
1214.422,3038.00
1215.335,2733.00
1216.248,2551.00
1217.163,2663.00
1218.076,3206.00
1218.990,2741.00
1219.903,2383.00
1220.816,2455.00
1221.730,2586.00
1222.642,2488.00
1223.554,2526.00
1224.469,2703.00
1225.380,2563.00
1226.292,2304.00
1227.206,2713.00
1228.118,2964.00
1229.032,2243.00
1229.943,2495.00
1230.855,2549.00
1231.768,2378.00
1232.679,2713.00
1233.590,2634.00
1234.503,2874.00
1235.414,2483.00
1236.325,2524.00
1237.238,2707.00
1238.149,2721.00
1239.059,2452.00
1239.972,2831.00
1240.882,2440.00
1241.793,2738.00
1242.705,3007.00
1243.615,2608.00
1244.525,2707.00
1245.437,2212.00
1246.347,2693.00
1247.259,2771.00
1248.168,3036.00
1249.078,2902.00
1249.989,2897.00
1250.899,2427.00
1251.808,2478.00
1252.719,2581.00
1253.628,2509.00
1254.537,2979.00
1255.448,2471.00
1256.357,2456.00
1257.266,2634.00
1258.176,2367.00
1259.085,2379.00
1259.993,2442.00
1260.904,2449.00
1261.812,2472.00
1262.720,3210.00
1263.630,2802.00
1264.538,2485.00
1265.446,2710.00
1266.356,2621.00
1267.263,2893.00
1268.171,2453.00
1269.080,2663.00
1269.988,2793.00
1270.895,2554.00
1271.804,2582.00
1272.711,2807.00
1273.619,2766.00
1274.527,2439.00
1275.434,2725.00
1276.341,2440.00
1277.248,2647.00
1278.156,2921.00
1279.063,2507.00
1279.969,2726.00
1280.877,3485.00
1281.783,2847.00
1282.690,2663.00
1283.598,2583.00
1284.503,2512.00
1285.409,2426.00
1286.317,2974.00
1287.223,3030.00
1288.128,2707.00
1289.036,2512.00
1289.941,2552.00
1290.846,2637.00
1291.751,2448.00
1292.658,2562.00
1293.563,3060.00
1294.468,2629.00
1295.375,2770.00
1296.280,2857.00
1297.184,3337.00
1298.091,2736.00
1298.995,2814.00
1299.900,2993.00
1300.806,2542.00
1301.710,2378.00
1302.614,2200.00
1303.518,2888.00
1304.424,2602.00
1305.327,2816.00
1306.231,2620.00
1307.137,2769.00
1308.040,2677.00
1308.943,2649.00
1309.847,2856.00
1310.752,2805.00
1311.655,2294.00
1312.558,2423.00
1313.463,2559.00
1314.366,2513.00
1315.269,2682.00
1316.171,2604.00
1317.076,2515.00
1317.978,2443.00
1318.881,2250.00
1319.785,2469.00
1320.687,2500.00
1321.589,2227.00
1322.491,2435.00
1323.395,2713.00
1324.297,3170.00
1325.198,2760.00
1326.102,2446.00
1327.004,2447.00
1327.905,3011.00
1328.806,2573.00
1329.709,2697.00
1330.611,2565.00
1331.512,2427.00
1332.413,3054.00
1333.316,2687.00
1334.216,2798.00
1335.117,2358.00
1336.020,2655.00
1336.920,2612.00
1337.821,2535.00
1338.721,2940.00
1339.623,2664.00
1340.523,2611.00
1341.423,2445.00
1342.323,2898.00
1343.225,2712.00
1344.125,2449.00
1345.025,2514.00
1345.924,2306.00
1346.826,2944.00
1347.725,3025.00
1348.624,2883.00
1349.524,2488.00
1350.425,2593.00
1351.324,2721.00
1352.223,2790.00
1353.121,2587.00
1354.022,2817.00
1354.921,3019.00
1355.819,2755.00
1356.718,2668.00
1357.618,2394.00
1358.516,2743.00
1359.415,3011.00
1360.313,2738.00
1361.213,2564.00
1362.111,2924.00
1363.008,3282.00
1363.906,2630.00
1364.806,2633.00
1365.703,2693.00
1366.601,2444.00
1367.498,2444.00
1368.397,2840.00
1369.295,2711.00
1370.192,2470.00
1371.089,2720.00
1371.987,2604.00
1372.884,2836.00
1373.781,2450.00
1374.678,2653.00
1375.574,2468.00
1376.473,2724.00
1377.369,2865.00
1378.265,2472.00
1379.161,2595.00
1380.059,2368.00
1380.955,2744.00
1381.851,2411.00
1382.747,2541.00
1383.643,2571.00
1384.540,2404.00
1385.436,2516.00
1386.331,2694.00
1387.227,2766.00
1388.124,2722.00
1389.019,2413.00
1389.914,2609.00
1390.809,2285.00
1391.704,3049.00
1392.601,2560.00
1393.495,2902.00
1394.390,2798.00
1395.285,2891.00
1396.179,2659.00
1397.075,2588.00
1397.969,2704.00
1398.864,2344.00
1399.758,2622.00
1400.652,2623.00
1401.547,2472.00
1402.441,2429.00
1403.335,2940.00
1404.229,2620.00
1405.122,2707.00
1406.017,2652.00
1406.911,2807.00
1407.804,3000.00
1408.697,2637.00
1409.590,2462.00
1410.485,2793.00
1411.378,2663.00
1412.271,2304.00
1413.163,2691.00
1414.056,2785.00
1414.949,3019.00
1415.843,2678.00
1416.735,2592.00
1417.627,2603.00
1418.520,2598.00
1419.412,2847.00
1420.306,2788.00
1421.197,2909.00
1422.089,2850.00
1422.981,3052.00
1423.873,2810.00
1424.764,2716.00
1425.657,2667.00
1426.549,2773.00
1427.440,2844.00
1428.331,2548.00
1429.222,2349.00
1430.113,2659.00
1431.006,2818.00
1431.897,2524.00
1432.787,2625.00
1433.678,2550.00
1434.568,2451.00
1435.459,2857.00
1436.351,2812.00
1437.241,2747.00
1438.131,2800.00
1439.021,2387.00
1439.911,2639.00
1440.801,2665.00
1441.693,2827.00
1442.583,2648.00
1443.472,2675.00
1444.362,2754.00
1445.251,2595.00
1446.140,2554.00
1447.030,2809.00
1447.921,2823.00
1448.810,2444.00
1449.699,2982.00
1450.588,2676.00
1451.476,2550.00
1452.365,2762.00
1453.254,2525.00
1454.144,2541.00
1455.032,2788.00
1455.921,2356.00
1456.809,2921.00
1457.697,2430.00
1458.585,2579.00
1459.473,2565.00
1460.361,2473.00
1461.251,2707.00
1462.138,2733.00
1463.026,2619.00
1463.913,2855.00
1464.801,2550.00
1465.688,2711.00
1466.575,2642.00
1467.463,3086.00
1468.351,2486.00
1469.238,2600.00
1470.125,2258.00
1471.012,2681.00
1471.899,2705.00
1472.785,2481.00
1473.672,2640.00
1474.558,2856.00
1475.446,2763.00
1476.333,2818.00
1477.219,2459.00
1478.105,2624.00
1478.991,2584.00
1479.877,2930.00
1480.762,2636.00
1481.648,2534.00
1482.534,2728.00
1483.419,2704.00
1484.307,2748.00
1485.192,2616.00
1486.077,2500.00
1486.962,2525.00
1487.847,2380.00
1488.732,2489.00
1489.617,2668.00
1490.502,2885.00
1491.387,2754.00
1492.271,2501.00
1493.156,2471.00
1494.042,2480.00
1494.927,2803.00
1495.811,2516.00
1496.695,2779.00
1497.579,2875.00
1498.463,2601.00
1499.347,2695.00
1500.231,2640.00
1501.114,2670.00
1501.998,2898.00
1502.881,2671.00
1503.765,2935.00
1504.648,3041.00
1505.533,2764.00
1506.417,2656.00
1507.300,2626.00
1508.183,2675.00
1509.066,2154.00
1509.948,2869.00
1510.831,2981.00
1511.714,2413.00
1512.596,2767.00
1513.479,2876.00
1514.361,2807.00
1515.243,2651.00
1516.125,2795.00
1517.008,2907.00
1517.890,2624.00
1518.771,2651.00
1519.655,2859.00
1520.537,2614.00
1521.419,2491.00
1522.300,2668.00
1523.182,2783.00
1524.063,2786.00
1524.944,2948.00
1525.825,2819.00
1526.707,2424.00
1527.588,2435.00
1528.468,2720.00
1529.349,2349.00
1530.230,2551.00
1531.111,2813.00
1531.991,2699.00
1532.872,2333.00
1533.752,2615.00
1534.632,2539.00
1535.513,2514.00
1536.393,2803.00
1537.273,2955.00
1538.153,3254.00
1539.032,2391.00
1539.912,2616.00
1540.792,2674.00
1541.672,2675.00
1542.551,2745.00
1543.430,3206.00
1544.310,2660.00
1545.189,2561.00
1546.068,3055.00
1546.947,2783.00
1547.826,2929.00
1548.705,2660.00
1549.584,2859.00
1550.462,2606.00
1551.341,2846.00
1552.219,2679.00
1553.098,2800.00
1553.976,2834.00
1554.854,3045.00
1555.733,2864.00
1556.611,2558.00
1557.489,2444.00
1558.367,2636.00
1559.244,2786.00
1560.122,2657.00
1561.000,2692.00
1561.877,2945.00
1562.755,2540.00
1563.632,2612.00
1564.509,2879.00
1565.386,2989.00
1566.264,2363.00
1567.141,2301.00
1568.017,2757.00
1568.894,2659.00
1569.771,2683.00
1570.648,2778.00
1571.524,2695.00
1572.401,2434.00
1573.277,2431.00
1574.153,2651.00
1575.029,2505.00
1575.906,3366.00
1576.781,2789.00
1577.657,2590.00
1578.533,2887.00
1579.409,2282.00
1580.285,2621.00
1581.160,3058.00
1582.036,2816.00
1582.911,2510.00
1583.786,2988.00
1584.662,2455.00
1585.537,2597.00
1586.412,2700.00
1587.287,2489.00
1588.160,2845.00
1589.035,2330.00
1589.909,2699.00
1590.784,2625.00
1591.658,2466.00
1592.533,2674.00
1593.407,2665.00
1594.281,2567.00
1595.155,3034.00
1596.029,2561.00
1596.903,2597.00
1597.777,2583.00
1598.651,2899.00
1599.525,2396.00
1600.398,2691.00
1601.272,2662.00
1602.144,3150.00
1603.017,2594.00
1603.890,2873.00
1604.763,2759.00
1605.636,2797.00
1606.509,2373.00
1607.382,2465.00
1608.255,2714.00
1609.128,2843.00
1610.000,2607.00
1610.873,2355.00
1611.746,2527.00
1612.616,2553.00
1613.488,2230.00
1614.361,2642.00
1615.233,2583.00
1616.105,2866.00
1616.977,2575.00
1617.849,2513.00
1618.720,2956.00
1619.592,2967.00
1620.464,2753.00
1621.333,3119.00
1622.205,2651.00
1623.076,2644.00
1623.947,2638.00
1624.818,2846.00
1625.689,2810.00
1626.560,2598.00
1627.431,2716.00
1628.302,3032.00
1629.171,2772.00
1630.042,2985.00
1630.912,3668.00
1631.782,3240.00
1632.653,2445.00
1633.523,2828.00
1634.393,2882.00
1635.263,2564.00
1636.131,2621.00
1637.001,2574.00
1637.871,2281.00
1638.741,2317.00
1639.611,2400.00
1640.480,2770.00
1641.350,2533.00
1642.219,2502.00
1643.087,2162.00
1643.956,3081.00
1644.825,2897.00
1645.694,2855.00
1646.563,2852.00
1647.432,2684.00
1648.299,2674.00
1649.167,2807.00
1650.036,2503.00
1650.904,2789.00
1651.773,2861.00
1652.641,2700.00
1653.509,2846.00
1654.376,2555.00
1655.244,2731.00
1656.112,2735.00
1656.980,2640.00
1657.847,2529.00
1658.715,2806.00
1659.581,2570.00
1660.448,2883.00
1661.316,2185.00
1662.183,2675.00
1663.051,2717.00
1663.918,2700.00
1664.783,2686.00
1665.650,2731.00
1666.517,2822.00
1667.384,2702.00
1668.251,2700.00
1669.115,2869.00
1669.982,2623.00
1670.849,2892.00
1671.715,2637.00
1672.581,2765.00
1673.446,2750.00
1674.312,2662.00
1675.178,3004.00
1676.044,2734.00
1676.910,2738.00
1677.774,2704.00
1678.639,2317.00
1679.505,2672.00
1680.370,2757.00
1681.236,3264.00
1682.099,2588.00
1682.965,2671.00
1683.830,2268.00
1684.695,2490.00
1685.560,2604.00
1686.423,2781.00
1687.288,2794.00
1688.153,2721.00
1689.017,2608.00
1689.880,2737.00
1690.745,2799.00
1691.609,2508.00
1692.473,2826.00
1693.338,2881.00
1694.200,2902.00
1695.064,2639.00
1695.928,2596.00
1696.792,2693.00
1697.654,3138.00
1698.517,2669.00
1699.381,2442.00
1700.245,2328.00
1701.106,2986.00
1701.969,2584.00
1702.833,2775.00
1703.696,2593.00
1704.557,2648.00
1705.420,2544.00
1706.283,2660.00
1707.146,2787.00
1708.007,2466.00
1708.870,2465.00
1709.732,2349.00
1710.595,2549.00
1711.455,2467.00
1712.318,2581.00
1713.180,2934.00
1714.040,2726.00
1714.902,2823.00
1715.764,2663.00
1716.626,2458.00
1717.486,2672.00
1718.348,2909.00
1719.209,4271.00
1720.071,2358.00
1720.930,2456.00
1721.792,2516.00
1722.653,2555.00
1723.512,2543.00
1724.374,2640.00
1725.234,2725.00
1726.095,2668.00
1726.954,2663.00
1727.815,2794.00
1728.676,2676.00
1729.535,2866.00
1730.395,2656.00
1731.256,2562.00
1732.114,2708.00
1732.974,2140.00
1733.834,2988.00
1734.693,2845.00
1735.553,2693.00
1736.413,3036.00
1737.272,2529.00
1738.130,2620.00
1738.990,2711.00
1739.849,2539.00
1740.707,3668.00
1741.566,2682.00
1742.426,2724.00
1743.283,3035.00
1744.142,2554.00
1745.001,2332.00
1745.858,2848.00
1746.717,2732.00
1747.576,2731.00
1748.433,2844.00
1749.292,3217.00
1750.150,3228.00
1751.007,2889.00
1751.865,2850.00
1752.723,2705.00
1753.579,2610.00
1754.438,2869.00
1755.296,2890.00
1756.152,2256.00
1757.010,2371.00
1757.865,2845.00
1758.723,2318.00
1759.581,2968.00
1760.436,2625.00
1761.294,3042.00
1762.151,2687.00
1763.006,2588.00
1763.864,2337.00
1764.721,2851.00
1765.576,2681.00
1766.433,2786.00
1767.288,2580.00
1768.144,2746.00
1769.001,2590.00
1769.856,2767.00
1770.712,2888.00
1771.568,2461.00
1772.423,2557.00
1773.279,2605.00
1774.133,2599.00
1774.989,3020.00
1775.845,2975.00
1776.699,2930.00
1777.555,2635.00
1778.409,3195.00
1779.265,2632.00
1780.120,2630.00
1780.974,2660.00
1781.829,2290.00
1782.682,2715.00
1783.538,2496.00
1784.393,2741.00
1785.246,2573.00
1786.101,2788.00
1786.954,2783.00
1787.808,2836.00
1788.661,2371.00
1789.516,2626.00
1790.370,2657.00
1791.223,2911.00
1792.077,2673.00
1792.930,2759.00
1793.784,2545.00
1794.636,2715.00
1795.490,2655.00
1796.344,2694.00
1797.196,2667.00
1798.049,2874.00
1798.901,2570.00
1799.755,2895.00
1800.606,2461.00
1801.460,3183.00
1802.311,2988.00
1803.165,3060.00
1804.018,3023.00
1804.869,2711.00
1805.722,3138.00
1806.573,2745.00
1807.426,2520.00
1808.276,2694.00
1809.129,2566.00
1809.980,2900.00
1810.832,2947.00
1811.683,2568.00
1812.535,3012.00
1813.385,2609.00
1814.237,2940.00
1815.089,2706.00
1815.940,2957.00
1816.791,2612.00
1817.641,2515.00
1818.493,2829.00
1819.343,2761.00
1820.194,2578.00
1821.044,2805.00
1821.895,2863.00
1822.745,2410.00
1823.596,2594.00
1824.445,3108.00
1825.296,2798.00
1826.145,2630.00
1826.996,2913.00
1827.845,2744.00
1828.695,2753.00
1829.544,2648.00
1830.395,2697.00
1831.243,2598.00
1832.094,2400.00
1832.942,3254.00
1833.792,2785.00
1834.640,2730.00
1835.490,2661.00
1836.338,2752.00
1837.186,2576.00
1838.036,2542.00
1838.884,2696.00
1839.733,3022.00
1840.581,2872.00
1841.430,2801.00
1842.278,3004.00
1843.127,2572.00
1843.974,2368.00
1844.823,3109.00
1845.671,2815.00
1846.519,2661.00
1847.366,2748.00
1848.213,2313.00
1849.062,2526.00
1849.909,2430.00
1850.757,3330.00
1851.604,2784.00
1852.452,2571.00
1853.298,2841.00
1854.146,2757.00
1854.993,2709.00
1855.839,3188.00
1856.687,2831.00
1857.532,2834.00
1858.380,2667.00
1859.226,2754.00
1860.073,2813.00
1860.919,2514.00
1861.765,2573.00
1862.612,2895.00
1863.457,2917.00
1864.304,2666.00
1865.150,2764.00
1865.995,2647.00
1866.842,2762.00
1867.686,2942.00
1868.533,2752.00
1869.378,2768.00
1870.223,2739.00
1871.069,2581.00
1871.914,2701.00
1872.760,2664.00
1873.604,2473.00
1874.448,2827.00
1875.294,2878.00
1876.139,2571.00
1876.984,2784.00
1877.828,2390.00
1878.672,2218.00
1879.518,2580.00
1880.361,2879.00
1881.205,2824.00
1882.050,2505.00
1882.894,3185.00
1883.739,2572.00
1884.582,2435.00
1885.425,2528.00
1886.270,2967.00
1887.113,2447.00
1887.956,2789.00
1888.801,2734.00
1889.644,2500.00
1890.486,2290.00
1891.331,2606.00
1892.173,2746.00
1893.017,2768.00
1893.860,2921.00
1894.702,2996.00
1895.546,2744.00
1896.388,3388.00
1897.230,3044.00
1898.074,2587.00
1898.916,2469.00
1899.757,2517.00
1900.601,3404.00
1901.443,2961.00
1902.284,2970.00
1903.125,3126.00
1903.969,2883.00
1904.810,2929.00
1905.651,2774.00
1906.494,3024.00
1907.335,3093.00
1908.176,2822.00
1909.018,2770.00
1909.859,2676.00
1910.700,2557.00
1911.542,3207.00
1912.383,2773.00
1913.223,2360.00
1914.064,2856.00
1914.906,2939.00
1915.746,2975.00
1916.586,3139.00
1917.428,2700.00
1918.268,2768.00
1919.107,2607.00
1919.947,2462.00
1920.789,2618.00
1921.628,2916.00
1922.468,2704.00
1923.309,2531.00
1924.148,3037.00
1924.988,2724.00
1925.827,2669.00
1926.667,2592.00
1927.507,2731.00
1928.345,2531.00
1929.184,2845.00
1930.025,2554.00
1930.864,2964.00
1931.702,2947.00
1932.541,2634.00
1933.381,2830.00
1934.219,2856.00
1935.057,2981.00
1935.896,2438.00
1936.735,2648.00
1937.573,2613.00
1938.411,2541.00
1939.249,2843.00
1940.089,2585.00
1940.927,2948.00
1941.764,2974.00
1942.602,2634.00
1943.439,2587.00
1944.278,2654.00
1945.115,2620.00
1945.953,2448.00
1946.790,2776.00
1947.628,3051.00
1948.465,2844.00
1949.302,2816.00
1950.139,2849.00
1950.976,2593.00
1951.814,2855.00
1952.651,2761.00
1953.487,2536.00
1954.323,2934.00
1955.160,2694.00
1955.998,3034.00
1956.834,2691.00
1957.670,2757.00
1958.506,2952.00
1959.342,2793.00
1960.177,2737.00
1961.015,2838.00
1961.850,2722.00
1962.686,2744.00
1963.521,2731.00
1964.357,2950.00
1965.192,2509.00
1966.029,2844.00
1966.864,2605.00
1967.699,2914.00
1968.534,2800.00
1969.369,3002.00
1970.204,2673.00
1971.040,2738.00
1971.875,2652.00
1972.709,2733.00
1973.544,2560.00
1974.378,2587.00
1975.212,2792.00
1976.047,2629.00
1976.882,2570.00
1977.716,3112.00
1978.550,2455.00
1979.384,2709.00
1980.218,2694.00
1981.052,2677.00
1981.885,2720.00
1982.719,2719.00
1983.554,2874.00
1984.388,3000.00
1985.221,2798.00
1986.054,2968.00
1986.887,2743.00
1987.720,2568.00
1988.553,3005.00
1989.386,2732.00
1990.219,2865.00
1991.053,2979.00
1991.886,2629.00
1992.719,2910.00
1993.551,2213.00
1994.383,2822.00
1995.216,2618.00
1996.048,2442.00
1996.880,2896.00
1997.712,2583.00
1998.544,2713.00
1999.376,2788.00
2000.208,3037.00
2001.040,3128.00
2001.873,2558.00
2002.705,2558.00
2003.536,2756.00
2004.367,2743.00
2005.199,2741.00
2006.030,2561.00
2006.861,2536.00
2007.692,2725.00
2008.523,2570.00
2009.354,2766.00
2010.185,2518.00
2011.016,2812.00
2011.846,2938.00
2012.677,2664.00
2013.507,3077.00
2014.338,2928.00
2015.168,2633.00
2015.999,3236.00
2016.829,2653.00
2017.659,2938.00
2018.489,3192.00
2019.319,2527.00
2020.149,2917.00
2020.980,2730.00
2021.810,2528.00
2022.639,2564.00
2023.469,2623.00
2024.298,2411.00
2025.128,2316.00
2025.957,2349.00
2026.786,2161.00
2027.615,2415.00
2028.444,2579.00
2029.273,2680.00
2030.102,2302.00
2030.931,2590.00
2031.758,2851.00
2032.586,2491.00
2033.415,2549.00
2034.243,2193.00
2035.072,2028.00
2035.900,2475.00
2036.728,2326.00
2037.556,2358.00
2038.385,2346.00
2039.213,2169.00
2040.040,2142.00
2040.868,2112.00
2041.696,2180.00
2042.524,2201.00
2043.351,2399.00
2044.179,2168.00
2045.006,1989.00
