RamanScope Measure Spectrum Data V3.72

<< MEASURE CONDITION >>
Exposure Type,Aver
Exposure Time [sec],15
Exposure Count,4
Measure Time,2023/07/15 15:30:40
Data Name,""
Data Comment,""
Rayleigh Wave[nm],532.0

<< SAMPLE SPECTRUM >>
Wave[dcm-1],No142
146.591,739.00
147.626,864.75
148.664,998.50
149.699,1150.75
150.737,1266.00
151.772,1407.25
152.809,1541.00
153.846,1654.75
154.881,1725.00
155.918,1896.00
156.953,1893.50
157.989,2001.00
159.026,2027.75
160.060,2081.00
161.096,2158.50
162.130,2198.25
163.167,2196.50
164.200,2255.75
165.236,2291.50
166.272,2362.50
167.305,2386.00
168.341,2426.50
169.374,2424.75
170.409,2474.50
171.445,2535.25
172.477,2567.25
173.512,2561.25
174.545,2600.25
175.580,2615.00
176.614,2629.25
177.647,2624.00
178.681,2600.00
179.713,2650.50
180.747,2633.00
181.781,2603.00
182.813,2633.00
183.847,2644.00
184.878,2668.75
185.912,2640.00
186.945,2665.50
187.976,2729.00
189.010,2726.50
190.043,2692.25
191.073,2772.50
192.106,2775.50
193.137,2793.25
194.170,2891.00
195.202,2893.25
196.232,2989.25
197.265,2973.25
198.297,3049.50
199.327,3104.50
200.359,3156.50
201.388,3204.50
202.420,3300.25
203.452,3374.50
204.481,3486.50
205.512,3565.75
206.544,3669.50
207.573,3766.50
208.604,3878.75
209.635,4026.50
210.663,4110.75
211.694,4281.75
212.725,4404.50
213.753,4607.25
214.783,4721.75
215.813,4822.25
216.841,4865.25
217.871,4893.75
218.899,4979.00
219.929,4926.25
220.959,4889.00
221.986,4761.75
223.016,4696.00
224.045,4596.50
225.072,4481.25
226.101,4321.50
227.130,4249.00
228.157,4062.50
229.185,3985.50
230.214,3850.00
231.241,3766.75
232.269,3742.50
233.297,3628.50
234.323,3641.50
235.351,3583.50
236.379,3506.25
237.407,3464.75
238.433,3453.00
239.460,3518.50
240.488,3470.00
241.513,3466.25
242.540,3479.75
243.568,3544.75
244.592,3534.25
245.619,3492.50
246.646,3500.25
247.671,3506.00
248.697,3513.50
249.724,3496.75
250.748,3430.75
251.774,3428.00
252.801,3408.75
253.827,3442.25
254.850,3490.00
255.876,3499.25
256.902,3490.50
257.925,3488.00
258.951,3539.75
259.976,3571.50
260.999,3612.50
262.024,3583.50
263.049,3645.75
264.074,3679.50
265.097,3745.00
266.122,3775.75
267.146,3812.25
268.168,3844.25
269.193,3888.50
270.217,3930.50
271.241,3975.75
272.263,4017.25
273.287,4029.00
274.311,4069.25
275.332,4110.00
276.356,4142.25
277.379,4111.75
278.402,4118.25
279.424,4166.00
280.447,4155.25
281.470,4053.00
282.492,4050.00
283.513,3992.25
284.536,3950.75
285.558,3903.00
286.581,3901.25
287.601,3759.25
288.623,3763.25
289.645,3681.25
290.665,3660.75
291.687,3527.00
292.709,3502.00
293.730,3472.00
294.750,3425.00
295.771,3308.00
296.792,3304.75
297.813,3238.75
298.832,3233.00
299.853,3175.50
300.874,3132.25
301.895,3081.25
302.913,3083.75
303.934,2976.50
304.954,2949.25
305.975,2983.00
306.993,2932.50
308.013,2888.25
309.033,2842.25
310.052,2807.75
311.072,2794.75
312.090,2786.50
313.109,2761.00
314.129,2703.50
315.148,2675.25
316.165,2723.25
317.184,2687.50
318.203,2610.75
319.222,2654.25
320.238,2608.00
321.257,2604.25
322.275,2600.50
323.294,2575.75
324.312,2552.25
325.328,2520.00
326.346,2535.00
327.364,2555.00
328.382,2563.75
329.397,2527.00
330.415,2484.25
331.432,2496.25
332.450,2534.50
333.467,2499.00
334.482,2428.50
335.499,2471.75
336.516,2437.25
337.533,2442.50
338.547,2436.75
339.564,2405.75
340.580,2417.75
341.597,2419.00
342.613,2389.25
343.627,2402.50
344.643,2342.25
345.659,2392.75
346.675,2402.25
347.690,2390.25
348.704,2379.50
349.719,2365.50
350.735,2341.25
351.750,2407.00
352.765,2401.50
353.778,2387.50
354.793,2366.50
355.808,2374.25
356.822,2405.25
357.837,2377.50
358.851,2337.25
359.864,2335.75
360.878,2329.75
361.892,2351.00
362.906,2411.25
363.920,2371.50
364.932,2302.75
365.945,2363.00
366.959,2408.50
367.972,2368.00
368.986,2390.50
369.999,2415.25
371.010,2353.25
372.023,2414.25
373.036,2395.50
374.049,2441.75
375.061,2421.25
376.072,2483.25
377.084,2481.25
378.097,2474.25
379.109,2503.25
380.121,2499.75
381.133,2437.50
382.143,2468.00
383.155,2466.75
384.166,2523.25
385.178,2486.25
386.189,2498.00
387.201,2526.25
388.212,2505.50
389.221,2540.50
390.232,2498.00
391.243,2453.50
392.254,2489.00
393.264,2486.50
394.275,2476.00
395.283,2462.25
396.294,2457.25
397.304,2450.25
398.314,2416.75
399.324,2435.50
400.334,2390.50
401.344,2380.00
402.351,2332.25
403.361,2360.25
404.370,2375.75
405.380,2308.00
406.389,2356.25
407.398,2319.75
408.407,2294.25
409.414,2380.00
410.423,2285.50
411.431,2325.25
412.440,2310.75
413.448,2308.00
414.457,2248.25
415.465,2291.75
416.471,2239.00
417.479,2237.75
418.487,2238.75
419.495,2262.00
420.503,2266.00
421.510,2291.00
422.518,2222.75
423.525,2216.25
424.530,2238.50
425.537,2160.75
426.544,2208.25
427.551,2186.75
428.558,2176.00
429.565,2213.50
430.571,2208.25
431.578,2179.75
432.582,2178.75
433.588,2092.50
434.595,2165.25
435.601,2184.75
436.607,2196.25
437.612,2189.50
438.618,2138.75
439.624,2164.00
440.627,2145.25
441.633,2119.75
442.638,2188.25
443.643,2171.00
444.648,2195.75
445.653,2197.25
446.658,2142.00
447.663,2144.00
448.667,2144.50
449.672,2176.00
450.674,2217.75
451.678,2187.25
452.682,2156.25
453.687,2159.75
454.690,2222.25
455.694,2172.00
456.698,2225.00
457.702,2199.00
458.705,2181.50
459.709,2216.25
460.710,2242.75
461.713,2224.25
462.716,2234.75
463.719,2199.50
464.722,2219.25
465.725,2227.00
466.727,2240.25
467.730,2210.00
468.732,2239.00
469.735,2249.00
470.737,2246.25
471.737,2265.00
472.739,2233.50
473.741,2222.75
474.742,2293.50
475.744,2251.75
476.746,2251.50
477.747,2271.25
478.748,2273.50
479.750,2210.75
480.751,2218.75
481.752,2298.50
482.753,2286.25
483.751,2223.75
484.752,2279.25
485.753,2263.00
486.753,2225.50
487.753,2272.00
488.754,2172.00
489.754,2229.25
490.754,2205.50
491.754,2266.25
492.754,2280.75
493.753,2221.50
494.753,2215.25
495.752,2241.50
496.752,2236.00
497.749,2226.25
498.748,2197.75
499.747,2255.50
500.746,2222.50
501.745,2279.75
502.744,2216.25
503.742,2185.00
504.741,2199.50
505.739,2172.50
506.737,2226.00
507.735,2173.75
508.734,2202.25
509.732,2177.25
510.729,2155.25
511.727,2162.25
512.725,2173.25
513.720,2198.75
514.718,2193.00
515.715,2159.75
516.712,2138.00
517.709,2158.25
518.706,2195.25
519.703,2146.25
520.700,2169.75
521.696,2139.75
522.693,2196.00
523.689,2173.00
524.686,2136.75
525.682,2207.00
526.678,2193.25
527.674,2184.50
528.670,2175.50
529.666,2194.75
530.661,2194.00
531.657,2258.00
532.652,2238.00
533.648,2186.25
534.641,2241.75
535.636,2150.25
536.631,2241.50
537.626,2254.50
538.621,2273.00
539.616,2286.50
540.610,2201.25
541.605,2206.50
542.599,2243.25
543.593,2301.00
544.587,2230.75
545.581,2206.00
546.575,2218.75
547.569,2216.75
548.563,2246.50
549.557,2291.50
550.550,2227.25
551.543,2297.25
552.537,2253.00
553.530,2241.75
554.523,2252.50
555.516,2281.00
556.509,2331.25
557.502,2230.50
558.494,2293.75
559.487,2241.50
560.479,2256.25
561.472,2235.25
562.464,2249.50
563.456,2268.25
564.448,2283.25
565.440,2254.25
566.432,2232.25
567.423,2289.50
568.415,2303.25
569.404,2298.00
570.396,2307.50
571.387,2291.50
572.378,2328.75
573.369,2294.00
574.360,2302.00
575.351,2336.50
576.341,2314.75
577.332,2345.00
578.323,2320.25
579.313,2363.75
580.303,2339.00
581.293,2264.00
582.283,2319.75
583.273,2339.25
584.263,2370.00
585.253,2344.50
586.243,2337.50
587.232,2315.50
588.222,2301.25
589.211,2330.25
590.200,2311.25
591.189,2360.50
592.178,2348.25
593.167,2352.50
594.156,2321.50
595.145,2329.75
596.133,2315.00
597.122,2330.25
598.110,2352.25
599.098,2277.00
600.086,2349.75
601.074,2341.00
602.062,2318.00
603.050,2292.50
604.038,2318.25
605.025,2305.00
606.013,2278.50
607.000,2249.50
607.987,2221.75
608.975,2289.00
609.962,2284.00
610.949,2247.25
611.936,2283.50
612.922,2172.25
613.909,2234.50
614.895,2202.25
615.882,2174.25
616.868,2229.75
617.854,2180.25
618.841,2152.75
619.826,2147.00
620.812,2173.75
621.798,2179.00
622.784,2093.25
623.769,2087.75
624.755,2109.25
625.740,2072.75
626.725,2053.25
627.711,2052.75
628.698,2070.00
629.683,1988.25
630.667,1986.75
631.652,2055.00
632.637,1992.00
633.621,2041.25
634.606,1990.00
635.590,1991.75
636.574,1960.75
637.558,1941.25
638.542,1984.25
639.526,1962.50
640.510,1915.50
641.493,1956.00
642.477,1920.75
643.460,1902.75
644.444,1907.00
645.427,1840.50
646.410,1880.25
647.393,1896.75
648.376,1944.75
649.359,1817.00
650.341,1920.00
651.324,1873.50
652.307,1832.75
653.289,1843.00
654.271,1833.75
655.253,1862.50
656.235,1788.50
657.217,1830.25
658.199,1849.75
659.181,1810.00
660.163,1805.00
661.144,1800.50
662.126,1725.25
663.107,1789.75
664.088,1742.50
665.069,1770.25
666.050,1806.25
667.033,1751.75
668.014,1758.00
668.995,1739.75
669.975,1747.25
670.956,1741.75
671.936,1728.00
672.916,1661.50
673.896,1684.75
674.876,1680.00
675.856,1709.00
676.836,1686.50
677.816,1676.50
678.795,1616.25
679.775,1625.50
680.754,1603.00
681.734,1624.00
682.713,1598.25
683.692,1618.00
684.671,1608.00
685.650,1575.75
686.629,1567.25
687.607,1518.25
688.586,1597.75
689.564,1559.50
690.543,1563.00
691.523,1518.00
692.501,1527.50
693.479,1509.75
694.457,1538.75
695.435,1497.25
696.413,1526.75
697.390,1548.75
698.368,1483.50
699.345,1448.75
700.322,1488.25
701.300,1522.00
702.277,1433.75
703.254,1453.50
704.231,1445.00
705.207,1410.75
706.184,1444.50
707.161,1420.75
708.137,1408.75
709.113,1428.50
710.090,1458.00
711.068,1415.00
712.044,1426.25
713.020,1371.75
713.996,1404.50
714.971,1394.75
715.947,1398.75
716.922,1374.00
717.898,1359.00
718.873,1405.50
719.848,1357.25
720.823,1356.25
721.798,1413.25
722.773,1334.75
723.748,1361.50
724.723,1350.00
725.697,1352.25
726.672,1366.75
727.646,1362.00
728.622,1327.25
729.596,1288.50
730.570,1381.00
731.544,1311.00
732.518,1322.75
733.492,1309.00
734.466,1308.50
735.439,1354.25
736.413,1307.75
737.386,1318.25
738.359,1293.75
739.332,1282.50
740.305,1274.00
741.278,1248.75
742.251,1292.00
743.224,1275.00
744.196,1311.00
745.171,1283.75
746.143,1290.75
747.115,1269.25
748.087,1260.75
749.059,1246.75
750.031,1286.00
751.003,1225.50
751.975,1232.75
752.947,1260.75
753.918,1256.00
754.890,1248.25
755.861,1258.25
756.832,1214.75
757.803,1251.25
758.774,1268.75
759.747,1226.00
760.718,1205.00
761.689,1185.00
762.659,1219.25
763.630,1207.50
764.600,1194.50
765.570,1208.00
766.540,1217.50
767.510,1178.50
768.480,1254.00
769.450,1217.75
770.420,1179.75
771.390,1187.25
772.359,1179.50
773.329,1159.50
774.300,1184.25
775.269,1142.00
776.238,1145.25
777.207,1151.50
778.176,1176.50
779.145,1139.50
780.114,1153.25
781.083,1176.25
782.051,1158.25
783.019,1167.50
783.988,1125.25
784.956,1099.75
785.924,1189.00
786.894,1150.00
787.862,1164.25
788.830,1146.50
789.797,1158.00
790.765,1151.75
791.732,1112.00
792.700,1133.00
793.667,1125.50
794.634,1101.25
795.601,1114.75
796.568,1110.50
797.535,1070.25
798.502,1099.50
799.468,1109.00
800.437,1112.00
801.403,1099.50
802.370,1086.00
803.336,1062.50
804.302,1100.75
805.268,1109.25
806.234,1130.75
807.200,1090.25
808.166,1033.50
809.131,1043.50
810.097,1129.25
811.062,1047.50
812.027,1069.25
812.994,1066.75
813.960,1068.50
814.925,1067.00
815.889,1076.25
816.854,1064.50
817.819,1083.00
818.783,1024.50
819.748,1063.75
820.712,1053.00
821.677,1100.25
822.641,1131.25
823.605,1044.00
824.571,1071.75
825.534,1054.75
826.498,1049.00
827.462,1071.25
828.425,1052.50
829.389,1075.75
830.352,1061.00
831.315,1019.25
832.279,1087.25
833.242,1052.50
834.204,1047.00
835.167,1069.25
836.132,1022.75
837.095,1047.75
838.057,1022.25
839.020,1052.75
839.982,1054.00
840.944,1049.25
841.906,1026.25
842.868,1060.00
843.830,1006.00
844.792,1026.25
845.753,982.75
846.715,1066.25
847.679,1019.75
848.640,1025.00
849.601,1016.50
850.562,1050.25
851.523,1053.25
852.484,1024.00
853.445,1028.00
854.406,994.75
855.367,980.75
856.327,1022.75
857.288,1016.25
858.248,1020.25
859.210,1018.50
860.170,973.50
861.130,999.00
862.090,1022.75
863.050,987.25
864.010,1038.50
864.969,976.00
865.929,992.50
866.888,1024.50
867.848,988.00
868.807,1054.75
869.766,1007.75
870.727,987.75
871.686,1018.50
872.645,1024.75
873.604,1017.25
874.562,977.25
875.521,994.00
876.479,977.75
877.437,973.75
878.396,991.25
879.354,1010.50
880.312,984.50
881.270,1007.50
882.229,958.25
883.187,970.00
884.145,969.00
885.102,997.75
886.059,943.75
887.017,981.75
887.974,1013.25
888.931,982.25
889.888,943.75
890.845,1000.25
891.802,997.25
892.758,1000.00
893.717,1000.00
894.673,986.00
895.630,963.00
896.586,944.25
897.542,998.75
898.498,995.25
899.454,970.75
900.410,962.50
901.366,955.00
902.321,980.00
903.277,1017.00
904.232,1043.50
905.189,987.50
906.145,987.25
907.100,984.50
908.055,953.50
909.010,994.50
909.965,989.25
910.919,972.25
911.874,998.75
912.828,975.50
913.783,983.50
914.737,995.00
915.693,991.25
916.648,1010.50
917.602,1035.00
918.555,1006.25
919.509,976.50
920.463,985.25
921.417,985.50
922.370,979.75
923.324,967.00
924.277,954.00
925.230,958.25
926.183,1007.00
927.138,1002.00
928.091,1012.75
929.044,1016.50
929.996,980.75
930.949,984.75
931.902,982.00
932.854,998.75
933.806,1018.50
934.758,1002.75
935.711,963.00
936.663,1007.50
937.614,1007.25
938.568,1015.50
939.520,1014.75
940.471,1034.75
941.423,1029.50
942.374,1006.50
943.326,996.25
944.277,967.75
945.228,1037.00
946.179,999.00
947.130,1029.75
948.080,1034.00
949.031,960.75
949.984,1010.75
950.934,971.00
951.884,975.50
952.835,998.75
953.785,996.75
954.735,1008.75
955.685,988.25
956.635,1017.50
957.585,983.25
958.534,995.00
959.484,962.00
960.433,1005.25
961.383,991.25
962.334,1005.50
963.283,1035.50
964.232,1008.50
965.181,1025.00
966.130,1014.00
967.079,1001.75
968.027,1021.25
968.976,1014.50
969.924,1017.25
970.873,982.50
971.821,1023.00
972.769,1004.50
973.719,1074.25
974.667,1007.00
975.615,980.00
976.562,954.50
977.510,1016.75
978.458,1004.25
979.405,1026.75
980.352,990.75
981.300,996.50
982.247,973.75
983.194,994.75
984.141,1031.75
985.088,1001.00
986.036,1017.75
986.983,1001.75
987.930,985.50
988.876,1034.75
989.822,1018.25
990.769,1028.75
991.715,997.00
992.661,1007.75
993.607,999.50
994.553,1001.50
995.498,983.25
996.444,1035.00
997.389,1001.25
998.337,989.75
999.282,1018.00
1000.227,1034.75
1001.173,1040.50
1002.118,1012.75
1003.062,983.00
1004.007,957.25
1004.952,1025.75
1005.897,974.25
1006.841,978.50
1007.786,1051.50
1008.730,981.25
1009.674,973.25
1010.618,1031.75
1011.564,1019.25
1012.508,988.50
1013.452,1038.50
1014.396,1010.00
1015.339,1036.00
1016.283,1005.25
1017.226,1013.50
1018.170,1002.50
1019.113,1056.50
1020.056,1012.50
1020.999,1056.25
1021.942,1033.75
1022.885,1063.50
1023.828,1003.50
1024.770,1016.25
1025.715,1039.75
1026.657,1035.00
1027.600,1033.50
1028.542,1084.00
1029.484,1079.25
1030.426,1046.00
1031.368,1057.50
1032.310,1046.00
1033.251,1047.75
1034.193,1066.75
1035.135,1053.25
1036.076,1072.25
1037.017,1089.25
1037.959,1053.75
1038.900,1057.25
1039.843,1112.00
1040.784,1079.75
1041.725,1106.25
1042.665,1072.00
1043.606,1107.75
1044.547,1049.00
1045.487,1058.75
1046.427,1099.25
1047.368,1058.50
1048.308,1094.50
1049.248,1081.50
1050.188,1100.00
1051.128,1089.00
1052.067,1123.50
1053.007,1095.25
1053.947,1103.00
1054.886,1138.00
1055.827,1106.25
1056.766,1126.75
1057.706,1161.25
1058.645,1125.50
1059.584,1130.50
1060.522,1133.50
1061.461,1151.25
1062.400,1143.25
1063.338,1185.50
1064.277,1149.50
1065.215,1157.50
1066.154,1132.00
1067.092,1127.75
1068.030,1191.50
1068.968,1204.25
1069.906,1167.50
1070.843,1192.00
1071.781,1146.75
1072.720,1165.50
1073.658,1186.00
1074.595,1169.75
1075.533,1208.50
1076.470,1199.75
1077.407,1207.75
1078.344,1217.50
1079.281,1211.00
1080.217,1196.50
1081.154,1178.75
1082.091,1186.50
1083.027,1224.50
1083.964,1228.75
1084.900,1178.75
1085.836,1194.25
1086.772,1192.25
1087.708,1216.25
1088.644,1161.75
1089.580,1215.75
1090.515,1228.00
1091.451,1220.25
1092.388,1193.00
1093.324,1196.50
1094.259,1169.75
1095.194,1228.25
1096.129,1172.00
1097.064,1232.75
1097.999,1213.50
1098.934,1148.00
1099.869,1193.00
1100.803,1161.25
1101.738,1153.00
1102.672,1170.50
1103.607,1168.25
1104.541,1181.75
1105.475,1195.00
1106.409,1114.75
1107.343,1155.50
1108.277,1131.25
1109.210,1163.00
1110.144,1140.25
1111.078,1134.50
1112.011,1133.75
1112.944,1129.00
1113.878,1088.50
1114.811,1095.00
1115.744,1129.50
1116.678,1105.00
1117.611,1089.25
1118.544,1057.75
1119.477,1068.50
1120.409,1050.50
1121.342,1058.25
1122.274,1049.50
1123.206,1030.50
1124.138,1042.00
1125.070,1049.50
1126.002,1005.00
1126.934,1038.25
1127.866,1012.75
1128.798,1013.00
1129.729,1003.50
1130.661,998.75
1131.592,1006.25
1132.523,973.00
1133.454,948.50
1134.385,990.25
1135.317,959.25
1136.247,974.00
1137.178,972.75
1138.109,985.25
1139.039,969.00
1139.970,951.25
1140.900,968.50
1141.831,953.25
1142.761,962.75
1143.691,958.50
1144.621,908.00
1145.551,954.75
1146.480,934.00
1147.410,952.00
1148.340,902.25
1149.269,951.00
1150.199,988.75
1151.128,948.50
1152.057,945.00
1152.979,920.25
1153.898,928.75
1154.819,927.25
1155.739,934.25
1156.658,919.75
1157.579,993.50
1158.498,945.00
1159.419,905.25
1160.338,911.75
1161.256,833.75
1162.177,888.25
1163.095,858.50
1164.016,859.75
1164.934,882.00
1165.852,888.75
1166.772,910.25
1167.690,888.00
1168.610,843.00
1169.528,889.25
1170.446,887.00
1171.365,863.75
1172.283,894.25
1173.202,875.25
1174.120,863.75
1175.037,872.25
1175.956,820.50
1176.873,834.50
1177.792,882.00
1178.709,892.25
1179.626,904.75
1180.544,872.50
1181.461,853.25
1182.379,857.50
1183.296,827.75
1184.212,878.00
1185.130,837.25
1186.046,807.25
1186.962,826.75
1187.880,847.25
1188.796,839.50
1189.714,838.00
1190.629,814.25
1191.545,845.00
1192.462,832.25
1193.378,863.25
1194.295,877.75
1195.210,857.00
1196.125,855.50
1197.042,830.00
1197.957,823.25
1198.872,861.00
1199.788,816.50
1200.703,835.25
1201.619,831.75
1202.534,815.25
1203.448,789.25
1204.364,867.00
1205.278,818.25
1206.192,875.50
1207.108,840.00
1208.022,805.00
1208.938,831.75
1209.851,838.25
1210.765,840.25
1211.680,862.25
1212.594,861.25
1213.507,839.00
1214.422,835.25
1215.335,787.50
1216.248,827.25
1217.163,906.00
1218.076,810.50
1218.990,844.75
1219.903,857.50
1220.816,811.25
1221.730,816.25
1222.642,819.50
1223.554,816.50
1224.469,826.50
1225.380,842.75
1226.292,806.25
1227.206,825.50
1228.118,822.50
1229.032,825.75
1229.943,845.00
1230.855,840.00
1231.768,864.50
1232.679,833.75
1233.590,816.75
1234.503,859.75
1235.414,880.50
1236.325,878.25
1237.238,895.00
1238.149,867.00
1239.059,861.00
1239.972,846.50
1240.882,922.00
1241.793,912.25
1242.705,836.50
1243.615,833.75
1244.525,836.50
1245.437,869.00
1246.347,875.75
1247.259,881.50
1248.168,846.75
1249.078,838.50
1249.989,885.50
1250.899,874.25
1251.808,913.25
1252.719,882.50
1253.628,888.25
1254.537,892.75
1255.448,935.25
1256.357,869.00
1257.266,868.00
1258.176,852.75
1259.085,884.75
1259.993,909.00
1260.904,852.25
1261.812,895.25
1262.720,876.00
1263.630,909.75
1264.538,896.00
1265.446,860.50
1266.356,843.00
1267.263,881.50
1268.171,917.50
1269.080,926.75
1269.988,831.50
1270.895,903.75
1271.804,865.75
1272.711,849.50
1273.619,883.00
1274.527,862.50
1275.434,873.00
1276.341,861.25
1277.248,884.25
1278.156,890.75
1279.063,886.25
1279.969,851.25
1280.877,873.50
1281.783,866.00
1282.690,881.25
1283.598,861.25
1284.503,864.25
1285.409,873.25
1286.317,902.50
1287.223,862.25
1288.128,860.25
1289.036,905.50
1289.941,887.75
1290.846,897.25
1291.751,862.25
1292.658,821.25
1293.563,881.50
1294.468,864.00
1295.375,821.75
1296.280,864.50
1297.184,840.00
1298.091,866.75
1298.995,855.25
1299.900,869.25
1300.806,845.50
1301.710,873.50
1302.614,859.00
1303.518,819.00
1304.424,830.00
1305.327,801.25
1306.231,826.75
1307.137,799.25
1308.040,804.50
1308.943,836.25
1309.847,834.00
1310.752,797.25
1311.655,846.75
1312.558,839.25
1313.463,817.00
1314.366,837.50
1315.269,849.00
1316.171,829.50
1317.076,796.00
1317.978,813.25
1318.881,758.00
1319.785,753.50
1320.687,808.50
1321.589,784.75
1322.491,785.25
1323.395,797.50
1324.297,818.75
1325.198,831.75
1326.102,781.00
1327.004,775.75
1327.905,767.50
1328.806,782.75
1329.709,756.00
1330.611,786.50
1331.512,762.00
1332.413,773.00
1333.316,726.25
1334.216,791.25
1335.117,770.75
1336.020,772.75
1336.920,777.25
1337.821,744.75
1338.721,784.25
1339.623,717.25
1340.523,734.00
1341.423,690.75
1342.323,697.75
1343.225,753.50
1344.125,710.50
1345.025,732.50
1345.924,751.00
1346.826,739.75
1347.725,701.25
1348.624,776.50
1349.524,706.50
1350.425,726.25
1351.324,768.75
1352.223,755.50
1353.121,741.25
1354.022,704.75
1354.921,752.50
1355.819,694.00
1356.718,686.50
1357.618,725.75
1358.516,690.25
1359.415,714.25
1360.313,699.50
1361.213,702.50
1362.111,691.50
1363.008,709.00
1363.906,698.75
1364.806,649.75
1365.703,704.50
1366.601,675.75
1367.498,683.25
1368.397,690.50
1369.295,654.50
1370.192,656.00
1371.089,635.00
1371.987,667.00
1372.884,677.25
1373.781,653.75
1374.678,654.50
1375.574,649.50
1376.473,727.50
1377.369,629.00
1378.265,634.50
1379.161,676.00
1380.059,623.75
1380.955,638.25
1381.851,653.75
1382.747,634.25
1383.643,595.25
1384.540,665.75
1385.436,644.25
1386.331,666.00
1387.227,637.00
1388.124,653.25
1389.019,650.25
1389.914,626.75
1390.809,628.25
1391.704,585.25
1392.601,621.75
1393.495,623.75
1394.390,654.75
1395.285,641.50
1396.179,635.00
1397.075,601.75
1397.969,593.00
1398.864,587.00
1399.758,629.75
1400.652,604.50
1401.547,623.00
1402.441,594.00
1403.335,596.25
1404.229,603.25
1405.122,604.25
1406.017,603.00
1406.911,596.50
1407.804,583.00
1408.697,581.00
1409.590,572.00
1410.485,610.25
1411.378,574.75
1412.271,614.25
1413.163,602.50
1414.056,603.50
1414.949,574.00
1415.843,578.25
1416.735,572.75
1417.627,591.50
1418.520,607.25
1419.412,587.50
1420.306,623.00
1421.197,555.25
1422.089,619.25
1422.981,576.00
1423.873,604.75
1424.764,575.25
1425.657,554.25
1426.549,598.00
1427.440,584.50
1428.331,515.25
1429.222,576.50
1430.113,585.50
1431.006,546.25
1431.897,559.50
1432.787,560.25
1433.678,563.50
1434.568,566.75
1435.459,549.25
1436.351,560.50
1437.241,524.25
1438.131,598.50
1439.021,524.25
1439.911,534.25
1440.801,589.75
1441.693,580.75
1442.583,546.25
1443.472,490.00
1444.362,542.00
1445.251,537.75
1446.140,562.75
1447.030,545.75
1447.921,570.50
1448.810,569.75
1449.699,518.25
1450.588,529.75
1451.476,527.75
1452.365,552.25
1453.254,561.50
1454.144,532.75
1455.032,490.00
1455.921,570.00
1456.809,548.00
1457.697,512.75
1458.585,566.00
1459.473,531.75
1460.361,510.25
1461.251,514.25
1462.138,569.00
1463.026,533.00
1463.913,524.00
1464.801,531.75
1465.688,487.00
1466.575,515.50
1467.463,501.50
1468.351,529.25
1469.238,531.25
1470.125,525.00
1471.012,536.50
1471.899,520.50
1472.785,535.25
1473.672,567.25
1474.558,554.25
1475.446,538.75
1476.333,514.00
1477.219,517.75
1478.105,518.75
1478.991,511.00
1479.877,520.50
1480.762,514.75
1481.648,516.75
1482.534,522.25
1483.419,518.00
1484.307,518.75
1485.192,511.75
1486.077,499.00
1486.962,510.00
1487.847,500.75
1488.732,490.00
1489.617,486.50
1490.502,491.50
1491.387,517.75
1492.271,513.50
1493.156,510.50
1494.042,472.75
1494.927,489.75
1495.811,554.75
1496.695,526.00
1497.579,496.00
1498.463,467.25
1499.347,459.25
1500.231,496.75
1501.114,515.25
1501.998,537.25
1502.881,464.00
1503.765,447.00
1504.648,490.00
1505.533,514.00
1506.417,487.75
1507.300,507.75
1508.183,504.50
1509.066,508.75
1509.948,509.50
1510.831,472.50
1511.714,479.75
1512.596,438.00
1513.479,420.25
1514.361,454.25
1515.243,479.50
1516.125,528.00
1517.008,516.00
1517.890,453.75
1518.771,506.00
1519.655,474.00
1520.537,458.50
1521.419,522.75
1522.300,476.25
1523.182,484.25
1524.063,463.50
1524.944,486.25
1525.825,508.25
1526.707,513.50
1527.588,496.75
1528.468,450.50
1529.349,463.25
1530.230,488.25
1531.111,461.25
1531.991,484.25
1532.872,468.75
1533.752,475.00
1534.632,442.75
1535.513,423.00
1536.393,522.75
1537.273,459.25
1538.153,472.50
1539.032,444.25
1539.912,518.50
1540.792,472.00
1541.672,459.75
1542.551,488.50
1543.430,472.25
1544.310,445.50
1545.189,461.75
1546.068,490.25
1546.947,481.25
1547.826,491.50
1548.705,489.75
1549.584,481.00
1550.462,471.00
1551.341,475.00
1552.219,486.75
1553.098,491.25
1553.976,470.25
1554.854,438.50
1555.733,506.75
1556.611,477.00
1557.489,473.00
1558.367,480.50
1559.244,432.75
1560.122,447.50
1561.000,421.25
1561.877,428.75
1562.755,444.50
1563.632,465.50
1564.509,480.75
1565.386,476.75
1566.264,447.00
1567.141,427.50
1568.017,459.50
1568.894,421.75
1569.771,451.00
1570.648,452.25
1571.524,429.75
1572.401,435.50
1573.277,477.25
1574.153,467.50
1575.029,443.25
1575.906,424.00
1576.781,436.50
1577.657,469.00
1578.533,459.00
1579.409,457.50
1580.285,456.50
1581.160,394.25
1582.036,407.00
1582.911,430.75
1583.786,462.50
1584.662,479.50
1585.537,436.25
1586.412,411.75
1587.287,453.25
1588.160,459.75
1589.035,461.75
1589.909,448.25
1590.784,406.00
1591.658,413.25
1592.533,426.00
1593.407,465.25
1594.281,433.25
1595.155,453.75
1596.029,428.25
1596.903,469.00
1597.777,471.25
1598.651,446.25
1599.525,476.00
1600.398,457.75
1601.272,413.25
1602.144,430.50
1603.017,423.00
1603.890,399.25
1604.763,453.75
1605.636,449.00
1606.509,462.25
1607.382,443.00
1608.255,409.75
1609.128,436.00
1610.000,444.25
1610.873,425.00
1611.746,452.75
1612.616,434.25
1613.488,393.75
1614.361,442.75
1615.233,433.50
1616.105,438.00
1616.977,424.00
1617.849,421.75
1618.720,399.00
1619.592,422.25
1620.464,384.00
1621.333,430.00
1622.205,414.00
1623.076,402.75
1623.947,418.50
1624.818,461.50
1625.689,388.00
1626.560,395.75
1627.431,412.00
1628.302,415.75
1629.171,423.25
1630.042,441.25
1630.912,444.75
1631.782,421.50
1632.653,427.25
1633.523,416.00
1634.393,420.25
1635.263,403.00
1636.131,405.25
1637.001,423.75
1637.871,410.00
1638.741,408.25
1639.611,416.50
1640.480,453.00
1641.350,390.00
1642.219,412.50
1643.087,381.00
1643.956,472.00
1644.825,438.25
1645.694,409.50
1646.563,434.50
1647.432,417.75
1648.299,416.25
1649.167,421.00
1650.036,406.50
1650.904,374.50
1651.773,388.25
1652.641,411.75
1653.509,444.50
1654.376,433.50
1655.244,426.25
1656.112,426.25
1656.980,403.50
1657.847,386.50
1658.715,369.00
1659.581,429.50
1660.448,396.25
1661.316,390.50
1662.183,405.50
1663.051,387.25
1663.918,400.00
1664.783,389.50
1665.650,395.75
1666.517,397.25
1667.384,400.00
1668.251,401.75
1669.115,430.00
1669.982,393.25
1670.849,407.75
1671.715,407.50
1672.581,356.25
1673.446,412.00
1674.312,367.25
1675.178,426.25
1676.044,413.50
1676.910,371.00
1677.774,435.50
1678.639,402.00
1679.505,403.00
1680.370,391.50
1681.236,400.50
1682.099,376.25
1682.965,400.00
1683.830,389.00
1684.695,454.50
1685.560,419.00
1686.423,428.50
1687.288,381.75
1688.153,388.25
1689.017,449.50
1689.880,365.50
1690.745,394.75
1691.609,414.25
1692.473,408.75
1693.338,390.25
1694.200,401.00
1695.064,389.25
1695.928,401.00
1696.792,361.25
1697.654,345.25
1698.517,391.50
1699.381,357.25
1700.245,368.75
1701.106,401.00
1701.969,391.75
1702.833,407.75
1703.696,401.25
1704.557,376.75
1705.420,403.25
1706.283,420.25
1707.146,339.75
1708.007,404.25
1708.870,396.50
1709.732,389.00
1710.595,421.75
1711.455,389.00
1712.318,374.25
1713.180,433.50
1714.040,376.25
1714.902,378.00
1715.764,362.50
1716.626,355.00
1717.486,401.50
1718.348,392.25
1719.209,334.75
1720.071,390.50
1720.930,451.50
1721.792,376.50
1722.653,387.00
1723.512,366.25
1724.374,374.25
1725.234,374.25
1726.095,374.50
1726.954,364.50
1727.815,405.00
1728.676,371.25
1729.535,372.25
1730.395,453.50
1731.256,352.25
1732.114,366.50
1732.974,388.00
1733.834,386.00
1734.693,389.00
1735.553,371.75
1736.413,385.00
1737.272,388.50
1738.130,378.25
1738.990,354.50
1739.849,373.25
1740.707,345.00
1741.566,372.50
1742.426,430.75
1743.283,434.50
1744.142,360.50
1745.001,373.00
1745.858,367.25
1746.717,386.25
1747.576,370.50
1748.433,410.25
1749.292,365.25
1750.150,357.25
1751.007,423.50
1751.865,422.75
1752.723,389.00
1753.579,389.00
1754.438,403.75
1755.296,361.00
1756.152,375.00
1757.010,383.50
1757.865,360.00
1758.723,393.50
1759.581,378.75
1760.436,361.50
1761.294,410.25
1762.151,394.25
1763.006,358.50
1763.864,387.00
1764.721,393.25
1765.576,372.00
1766.433,384.00
1767.288,406.00
1768.144,348.25
1769.001,356.50
1769.856,366.25
1770.712,340.00
1771.568,357.25
1772.423,397.25
1773.279,390.75
1774.133,397.25
1774.989,392.75
1775.845,372.00
1776.699,377.25
1777.555,369.25
1778.409,400.00
1779.265,376.25
1780.120,367.25
1780.974,373.25
1781.829,382.75
1782.682,362.50
1783.538,354.00
1784.393,393.25
1785.246,361.00
1786.101,351.75
1786.954,380.75
1787.808,371.50
1788.661,401.75
1789.516,352.50
1790.370,322.00
1791.223,403.00
1792.077,364.50
1792.930,371.75
1793.784,371.75
1794.636,364.75
1795.490,336.50
1796.344,369.50
1797.196,342.25
1798.049,395.75
1798.901,382.75
1799.755,313.75
1800.606,348.50
1801.460,338.00
1802.311,339.50
1803.165,362.75
1804.018,324.50
1804.869,356.50
1805.722,346.00
1806.573,390.50
1807.426,337.75
1808.276,366.25
1809.129,355.50
1809.980,314.50
1810.832,320.75
1811.683,333.00
1812.535,363.00
1813.385,403.25
1814.237,315.75
1815.089,375.75
1815.940,368.50
1816.791,362.75
1817.641,404.75
1818.493,399.25
1819.343,348.00
1820.194,346.50
1821.044,354.00
1821.895,337.00
1822.745,384.00
1823.596,338.50
1824.445,379.25
1825.296,357.50
1826.145,386.50
1826.996,331.75
1827.845,320.50
1828.695,294.75
1829.544,345.50
1830.395,340.50
1831.243,346.25
1832.094,352.75
1832.942,333.50
1833.792,336.75
1834.640,349.50
1835.490,325.75
1836.338,372.00
1837.186,338.00
1838.036,333.00
1838.884,363.25
1839.733,374.25
1840.581,369.50
1841.430,357.75
1842.278,345.75
1843.127,429.50
1843.974,347.75
1844.823,391.75
1845.671,364.25
1846.519,319.25
1847.366,382.25
1848.213,307.50
1849.062,343.25
1849.909,333.00
1850.757,339.00
1851.604,327.75
1852.452,304.75
1853.298,388.25
1854.146,360.75
1854.993,378.50
1855.839,372.25
1856.687,367.00
1857.532,353.50
1858.380,347.25
1859.226,316.00
1860.073,345.25
1860.919,341.00
1861.765,327.50
1862.612,329.00
1863.457,333.75
1864.304,328.00
1865.150,323.75
1865.995,319.50
1866.842,368.75
1867.686,340.00
1868.533,361.75
1869.378,315.25
1870.223,334.75
1871.069,362.75
1871.914,314.75
1872.760,386.00
1873.604,349.00
1874.448,341.50
1875.294,324.75
1876.139,357.00
1876.984,357.75
1877.828,373.75
1878.672,337.50
1879.518,374.50
1880.361,390.75
1881.205,386.75
1882.050,365.50
1882.894,320.25
1883.739,328.25
1884.582,340.25
1885.425,323.75
1886.270,332.50
1887.113,369.25
1887.956,329.50
1888.801,359.00
1889.644,305.00
1890.486,359.25
1891.331,349.75
1892.173,357.25
1893.017,333.50
1893.860,296.25
1894.702,329.75
1895.546,332.00
1896.388,333.00
1897.230,325.25
1898.074,318.25
1898.916,348.75
1899.757,345.75
1900.601,332.75
1901.443,312.00
1902.284,359.00
1903.125,313.25
1903.969,365.75
1904.810,344.25
1905.651,358.00
1906.494,345.50
1907.335,382.25
1908.176,342.25
1909.018,356.00
1909.859,289.75
1910.700,305.75
1911.542,413.25
1912.383,327.00
1913.223,342.00
1914.064,352.25
1914.906,391.25
1915.746,360.25
1916.586,369.75
1917.428,342.25
1918.268,284.00
1919.107,299.50
1919.947,363.00
1920.789,316.75
1921.628,361.25
1922.468,310.00
1923.309,317.75
1924.148,325.00
1924.988,271.25
1925.827,317.00
1926.667,313.00
1927.507,351.25
1928.345,292.25
1929.184,326.25
1930.025,311.25
1930.864,337.00
1931.702,378.00
1932.541,329.50
1933.381,337.00
1934.219,323.00
1935.057,336.25
1935.896,330.75
1936.735,313.75
1937.573,336.50
1938.411,284.50
1939.249,372.75
1940.089,323.00
1940.927,367.00
1941.764,321.50
1942.602,337.25
1943.439,362.00
1944.278,350.75
1945.115,332.25
1945.953,323.25
1946.790,346.25
1947.628,314.25
1948.465,336.50
1949.302,323.00
1950.139,285.50
1950.976,299.25
1951.814,333.00
1952.651,370.50
1953.487,318.25
1954.323,352.00
1955.160,383.50
1955.998,307.50
1956.834,280.75
1957.670,354.25
1958.506,360.00
1959.342,333.25
1960.177,360.50
1961.015,351.00
1961.850,348.75
1962.686,302.00
1963.521,347.75
1964.357,284.75
1965.192,350.25
1966.029,317.00
1966.864,387.00
1967.699,324.00
1968.534,374.75
1969.369,289.50
1970.204,355.50
1971.040,356.75
1971.875,308.75
1972.709,369.00
1973.544,320.75
1974.378,311.00
1975.212,352.00
1976.047,359.25
1976.882,304.50
1977.716,346.75
1978.550,318.50
1979.384,342.50
1980.218,342.50
1981.052,369.00
1981.885,335.50
1982.719,321.25
1983.554,335.00
1984.388,302.25
1985.221,306.50
1986.054,353.25
1986.887,320.75
1987.720,324.50
1988.553,346.25
1989.386,307.50
1990.219,317.00
1991.053,297.75
1991.886,311.75
1992.719,295.25
1993.551,281.75
1994.383,344.50
1995.216,369.75
1996.048,337.75
1996.880,324.25
1997.712,309.75
1998.544,336.00
1999.376,308.75
2000.208,323.25
2001.040,351.50
2001.873,287.25
2002.705,333.75
2003.536,306.75
2004.367,328.25
2005.199,294.50
2006.030,335.25
2006.861,328.00
2007.692,326.75
2008.523,311.25
2009.354,338.75
2010.185,321.25
2011.016,320.75
2011.846,292.00
2012.677,317.00
2013.507,334.50
2014.338,296.75
2015.168,324.00
2015.999,348.25
2016.829,316.00
2017.659,264.25
2018.489,330.00
2019.319,321.00
2020.149,334.00
2020.980,338.75
2021.810,318.50
2022.639,297.75
2023.469,345.50
2024.298,335.25
2025.128,340.00
2025.957,307.50
2026.786,332.00
2027.615,307.00
2028.444,317.25
2029.273,363.25
2030.102,318.25
2030.931,347.50
2031.758,354.00
2032.586,327.25
2033.415,316.00
2034.243,384.50
2035.072,354.00
2035.900,292.00
2036.728,338.25
2037.556,353.00
2038.385,339.75
2039.213,333.75
2040.040,339.00
2040.868,336.25
2041.696,298.00
2042.524,326.50
2043.351,319.00
2044.179,352.50
2045.006,361.25
2045.006,361.25

Max Intensity Wave.,218.899
Max Intensity Data,4979.00
Min Intensity Wave.,2017.659
Min Intensity Data,264.25
FWHM Wave.,386.133
FWHM Value,25.83
Pressure Wave.,684.671
Pressure Value [GPa],-24.91530
G/D Ratio,0.58194
G/D Gband Wave.,1555.905
G/D Gband Intensity,508.64
G/D Dband Wave.,1301.853
G/D Dband Intensity,874.04

<< BACKGROUND SPECTRUM >>
Wave[dcm-1],No142
146.591,2322.00
147.626,2165.00
148.664,2111.00
149.699,2603.00
150.737,2329.00
151.772,2468.00
152.809,2451.00
153.846,2375.00
154.881,2495.00
155.918,1979.00
156.953,2352.00
157.989,2678.00
159.026,2531.00
160.060,2722.00
161.096,2938.00
162.130,2565.00
163.167,2640.00
164.200,2490.00
165.236,2708.00
166.272,2716.00
167.305,2322.00
168.341,2593.00
169.374,2876.00
170.409,2864.00
171.445,2776.00
172.477,2601.00
173.512,2466.00
174.545,2740.00
175.580,2941.00
176.614,3116.00
177.647,2875.00
178.681,3149.00
179.713,3432.00
180.747,2851.00
181.781,2813.00
182.813,3055.00
183.847,3170.00
184.878,2781.00
185.912,3070.00
186.945,3223.00
187.976,3127.00
189.010,2785.00
190.043,2978.00
191.073,3012.00
192.106,2822.00
193.137,3323.00
194.170,2610.00
195.202,3013.00
196.232,2744.00
197.265,3101.00
198.297,3167.00
199.327,2837.00
200.359,3026.00
201.388,3445.00
202.420,2982.00
203.452,3226.00
204.481,2771.00
205.512,3433.00
206.544,3162.00
207.573,3117.00
208.604,3485.00
209.635,3599.00
210.663,3067.00
211.694,3076.00
212.725,2943.00
213.753,2867.00
214.783,3474.00
215.813,3282.00
216.841,3108.00
217.871,3275.00
218.899,2986.00
219.929,3225.00
220.959,2965.00
221.986,3249.00
223.016,2839.00
224.045,3237.00
225.072,3199.00
226.101,3302.00
227.130,3323.00
228.157,2910.00
229.185,2419.00
230.214,3271.00
231.241,2908.00
232.269,2482.00
233.297,2781.00
234.323,3322.00
235.351,2898.00
236.379,3193.00
237.407,2837.00
238.433,3042.00
239.460,3165.00
240.488,3244.00
241.513,3287.00
242.540,3206.00
243.568,3264.00
244.592,3334.00
245.619,3320.00
246.646,3026.00
247.671,3036.00
248.697,2872.00
249.724,3120.00
250.748,3104.00
251.774,3101.00
252.801,3408.00
253.827,3205.00
254.850,3153.00
255.876,2760.00
256.902,3246.00
257.925,3084.00
258.951,2806.00
259.976,2855.00
260.999,3173.00
262.024,2880.00
263.049,3709.00
264.074,3204.00
265.097,3118.00
266.122,3142.00
267.146,3096.00
268.168,3299.00
269.193,2913.00
270.217,3329.00
271.241,2784.00
272.263,2952.00
273.287,3274.00
274.311,2871.00
275.332,3423.00
276.356,2933.00
277.379,3205.00
278.402,3252.00
279.424,2995.00
280.447,2951.00
281.470,2819.00
282.492,3178.00
283.513,2968.00
284.536,3266.00
285.558,3242.00
286.581,3174.00
287.601,2925.00
288.623,2848.00
289.645,3177.00
290.665,3180.00
291.687,3261.00
292.709,3198.00
293.730,3492.00
294.750,2971.00
295.771,2876.00
296.792,3175.00
297.813,3004.00
298.832,3117.00
299.853,2819.00
300.874,3084.00
301.895,3079.00
302.913,3021.00
303.934,3375.00
304.954,3131.00
305.975,3249.00
306.993,2799.00
308.013,3178.00
309.033,3094.00
310.052,3014.00
311.072,2955.00
312.090,3127.00
313.109,3344.00
314.129,3516.00
315.148,3097.00
316.165,3151.00
317.184,3302.00
318.203,2848.00
319.222,2800.00
320.238,3238.00
321.257,2907.00
322.275,2772.00
323.294,3041.00
324.312,3213.00
325.328,3388.00
326.346,3390.00
327.364,3313.00
328.382,3218.00
329.397,3186.00
330.415,3345.00
331.432,3332.00
332.450,3302.00
333.467,3524.00
334.482,2653.00
335.499,3395.00
336.516,2988.00
337.533,2625.00
338.547,2916.00
339.564,2931.00
340.580,3167.00
341.597,3056.00
342.613,3562.00
343.627,3076.00
344.643,3139.00
345.659,3219.00
346.675,3080.00
347.690,2964.00
348.704,3201.00
349.719,2978.00
350.735,2827.00
351.750,3252.00
352.765,3080.00
353.778,3066.00
354.793,3221.00
355.808,2906.00
356.822,3249.00
357.837,2700.00
358.851,3377.00
359.864,3035.00
360.878,2812.00
361.892,3058.00
362.906,3213.00
363.920,2691.00
364.932,3226.00
365.945,3157.00
366.959,3068.00
367.972,3047.00
368.986,2786.00
369.999,3488.00
371.010,2967.00
372.023,3457.00
373.036,3067.00
374.049,3437.00
375.061,3164.00
376.072,3035.00
377.084,2934.00
378.097,2751.00
379.109,3266.00
380.121,3068.00
381.133,2746.00
382.143,3248.00
383.155,2811.00
384.166,2940.00
385.178,3188.00
386.189,3276.00
387.201,2781.00
388.212,2978.00
389.221,2964.00
390.232,3088.00
391.243,3012.00
392.254,3115.00
393.264,2892.00
394.275,3321.00
395.283,3268.00
396.294,3716.00
397.304,3571.00
398.314,3216.00
399.324,3122.00
400.334,2736.00
401.344,3252.00
402.351,2779.00
403.361,3308.00
404.370,3057.00
405.380,3008.00
406.389,3445.00
407.398,3258.00
408.407,3208.00
409.414,3214.00
410.423,3421.00
411.431,2827.00
412.440,2736.00
413.448,3400.00
414.457,2968.00
415.465,2867.00
416.471,2963.00
417.479,3128.00
418.487,2888.00
419.495,3381.00
420.503,3195.00
421.510,2643.00
422.518,3209.00
423.525,3276.00
424.530,3466.00
425.537,3018.00
426.544,3339.00
427.551,2958.00
428.558,3709.00
429.565,3521.00
430.571,2965.00
431.578,2983.00
432.582,2980.00
433.588,3098.00
434.595,2682.00
435.601,3402.00
436.607,3326.00
437.612,2801.00
438.618,3441.00
439.624,3021.00
440.627,3049.00
441.633,3241.00
442.638,3674.00
443.643,3158.00
444.648,3103.00
445.653,3270.00
446.658,2994.00
447.663,3137.00
448.667,2973.00
449.672,2995.00
450.674,3020.00
451.678,2789.00
452.682,2966.00
453.687,2922.00
454.690,3679.00
455.694,3376.00
456.698,2626.00
457.702,2736.00
458.705,2881.00
459.709,2859.00
460.710,2929.00
461.713,3100.00
462.716,3129.00
463.719,3071.00
464.722,3278.00
465.725,3055.00
466.727,2917.00
467.730,3139.00
468.732,2830.00
469.735,3357.00
470.737,2998.00
471.737,2955.00
472.739,2971.00
473.741,2896.00
474.742,3107.00
475.744,3176.00
476.746,3114.00
477.747,3026.00
478.748,3185.00
479.750,3022.00
480.751,3105.00
481.752,3820.00
482.753,3157.00
483.751,3659.00
484.752,2656.00
485.753,3043.00
486.753,2952.00
487.753,3058.00
488.754,3571.00
489.754,2793.00
490.754,3438.00
491.754,3193.00
492.754,2737.00
493.753,3103.00
494.753,2983.00
495.752,3396.00
496.752,3143.00
497.749,3067.00
498.748,2951.00
499.747,3443.00
500.746,3172.00
501.745,2814.00
502.744,2830.00
503.742,3414.00
504.741,3003.00
505.739,2564.00
506.737,2945.00
507.735,3261.00
508.734,3476.00
509.732,3202.00
510.729,3445.00
511.727,2967.00
512.725,2987.00
513.720,2833.00
514.718,3333.00
515.715,2750.00
516.712,2707.00
517.709,3067.00
518.706,2958.00
519.703,3123.00
520.700,3264.00
521.696,3470.00
522.693,2971.00
523.689,2932.00
524.686,3262.00
525.682,2832.00
526.678,3545.00
527.674,2991.00
528.670,2665.00
529.666,3577.00
530.661,3552.00
531.657,3207.00
532.652,3231.00
533.648,3107.00
534.641,3298.00
535.636,3165.00
536.631,3151.00
537.626,3222.00
538.621,2783.00
539.616,2633.00
540.610,2607.00
541.605,3099.00
542.599,3125.00
543.593,3042.00
544.587,4019.00
545.581,2946.00
546.575,3115.00
547.569,3135.00
548.563,2741.00
549.557,2706.00
550.550,2832.00
551.543,2779.00
552.537,3242.00
553.530,2862.00
554.523,2825.00
555.516,3165.00
556.509,2974.00
557.502,2709.00
558.494,3245.00
559.487,3015.00
560.479,3275.00
561.472,3349.00
562.464,3218.00
563.456,3367.00
564.448,3019.00
565.440,3082.00
566.432,3483.00
567.423,2937.00
568.415,2955.00
569.404,3187.00
570.396,2856.00
571.387,3183.00
572.378,3035.00
573.369,4078.00
574.360,3770.00
575.351,3020.00
576.341,2906.00
577.332,2911.00
578.323,2741.00
579.313,2932.00
580.303,3317.00
581.293,3276.00
582.283,3042.00
583.273,3183.00
584.263,3072.00
585.253,3186.00
586.243,3237.00
587.232,2709.00
588.222,3022.00
589.211,3257.00
590.200,3140.00
591.189,3014.00
592.178,3047.00
593.167,3464.00
594.156,3354.00
595.145,2948.00
596.133,3572.00
597.122,3174.00
598.110,3241.00
599.098,3145.00
600.086,3025.00
601.074,3244.00
602.062,2893.00
603.050,2815.00
604.038,3155.00
605.025,2855.00
606.013,3276.00
607.000,3482.00
607.987,3135.00
608.975,3119.00
609.962,2823.00
610.949,3265.00
611.936,3309.00
612.922,3290.00
613.909,2767.00
614.895,3478.00
615.882,2931.00
616.868,3087.00
617.854,2841.00
618.841,3110.00
619.826,3172.00
620.812,3030.00
621.798,2863.00
622.784,3274.00
623.769,3168.00
624.755,2781.00
625.740,3149.00
626.725,2774.00
627.711,2953.00
628.698,3149.00
629.683,2898.00
630.667,3262.00
631.652,2792.00
632.637,3022.00
633.621,3218.00
634.606,3012.00
635.590,3192.00
636.574,3044.00
637.558,3161.00
638.542,3088.00
639.526,2897.00
640.510,2709.00
641.493,3120.00
642.477,3075.00
643.460,2768.00
644.444,3311.00
645.427,3398.00
646.410,2744.00
647.393,3018.00
648.376,3089.00
649.359,3022.00
650.341,3096.00
651.324,3124.00
652.307,3128.00
653.289,3022.00
654.271,2941.00
655.253,2957.00
656.235,3221.00
657.217,3288.00
658.199,2696.00
659.181,2806.00
660.163,3063.00
661.144,2919.00
662.126,2988.00
663.107,2860.00
664.088,4857.00
665.069,3306.00
666.050,2847.00
667.033,2765.00
668.014,3113.00
668.995,2635.00
669.975,3056.00
670.956,3054.00
671.936,3218.00
672.916,3062.00
673.896,3183.00
674.876,3001.00
675.856,2901.00
676.836,2788.00
677.816,2360.00
678.795,2931.00
679.775,2758.00
680.754,3130.00
681.734,3232.00
682.713,3253.00
683.692,2815.00
684.671,2696.00
685.650,2841.00
686.629,2948.00
687.607,2847.00
688.586,2811.00
689.564,2917.00
690.543,3291.00
691.523,2437.00
692.501,2903.00
693.479,3003.00
694.457,2842.00
695.435,2942.00
696.413,2710.00
697.390,2527.00
698.368,2730.00
699.345,3192.00
700.322,2997.00
701.300,3113.00
702.277,3131.00
703.254,3357.00
704.231,2628.00
705.207,3046.00
706.184,2838.00
707.161,2722.00
708.137,2910.00
709.113,2853.00
710.090,2836.00
711.068,2665.00
712.044,2657.00
713.020,2968.00
713.996,2671.00
714.971,2873.00
715.947,2922.00
716.922,2879.00
717.898,2829.00
718.873,2919.00
719.848,2790.00
720.823,2780.00
721.798,2991.00
722.773,2831.00
723.748,2575.00
724.723,3065.00
725.697,2901.00
726.672,2807.00
727.646,2547.00
728.622,3038.00
729.596,2694.00
730.570,2758.00
731.544,3135.00
732.518,3327.00
733.492,2872.00
734.466,2948.00
735.439,3037.00
736.413,3154.00
737.386,2511.00
738.359,2497.00
739.332,2620.00
740.305,2918.00
741.278,3413.00
742.251,2994.00
743.224,2786.00
744.196,2580.00
745.171,3225.00
746.143,3062.00
747.115,2828.00
748.087,2793.00
749.059,3188.00
750.031,2942.00
751.003,3805.00
751.975,3340.00
752.947,2747.00
753.918,3156.00
754.890,2637.00
755.861,2811.00
756.832,3128.00
757.803,2870.00
758.774,2880.00
759.747,2654.00
760.718,3279.00
761.689,2824.00
762.659,2656.00
763.630,3236.00
764.600,2625.00
765.570,3110.00
766.540,3197.00
767.510,3044.00
768.480,3085.00
769.450,2759.00
770.420,2901.00
771.390,2726.00
772.359,2829.00
773.329,2738.00
774.300,2575.00
775.269,2835.00
776.238,3073.00
777.207,3259.00
778.176,2568.00
779.145,2859.00
780.114,2735.00
781.083,2611.00
782.051,2822.00
783.019,2732.00
783.988,3190.00
784.956,2950.00
785.924,2995.00
786.894,2933.00
787.862,2741.00
788.830,3205.00
789.797,2676.00
790.765,2627.00
791.732,2842.00
792.700,2722.00
793.667,2651.00
794.634,2848.00
795.601,2815.00
796.568,2857.00
797.535,2909.00
798.502,3527.00
799.468,2973.00
800.437,2443.00
801.403,2707.00
802.370,3370.00
803.336,3071.00
804.302,2919.00
805.268,2494.00
806.234,2574.00
807.200,2788.00
808.166,2883.00
809.131,2623.00
810.097,3032.00
811.062,3753.00
812.027,3085.00
812.994,2650.00
813.960,2678.00
814.925,3005.00
815.889,2563.00
816.854,3075.00
817.819,2701.00
818.783,2812.00
819.748,3151.00
820.712,2799.00
821.677,2658.00
822.641,2711.00
823.605,2785.00
824.571,3210.00
825.534,2839.00
826.498,2716.00
827.462,2842.00
828.425,2695.00
829.389,3097.00
830.352,2851.00
831.315,2980.00
832.279,2513.00
833.242,2819.00
834.204,2695.00
835.167,2687.00
836.132,3125.00
837.095,2574.00
838.057,2766.00
839.020,2875.00
839.982,2890.00
840.944,2698.00
841.906,2693.00
842.868,2993.00
843.830,2630.00
844.792,3121.00
845.753,2764.00
846.715,2462.00
847.679,2651.00
848.640,2685.00
849.601,2802.00
850.562,3312.00
851.523,2744.00
852.484,2518.00
853.445,3058.00
854.406,2772.00
855.367,2817.00
856.327,3108.00
857.288,2572.00
858.248,2733.00
859.210,2720.00
860.170,2602.00
861.130,3088.00
862.090,2449.00
863.050,2678.00
864.010,2713.00
864.969,2980.00
865.929,2648.00
866.888,2559.00
867.848,2881.00
868.807,2666.00
869.766,2912.00
870.727,2788.00
871.686,3042.00
872.645,3042.00
873.604,3341.00
874.562,2841.00
875.521,2825.00
876.479,3432.00
877.437,2676.00
878.396,2630.00
879.354,3214.00
880.312,2675.00
881.270,2697.00
882.229,3192.00
883.187,2708.00
884.145,2736.00
885.102,2979.00
886.059,2914.00
887.017,2941.00
887.974,2981.00
888.931,3133.00
889.888,2586.00
890.845,2457.00
891.802,2371.00
892.758,2671.00
893.717,2490.00
894.673,2596.00
895.630,2690.00
896.586,2971.00
897.542,2722.00
898.498,2576.00
899.454,2917.00
900.410,2749.00
901.366,2759.00
902.321,3832.00
903.277,2724.00
904.232,2755.00
905.189,2526.00
906.145,2699.00
907.100,2252.00
908.055,2797.00
909.010,2971.00
909.965,2389.00
910.919,2871.00
911.874,2589.00
912.828,2839.00
913.783,2830.00
914.737,2383.00
915.693,2807.00
916.648,2942.00
917.602,2962.00
918.555,2824.00
919.509,2915.00
920.463,2814.00
921.417,2821.00
922.370,2628.00
923.324,2740.00
924.277,2743.00
925.230,2828.00
926.183,2435.00
927.138,2752.00
928.091,2996.00
929.044,2870.00
929.996,2704.00
930.949,2715.00
931.902,2892.00
932.854,2916.00
933.806,2625.00
934.758,3016.00
935.711,3074.00
936.663,2821.00
937.614,2825.00
938.568,2794.00
939.520,2413.00
940.471,2760.00
941.423,2807.00
942.374,2934.00
943.326,2812.00
944.277,2678.00
945.228,2868.00
946.179,2751.00
947.130,3089.00
948.080,2704.00
949.031,2644.00
949.984,2725.00
950.934,2771.00
951.884,2543.00
952.835,2768.00
953.785,2784.00
954.735,2635.00
955.685,2395.00
956.635,2651.00
957.585,2701.00
958.534,2672.00
959.484,2814.00
960.433,2647.00
961.383,2502.00
962.334,3003.00
963.283,2793.00
964.232,2893.00
965.181,2727.00
966.130,2840.00
967.079,2678.00
968.027,2774.00
968.976,2779.00
969.924,2666.00
970.873,2880.00
971.821,2768.00
972.769,2973.00
973.719,2866.00
974.667,2544.00
975.615,2809.00
976.562,2809.00
977.510,2463.00
978.458,2661.00
979.405,2853.00
980.352,2827.00
981.300,3011.00
982.247,2866.00
983.194,2586.00
984.141,2639.00
985.088,2795.00
986.036,2790.00
986.983,3049.00
987.930,3181.00
988.876,2386.00
989.822,3026.00
990.769,2596.00
991.715,2659.00
992.661,2474.00
993.607,2857.00
994.553,3344.00
995.498,2645.00
996.444,2307.00
997.389,2837.00
998.337,2586.00
999.282,2905.00
1000.227,2679.00
1001.173,2738.00
1002.118,2463.00
1003.062,2977.00
1004.007,2754.00
1004.952,3035.00
1005.897,3008.00
1006.841,2779.00
1007.786,2459.00
1008.730,2492.00
1009.674,3230.00
1010.618,2685.00
1011.564,2542.00
1012.508,2463.00
1013.452,2956.00
1014.396,2761.00
1015.339,2643.00
1016.283,2737.00
1017.226,2799.00
1018.170,2752.00
1019.113,2911.00
1020.056,2791.00
1020.999,2730.00
1021.942,2634.00
1022.885,2885.00
1023.828,3058.00
1024.770,2547.00
1025.715,2805.00
1026.657,2740.00
1027.600,2806.00
1028.542,2945.00
1029.484,2771.00
1030.426,2870.00
1031.368,2845.00
1032.310,2640.00
1033.251,2583.00
1034.193,2727.00
1035.135,2553.00
1036.076,2663.00
1037.017,2540.00
1037.959,2883.00
1038.900,2847.00
1039.843,2806.00
1040.784,2803.00
1041.725,2824.00
1042.665,2674.00
1043.606,2787.00
1044.547,2821.00
1045.487,2431.00
1046.427,2701.00
1047.368,2844.00
1048.308,2267.00
1049.248,2595.00
1050.188,2735.00
1051.128,2646.00
1052.067,2697.00
1053.007,2467.00
1053.947,2427.00
1054.886,2591.00
1055.827,2548.00
1056.766,3019.00
1057.706,2471.00
1058.645,2722.00
1059.584,2771.00
1060.522,3036.00
1061.461,2486.00
1062.400,2511.00
1063.338,2653.00
1064.277,2546.00
1065.215,2572.00
1066.154,2452.00
1067.092,2634.00
1068.030,2646.00
1068.968,2904.00
1069.906,3040.00
1070.843,3005.00
1071.781,2812.00
1072.720,2864.00
1073.658,2877.00
1074.595,2653.00
1075.533,2598.00
1076.470,2625.00
1077.407,3033.00
1078.344,2798.00
1079.281,2862.00
1080.217,2341.00
1081.154,2690.00
1082.091,2807.00
1083.027,2465.00
1083.964,2961.00
1084.900,2622.00
1085.836,2649.00
1086.772,2947.00
1087.708,2503.00
1088.644,2922.00
1089.580,2720.00
1090.515,2766.00
1091.451,2639.00
1092.388,2743.00
1093.324,2489.00
1094.259,3309.00
1095.194,2776.00
1096.129,2646.00
1097.064,2579.00
1097.999,2830.00
1098.934,2595.00
1099.869,2565.00
1100.803,2764.00
1101.738,2766.00
1102.672,2436.00
1103.607,2838.00
1104.541,2559.00
1105.475,2556.00
1106.409,2496.00
1107.343,2653.00
1108.277,2493.00
1109.210,2730.00
1110.144,2689.00
1111.078,2709.00
1112.011,2491.00
1112.944,2798.00
1113.878,2768.00
1114.811,2211.00
1115.744,2566.00
1116.678,2318.00
1117.611,2605.00
1118.544,2633.00
1119.477,2795.00
1120.409,2617.00
1121.342,3192.00
1122.274,2775.00
1123.206,4275.00
1124.138,2715.00
1125.070,3054.00
1126.002,2912.00
1126.934,2306.00
1127.866,2622.00
1128.798,2363.00
1129.729,2409.00
1130.661,2696.00
1131.592,2601.00
1132.523,2816.00
1133.454,2842.00
1134.385,2323.00
1135.317,2712.00
1136.247,2639.00
1137.178,2912.00
1138.109,2408.00
1139.039,3050.00
1139.970,2885.00
1140.900,2602.00
1141.831,2372.00
1142.761,2241.00
1143.691,2800.00
1144.621,2723.00
1145.551,2737.00
1146.480,2752.00
1147.410,2883.00
1148.340,2368.00
1149.269,2415.00
1150.199,2590.00
1151.128,3077.00
1152.057,2459.00
1152.979,2608.00
1153.898,2670.00
1154.819,2765.00
1155.739,2647.00
1156.658,2615.00
1157.579,2649.00
1158.498,2624.00
1159.419,2219.00
1160.338,2686.00
1161.256,2779.00
1162.177,2546.00
1163.095,2692.00
1164.016,2766.00
1164.934,2945.00
1165.852,2858.00
1166.772,2621.00
1167.690,2681.00
1168.610,2784.00
1169.528,2694.00
1170.446,2237.00
1171.365,2623.00
1172.283,2534.00
1173.202,2672.00
1174.120,2709.00
1175.037,2542.00
1175.956,2531.00
1176.873,2548.00
1177.792,2560.00
1178.709,3131.00
1179.626,2516.00
1180.544,2898.00
1181.461,2552.00
1182.379,2780.00
1183.296,2687.00
1184.212,2300.00
1185.130,2533.00
1186.046,3028.00
1186.962,2689.00
1187.880,2967.00
1188.796,2721.00
1189.714,2483.00
1190.629,2849.00
1191.545,2726.00
1192.462,2622.00
1193.378,2635.00
1194.295,2358.00
1195.210,2679.00
1196.125,2808.00
1197.042,2752.00
1197.957,2682.00
1198.872,2536.00
1199.788,2587.00
1200.703,3005.00
1201.619,2700.00
1202.534,2548.00
1203.448,2788.00
1204.364,2579.00
1205.278,2339.00
1206.192,2708.00
1207.108,3180.00
1208.022,3073.00
1208.938,2531.00
1209.851,2810.00
1210.765,2913.00
1211.680,2561.00
1212.594,2434.00
1213.507,2619.00
1214.422,3056.00
1215.335,2843.00
1216.248,2619.00
1217.163,2641.00
1218.076,3299.00
1218.990,2788.00
1219.903,2430.00
1220.816,2530.00
1221.730,2647.00
1222.642,2558.00
1223.554,2616.00
1224.469,2756.00
1225.380,2629.00
1226.292,2339.00
1227.206,2824.00
1228.118,3021.00
1229.032,2320.00
1229.943,2551.00
1230.855,2619.00
1231.768,2408.00
1232.679,2762.00
1233.590,2665.00
1234.503,2890.00
1235.414,2495.00
1236.325,2537.00
1237.238,2701.00
1238.149,2751.00
1239.059,2477.00
1239.972,2867.00
1240.882,2427.00
1241.793,2758.00
1242.705,3050.00
1243.615,2638.00
1244.525,2786.00
1245.437,2235.00
1246.347,2701.00
1247.259,2833.00
1248.168,3133.00
1249.078,2953.00
1249.989,2982.00
1250.899,2483.00
1251.808,2526.00
1252.719,2590.00
1253.628,2519.00
1254.537,3053.00
1255.448,2447.00
1256.357,2489.00
1257.266,2696.00
1258.176,2411.00
1259.085,2383.00
1259.993,2462.00
1260.904,2523.00
1261.812,2469.00
1262.720,3230.00
1263.630,2835.00
1264.538,2504.00
1265.446,2795.00
1266.356,2682.00
1267.263,2961.00
1268.171,2447.00
1269.080,2724.00
1269.988,2863.00
1270.895,2569.00
1271.804,2638.00
1272.711,2894.00
1273.619,2833.00
1274.527,2511.00
1275.434,2799.00
1276.341,2489.00
1277.248,2705.00
1278.156,2963.00
1279.063,2511.00
1279.969,2790.00
1280.877,3595.00
1281.783,2875.00
1282.690,2759.00
1283.598,2663.00
1284.503,2553.00
1285.409,2510.00
1286.317,3035.00
1287.223,3094.00
1288.128,2754.00
1289.036,2550.00
1289.941,2580.00
1290.846,2670.00
1291.751,2497.00
1292.658,2640.00
1293.563,3112.00
1294.468,2676.00
1295.375,2853.00
1296.280,2890.00
1297.184,3432.00
1298.091,2757.00
1298.995,2840.00
1299.900,3042.00
1300.806,2589.00
1301.710,2400.00
1302.614,2243.00
1303.518,2961.00
1304.424,2640.00
1305.327,2907.00
1306.231,2669.00
1307.137,2866.00
1308.040,2750.00
1308.943,2717.00
1309.847,2895.00
1310.752,2867.00
1311.655,2332.00
1312.558,2432.00
1313.463,2610.00
1314.366,2538.00
1315.269,2703.00
1316.171,2653.00
1317.076,2557.00
1317.978,2457.00
1318.881,2316.00
1319.785,2570.00
1320.687,2531.00
1321.589,2287.00
1322.491,2511.00
1323.395,2753.00
1324.297,3220.00
1325.198,2763.00
1326.102,2479.00
1327.004,2491.00
1327.905,3099.00
1328.806,2637.00
1329.709,2754.00
1330.611,2598.00
1331.512,2503.00
1332.413,3126.00
1333.316,2754.00
1334.216,2824.00
1335.117,2421.00
1336.020,2715.00
1336.920,2685.00
1337.821,2529.00
1338.721,2925.00
1339.623,2743.00
1340.523,2631.00
1341.423,2582.00
1342.323,2986.00
1343.225,2747.00
1344.125,2510.00
1345.025,2554.00
1345.924,2317.00
1346.826,3013.00
1347.725,3110.00
1348.624,2845.00
1349.524,2553.00
1350.425,2638.00
1351.324,2735.00
1352.223,2800.00
1353.121,2635.00
1354.022,2883.00
1354.921,3057.00
1355.819,2798.00
1356.718,2736.00
1357.618,2387.00
1358.516,2806.00
1359.415,3070.00
1360.313,2781.00
1361.213,2612.00
1362.111,2974.00
1363.008,3317.00
1363.906,2641.00
1364.806,2719.00
1365.703,2741.00
1366.601,2484.00
1367.498,2518.00
1368.397,2851.00
1369.295,2750.00
1370.192,2515.00
1371.089,2777.00
1371.987,2644.00
1372.884,2918.00
1373.781,2465.00
1374.678,2683.00
1375.574,2522.00
1376.473,2753.00
1377.369,2921.00
1378.265,2523.00
1379.161,2638.00
1380.059,2381.00
1380.955,2810.00
1381.851,2435.00
1382.747,2567.00
1383.643,2645.00
1384.540,2442.00
1385.436,2577.00
1386.331,2719.00
1387.227,2838.00
1388.124,2783.00
1389.019,2452.00
1389.914,2663.00
1390.809,2323.00
1391.704,3145.00
1392.601,2595.00
1393.495,2945.00
1394.390,2806.00
1395.285,2902.00
1396.179,2747.00
1397.075,2650.00
1397.969,2747.00
1398.864,2401.00
1399.758,2636.00
1400.652,2715.00
1401.547,2492.00
1402.441,2458.00
1403.335,3038.00
1404.229,2844.00
1405.122,2758.00
1406.017,2656.00
1406.911,2833.00
1407.804,3096.00
1408.697,2664.00
1409.590,2524.00
1410.485,2840.00
1411.378,2747.00
1412.271,2344.00
1413.163,2728.00
1414.056,2837.00
1414.949,3076.00
1415.843,2718.00
1416.735,2652.00
1417.627,2697.00
1418.520,2638.00
1419.412,2905.00
1420.306,2829.00
1421.197,2976.00
1422.089,2874.00
1422.981,3161.00
1423.873,2855.00
1424.764,2791.00
1425.657,2744.00
1426.549,2804.00
1427.440,2878.00
1428.331,2635.00
1429.222,2358.00
1430.113,2725.00
1431.006,2884.00
1431.897,2605.00
1432.787,2714.00
1433.678,2624.00
1434.568,2514.00
1435.459,2937.00
1436.351,2858.00
1437.241,2865.00
1438.131,2816.00
1439.021,2453.00
1439.911,2659.00
1440.801,2721.00
1441.693,2911.00
1442.583,2713.00
1443.472,2730.00
1444.362,2830.00
1445.251,2643.00
1446.140,2606.00
1447.030,2894.00
1447.921,2876.00
1448.810,2505.00
1449.699,3095.00
1450.588,2732.00
1451.476,2608.00
1452.365,2789.00
1453.254,2579.00
1454.144,2590.00
1455.032,2860.00
1455.921,2400.00
1456.809,2971.00
1457.697,2526.00
1458.585,2625.00
1459.473,2629.00
1460.361,2553.00
1461.251,2783.00
1462.138,2741.00
1463.026,2651.00
1463.913,2955.00
1464.801,2611.00
1465.688,2814.00
1466.575,2734.00
1467.463,3167.00
1468.351,2567.00
1469.238,2655.00
1470.125,2304.00
1471.012,2737.00
1471.899,2811.00
1472.785,2507.00
1473.672,2662.00
1474.558,2893.00
1475.446,2819.00
1476.333,2883.00
1477.219,2510.00
1478.105,2672.00
1478.991,2639.00
1479.877,2987.00
1480.762,2686.00
1481.648,2573.00
1482.534,2841.00
1483.419,2746.00
1484.307,2827.00
1485.192,2681.00
1486.077,2558.00
1486.962,2555.00
1487.847,2468.00
1488.732,2551.00
1489.617,2727.00
1490.502,2960.00
1491.387,2823.00
1492.271,2512.00
1493.156,2534.00
1494.042,2531.00
1494.927,2924.00
1495.811,2555.00
1496.695,2825.00
1497.579,2992.00
1498.463,2727.00
1499.347,2768.00
1500.231,2755.00
1501.114,2759.00
1501.998,2936.00
1502.881,2758.00
1503.765,3013.00
1504.648,3118.00
1505.533,2803.00
1506.417,2721.00
1507.300,2652.00
1508.183,2750.00
1509.066,2177.00
1509.948,2951.00
1510.831,3086.00
1511.714,2493.00
1512.596,2884.00
1513.479,3018.00
1514.361,2910.00
1515.243,2717.00
1516.125,2846.00
1517.008,2969.00
1517.890,2705.00
1518.771,2728.00
1519.655,2934.00
1520.537,2657.00
1521.419,2507.00
1522.300,2746.00
1523.182,2837.00
1524.063,2864.00
1524.944,3003.00
1525.825,2875.00
1526.707,2497.00
1527.588,2483.00
1528.468,2805.00
1529.349,2386.00
1530.230,2650.00
1531.111,2919.00
1531.991,2750.00
1532.872,2423.00
1533.752,2697.00
1534.632,2617.00
1535.513,2626.00
1536.393,2832.00
1537.273,3059.00
1538.153,3379.00
1539.032,2454.00
1539.912,2653.00
1540.792,2712.00
1541.672,2723.00
1542.551,2819.00
1543.430,3320.00
1544.310,2758.00
1545.189,2605.00
1546.068,3123.00
1546.947,2818.00
1547.826,3009.00
1548.705,2669.00
1549.584,2930.00
1550.462,2663.00
1551.341,2860.00
1552.219,2755.00
1553.098,2827.00
1553.976,2925.00
1554.854,3139.00
1555.733,2897.00
1556.611,2639.00
1557.489,2502.00
1558.367,2690.00
1559.244,2911.00
1560.122,2726.00
1561.000,2819.00
1561.877,3025.00
1562.755,2593.00
1563.632,2659.00
1564.509,2961.00
1565.386,3062.00
1566.264,2490.00
1567.141,2343.00
1568.017,2866.00
1568.894,2731.00
1569.771,2777.00
1570.648,2824.00
1571.524,2762.00
1572.401,2485.00
1573.277,2467.00
1574.153,2758.00
1575.029,2609.00
1575.906,3473.00
1576.781,2890.00
1577.657,2623.00
1578.533,2949.00
1579.409,2343.00
1580.285,2674.00
1581.160,3185.00
1582.036,2922.00
1582.911,2574.00
1583.786,3051.00
1584.662,2484.00
1585.537,2690.00
1586.412,2801.00
1587.287,2553.00
1588.160,2875.00
1589.035,2365.00
1589.909,2756.00
1590.784,2719.00
1591.658,2547.00
1592.533,2779.00
1593.407,2722.00
1594.281,2633.00
1595.155,3095.00
1596.029,2651.00
1596.903,2639.00
1597.777,2605.00
1598.651,2954.00
1599.525,2403.00
1600.398,2735.00
1601.272,2702.00
1602.144,3274.00
1603.017,2669.00
1603.890,3003.00
1604.763,2803.00
1605.636,2841.00
1606.509,2408.00
1607.382,2578.00
1608.255,2843.00
1609.128,2922.00
1610.000,2674.00
1610.873,2429.00
1611.746,2601.00
1612.616,2658.00
1613.488,2337.00
1614.361,2745.00
1615.233,2691.00
1616.105,2919.00
1616.977,2653.00
1617.849,2563.00
1618.720,3087.00
1619.592,3055.00
1620.464,2866.00
1621.333,3179.00
1622.205,2727.00
1623.076,2723.00
1623.947,2710.00
1624.818,2969.00
1625.689,2867.00
1626.560,2654.00
1627.431,2787.00
1628.302,3152.00
1629.171,2859.00
1630.042,3031.00
1630.912,3365.00
1631.782,3322.00
1632.653,2537.00
1633.523,2903.00
1634.393,2975.00
1635.263,2599.00
1636.131,2737.00
1637.001,2639.00
1637.871,2347.00
1638.741,2387.00
1639.611,2467.00
1640.480,2811.00
1641.350,2607.00
1642.219,2562.00
1643.087,2243.00
1643.956,3131.00
1644.825,2978.00
1645.694,2942.00
1646.563,2893.00
1647.432,2794.00
1648.299,2739.00
1649.167,2841.00
1650.036,2549.00
1650.904,2907.00
1651.773,2977.00
1652.641,2731.00
1653.509,2894.00
1654.376,2587.00
1655.244,2739.00
1656.112,2766.00
1656.980,2735.00
1657.847,2601.00
1658.715,2942.00
1659.581,2623.00
1660.448,2965.00
1661.316,2258.00
1662.183,2771.00
1663.051,2797.00
1663.918,2779.00
1664.783,2759.00
1665.650,2837.00
1666.517,2906.00
1667.384,2758.00
1668.251,2787.00
1669.115,2939.00
1669.982,2702.00
1670.849,3013.00
1671.715,2701.00
1672.581,2922.00
1673.446,2847.00
1674.312,2801.00
1675.178,3143.00
1676.044,2823.00
1676.910,2837.00
1677.774,2750.00
1678.639,2383.00
1679.505,2719.00
1680.370,2907.00
1681.236,3403.00
1682.099,2697.00
1682.965,2758.00
1683.830,2331.00
1684.695,2515.00
1685.560,2658.00
1686.423,2867.00
1687.288,2889.00
1688.153,2795.00
1689.017,2638.00
1689.880,2849.00
1690.745,2887.00
1691.609,2551.00
1692.473,2883.00
1693.338,2945.00
1694.200,3006.00
1695.064,2759.00
1695.928,2639.00
1696.792,2794.00
1697.654,3291.00
1698.517,2773.00
1699.381,2491.00
1700.245,2435.00
1701.106,3037.00
1701.969,2643.00
1702.833,2883.00
1703.696,2647.00
1704.557,2726.00
1705.420,2603.00
1706.283,2755.00
1707.146,2943.00
1708.007,2539.00
1708.870,2553.00
1709.732,2427.00
1710.595,2618.00
1711.455,2503.00
1712.318,2671.00
1713.180,2978.00
1714.040,2811.00
1714.902,2929.00
1715.764,2763.00
1716.626,2547.00
1717.486,2705.00
1718.348,2998.00
1719.209,4183.00
1720.071,2391.00
1720.930,2434.00
1721.792,2591.00
1722.653,2569.00
1723.512,2650.00
1724.374,2695.00
1725.234,2817.00
1726.095,2771.00
1726.954,2759.00
1727.815,2853.00
1728.676,2711.00
1729.535,2975.00
1730.395,2663.00
1731.256,2691.00
1732.114,2814.00
1732.974,2219.00
1733.834,3119.00
1734.693,2903.00
1735.553,2783.00
1736.413,3157.00
1737.272,2627.00
1738.130,2675.00
1738.990,2855.00
1739.849,2642.00
1740.707,3795.00
1741.566,2807.00
1742.426,2755.00
1743.283,3131.00
1744.142,2645.00
1745.001,2426.00
1745.858,2939.00
1746.717,2827.00
1747.576,2850.00
1748.433,2887.00
1749.292,3357.00
1750.150,3386.00
1751.007,2907.00
1751.865,2925.00
1752.723,2770.00
1753.579,2678.00
1754.438,2945.00
1755.296,2974.00
1756.152,2298.00
1757.010,2441.00
1757.865,2960.00
1758.723,2394.00
1759.581,3081.00
1760.436,2748.00
1761.294,3091.00
1762.151,2725.00
1763.006,2688.00
1763.864,2403.00
1764.721,2933.00
1765.576,2770.00
1766.433,2914.00
1767.288,2629.00
1768.144,2826.00
1769.001,2711.00
1769.856,2841.00
1770.712,3008.00
1771.568,2542.00
1772.423,2657.00
1773.279,2642.00
1774.133,2627.00
1774.989,3148.00
1775.845,3144.00
1776.699,2994.00
1777.555,2741.00
1778.409,3254.00
1779.265,2705.00
1780.120,2720.00
1780.974,2728.00
1781.829,2350.00
1782.682,2824.00
1783.538,2582.00
1784.393,2773.00
1785.246,2648.00
1786.101,2876.00
1786.954,2876.00
1787.808,2953.00
1788.661,2466.00
1789.516,2677.00
1790.370,2741.00
1791.223,2924.00
1792.077,2746.00
1792.930,2840.00
1793.784,2610.00
1794.636,2755.00
1795.490,2740.00
1796.344,2773.00
1797.196,2752.00
1798.049,2901.00
1798.901,2635.00
1799.755,3029.00
1800.606,2567.00
1801.460,3316.00
1802.311,3094.00
1803.165,3178.00
1804.018,3143.00
1804.869,2851.00
1805.722,3240.00
1806.573,2796.00
1807.426,2592.00
1808.276,2751.00
1809.129,2666.00
1809.980,3001.00
1810.832,3073.00
1811.683,2692.00
1812.535,3102.00
1813.385,2668.00
1814.237,3087.00
1815.089,2783.00
1815.940,3048.00
1816.791,2708.00
1817.641,2589.00
1818.493,2879.00
1819.343,2858.00
1820.194,2637.00
1821.044,2885.00
1821.895,3002.00
1822.745,2466.00
1823.596,2668.00
1824.445,3175.00
1825.296,2882.00
1826.145,2700.00
1826.996,2980.00
1827.845,2821.00
1828.695,2867.00
1829.544,2788.00
1830.395,2808.00
1831.243,2705.00
1832.094,2486.00
1832.942,3403.00
1833.792,2896.00
1834.640,2837.00
1835.490,2807.00
1836.338,2812.00
1837.186,2646.00
1838.036,2624.00
1838.884,2746.00
1839.733,3098.00
1840.581,2945.00
1841.430,2912.00
1842.278,3148.00
1843.127,2600.00
1843.974,2445.00
1844.823,3163.00
1845.671,2940.00
1846.519,2804.00
1847.366,2812.00
1848.213,2443.00
1849.062,2614.00
1849.909,2508.00
1850.757,3444.00
1851.604,2929.00
1852.452,2726.00
1853.298,2921.00
1854.146,2817.00
1854.993,2793.00
1855.839,3279.00
1856.687,2881.00
1857.532,2910.00
1858.380,2778.00
1859.226,2890.00
1860.073,2891.00
1860.919,2611.00
1861.765,2684.00
1862.612,3048.00
1863.457,3000.00
1864.304,2739.00
1865.150,2906.00
1865.995,2752.00
1866.842,2868.00
1867.686,3021.00
1868.533,2835.00
1869.378,2860.00
1870.223,2804.00
1871.069,2656.00
1871.914,2819.00
1872.760,2742.00
1873.604,2581.00
1874.448,2929.00
1875.294,2968.00
1876.139,2643.00
1876.984,2893.00
1877.828,2406.00
1878.672,2298.00
1879.518,2616.00
1880.361,2915.00
1881.205,2922.00
1882.050,2564.00
1882.894,3316.00
1883.739,2657.00
1884.582,2511.00
1885.425,2596.00
1886.270,3036.00
1887.113,2512.00
1887.956,2887.00
1888.801,2838.00
1889.644,2632.00
1890.486,2372.00
1891.331,2709.00
1892.173,2815.00
1893.017,2852.00
1893.860,3108.00
1894.702,3101.00
1895.546,2798.00
1896.388,3491.00
1897.230,3173.00
1898.074,2708.00
1898.916,2574.00
1899.757,2608.00
1900.601,3475.00
1901.443,3106.00
1902.284,3085.00
1903.125,3280.00
1903.969,2965.00
1904.810,3031.00
1905.651,2880.00
1906.494,3122.00
1907.335,3200.00
1908.176,2907.00
1909.018,2866.00
1909.859,2793.00
1910.700,2680.00
1911.542,3273.00
1912.383,2859.00
1913.223,2388.00
1914.064,2910.00
1914.906,3028.00
1915.746,3106.00
1916.586,3223.00
1917.428,2772.00
1918.268,2868.00
1919.107,2700.00
1919.947,2533.00
1920.789,2727.00
1921.628,3024.00
1922.468,2832.00
1923.309,2665.00
1924.148,3107.00
1924.988,2906.00
1925.827,2785.00
1926.667,2692.00
1927.507,2823.00
1928.345,2654.00
1929.184,2960.00
1930.025,2638.00
1930.864,3040.00
1931.702,3055.00
1932.541,2728.00
1933.381,2928.00
1934.219,2948.00
1935.057,3105.00
1935.896,2515.00
1936.735,2757.00
1937.573,2697.00
1938.411,2632.00
1939.249,2934.00
1940.089,2686.00
1940.927,3042.00
1941.764,3098.00
1942.602,2701.00
1943.439,2673.00
1944.278,2744.00
1945.115,2721.00
1945.953,2532.00
1946.790,2866.00
1947.628,3194.00
1948.465,2904.00
1949.302,2971.00
1950.139,2961.00
1950.976,2685.00
1951.814,2972.00
1952.651,2829.00
1953.487,2598.00
1954.323,3051.00
1955.160,2726.00
1955.998,3196.00
1956.834,2831.00
1957.670,2876.00
1958.506,3030.00
1959.342,2900.00
1960.177,2821.00
1961.015,2931.00
1961.850,2817.00
1962.686,2876.00
1963.521,2849.00
1964.357,3131.00
1965.192,2583.00
1966.029,2967.00
1966.864,2672.00
1967.699,3042.00
1968.534,2818.00
1969.369,3119.00
1970.204,2730.00
1971.040,2816.00
1971.875,2761.00
1972.709,2797.00
1973.544,2638.00
1974.378,2708.00
1975.212,2909.00
1976.047,2675.00
1976.882,2695.00
1977.716,3205.00
1978.550,2520.00
1979.384,2750.00
1980.218,2746.00
1981.052,2718.00
1981.885,2830.00
1982.719,2824.00
1983.554,2961.00
1984.388,3148.00
1985.221,2896.00
1986.054,3057.00
1986.887,2876.00
1987.720,2655.00
1988.553,3108.00
1989.386,2933.00
1990.219,2963.00
1991.053,3149.00
1991.886,2686.00
1992.719,3033.00
1993.551,2351.00
1994.383,2959.00
1995.216,2718.00
1996.048,2509.00
1996.880,2963.00
1997.712,2718.00
1998.544,2799.00
1999.376,2904.00
2000.208,3111.00
2001.040,3250.00
2001.873,2677.00
2002.705,2626.00
2003.536,2881.00
2004.367,2859.00
2005.199,2877.00
2006.030,2694.00
2006.861,2617.00
2007.692,2830.00
2008.523,2670.00
2009.354,2846.00
2010.185,2640.00
2011.016,2970.00
2011.846,3044.00
2012.677,2777.00
2013.507,3160.00
2014.338,3096.00
2015.168,2737.00
2015.999,3329.00
2016.829,2770.00
2017.659,3081.00
2018.489,3344.00
2019.319,2650.00
2020.149,3006.00
2020.980,2832.00
2021.810,2631.00
2022.639,2728.00
2023.469,2697.00
2024.298,2473.00
2025.128,2424.00
2025.957,2447.00
2026.786,2256.00
2027.615,2478.00
2028.444,2674.00
2029.273,2817.00
2030.102,2443.00
2030.931,2633.00
2031.758,2936.00
2032.586,2608.00
2033.415,2679.00
2034.243,2223.00
2035.072,2059.00
2035.900,2597.00
2036.728,2385.00
2037.556,2406.00
2038.385,2427.00
2039.213,2250.00
2040.040,2239.00
2040.868,2214.00
2041.696,2301.00
2042.524,2283.00
2043.351,2489.00
2044.179,2247.00
2045.006,2033.00
