RamanScope Measure Spectrum Data V3.72

<< MEASURE CONDITION >>
Exposure Type,Aver
Exposure Time [sec],15
Exposure Count,30
Measure Time,2023/07/05 08:52:27
Data Name,""
Data Comment,""
Rayleigh Wave[nm],532.0

<< SAMPLE SPECTRUM >>
Wave[dcm-1],No308
146.591,758.90
147.626,888.30
148.664,1018.27
149.699,1127.27
150.737,1307.57
151.772,1495.53
152.809,1635.43
153.846,1798.20
154.881,1898.87
155.918,1991.63
156.953,2086.97
157.989,2196.93
159.026,2264.63
160.060,2306.23
161.096,2376.23
162.130,2434.63
163.167,2438.40
164.200,2518.87
165.236,2529.47
166.272,2578.63
167.305,2614.43
168.341,2664.13
169.374,2723.33
170.409,2777.13
171.445,2810.87
172.477,2876.43
173.512,2865.70
174.545,2955.07
175.580,2972.30
176.614,2974.27
177.647,2987.07
178.681,2994.40
179.713,2944.33
180.747,2973.87
181.781,2944.70
182.813,2979.90
183.847,2975.00
184.878,2930.80
185.912,2960.53
186.945,3012.90
187.976,3006.50
189.010,3025.00
190.043,3079.03
191.073,3097.77
192.106,3145.43
193.137,3187.27
194.170,3242.10
195.202,3263.90
196.232,3344.73
197.265,3393.37
198.297,3490.40
199.327,3555.77
200.359,3614.83
201.388,3657.97
202.420,3798.17
203.452,3912.30
204.481,4026.50
205.512,4157.30
206.544,4282.37
207.573,4464.60
208.604,4661.93
209.635,4864.37
210.663,5075.87
211.694,5276.67
212.725,5477.27
213.753,5726.03
214.783,5968.67
215.813,6149.63
216.841,6242.33
217.871,6315.03
218.899,6381.23
219.929,6362.90
220.959,6253.60
221.986,6078.57
223.016,5892.73
224.045,5707.20
225.072,5509.67
226.101,5296.97
227.130,5094.17
228.157,4873.37
229.185,4732.67
230.214,4567.67
231.241,4488.20
232.269,4340.37
233.297,4241.73
234.323,4148.60
235.351,4088.00
236.379,4041.00
237.407,4003.07
238.433,3930.33
239.460,3873.30
240.488,3945.60
241.513,3963.50
242.540,3910.83
243.568,3962.90
244.592,4035.47
245.619,4015.27
246.646,4013.77
247.671,3984.57
248.697,3968.13
249.724,4001.97
250.748,3968.83
251.774,3968.30
252.801,3913.20
253.827,3954.87
254.850,3917.17
255.876,3981.27
256.902,4006.93
257.925,3990.53
258.951,4020.27
259.976,4057.93
260.999,4093.53
262.024,4125.73
263.049,4178.80
264.074,4239.47
265.097,4296.10
266.122,4350.53
267.146,4388.43
268.168,4430.93
269.193,4459.57
270.217,4598.63
271.241,4649.07
272.263,4682.27
273.287,4717.13
274.311,4745.40
275.332,4779.83
276.356,4809.90
277.379,4789.30
278.402,4810.17
279.424,4770.17
280.447,4738.87
281.470,4689.97
282.492,4677.83
283.513,4569.67
284.536,4527.63
285.558,4467.37
286.581,4411.67
287.601,4336.17
288.623,4207.77
289.645,4132.53
290.665,4152.53
291.687,4055.90
292.709,3965.23
293.730,3923.93
294.750,3823.80
295.771,3788.87
296.792,3776.73
297.813,3636.20
298.832,3630.80
299.853,3524.80
300.874,3493.30
301.895,3440.37
302.913,3372.70
303.934,3356.67
304.954,3317.67
305.975,3230.63
306.993,3235.17
308.013,3174.17
309.033,3133.83
310.052,3107.67
311.072,3111.27
312.090,3072.70
313.109,3038.10
314.129,3011.10
315.148,2996.77
316.165,2975.83
317.184,2972.60
318.203,2892.13
319.222,2916.43
320.238,2852.87
321.257,2894.07
322.275,2857.03
323.294,2878.80
324.312,2810.67
325.328,2760.23
326.346,2758.57
327.364,2779.23
328.382,2784.40
329.397,2785.50
330.415,2759.23
331.432,2730.50
332.450,2749.80
333.467,2744.47
334.482,2730.47
335.499,2708.13
336.516,2682.20
337.533,2657.10
338.547,2672.50
339.564,2701.77
340.580,2654.27
341.597,2645.93
342.613,2716.83
343.627,2675.40
344.643,2652.17
345.659,2589.23
346.675,2660.53
347.690,2645.93
348.704,2598.57
349.719,2627.13
350.735,2594.97
351.750,2605.47
352.765,2638.10
353.778,2645.90
354.793,2580.77
355.808,2619.53
356.822,2571.07
357.837,2567.30
358.851,2623.93
359.864,2610.07
360.878,2624.97
361.892,2624.07
362.906,2605.30
363.920,2620.07
364.932,2601.90
365.945,2628.77
366.959,2616.87
367.972,2629.60
368.986,2654.17
369.999,2653.97
371.010,2659.43
372.023,2624.10
373.036,2641.03
374.049,2643.80
375.061,2728.17
376.072,2657.53
377.084,2723.93
378.097,2681.07
379.109,2738.70
380.121,2736.10
381.133,2741.67
382.143,2740.70
383.155,2717.60
384.166,2713.80
385.178,2701.37
386.189,2736.97
387.201,2745.60
388.212,2729.53
389.221,2725.63
390.232,2726.57
391.243,2727.10
392.254,2719.43
393.264,2715.17
394.275,2676.73
395.283,2751.33
396.294,2672.40
397.304,2690.50
398.314,2680.97
399.324,2713.93
400.334,2663.93
401.344,2683.03
402.351,2595.80
403.361,2587.33
404.370,2637.07
405.380,2611.90
406.389,2546.07
407.398,2542.17
408.407,2531.57
409.414,2581.47
410.423,2516.73
411.431,2474.60
412.440,2491.60
413.448,2505.93
414.457,2482.30
415.465,2495.10
416.471,2485.70
417.479,2487.67
418.487,2442.20
419.495,2459.10
420.503,2467.93
421.510,2438.40
422.518,2434.73
423.525,2425.83
424.530,2407.93
425.537,2453.33
426.544,2407.80
427.551,2385.53
428.558,2433.27
429.565,2358.40
430.571,2442.43
431.578,2411.80
432.582,2376.03
433.588,2397.20
434.595,2378.53
435.601,2408.50
436.607,2408.53
437.612,2395.33
438.618,2355.23
439.624,2376.70
440.627,2389.70
441.633,2396.07
442.638,2382.03
443.643,2395.70
444.648,2416.37
445.653,2385.50
446.658,2431.50
447.663,2411.97
448.667,2386.27
449.672,2390.97
450.674,2413.83
451.678,2406.93
452.682,2423.17
453.687,2398.50
454.690,2420.27
455.694,2481.93
456.698,2412.50
457.702,2421.30
458.705,2429.40
459.709,2443.90
460.710,2438.80
461.713,2446.73
462.716,2486.23
463.719,2441.30
464.722,2432.23
465.725,2468.27
466.727,2467.37
467.730,2468.60
468.732,2513.63
469.735,2475.60
470.737,2470.90
471.737,2523.33
472.739,2491.43
473.741,2488.83
474.742,2496.23
475.744,2516.33
476.746,2528.17
477.747,2557.60
478.748,2506.10
479.750,2522.30
480.751,2528.80
481.752,2565.20
482.753,2486.73
483.751,2535.20
484.752,2532.90
485.753,2541.27
486.753,2585.20
487.753,2558.80
488.754,2533.30
489.754,2481.83
490.754,2495.13
491.754,2502.53
492.754,2528.37
493.753,2528.90
494.753,2512.60
495.752,2518.47
496.752,2562.03
497.749,2486.97
498.748,2511.63
499.747,2492.13
500.746,2471.70
501.745,2483.80
502.744,2503.33
503.742,2499.33
504.741,2480.10
505.739,2462.73
506.737,2475.27
507.735,2453.63
508.734,2447.33
509.732,2469.57
510.729,2479.90
511.727,2425.20
512.725,2453.10
513.720,2479.73
514.718,2443.50
515.715,2398.57
516.712,2441.00
517.709,2419.87
518.706,2422.93
519.703,2372.73
520.700,2408.67
521.696,2398.97
522.693,2426.50
523.689,2436.30
524.686,2450.03
525.682,2410.33
526.678,2400.17
527.674,2409.70
528.670,2460.07
529.666,2472.80
530.661,2437.77
531.657,2440.47
532.652,2505.70
533.648,2464.37
534.641,2469.77
535.636,2417.67
536.631,2465.03
537.626,2511.93
538.621,2468.93
539.616,2464.47
540.610,2476.37
541.605,2475.93
542.599,2503.93
543.593,2507.57
544.587,2460.20
545.581,2514.13
546.575,2536.33
547.569,2543.50
548.563,2549.17
549.557,2528.50
550.550,2530.43
551.543,2488.60
552.537,2484.27
553.530,2472.03
554.523,2518.93
555.516,2509.57
556.509,2529.43
557.502,2530.50
558.494,2528.60
559.487,2555.73
560.479,2548.77
561.472,2517.10
562.464,2535.73
563.456,2498.50
564.448,2521.10
565.440,2521.37
566.432,2532.83
567.423,2501.10
568.415,2507.27
569.404,2565.37
570.396,2552.57
571.387,2555.87
572.378,2550.53
573.369,2540.27
574.360,2534.77
575.351,2603.23
576.341,2585.87
577.332,2590.70
578.323,2575.40
579.313,2538.07
580.303,2604.73
581.293,2650.77
582.283,2638.30
583.273,2605.13
584.263,2607.63
585.253,2623.47
586.243,2621.90
587.232,2632.10
588.222,2580.10
589.211,2630.67
590.200,2628.27
591.189,2640.80
592.178,2690.50
593.167,2625.73
594.156,2609.03
595.145,2621.20
596.133,2636.07
597.122,2633.77
598.110,2623.93
599.098,2633.43
600.086,2615.00
601.074,2669.20
602.062,2666.33
603.050,2641.33
604.038,2606.47
605.025,2596.53
606.013,2632.77
607.000,2640.03
607.987,2610.13
608.975,2635.40
609.962,2584.97
610.949,2601.37
611.936,2588.77
612.922,2593.53
613.909,2582.97
614.895,2533.63
615.882,2566.00
616.868,2608.40
617.854,2520.30
618.841,2499.10
619.826,2498.80
620.812,2474.50
621.798,2470.20
622.784,2446.60
623.769,2450.60
624.755,2447.13
625.740,2426.00
626.725,2397.60
627.711,2435.93
628.698,2428.07
629.683,2369.47
630.667,2341.37
631.652,2338.23
632.637,2324.13
633.621,2323.03
634.606,2277.00
635.590,2262.17
636.574,2274.67
637.558,2249.53
638.542,2237.33
639.526,2233.77
640.510,2193.60
641.493,2197.13
642.477,2186.07
643.460,2234.83
644.444,2179.00
645.427,2181.30
646.410,2151.50
647.393,2165.07
648.376,2152.83
649.359,2179.83
650.341,2127.67
651.324,2097.57
652.307,2096.23
653.289,2099.87
654.271,2122.50
655.253,2105.60
656.235,2071.43
657.217,2120.30
658.199,2093.10
659.181,2125.37
660.163,2084.93
661.144,2024.43
662.126,2035.57
663.107,2037.00
664.088,2059.60
665.069,2006.17
666.050,2025.13
667.033,1996.33
668.014,1972.93
668.995,2011.80
669.975,1967.63
670.956,1995.90
671.936,1924.87
672.916,1920.60
673.896,1907.33
674.876,1923.60
675.856,1940.97
676.836,1901.57
677.816,1872.80
678.795,1886.13
679.775,1873.70
680.754,1844.90
681.734,1873.77
682.713,1783.53
683.692,1789.87
684.671,1803.30
685.650,1816.23
686.629,1776.77
687.607,1767.50
688.586,1757.23
689.564,1766.93
690.543,1747.83
691.523,1723.50
692.501,1698.40
693.479,1714.50
694.457,1694.00
695.435,1712.63
696.413,1684.17
697.390,1708.07
698.368,1659.17
699.345,1687.97
700.322,1671.83
701.300,1651.47
702.277,1662.57
703.254,1642.97
704.231,1639.30
705.207,1634.80
706.184,1640.13
707.161,1623.23
708.137,1633.47
709.113,1606.10
710.090,1613.07
711.068,1599.03
712.044,1573.27
713.020,1559.10
713.996,1561.70
714.971,1569.77
715.947,1587.07
716.922,1569.03
717.898,1565.47
718.873,1529.93
719.848,1536.87
720.823,1560.90
721.798,1520.07
722.773,1530.37
723.748,1511.53
724.723,1495.63
725.697,1496.90
726.672,1528.50
727.646,1522.33
728.622,1529.67
729.596,1496.70
730.570,1441.53
731.544,1487.77
732.518,1498.90
733.492,1490.57
734.466,1480.37
735.439,1483.93
736.413,1476.90
737.386,1419.47
738.359,1452.97
739.332,1489.13
740.305,1458.87
741.278,1437.27
742.251,1479.80
743.224,1453.80
744.196,1445.27
745.171,1407.90
746.143,1413.27
747.115,1464.83
748.087,1441.23
749.059,1440.10
750.031,1392.87
751.003,1406.20
751.975,1401.43
752.947,1400.80
753.918,1390.63
754.890,1383.37
755.861,1379.30
756.832,1361.93
757.803,1417.47
758.774,1374.87
759.747,1414.20
760.718,1390.77
761.689,1376.60
762.659,1382.43
763.630,1364.17
764.600,1365.00
765.570,1381.77
766.540,1350.43
767.510,1322.87
768.480,1360.57
769.450,1385.27
770.420,1318.53
771.390,1349.20
772.359,1372.37
773.329,1344.50
774.300,1342.60
775.269,1348.83
776.238,1273.40
777.207,1349.80
778.176,1325.53
779.145,1348.57
780.114,1320.90
781.083,1315.80
782.051,1310.10
783.019,1325.17
783.988,1352.27
784.956,1326.80
785.924,1296.37
786.894,1262.30
787.862,1242.43
788.830,1264.97
789.797,1295.13
790.765,1309.13
791.732,1274.83
792.700,1301.70
793.667,1274.27
794.634,1269.50
795.601,1264.50
796.568,1245.50
797.535,1264.33
798.502,1230.17
799.468,1277.67
800.437,1286.87
801.403,1234.83
802.370,1242.53
803.336,1212.43
804.302,1230.27
805.268,1276.40
806.234,1244.33
807.200,1245.77
808.166,1222.27
809.131,1226.20
810.097,1240.20
811.062,1231.37
812.027,1197.17
812.994,1218.50
813.960,1178.37
814.925,1184.57
815.889,1206.13
816.854,1175.40
817.819,1203.90
818.783,1164.23
819.748,1167.70
820.712,1202.87
821.677,1165.70
822.641,1190.27
823.605,1166.93
824.571,1181.17
825.534,1197.37
826.498,1184.60
827.462,1178.67
828.425,1191.70
829.389,1182.87
830.352,1158.87
831.315,1179.67
832.279,1139.47
833.242,1186.20
834.204,1148.87
835.167,1155.17
836.132,1202.83
837.095,1139.70
838.057,1195.80
839.020,1119.13
839.982,1112.97
840.944,1111.13
841.906,1149.97
842.868,1142.53
843.830,1119.30
844.792,1148.77
845.753,1147.30
846.715,1132.63
847.679,1146.37
848.640,1144.93
849.601,1138.80
850.562,1138.17
851.523,1147.73
852.484,1099.97
853.445,1146.50
854.406,1133.87
855.367,1127.23
856.327,1108.37
857.288,1152.87
858.248,1100.77
859.210,1134.20
860.170,1106.10
861.130,1127.27
862.090,1137.73
863.050,1146.50
864.010,1091.03
864.969,1080.00
865.929,1068.40
866.888,1104.23
867.848,1116.30
868.807,1071.10
869.766,1137.27
870.727,1054.40
871.686,1099.93
872.645,1087.67
873.604,1120.07
874.562,1092.70
875.521,1104.20
876.479,1056.70
877.437,1103.07
878.396,1104.20
879.354,1049.20
880.312,1110.10
881.270,1103.87
882.229,1112.63
883.187,1119.57
884.145,1106.77
885.102,1118.30
886.059,1074.90
887.017,1078.13
887.974,1029.20
888.931,1088.70
889.888,1104.67
890.845,1082.17
891.802,1077.27
892.758,1068.77
893.717,1107.70
894.673,1126.73
895.630,1090.50
896.586,1117.77
897.542,1099.40
898.498,1090.73
899.454,1122.57
900.410,1095.17
901.366,1089.87
902.321,1097.03
903.277,1130.83
904.232,1121.50
905.189,1108.83
906.145,1085.73
907.100,1073.67
908.055,1070.93
909.010,1099.83
909.965,1116.17
910.919,1083.20
911.874,1097.23
912.828,1100.87
913.783,1062.53
914.737,1116.80
915.693,1097.40
916.648,1099.70
917.602,1090.23
918.555,1088.67
919.509,1108.73
920.463,1139.00
921.417,1098.60
922.370,1093.13
923.324,1087.90
924.277,1094.90
925.230,1079.80
926.183,1089.47
927.138,1083.87
928.091,1077.50
929.044,1126.97
929.996,1134.07
930.949,1120.37
931.902,1099.90
932.854,1115.37
933.806,1141.60
934.758,1113.03
935.711,1123.07
936.663,1103.47
937.614,1122.77
938.568,1133.47
939.520,1101.20
940.471,1104.00
941.423,1088.77
942.374,1078.07
943.326,1086.00
944.277,1128.63
945.228,1109.60
946.179,1119.93
947.130,1082.40
948.080,1137.03
949.031,1115.13
949.984,1122.20
950.934,1123.37
951.884,1139.83
952.835,1052.63
953.785,1089.03
954.735,1103.13
955.685,1117.73
956.635,1091.87
957.585,1137.20
958.534,1119.03
959.484,1135.07
960.433,1093.33
961.383,1131.93
962.334,1075.27
963.283,1124.00
964.232,1118.53
965.181,1084.77
966.130,1144.93
967.079,1147.87
968.027,1107.87
968.976,1163.07
969.924,1124.00
970.873,1106.00
971.821,1127.57
972.769,1129.67
973.719,1121.33
974.667,1155.33
975.615,1075.17
976.562,1119.97
977.510,1117.57
978.458,1149.97
979.405,1121.90
980.352,1139.50
981.300,1139.43
982.247,1117.53
983.194,1160.37
984.141,1159.43
985.088,1114.60
986.036,1125.43
986.983,1087.17
987.930,1140.67
988.876,1113.60
989.822,1112.37
990.769,1141.60
991.715,1141.67
992.661,1117.63
993.607,1112.53
994.553,1120.40
995.498,1153.00
996.444,1125.93
997.389,1148.27
998.337,1130.07
999.282,1132.30
1000.227,1101.63
1001.173,1106.17
1002.118,1132.93
1003.062,1131.87
1004.007,1133.13
1004.952,1125.03
1005.897,1178.80
1006.841,1113.90
1007.786,1122.07
1008.730,1099.33
1009.674,1142.93
1010.618,1144.77
1011.564,1113.93
1012.508,1147.33
1013.452,1123.60
1014.396,1120.60
1015.339,1162.60
1016.283,1142.97
1017.226,1145.53
1018.170,1143.33
1019.113,1152.97
1020.056,1133.00
1020.999,1136.00
1021.942,1171.77
1022.885,1150.43
1023.828,1182.83
1024.770,1147.07
1025.715,1154.50
1026.657,1189.17
1027.600,1174.40
1028.542,1154.13
1029.484,1141.50
1030.426,1152.30
1031.368,1176.67
1032.310,1187.03
1033.251,1159.97
1034.193,1187.17
1035.135,1193.17
1036.076,1181.23
1037.017,1169.30
1037.959,1165.63
1038.900,1151.43
1039.843,1223.00
1040.784,1189.37
1041.725,1185.70
1042.665,1216.17
1043.606,1203.63
1044.547,1196.43
1045.487,1192.07
1046.427,1242.73
1047.368,1208.07
1048.308,1207.47
1049.248,1212.10
1050.188,1222.97
1051.128,1213.33
1052.067,1198.03
1053.007,1262.20
1053.947,1228.97
1054.886,1239.23
1055.827,1240.43
1056.766,1282.40
1057.706,1235.13
1058.645,1252.47
1059.584,1269.30
1060.522,1229.10
1061.461,1274.63
1062.400,1267.93
1063.338,1260.90
1064.277,1294.67
1065.215,1275.50
1066.154,1263.20
1067.092,1295.70
1068.030,1263.20
1068.968,1335.40
1069.906,1246.50
1070.843,1300.13
1071.781,1299.07
1072.720,1331.80
1073.658,1326.17
1074.595,1286.07
1075.533,1351.43
1076.470,1304.30
1077.407,1328.10
1078.344,1334.73
1079.281,1335.00
1080.217,1309.50
1081.154,1296.00
1082.091,1316.93
1083.027,1355.47
1083.964,1344.70
1084.900,1320.97
1085.836,1335.73
1086.772,1323.93
1087.708,1355.23
1088.644,1318.10
1089.580,1324.13
1090.515,1389.80
1091.451,1339.03
1092.388,1349.87
1093.324,1323.10
1094.259,1345.17
1095.194,1339.20
1096.129,1330.37
1097.064,1328.07
1097.999,1330.33
1098.934,1310.93
1099.869,1299.23
1100.803,1322.10
1101.738,1317.80
1102.672,1319.03
1103.607,1317.80
1104.541,1293.67
1105.475,1325.83
1106.409,1294.07
1107.343,1295.97
1108.277,1274.80
1109.210,1291.33
1110.144,1270.70
1111.078,1286.30
1112.011,1260.90
1112.944,1229.57
1113.878,1245.23
1114.811,1268.27
1115.744,1256.97
1116.678,1224.93
1117.611,1223.90
1118.544,1259.97
1119.477,1200.03
1120.409,1233.37
1121.342,1211.30
1122.274,1223.90
1123.206,1177.07
1124.138,1157.00
1125.070,1169.90
1126.002,1191.63
1126.934,1212.73
1127.866,1164.70
1128.798,1195.07
1129.729,1158.40
1130.661,1207.67
1131.592,1182.87
1132.523,1170.13
1133.454,1163.90
1134.385,1162.17
1135.317,1133.63
1136.247,1133.53
1137.178,1115.13
1138.109,1136.17
1139.039,1111.37
1139.970,1162.53
1140.900,1141.93
1141.831,1106.27
1142.761,1129.77
1143.691,1094.63
1144.621,1103.30
1145.551,1125.47
1146.480,1122.77
1147.410,1135.97
1148.340,1128.77
1149.269,1098.13
1150.199,1105.50
1151.128,1067.47
1152.057,1069.00
1152.979,1070.37
1153.898,1107.47
1154.819,1090.67
1155.739,1085.30
1156.658,1052.83
1157.579,1042.70
1158.498,1071.93
1159.419,1052.77
1160.338,1061.83
1161.256,1062.17
1162.177,1027.33
1163.095,1032.97
1164.016,1063.77
1164.934,1056.47
1165.852,1041.93
1166.772,1032.00
1167.690,1007.97
1168.610,1044.00
1169.528,1052.70
1170.446,1028.13
1171.365,1018.10
1172.283,1040.23
1173.202,1001.63
1174.120,1045.17
1175.037,1028.23
1175.956,1026.40
1176.873,1009.97
1177.792,1021.83
1178.709,1023.83
1179.626,1028.47
1180.544,1026.67
1181.461,1009.83
1182.379,1013.90
1183.296,1030.17
1184.212,1013.40
1185.130,1038.63
1186.046,1015.00
1186.962,986.77
1187.880,1034.90
1188.796,991.07
1189.714,1031.97
1190.629,1009.20
1191.545,962.67
1192.462,1049.60
1193.378,1002.40
1194.295,1016.57
1195.210,1015.30
1196.125,1012.23
1197.042,989.73
1197.957,972.33
1198.872,1017.23
1199.788,988.23
1200.703,1000.97
1201.619,1010.73
1202.534,1021.23
1203.448,1002.50
1204.364,1013.90
1205.278,982.47
1206.192,1026.53
1207.108,1013.37
1208.022,1052.57
1208.938,988.60
1209.851,995.80
1210.765,985.67
1211.680,979.67
1212.594,1018.57
1213.507,1023.80
1214.422,1018.73
1215.335,1041.50
1216.248,1033.47
1217.163,1029.97
1218.076,996.20
1218.990,998.37
1219.903,1033.57
1220.816,1009.20
1221.730,1034.93
1222.642,1038.47
1223.554,1029.37
1224.469,1001.93
1225.380,1029.17
1226.292,1041.33
1227.206,1024.03
1228.118,1029.90
1229.032,1024.27
1229.943,985.67
1230.855,1040.13
1231.768,1050.93
1232.679,1020.53
1233.590,1071.00
1234.503,1077.47
1235.414,1077.57
1236.325,1060.87
1237.238,1053.33
1238.149,1084.53
1239.059,1017.40
1239.972,1084.03
1240.882,1045.53
1241.793,1048.50
1242.705,1092.20
1243.615,1098.60
1244.525,1077.57
1245.437,1058.27
1246.347,1056.10
1247.259,1060.10
1248.168,1063.90
1249.078,1038.77
1249.989,1048.73
1250.899,1068.20
1251.808,1075.57
1252.719,1076.73
1253.628,1067.47
1254.537,1080.70
1255.448,1080.73
1256.357,1119.27
1257.266,1084.43
1258.176,1087.17
1259.085,1108.00
1259.993,1091.43
1260.904,1068.17
1261.812,1071.27
1262.720,1079.00
1263.630,1084.57
1264.538,1080.83
1265.446,1072.67
1266.356,1063.90
1267.263,1090.07
1268.171,1070.67
1269.080,1102.87
1269.988,1076.57
1270.895,1054.17
1271.804,1078.10
1272.711,1076.03
1273.619,1056.10
1274.527,1048.87
1275.434,1064.57
1276.341,1105.30
1277.248,1043.70
1278.156,1089.43
1279.063,1099.50
1279.969,1059.07
1280.877,1086.67
1281.783,1078.50
1282.690,1084.43
1283.598,1079.17
1284.503,1074.70
1285.409,1107.57
1286.317,1051.80
1287.223,1075.00
1288.128,1081.63
1289.036,1084.63
1289.941,1055.67
1290.846,1064.30
1291.751,1076.97
1292.658,1091.90
1293.563,1061.60
1294.468,1044.67
1295.375,1059.80
1296.280,1028.57
1297.184,1006.53
1298.091,1062.10
1298.995,1026.80
1299.900,1047.90
1300.806,1046.93
1301.710,979.43
1302.614,1040.10
1303.518,1055.80
1304.424,1001.27
1305.327,1015.00
1306.231,1031.30
1307.137,1005.17
1308.040,1004.23
1308.943,1011.90
1309.847,1035.23
1310.752,1002.87
1311.655,1002.60
1312.558,973.70
1313.463,966.03
1314.366,1050.90
1315.269,977.40
1316.171,961.77
1317.076,973.70
1317.978,968.93
1318.881,936.40
1319.785,958.50
1320.687,964.57
1321.589,942.93
1322.491,956.80
1323.395,928.83
1324.297,963.70
1325.198,900.30
1326.102,949.97
1327.004,948.30
1327.905,916.43
1328.806,948.27
1329.709,969.53
1330.611,923.80
1331.512,927.03
1332.413,913.57
1333.316,911.60
1334.216,949.03
1335.117,932.53
1336.020,909.43
1336.920,910.07
1337.821,872.00
1338.721,892.20
1339.623,908.30
1340.523,903.73
1341.423,873.80
1342.323,887.13
1343.225,904.83
1344.125,893.33
1345.025,882.60
1345.924,843.67
1346.826,845.43
1347.725,873.70
1348.624,872.10
1349.524,855.60
1350.425,863.13
1351.324,847.70
1352.223,827.73
1353.121,883.60
1354.022,894.13
1354.921,826.50
1355.819,821.53
1356.718,859.23
1357.618,837.57
1358.516,857.97
1359.415,821.90
1360.313,818.43
1361.213,812.77
1362.111,798.20
1363.008,814.10
1363.906,810.10
1364.806,820.80
1365.703,801.33
1366.601,816.43
1367.498,788.73
1368.397,812.40
1369.295,812.13
1370.192,756.97
1371.089,804.97
1371.987,772.87
1372.884,800.50
1373.781,824.60
1374.678,770.20
1375.574,777.97
1376.473,793.53
1377.369,796.63
1378.265,808.97
1379.161,754.23
1380.059,776.47
1380.955,771.73
1381.851,752.73
1382.747,735.97
1383.643,771.70
1384.540,784.67
1385.436,809.53
1386.331,780.53
1387.227,724.47
1388.124,764.47
1389.019,730.17
1389.914,812.13
1390.809,761.00
1391.704,753.63
1392.601,748.70
1393.495,706.43
1394.390,742.03
1395.285,784.80
1396.179,733.77
1397.075,740.03
1397.969,750.83
1398.864,747.57
1399.758,712.33
1400.652,720.13
1401.547,741.20
1402.441,706.20
1403.335,699.93
1404.229,694.60
1405.122,713.43
1406.017,726.70
1406.911,670.53
1407.804,732.97
1408.697,715.43
1409.590,685.47
1410.485,753.70
1411.378,704.07
1412.271,715.00
1413.163,712.17
1414.056,723.30
1414.949,721.10
1415.843,763.87
1416.735,704.60
1417.627,747.30
1418.520,660.63
1419.412,708.17
1420.306,732.27
1421.197,671.33
1422.089,691.57
1422.981,722.53
1423.873,718.93
1424.764,693.10
1425.657,672.27
1426.549,722.67
1427.440,696.33
1428.331,675.30
1429.222,666.67
1430.113,678.43
1431.006,677.80
1431.897,655.93
1432.787,708.87
1433.678,672.27
1434.568,686.53
1435.459,675.30
1436.351,689.97
1437.241,688.97
1438.131,660.90
1439.021,656.10
1439.911,665.00
1440.801,660.67
1441.693,648.40
1442.583,675.20
1443.472,679.33
1444.362,671.30
1445.251,660.33
1446.140,668.67
1447.030,629.33
1447.921,664.80
1448.810,656.07
1449.699,662.80
1450.588,688.03
1451.476,650.40
1452.365,668.63
1453.254,651.90
1454.144,635.33
1455.032,658.43
1455.921,632.50
1456.809,648.33
1457.697,625.87
1458.585,664.27
1459.473,679.37
1460.361,638.43
1461.251,643.90
1462.138,618.57
1463.026,658.63
1463.913,620.43
1464.801,612.30
1465.688,646.90
1466.575,622.93
1467.463,650.83
1468.351,616.17
1469.238,619.87
1470.125,649.17
1471.012,642.03
1471.899,631.40
1472.785,653.27
1473.672,594.77
1474.558,649.57
1475.446,610.03
1476.333,661.17
1477.219,613.40
1478.105,623.60
1478.991,655.77
1479.877,617.93
1480.762,640.47
1481.648,601.07
1482.534,629.70
1483.419,608.50
1484.307,632.23
1485.192,646.07
1486.077,629.47
1486.962,607.73
1487.847,611.23
1488.732,611.40
1489.617,589.50
1490.502,640.53
1491.387,589.47
1492.271,593.13
1493.156,635.63
1494.042,593.40
1494.927,606.07
1495.811,591.60
1496.695,627.10
1497.579,611.43
1498.463,596.30
1499.347,585.43
1500.231,607.63
1501.114,606.27
1501.998,623.77
1502.881,614.43
1503.765,598.80
1504.648,552.53
1505.533,568.60
1506.417,601.97
1507.300,586.73
1508.183,598.13
1509.066,602.30
1509.948,616.23
1510.831,550.87
1511.714,596.20
1512.596,615.17
1513.479,578.67
1514.361,606.13
1515.243,588.13
1516.125,624.07
1517.008,607.67
1517.890,565.07
1518.771,563.03
1519.655,593.57
1520.537,604.17
1521.419,584.73
1522.300,565.80
1523.182,602.90
1524.063,575.23
1524.944,576.83
1525.825,565.37
1526.707,581.57
1527.588,569.77
1528.468,558.80
1529.349,553.03
1530.230,547.43
1531.111,569.57
1531.991,574.27
1532.872,572.83
1533.752,581.23
1534.632,550.03
1535.513,556.43
1536.393,595.70
1537.273,542.57
1538.153,564.83
1539.032,570.37
1539.912,513.57
1540.792,548.27
1541.672,594.00
1542.551,562.20
1543.430,538.00
1544.310,602.60
1545.189,575.83
1546.068,530.57
1546.947,563.90
1547.826,580.87
1548.705,545.67
1549.584,570.93
1550.462,567.73
1551.341,581.97
1552.219,530.70
1553.098,544.17
1553.976,547.43
1554.854,551.80
1555.733,591.20
1556.611,547.87
1557.489,554.17
1558.367,547.83
1559.244,576.03
1560.122,557.07
1561.000,582.47
1561.877,560.27
1562.755,543.00
1563.632,548.40
1564.509,538.87
1565.386,516.07
1566.264,524.07
1567.141,541.17
1568.017,539.43
1568.894,540.30
1569.771,516.77
1570.648,526.10
1571.524,542.03
1572.401,519.97
1573.277,529.67
1574.153,536.40
1575.029,534.53
1575.906,541.70
1576.781,555.60
1577.657,509.33
1578.533,517.77
1579.409,541.77
1580.285,545.83
1581.160,517.67
1582.036,519.83
1582.911,512.03
1583.786,485.80
1584.662,526.90
1585.537,525.63
1586.412,524.20
1587.287,509.50
1588.160,527.30
1589.035,528.63
1589.909,516.87
1590.784,513.80
1591.658,544.20
1592.533,500.17
1593.407,523.50
1594.281,497.17
1595.155,562.97
1596.029,523.97
1596.903,519.77
1597.777,540.20
1598.651,539.90
1599.525,522.37
1600.398,528.63
1601.272,471.60
1602.144,523.60
1603.017,481.57
1603.890,515.57
1604.763,537.90
1605.636,512.43
1606.509,505.47
1607.382,491.93
1608.255,516.57
1609.128,528.30
1610.000,517.30
1610.873,512.13
1611.746,522.57
1612.616,531.03
1613.488,502.73
1614.361,517.67
1615.233,513.00
1616.105,529.83
1616.977,526.83
1617.849,513.90
1618.720,510.87
1619.592,498.37
1620.464,496.47
1621.333,487.83
1622.205,485.40
1623.076,530.60
1623.947,502.77
1624.818,503.30
1625.689,521.10
1626.560,491.20
1627.431,518.00
1628.302,518.17
1629.171,525.13
1630.042,471.17
1630.912,740.20
1631.782,528.83
1632.653,506.57
1633.523,522.77
1634.393,469.07
1635.263,499.17
1636.131,475.77
1637.001,498.40
1637.871,510.87
1638.741,495.40
1639.611,524.43
1640.480,526.27
1641.350,504.97
1642.219,516.03
1643.087,521.43
1643.956,498.03
1644.825,499.17
1645.694,513.33
1646.563,471.47
1647.432,519.60
1648.299,510.47
1649.167,506.13
1650.036,526.70
1650.904,491.87
1651.773,520.10
1652.641,497.17
1653.509,465.30
1654.376,503.93
1655.244,506.73
1656.112,471.77
1656.980,521.70
1657.847,484.50
1658.715,483.10
1659.581,506.30
1660.448,481.23
1661.316,501.47
1662.183,481.37
1663.051,496.27
1663.918,490.23
1664.783,513.73
1665.650,495.70
1666.517,497.47
1667.384,461.33
1668.251,508.43
1669.115,479.93
1669.982,463.47
1670.849,476.37
1671.715,490.17
1672.581,478.60
1673.446,498.33
1674.312,491.47
1675.178,468.30
1676.044,486.60
1676.910,487.47
1677.774,479.40
1678.639,459.37
1679.505,471.03
1680.370,471.50
1681.236,496.47
1682.099,490.33
1682.965,482.03
1683.830,489.50
1684.695,468.40
1685.560,456.20
1686.423,476.17
1687.288,491.30
1688.153,485.67
1689.017,435.30
1689.880,490.53
1690.745,493.27
1691.609,457.83
1692.473,475.50
1693.338,466.37
1694.200,468.43
1695.064,477.63
1695.928,479.03
1696.792,517.60
1697.654,491.63
1698.517,482.77
1699.381,437.53
1700.245,505.60
1701.106,489.20
1701.969,496.57
1702.833,491.80
1703.696,474.27
1704.557,470.53
1705.420,477.97
1706.283,460.87
1707.146,452.67
1708.007,482.47
1708.870,455.50
1709.732,487.07
1710.595,461.03
1711.455,456.37
1712.318,487.33
1713.180,495.33
1714.040,483.33
1714.902,486.97
1715.764,488.43
1716.626,452.10
1717.486,472.07
1718.348,484.97
1719.209,508.20
1720.071,457.03
1720.930,463.17
1721.792,444.87
1722.653,436.23
1723.512,461.20
1724.374,441.53
1725.234,452.70
1726.095,424.53
1726.954,446.57
1727.815,490.77
1728.676,457.27
1729.535,477.90
1730.395,465.47
1731.256,465.73
1732.114,446.47
1732.974,453.10
1733.834,460.40
1734.693,481.00
1735.553,441.30
1736.413,452.03
1737.272,465.77
1738.130,497.13
1738.990,437.43
1739.849,473.93
1740.707,493.27
1741.566,404.60
1742.426,437.77
1743.283,483.60
1744.142,442.57
1745.001,429.77
1745.858,465.33
1746.717,423.20
1747.576,506.43
1748.433,353.37
1749.292,452.77
1750.150,448.50
1751.007,419.73
1751.865,437.50
1752.723,456.57
1753.579,442.87
1754.438,439.27
1755.296,468.97
1756.152,482.67
1757.010,450.77
1757.865,453.20
1758.723,462.23
1759.581,447.90
1760.436,442.03
1761.294,502.63
1762.151,490.10
1763.006,439.63
1763.864,437.73
1764.721,439.83
1765.576,423.07
1766.433,430.03
1767.288,452.23
1768.144,463.60
1769.001,446.47
1769.856,436.87
1770.712,448.77
1771.568,435.63
1772.423,452.80
1773.279,475.40
1774.133,454.47
1774.989,460.53
1775.845,443.80
1776.699,461.63
1777.555,477.80
1778.409,486.63
1779.265,478.17
1780.120,461.30
1780.974,461.40
1781.829,457.53
1782.682,441.33
1783.538,429.17
1784.393,432.77
1785.246,433.13
1786.101,431.53
1786.954,463.23
1787.808,437.63
1788.661,422.97
1789.516,490.23
1790.370,441.03
1791.223,427.50
1792.077,445.07
1792.930,462.33
1793.784,469.17
1794.636,464.80
1795.490,427.87
1796.344,458.43
1797.196,453.53
1798.049,451.10
1798.901,474.77
1799.755,443.83
1800.606,450.07
1801.460,463.33
1802.311,424.43
1803.165,455.87
1804.018,440.87
1804.869,454.33
1805.722,493.03
1806.573,439.73
1807.426,436.13
1808.276,488.87
1809.129,487.83
1809.980,472.30
1810.832,454.63
1811.683,425.13
1812.535,465.73
1813.385,415.03
1814.237,451.00
1815.089,421.90
1815.940,434.17
1816.791,435.93
1817.641,430.13
1818.493,424.77
1819.343,432.90
1820.194,441.57
1821.044,448.87
1821.895,472.03
1822.745,435.03
1823.596,427.77
1824.445,426.43
1825.296,446.50
1826.145,420.77
1826.996,407.67
1827.845,448.90
1828.695,434.50
1829.544,449.87
1830.395,459.20
1831.243,419.07
1832.094,463.83
1832.942,406.40
1833.792,421.00
1834.640,440.40
1835.490,396.27
1836.338,457.37
1837.186,415.50
1838.036,441.07
1838.884,433.37
1839.733,418.73
1840.581,436.77
1841.430,416.27
1842.278,441.60
1843.127,441.33
1843.974,444.03
1844.823,360.43
1845.671,390.17
1846.519,405.00
1847.366,432.20
1848.213,421.17
1849.062,450.97
1849.909,425.17
1850.757,402.83
1851.604,440.90
1852.452,413.23
1853.298,441.87
1854.146,436.17
1854.993,423.50
1855.839,391.40
1856.687,427.50
1857.532,403.73
1858.380,389.10
1859.226,425.03
1860.073,422.77
1860.919,425.23
1861.765,395.33
1862.612,438.37
1863.457,448.30
1864.304,429.00
1865.150,434.53
1865.995,442.47
1866.842,430.43
1867.686,450.47
1868.533,426.60
1869.378,431.33
1870.223,404.03
1871.069,402.83
1871.914,431.63
1872.760,422.47
1873.604,447.20
1874.448,414.83
1875.294,427.43
1876.139,416.90
1876.984,417.83
1877.828,405.93
1878.672,416.90
1879.518,425.20
1880.361,431.57
1881.205,434.40
1882.050,392.90
1882.894,395.23
1883.739,413.17
1884.582,433.20
1885.425,410.37
1886.270,451.97
1887.113,397.27
1887.956,437.80
1888.801,430.17
1889.644,410.13
1890.486,425.93
1891.331,423.13
1892.173,418.37
1893.017,403.83
1893.860,422.13
1894.702,415.57
1895.546,406.27
1896.388,459.57
1897.230,355.73
1898.074,416.03
1898.916,444.83
1899.757,430.90
1900.601,402.70
1901.443,436.80
1902.284,402.90
1903.125,444.00
1903.969,405.17
1904.810,421.40
1905.651,407.80
1906.494,412.73
1907.335,444.03
1908.176,420.67
1909.018,396.40
1909.859,404.33
1910.700,396.80
1911.542,393.40
1912.383,409.07
1913.223,418.57
1914.064,444.37
1914.906,414.47
1915.746,419.27
1916.586,406.83
1917.428,438.43
1918.268,420.47
1919.107,423.80
1919.947,408.00
1920.789,401.97
1921.628,412.57
1922.468,398.33
1923.309,410.67
1924.148,384.83
1924.988,368.03
1925.827,409.47
1926.667,386.83
1927.507,403.37
1928.345,405.10
1929.184,409.43
1930.025,408.37
1930.864,383.63
1931.702,433.17
1932.541,422.03
1933.381,385.83
1934.219,441.00
1935.057,407.87
1935.896,439.43
1936.735,381.53
1937.573,368.57
1938.411,369.13
1939.249,420.27
1940.089,411.03
1940.927,396.07
1941.764,403.43
1942.602,408.67
1943.439,385.27
1944.278,440.30
1945.115,412.63
1945.953,419.37
1946.790,414.90
1947.628,416.47
1948.465,416.33
1949.302,398.60
1950.139,444.57
1950.976,389.50
1951.814,395.63
1952.651,390.87
1953.487,394.27
1954.323,427.67
1955.160,396.00
1955.998,413.47
1956.834,381.50
1957.670,423.33
1958.506,409.83
1959.342,387.70
1960.177,420.73
1961.015,391.33
1961.850,382.03
1962.686,349.97
1963.521,395.87
1964.357,387.83
1965.192,423.93
1966.029,428.50
1966.864,367.73
1967.699,394.90
1968.534,377.70
1969.369,383.67
1970.204,387.10
1971.040,395.73
1971.875,381.63
1972.709,377.60
1973.544,400.07
1974.378,446.97
1975.212,373.67
1976.047,385.33
1976.882,384.23
1977.716,419.70
1978.550,438.47
1979.384,405.20
1980.218,381.67
1981.052,363.13
1981.885,364.93
1982.719,399.83
1983.554,392.23
1984.388,364.93
1985.221,406.47
1986.054,421.77
1986.887,395.10
1987.720,408.80
1988.553,414.33
1989.386,412.87
1990.219,444.87
1991.053,439.97
1991.886,381.67
1992.719,401.43
1993.551,393.17
1994.383,393.47
1995.216,391.80
1996.048,403.50
1996.880,380.53
1997.712,383.17
1998.544,418.47
1999.376,416.00
2000.208,418.43
2001.040,419.00
2001.873,379.73
2002.705,401.03
2003.536,404.50
2004.367,404.90
2005.199,406.23
2006.030,370.57
2006.861,388.00
2007.692,412.33
2008.523,381.17
2009.354,440.80
2010.185,402.27
2011.016,403.17
2011.846,405.37
2012.677,400.93
2013.507,424.20
2014.338,438.47
2015.168,383.87
2015.999,411.20
2016.829,434.97
2017.659,376.20
2018.489,408.83
2019.319,388.37
2020.149,400.87
2020.980,406.33
2021.810,395.23
2022.639,403.40
2023.469,396.50
2024.298,405.07
2025.128,419.50
2025.957,379.87
2026.786,384.17
2027.615,416.83
2028.444,385.27
2029.273,426.07
2030.102,390.70
2030.931,425.73
2031.758,403.90
2032.586,404.33
2033.415,428.47
2034.243,371.90
2035.072,437.60
2035.900,424.87
2036.728,388.10
2037.556,407.97
2038.385,424.27
2039.213,404.73
2040.040,393.93
2040.868,418.67
2041.696,387.53
2042.524,411.97
2043.351,398.27
2044.179,390.57
2045.006,396.70
2045.006,396.70

Max Intensity Wave.,218.899
Max Intensity Data,6381.23
Min Intensity Wave.,1962.686
Min Intensity Data,349.97
FWHM Wave.,597.052
FWHM Value,35.38
Pressure Wave.,685.402
Pressure Value [GPa],-23.01137
G/D Ratio,0.70013
G/D Gband Wave.,1630.964
G/D Gband Intensity,741.07
G/D Dband Wave.,1303.268
G/D Dband Intensity,1058.47

<< BACKGROUND SPECTRUM >>
Wave[dcm-1],No308
146.591,2237.00
147.626,2086.00
148.664,2062.00
149.699,2572.00
150.737,2275.00
151.772,2391.00
152.809,2408.00
153.846,2268.00
154.881,2389.00
155.918,1995.00
156.953,2315.00
157.989,2600.00
159.026,2464.00
160.060,2658.00
161.096,2850.00
162.130,2490.00
163.167,2596.00
164.200,2449.00
165.236,2669.00
166.272,2696.00
167.305,2288.00
168.341,2565.00
169.374,2782.00
170.409,2779.00
171.445,2737.00
172.477,2500.00
173.512,2434.00
174.545,2664.00
175.580,2843.00
176.614,3050.00
177.647,2828.00
178.681,3056.00
179.713,3413.00
180.747,2826.00
181.781,2744.00
182.813,2973.00
183.847,3109.00
184.878,2775.00
185.912,3008.00
186.945,3128.00
187.976,3070.00
189.010,2763.00
190.043,2850.00
191.073,2936.00
192.106,2748.00
193.137,3197.00
194.170,2558.00
195.202,2957.00
196.232,2701.00
197.265,3004.00
198.297,3058.00
199.327,2776.00
200.359,2963.00
201.388,3382.00
202.420,2913.00
203.452,3108.00
204.481,2717.00
205.512,3335.00
206.544,3105.00
207.573,3066.00
208.604,3401.00
209.635,3539.00
210.663,2962.00
211.694,2998.00
212.725,2896.00
213.753,2835.00
214.783,3406.00
215.813,3257.00
216.841,3012.00
217.871,3181.00
218.899,2915.00
219.929,3137.00
220.959,2875.00
221.986,3181.00
223.016,2794.00
224.045,3162.00
225.072,3138.00
226.101,3210.00
227.130,3243.00
228.157,2848.00
229.185,2357.00
230.214,3225.00
231.241,2812.00
232.269,2475.00
233.297,2700.00
234.323,3254.00
235.351,2847.00
236.379,3117.00
237.407,2779.00
238.433,2964.00
239.460,3201.00
240.488,3126.00
241.513,3206.00
242.540,3162.00
243.568,3212.00
244.592,3210.00
245.619,3236.00
246.646,2960.00
247.671,3004.00
248.697,2841.00
249.724,3021.00
250.748,3021.00
251.774,3008.00
252.801,3325.00
253.827,3126.00
254.850,3138.00
255.876,2683.00
256.902,3137.00
257.925,2998.00
258.951,2764.00
259.976,2808.00
260.999,3122.00
262.024,2818.00
263.049,3652.00
264.074,3101.00
265.097,3016.00
266.122,3081.00
267.146,3064.00
268.168,3237.00
269.193,2898.00
270.217,3213.00
271.241,2690.00
272.263,2881.00
273.287,3166.00
274.311,2796.00
275.332,3319.00
276.356,2880.00
277.379,3135.00
278.402,3129.00
279.424,2957.00
280.447,2930.00
281.470,2761.00
282.492,3075.00
283.513,2947.00
284.536,3178.00
285.558,3176.00
286.581,3142.00
287.601,2851.00
288.623,2847.00
289.645,3124.00
290.665,3088.00
291.687,3125.00
292.709,3131.00
293.730,3390.00
294.750,2912.00
295.771,2777.00
296.792,3031.00
297.813,2974.00
298.832,3024.00
299.853,2780.00
300.874,2994.00
301.895,2983.00
302.913,3020.00
303.934,3280.00
304.954,3049.00
305.975,4321.00
306.993,2774.00
308.013,3161.00
309.033,3065.00
310.052,2951.00
311.072,2902.00
312.090,3076.00
313.109,3299.00
314.129,3422.00
315.148,3027.00
316.165,3076.00
317.184,3252.00
318.203,2811.00
319.222,2757.00
320.238,3183.00
321.257,2817.00
322.275,2725.00
323.294,2978.00
324.312,3190.00
325.328,3322.00
326.346,3347.00
327.364,3258.00
328.382,3181.00
329.397,3120.00
330.415,3244.00
331.432,3251.00
332.450,3273.00
333.467,3474.00
334.482,2589.00
335.499,3357.00
336.516,2911.00
337.533,2634.00
338.547,2873.00
339.564,2842.00
340.580,3122.00
341.597,2994.00
342.613,3369.00
343.627,2986.00
344.643,3024.00
345.659,3177.00
346.675,2984.00
347.690,2898.00
348.704,3132.00
349.719,2901.00
350.735,2775.00
351.750,3224.00
352.765,3012.00
353.778,2981.00
354.793,3199.00
355.808,2839.00
356.822,3245.00
357.837,2697.00
358.851,3282.00
359.864,2979.00
360.878,2727.00
361.892,2962.00
362.906,3214.00
363.920,2613.00
364.932,3135.00
365.945,3107.00
366.959,3036.00
367.972,2961.00
368.986,2726.00
369.999,3391.00
371.010,2859.00
372.023,3401.00
373.036,2998.00
374.049,3436.00
375.061,3059.00
376.072,3046.00
377.084,2859.00
378.097,2764.00
379.109,3208.00
380.121,3027.00
381.133,2668.00
382.143,3158.00
383.155,2757.00
384.166,2945.00
385.178,3170.00
386.189,3233.00
387.201,2728.00
388.212,2951.00
389.221,2971.00
390.232,3068.00
391.243,2943.00
392.254,3052.00
393.264,2874.00
394.275,3294.00
395.283,3172.00
396.294,3662.00
397.304,3496.00
398.314,3109.00
399.324,3017.00
400.334,2676.00
401.344,3128.00
402.351,2709.00
403.361,3255.00
404.370,2963.00
405.380,2917.00
406.389,3384.00
407.398,3166.00
408.407,3135.00
409.414,3162.00
410.423,3371.00
411.431,2821.00
412.440,2693.00
413.448,3359.00
414.457,2893.00
415.465,2834.00
416.471,2899.00
417.479,3014.00
418.487,2839.00
419.495,3326.00
420.503,3121.00
421.510,2646.00
422.518,3169.00
423.525,3199.00
424.530,3436.00
425.537,2886.00
426.544,3284.00
427.551,2906.00
428.558,3578.00
429.565,3500.00
430.571,2884.00
431.578,2917.00
432.582,2909.00
433.588,2960.00
434.595,2652.00
435.601,3305.00
436.607,3270.00
437.612,2782.00
438.618,3405.00
439.624,2984.00
440.627,2967.00
441.633,3145.00
442.638,3629.00
443.643,3115.00
444.648,3012.00
445.653,3227.00
446.658,2894.00
447.663,3050.00
448.667,2919.00
449.672,2933.00
450.674,2999.00
451.678,2752.00
452.682,2904.00
453.687,2874.00
454.690,3635.00
455.694,3259.00
456.698,2620.00
457.702,2705.00
458.705,2816.00
459.709,2843.00
460.710,2915.00
461.713,3077.00
462.716,3066.00
463.719,3037.00
464.722,3242.00
465.725,2994.00
466.727,2871.00
467.730,3084.00
468.732,2766.00
469.735,3324.00
470.737,2944.00
471.737,2875.00
472.739,2921.00
473.741,2844.00
474.742,3101.00
475.744,3101.00
476.746,3047.00
477.747,2946.00
478.748,3208.00
479.750,2943.00
480.751,3022.00
481.752,3731.00
482.753,3157.00
483.751,3561.00
484.752,2631.00
485.753,2981.00
486.753,2831.00
487.753,2994.00
488.754,3435.00
489.754,2742.00
490.754,3347.00
491.754,3159.00
492.754,2709.00
493.753,3034.00
494.753,2932.00
495.752,3334.00
496.752,3006.00
497.749,3014.00
498.748,2877.00
499.747,3420.00
500.746,3128.00
501.745,2797.00
502.744,2757.00
503.742,3327.00
504.741,2957.00
505.739,2492.00
506.737,2911.00
507.735,3151.00
508.734,3414.00
509.732,3151.00
510.729,3325.00
511.727,2918.00
512.725,2910.00
513.720,2773.00
514.718,3267.00
515.715,2714.00
516.712,2621.00
517.709,2997.00
518.706,2911.00
519.703,3110.00
520.700,3212.00
521.696,3390.00
522.693,2939.00
523.689,2866.00
524.686,3161.00
525.682,2836.00
526.678,3500.00
527.674,2943.00
528.670,2584.00
529.666,3486.00
530.661,3504.00
531.657,3696.00
532.652,3130.00
533.648,3017.00
534.641,3240.00
535.636,3100.00
536.631,3124.00
537.626,3149.00
538.621,2778.00
539.616,2636.00
540.610,2536.00
541.605,3024.00
542.599,3050.00
543.593,2996.00
544.587,3961.00
545.581,2841.00
546.575,3041.00
547.569,3049.00
548.563,2660.00
549.557,2659.00
550.550,2778.00
551.543,2771.00
552.537,3183.00
553.530,2813.00
554.523,2794.00
555.516,3148.00
556.509,2962.00
557.502,2639.00
558.494,3190.00
559.487,2901.00
560.479,3172.00
561.472,3261.00
562.464,3127.00
563.456,3325.00
564.448,2962.00
565.440,3008.00
566.432,3410.00
567.423,2919.00
568.415,2935.00
569.404,3116.00
570.396,2837.00
571.387,3149.00
572.378,3042.00
573.369,3970.00
574.360,3725.00
575.351,2955.00
576.341,2870.00
577.332,2897.00
578.323,2713.00
579.313,2935.00
580.303,3262.00
581.293,3104.00
582.283,2967.00
583.273,3127.00
584.263,3022.00
585.253,3124.00
586.243,3193.00
587.232,2682.00
588.222,3026.00
589.211,3188.00
590.200,3077.00
591.189,2959.00
592.178,2936.00
593.167,3445.00
594.156,3312.00
595.145,2930.00
596.133,3483.00
597.122,3145.00
598.110,3231.00
599.098,3065.00
600.086,3017.00
601.074,3158.00
602.062,2827.00
603.050,2755.00
604.038,3138.00
605.025,2830.00
606.013,3208.00
607.000,3386.00
607.987,3038.00
608.975,3045.00
609.962,2781.00
610.949,3144.00
611.936,3276.00
612.922,3180.00
613.909,2695.00
614.895,3382.00
615.882,2832.00
616.868,2960.00
617.854,2772.00
618.841,3051.00
619.826,3125.00
620.812,3000.00
621.798,2809.00
622.784,3209.00
623.769,3106.00
624.755,2703.00
625.740,3044.00
626.725,2738.00
627.711,2831.00
628.698,3061.00
629.683,2803.00
630.667,3188.00
631.652,2764.00
632.637,2962.00
633.621,3178.00
634.606,2966.00
635.590,3157.00
636.574,2953.00
637.558,3105.00
638.542,3061.00
639.526,2856.00
640.510,2686.00
641.493,3074.00
642.477,3023.00
643.460,2686.00
644.444,3268.00
645.427,3252.00
646.410,2700.00
647.393,2970.00
648.376,3081.00
649.359,2888.00
650.341,3097.00
651.324,3136.00
652.307,3068.00
653.289,2967.00
654.271,2864.00
655.253,2895.00
656.235,3132.00
657.217,3229.00
658.199,2626.00
659.181,2717.00
660.163,2995.00
661.144,2904.00
662.126,2891.00
663.107,2781.00
664.088,6203.00
665.069,3258.00
666.050,2796.00
667.033,2731.00
668.014,3083.00
668.995,2583.00
669.975,3020.00
670.956,2980.00
671.936,3178.00
672.916,3002.00
673.896,3123.00
674.876,2940.00
675.856,2857.00
676.836,2748.00
677.816,2340.00
678.795,2830.00
679.775,2696.00
680.754,3063.00
681.734,3136.00
682.713,3197.00
683.692,2821.00
684.671,2668.00
685.650,2754.00
686.629,2881.00
687.607,2774.00
688.586,2786.00
689.564,2868.00
690.543,3265.00
691.523,2414.00
692.501,2860.00
693.479,2961.00
694.457,2821.00
695.435,2871.00
696.413,2696.00
697.390,2508.00
698.368,2703.00
699.345,3087.00
700.322,2938.00
701.300,3096.00
702.277,3052.00
703.254,3263.00
704.231,2575.00
705.207,2972.00
706.184,2776.00
707.161,2657.00
708.137,2822.00
709.113,2807.00
710.090,2804.00
711.068,2596.00
712.044,2638.00
713.020,2925.00
713.996,2647.00
714.971,2820.00
715.947,2848.00
716.922,2820.00
717.898,2742.00
718.873,2914.00
719.848,2724.00
720.823,2689.00
721.798,3005.00
722.773,2784.00
723.748,2569.00
724.723,3044.00
725.697,2855.00
726.672,2758.00
727.646,2520.00
728.622,2967.00
729.596,2601.00
730.570,2803.00
731.544,3085.00
732.518,3264.00
733.492,2827.00
734.466,2890.00
735.439,2999.00
736.413,3122.00
737.386,2512.00
738.359,2447.00
739.332,2525.00
740.305,2855.00
741.278,3324.00
742.251,2904.00
743.224,2746.00
744.196,2563.00
745.171,3178.00
746.143,3052.00
747.115,2756.00
748.087,2720.00
749.059,3079.00
750.031,2940.00
751.003,3721.00
751.975,3264.00
752.947,2720.00
753.918,3123.00
754.890,2620.00
755.861,2798.00
756.832,3076.00
757.803,2836.00
758.774,2863.00
759.747,2604.00
760.718,3201.00
761.689,2756.00
762.659,2600.00
763.630,3171.00
764.600,2564.00
765.570,3047.00
766.540,3152.00
767.510,2981.00
768.480,3047.00
769.450,2701.00
770.420,2854.00
771.390,2652.00
772.359,2734.00
773.329,2670.00
774.300,2523.00
775.269,2736.00
776.238,3053.00
777.207,3144.00
778.176,2496.00
779.145,2782.00
780.114,2689.00
781.083,2579.00
782.051,2753.00
783.019,2677.00
783.988,3040.00
784.956,2827.00
785.924,2986.00
786.894,2903.00
787.862,2755.00
788.830,3165.00
789.797,2631.00
790.765,2584.00
791.732,2763.00
792.700,2639.00
793.667,2598.00
794.634,2758.00
795.601,2756.00
796.568,2807.00
797.535,2827.00
798.502,3472.00
799.468,2872.00
800.437,2381.00
801.403,2667.00
802.370,3267.00
803.336,3012.00
804.302,2877.00
805.268,2395.00
806.234,2542.00
807.200,2719.00
808.166,2784.00
809.131,2566.00
810.097,2954.00
811.062,3652.00
812.027,3030.00
812.994,2604.00
813.960,2640.00
814.925,2957.00
815.889,2520.00
816.854,3044.00
817.819,2632.00
818.783,2749.00
819.748,3111.00
820.712,2724.00
821.677,2697.00
822.641,2688.00
823.605,2735.00
824.571,3135.00
825.534,2728.00
826.498,2679.00
827.462,2812.00
828.425,2602.00
829.389,3043.00
830.352,2845.00
831.315,2902.00
832.279,2532.00
833.242,2744.00
834.204,2659.00
835.167,2663.00
836.132,3021.00
837.095,2540.00
838.057,2668.00
839.020,2847.00
839.982,2891.00
840.944,2719.00
841.906,2636.00
842.868,2961.00
843.830,2575.00
844.792,3047.00
845.753,2675.00
846.715,2452.00
847.679,2599.00
848.640,2615.00
849.601,2743.00
850.562,3243.00
851.523,2684.00
852.484,2510.00
853.445,2975.00
854.406,2698.00
855.367,2719.00
856.327,3068.00
857.288,2477.00
858.248,2707.00
859.210,2684.00
860.170,2543.00
861.130,2996.00
862.090,2411.00
863.050,2583.00
864.010,2708.00
864.969,2935.00
865.929,2648.00
866.888,2534.00
867.848,2823.00
868.807,2696.00
869.766,2822.00
870.727,2776.00
871.686,2996.00
872.645,3006.00
873.604,3276.00
874.562,2776.00
875.521,2797.00
876.479,3385.00
877.437,2584.00
878.396,2588.00
879.354,3229.00
880.312,2591.00
881.270,2658.00
882.229,3085.00
883.187,2604.00
884.145,2662.00
885.102,2910.00
886.059,2856.00
887.017,2910.00
887.974,3017.00
888.931,3080.00
889.888,2509.00
890.845,2444.00
891.802,2368.00
892.758,2670.00
893.717,2417.00
894.673,2539.00
895.630,2641.00
896.586,2876.00
897.542,2664.00
898.498,2534.00
899.454,2826.00
900.410,2670.00
901.366,2665.00
902.321,2613.00
903.277,2664.00
904.232,2717.00
905.189,2460.00
906.145,2666.00
907.100,2234.00
908.055,2721.00
909.010,2919.00
909.965,2321.00
910.919,2816.00
911.874,2573.00
912.828,2766.00
913.783,2806.00
914.737,2338.00
915.693,2765.00
916.648,2915.00
917.602,2960.00
918.555,2797.00
919.509,2833.00
920.463,2707.00
921.417,2774.00
922.370,2592.00
923.324,2694.00
924.277,2671.00
925.230,2786.00
926.183,2440.00
927.138,2716.00
928.091,2972.00
929.044,2791.00
929.996,2633.00
930.949,2649.00
931.902,2845.00
932.854,2833.00
933.806,2551.00
934.758,2966.00
935.711,2983.00
936.663,2802.00
937.614,2791.00
938.568,2726.00
939.520,2416.00
940.471,2731.00
941.423,2817.00
942.374,2934.00
943.326,2781.00
944.277,2585.00
945.228,2855.00
946.179,2714.00
947.130,3064.00
948.080,2655.00
949.031,2579.00
949.984,2679.00
950.934,2700.00
951.884,2456.00
952.835,2771.00
953.785,2790.00
954.735,2618.00
955.685,2353.00
956.635,2660.00
957.585,2630.00
958.534,2632.00
959.484,2732.00
960.433,2635.00
961.383,2460.00
962.334,3013.00
963.283,2772.00
964.232,2860.00
965.181,2759.00
966.130,2757.00
967.079,2594.00
968.027,2733.00
968.976,2697.00
969.924,2611.00
970.873,2814.00
971.821,2733.00
972.769,2927.00
973.719,2862.00
974.667,2454.00
975.615,2760.00
976.562,2718.00
977.510,2411.00
978.458,2585.00
979.405,2832.00
980.352,2752.00
981.300,2956.00
982.247,2811.00
983.194,2515.00
984.141,2608.00
985.088,2748.00
986.036,2773.00
986.983,3043.00
987.930,3107.00
988.876,2389.00
989.822,2965.00
990.769,2550.00
991.715,2595.00
992.661,2443.00
993.607,2802.00
994.553,3278.00
995.498,2577.00
996.444,2294.00
997.389,2759.00
998.337,2520.00
999.282,2877.00
1000.227,2674.00
1001.173,2740.00
1002.118,2443.00
1003.062,2901.00
1004.007,2679.00
1004.952,2996.00
1005.897,2893.00
1006.841,2711.00
1007.786,2467.00
1008.730,2466.00
1009.674,3161.00
1010.618,2651.00
1011.564,2542.00
1012.508,2391.00
1013.452,2957.00
1014.396,2731.00
1015.339,2591.00
1016.283,2693.00
1017.226,2754.00
1018.170,2714.00
1019.113,2891.00
1020.056,2747.00
1020.999,2730.00
1021.942,2584.00
1022.885,2865.00
1023.828,2979.00
1024.770,2519.00
1025.715,2757.00
1026.657,2661.00
1027.600,2747.00
1028.542,2926.00
1029.484,2759.00
1030.426,2863.00
1031.368,2774.00
1032.310,2558.00
1033.251,2545.00
1034.193,2690.00
1035.135,2495.00
1036.076,2629.00
1037.017,2560.00
1037.959,2859.00
1038.900,2817.00
1039.843,2774.00
1040.784,2758.00
1041.725,2832.00
1042.665,2610.00
1043.606,2762.00
1044.547,2769.00
1045.487,2393.00
1046.427,2648.00
1047.368,2781.00
1048.308,2261.00
1049.248,2522.00
1050.188,2707.00
1051.128,2625.00
1052.067,2699.00
1053.007,2375.00
1053.947,2401.00
1054.886,2578.00
1055.827,2506.00
1056.766,2867.00
1057.706,2479.00
1058.645,2674.00
1059.584,2733.00
1060.522,3008.00
1061.461,2454.00
1062.400,2483.00
1063.338,2661.00
1064.277,2487.00
1065.215,2528.00
1066.154,2424.00
1067.092,2578.00
1068.030,2666.00
1068.968,2826.00
1069.906,3057.00
1070.843,2960.00
1071.781,2744.00
1072.720,2788.00
1073.658,2808.00
1074.595,2638.00
1075.533,2528.00
1076.470,2600.00
1077.407,2968.00
1078.344,2765.00
1079.281,2805.00
1080.217,2344.00
1081.154,2713.00
1082.091,2744.00
1083.027,2438.00
1083.964,2938.00
1084.900,2585.00
1085.836,2618.00
1086.772,2896.00
1087.708,2453.00
1088.644,2837.00
1089.580,2711.00
1090.515,2716.00
1091.451,2612.00
1092.388,2706.00
1093.324,2462.00
1094.259,3227.00
1095.194,2761.00
1096.129,2625.00
1097.064,2588.00
1097.999,2828.00
1098.934,2558.00
1099.869,2563.00
1100.803,2719.00
1101.738,2712.00
1102.672,2381.00
1103.607,2812.00
1104.541,2562.00
1105.475,2526.00
1106.409,2429.00
1107.343,2603.00
1108.277,2440.00
1109.210,2688.00
1110.144,2688.00
1111.078,2666.00
1112.011,2454.00
1112.944,2792.00
1113.878,2737.00
1114.811,2165.00
1115.744,2573.00
1116.678,2336.00
1117.611,2577.00
1118.544,2567.00
1119.477,2762.00
1120.409,2538.00
1121.342,3136.00
1122.274,2727.00
1123.206,3066.00
1124.138,2708.00
1125.070,3000.00
1126.002,2832.00
1126.934,2267.00
1127.866,2581.00
1128.798,2313.00
1129.729,2389.00
1130.661,2613.00
1131.592,2546.00
1132.523,2722.00
1133.454,2746.00
1134.385,2295.00
1135.317,2663.00
1136.247,2585.00
1137.178,2893.00
1138.109,2369.00
1139.039,3027.00
1139.970,2786.00
1140.900,2547.00
1141.831,2367.00
1142.761,2219.00
1143.691,3290.00
1144.621,2652.00
1145.551,2675.00
1146.480,2667.00
1147.410,2811.00
1148.340,2284.00
1149.269,2368.00
1150.199,2563.00
1151.128,3058.00
1152.057,2458.00
1152.979,2581.00
1153.898,2592.00
1154.819,2723.00
1155.739,2616.00
1156.658,2565.00
1157.579,2687.00
1158.498,2624.00
1159.419,2195.00
1160.338,2673.00
1161.256,2690.00
1162.177,2515.00
1163.095,2640.00
1164.016,2686.00
1164.934,2887.00
1165.852,2816.00
1166.772,2635.00
1167.690,2668.00
1168.610,2696.00
1169.528,2635.00
1170.446,2212.00
1171.365,2579.00
1172.283,2516.00
1173.202,2664.00
1174.120,2654.00
1175.037,2505.00
1175.956,2458.00
1176.873,2521.00
1177.792,2541.00
1178.709,3105.00
1179.626,2527.00
1180.544,2845.00
1181.461,2522.00
1182.379,2727.00
1183.296,2627.00
1184.212,2283.00
1185.130,2459.00
1186.046,2972.00
1186.962,2662.00
1187.880,2883.00
1188.796,2691.00
1189.714,2418.00
1190.629,2776.00
1191.545,2736.00
1192.462,2530.00
1193.378,2607.00
1194.295,2348.00
1195.210,2641.00
1196.125,2768.00
1197.042,2737.00
1197.957,2663.00
1198.872,2509.00
1199.788,2567.00
1200.703,2961.00
1201.619,2651.00
1202.534,2499.00
1203.448,2715.00
1204.364,2562.00
1205.278,2327.00
1206.192,2675.00
1207.108,3130.00
1208.022,2951.00
1208.938,2508.00
1209.851,2791.00
1210.765,2887.00
1211.680,2560.00
1212.594,2406.00
1213.507,2560.00
1214.422,3019.00
1215.335,2731.00
1216.248,2544.00
1217.163,2644.00
1218.076,3253.00
1218.990,2767.00
1219.903,2406.00
1220.816,2469.00
1221.730,2593.00
1222.642,2486.00
1223.554,2551.00
1224.469,2733.00
1225.380,2574.00
1226.292,2283.00
1227.206,2772.00
1228.118,2946.00
1229.032,2275.00
1229.943,2557.00
1230.855,2574.00
1231.768,2372.00
1232.679,2733.00
1233.590,2578.00
1234.503,2819.00
1235.414,2460.00
1236.325,2501.00
1237.238,2687.00
1238.149,2692.00
1239.059,2486.00
1239.972,2776.00
1240.882,2454.00
1241.793,2758.00
1242.705,2945.00
1243.615,2552.00
1244.525,2700.00
1245.437,2204.00
1246.347,2688.00
1247.259,2790.00
1248.168,3065.00
1249.078,2896.00
1249.989,2909.00
1250.899,2436.00
1251.808,2496.00
1252.719,2563.00
1253.628,2493.00
1254.537,2995.00
1255.448,2457.00
1256.357,2412.00
1257.266,2623.00
1258.176,2358.00
1259.085,2326.00
1259.993,2431.00
1260.904,2489.00
1261.812,2459.00
1262.720,3236.00
1263.630,2792.00
1264.538,2470.00
1265.446,2738.00
1266.356,2631.00
1267.263,2893.00
1268.171,2437.00
1269.080,2672.00
1269.988,2804.00
1270.895,2559.00
1271.804,2599.00
1272.711,2806.00
1273.619,2796.00
1274.527,2480.00
1275.434,2762.00
1276.341,2414.00
1277.248,2692.00
1278.156,2892.00
1279.063,2477.00
1279.969,2740.00
1280.877,3505.00
1281.783,2828.00
1282.690,2684.00
1283.598,2583.00
1284.503,2484.00
1285.409,2435.00
1286.317,3008.00
1287.223,3013.00
1288.128,2666.00
1289.036,2504.00
1289.941,2571.00
1290.846,2640.00
1291.751,2443.00
1292.658,2492.00
1293.563,3056.00
1294.468,2651.00
1295.375,2773.00
1296.280,2879.00
1297.184,3364.00
1298.091,2700.00
1298.995,2798.00
1299.900,2991.00
1300.806,2519.00
1301.710,2440.00
1302.614,2200.00
1303.518,2845.00
1304.424,2587.00
1305.327,2827.00
1306.231,2605.00
1307.137,2780.00
1308.040,2683.00
1308.943,2646.00
1309.847,2802.00
1310.752,2818.00
1311.655,2281.00
1312.558,2430.00
1313.463,2585.00
1314.366,2449.00
1315.269,2685.00
1316.171,2626.00
1317.076,2521.00
1317.978,2435.00
1318.881,2270.00
1319.785,2498.00
1320.687,2492.00
1321.589,2255.00
1322.491,2462.00
1323.395,2724.00
1324.297,3180.00
1325.198,2797.00
1326.102,2442.00
1327.004,2452.00
1327.905,3037.00
1328.806,2588.00
1329.709,2659.00
1330.611,2565.00
1331.512,2449.00
1332.413,3102.00
1333.316,2688.00
1334.216,2779.00
1335.117,2351.00
1336.020,2670.00
1336.920,2629.00
1337.821,2521.00
1338.721,2899.00
1339.623,2679.00
1340.523,2581.00
1341.423,2510.00
1342.323,2894.00
1343.225,2702.00
1344.125,2446.00
1345.025,2499.00
1345.924,2325.00
1346.826,2989.00
1347.725,3029.00
1348.624,2852.00
1349.524,2494.00
1350.425,2575.00
1351.324,2723.00
1352.223,2826.00
1353.121,2585.00
1354.022,2773.00
1354.921,3035.00
1355.819,2766.00
1356.718,2657.00
1357.618,2383.00
1358.516,2715.00
1359.415,3027.00
1360.313,2729.00
1361.213,2591.00
1362.111,2923.00
1363.008,3275.00
1363.906,2618.00
1364.806,2634.00
1365.703,2734.00
1366.601,2451.00
1367.498,2466.00
1368.397,2804.00
1369.295,2681.00
1370.192,2504.00
1371.089,2711.00
1371.987,2644.00
1372.884,2876.00
1373.781,2395.00
1374.678,2649.00
1375.574,2466.00
1376.473,2737.00
1377.369,2845.00
1378.265,2443.00
1379.161,2611.00
1380.059,2329.00
1380.955,2743.00
1381.851,2411.00
1382.747,2543.00
1383.643,2559.00
1384.540,2411.00
1385.436,2467.00
1386.331,2674.00
1387.227,2810.00
1388.124,2730.00
1389.019,2458.00
1389.914,2547.00
1390.809,2257.00
1391.704,3040.00
1392.601,2532.00
1393.495,2937.00
1394.390,2795.00
1395.285,2827.00
1396.179,2709.00
1397.075,2581.00
1397.969,2678.00
1398.864,2307.00
1399.758,2591.00
1400.652,2670.00
1401.547,2431.00
1402.441,2425.00
1403.335,2994.00
1404.229,2695.00
1405.122,2717.00
1406.017,2614.00
1406.911,2819.00
1407.804,3029.00
1408.697,2615.00
1409.590,2482.00
1410.485,2784.00
1411.378,2694.00
1412.271,2338.00
1413.163,2694.00
1414.056,2765.00
1414.949,3001.00
1415.843,2624.00
1416.735,2585.00
1417.627,2601.00
1418.520,2642.00
1419.412,2847.00
1420.306,2764.00
1421.197,2938.00
1422.089,2859.00
1422.981,3061.00
1423.873,2786.00
1424.764,2745.00
1425.657,2688.00
1426.549,2750.00
1427.440,2831.00
1428.331,2553.00
1429.222,2342.00
1430.113,2685.00
1431.006,2821.00
1431.897,2575.00
1432.787,2630.00
1433.678,2572.00
1434.568,2450.00
1435.459,2867.00
1436.351,2794.00
1437.241,2772.00
1438.131,2804.00
1439.021,2432.00
1439.911,2618.00
1440.801,2713.00
1441.693,2888.00
1442.583,2645.00
1443.472,2632.00
1444.362,2744.00
1445.251,2599.00
1446.140,2557.00
1447.030,2866.00
1447.921,2836.00
1448.810,2476.00
1449.699,3002.00
1450.588,2646.00
1451.476,2557.00
1452.365,2744.00
1453.254,2552.00
1454.144,2545.00
1455.032,2781.00
1455.921,2403.00
1456.809,2936.00
1457.697,2473.00
1458.585,2566.00
1459.473,2551.00
1460.361,2490.00
1461.251,2717.00
1462.138,2734.00
1463.026,2588.00
1463.913,2906.00
1464.801,2588.00
1465.688,2731.00
1466.575,2673.00
1467.463,3088.00
1468.351,2529.00
1469.238,2636.00
1470.125,2239.00
1471.012,2686.00
1471.899,2725.00
1472.785,2446.00
1473.672,2684.00
1474.558,2858.00
1475.446,2817.00
1476.333,2766.00
1477.219,2476.00
1478.105,2617.00
1478.991,2569.00
1479.877,2942.00
1480.762,2628.00
1481.648,2533.00
1482.534,2767.00
1483.419,2714.00
1484.307,2752.00
1485.192,2596.00
1486.077,2491.00
1486.962,2523.00
1487.847,2404.00
1488.732,2493.00
1489.617,2676.00
1490.502,2886.00
1491.387,2802.00
1492.271,2504.00
1493.156,2471.00
1494.042,2464.00
1494.927,2853.00
1495.811,2556.00
1496.695,2769.00
1497.579,2919.00
1498.463,2661.00
1499.347,2714.00
1500.231,2677.00
1501.114,2711.00
1501.998,2891.00
1502.881,2674.00
1503.765,2941.00
1504.648,3091.00
1505.533,2795.00
1506.417,2650.00
1507.300,2624.00
1508.183,2731.00
1509.066,2138.00
1509.948,2867.00
1510.831,3037.00
1511.714,2429.00
1512.596,2758.00
1513.479,2900.00
1514.361,2850.00
1515.243,2686.00
1516.125,2783.00
1517.008,2892.00
1517.890,2641.00
1518.771,2697.00
1519.655,2860.00
1520.537,2587.00
1521.419,2488.00
1522.300,2714.00
1523.182,2771.00
1524.063,2800.00
1524.944,2943.00
1525.825,2865.00
1526.707,2472.00
1527.588,2443.00
1528.468,2740.00
1529.349,2351.00
1530.230,2607.00
1531.111,2853.00
1531.991,2699.00
1532.872,2373.00
1533.752,2611.00
1534.632,2546.00
1535.513,2538.00
1536.393,2782.00
1537.273,2983.00
1538.153,3310.00
1539.032,2409.00
1539.912,2685.00
1540.792,2684.00
1541.672,2626.00
1542.551,2773.00
1543.430,3287.00
1544.310,2639.00
1545.189,2537.00
1546.068,3108.00
1546.947,2771.00
1547.826,2955.00
1548.705,2675.00
1549.584,2879.00
1550.462,2604.00
1551.341,2799.00
1552.219,2751.00
1553.098,2822.00
1553.976,2883.00
1554.854,3077.00
1555.733,2830.00
1556.611,2618.00
1557.489,2468.00
1558.367,2671.00
1559.244,2806.00
1560.122,2645.00
1561.000,2701.00
1561.877,2956.00
1562.755,2542.00
1563.632,2636.00
1564.509,2938.00
1565.386,3062.00
1566.264,2456.00
1567.141,2304.00
1568.017,2825.00
1568.894,2652.00
1569.771,2740.00
1570.648,2793.00
1571.524,2684.00
1572.401,2447.00
1573.277,2473.00
1574.153,2716.00
1575.029,2530.00
1575.906,3377.00
1576.781,2822.00
1577.657,2631.00
1578.533,2920.00
1579.409,2301.00
1580.285,2631.00
1581.160,3105.00
1582.036,2851.00
1582.911,2521.00
1583.786,3042.00
1584.662,2490.00
1585.537,2642.00
1586.412,2719.00
1587.287,2531.00
1588.160,2845.00
1589.035,2324.00
1589.909,2705.00
1590.784,2654.00
1591.658,2459.00
1592.533,2755.00
1593.407,2689.00
1594.281,2595.00
1595.155,3041.00
1596.029,2586.00
1596.903,2622.00
1597.777,2583.00
1598.651,2911.00
1599.525,2382.00
1600.398,2692.00
1601.272,2677.00
1602.144,3214.00
1603.017,2658.00
1603.890,2921.00
1604.763,2752.00
1605.636,2831.00
1606.509,2404.00
1607.382,2533.00
1608.255,2747.00
1609.128,2892.00
1610.000,2639.00
1610.873,2392.00
1611.746,2562.00
1612.616,2594.00
1613.488,2276.00
1614.361,2674.00
1615.233,2628.00
1616.105,2872.00
1616.977,2588.00
1617.849,2501.00
1618.720,2985.00
1619.592,3004.00
1620.464,2773.00
1621.333,3144.00
1622.205,2703.00
1623.076,2643.00
1623.947,2665.00
1624.818,2918.00
1625.689,2777.00
1626.560,2602.00
1627.431,2714.00
1628.302,3046.00
1629.171,2788.00
1630.042,3030.00
1630.912,3321.00
1631.782,3228.00
1632.653,2497.00
1633.523,2816.00
1634.393,2957.00
1635.263,2562.00
1636.131,2685.00
1637.001,2602.00
1637.871,2305.00
1638.741,2330.00
1639.611,2396.00
1640.480,2775.00
1641.350,2541.00
1642.219,2506.00
1643.087,2160.00
1643.956,3105.00
1644.825,2926.00
1645.694,2874.00
1646.563,2868.00
1647.432,2708.00
1648.299,2695.00
1649.167,2805.00
1650.036,2465.00
1650.904,2908.00
1651.773,2884.00
1652.641,2711.00
1653.509,2915.00
1654.376,2538.00
1655.244,2716.00
1656.112,2753.00
1656.980,2671.00
1657.847,2554.00
1658.715,2852.00
1659.581,2577.00
1660.448,2927.00
1661.316,2191.00
1662.183,2725.00
1663.051,2725.00
1663.918,2702.00
1664.783,2674.00
1665.650,2771.00
1666.517,2843.00
1667.384,2731.00
1668.251,2700.00
1669.115,2900.00
1669.982,2667.00
1670.849,2974.00
1671.715,2666.00
1672.581,2844.00
1673.446,2777.00
1674.312,2694.00
1675.178,3092.00
1676.044,2760.00
1676.910,2761.00
1677.774,2726.00
1678.639,2356.00
1679.505,2688.00
1680.370,2825.00
1681.236,3314.00
1682.099,2628.00
1682.965,2713.00
1683.830,2284.00
1684.695,2526.00
1685.560,2636.00
1686.423,2837.00
1687.288,2806.00
1688.153,2724.00
1689.017,2665.00
1689.880,2753.00
1690.745,2827.00
1691.609,2553.00
1692.473,2844.00
1693.338,2926.00
1694.200,2962.00
1695.064,2690.00
1695.928,2591.00
1696.792,2661.00
1697.654,3173.00
1698.517,2717.00
1699.381,2476.00
1700.245,2322.00
1701.106,2974.00
1701.969,2570.00
1702.833,2819.00
1703.696,2601.00
1704.557,2656.00
1705.420,2552.00
1706.283,2720.00
1707.146,2843.00
1708.007,2494.00
1708.870,2505.00
1709.732,2364.00
1710.595,2584.00
1711.455,2479.00
1712.318,2592.00
1713.180,2934.00
1714.040,2728.00
1714.902,2849.00
1715.764,2683.00
1716.626,2501.00
1717.486,2657.00
1718.348,2941.00
1719.209,4711.00
1720.071,2359.00
1720.930,2450.00
1721.792,2558.00
1722.653,2586.00
1723.512,2595.00
1724.374,2666.00
1725.234,2760.00
1726.095,2756.00
1726.954,2717.00
1727.815,2795.00
1728.676,2704.00
1729.535,2900.00
1730.395,2669.00
1731.256,2603.00
1732.114,2755.00
1732.974,2193.00
1733.834,3060.00
1734.693,2846.00
1735.553,2730.00
1736.413,3122.00
1737.272,2578.00
1738.130,2600.00
1738.990,2800.00
1739.849,2592.00
1740.707,3652.00
1741.566,2784.00
1742.426,2761.00
1743.283,3081.00
1744.142,2601.00
1745.001,2389.00
1745.858,2852.00
1746.717,2790.00
1747.576,2754.00
1748.433,2962.00
1749.292,3270.00
1750.150,3333.00
1751.007,2917.00
1751.865,2924.00
1752.723,2721.00
1753.579,2637.00
1754.438,2938.00
1755.296,2898.00
1756.152,2252.00
1757.010,2387.00
1757.865,2903.00
1758.723,2361.00
1759.581,3020.00
1760.436,2680.00
1761.294,3018.00
1762.151,2651.00
1763.006,2635.00
1763.864,2364.00
1764.721,2909.00
1765.576,2757.00
1766.433,2870.00
1767.288,2606.00
1768.144,2732.00
1769.001,2663.00
1769.856,2795.00
1770.712,2917.00
1771.568,2513.00
1772.423,2609.00
1773.279,2598.00
1774.133,2599.00
1774.989,3091.00
1775.845,3099.00
1776.699,2938.00
1777.555,2660.00
1778.409,3207.00
1779.265,2626.00
1780.120,2650.00
1780.974,2672.00
1781.829,2301.00
1782.682,2763.00
1783.538,2544.00
1784.393,2765.00
1785.246,2608.00
1786.101,2826.00
1786.954,2823.00
1787.808,2925.00
1788.661,2463.00
1789.516,2588.00
1790.370,2637.00
1791.223,2915.00
1792.077,2698.00
1792.930,2767.00
1793.784,2565.00
1794.636,2699.00
1795.490,2687.00
1796.344,2717.00
1797.196,2687.00
1798.049,2862.00
1798.901,2562.00
1799.755,2935.00
1800.606,2499.00
1801.460,3211.00
1802.311,3028.00
1803.165,3101.00
1804.018,3059.00
1804.869,2775.00
1805.722,3119.00
1806.573,2748.00
1807.426,2546.00
1808.276,2655.00
1809.129,2570.00
1809.980,2886.00
1810.832,2984.00
1811.683,2636.00
1812.535,3018.00
1813.385,2661.00
1814.237,2980.00
1815.089,2768.00
1815.940,2993.00
1816.791,2652.00
1817.641,2586.00
1818.493,2881.00
1819.343,2793.00
1820.194,2583.00
1821.044,2801.00
1821.895,2897.00
1822.745,2439.00
1823.596,2602.00
1824.445,3131.00
1825.296,2815.00
1826.145,2698.00
1826.996,2931.00
1827.845,2740.00
1828.695,2787.00
1829.544,2687.00
1830.395,2729.00
1831.243,2654.00
1832.094,2432.00
1832.942,3346.00
1833.792,2843.00
1834.640,2770.00
1835.490,2769.00
1836.338,2752.00
1837.186,2624.00
1838.036,2566.00
1838.884,2709.00
1839.733,3062.00
1840.581,2892.00
1841.430,2861.00
1842.278,3036.00
1843.127,2598.00
1843.974,2389.00
1844.823,3205.00
1845.671,2910.00
1846.519,2761.00
1847.366,2776.00
1848.213,2362.00
1849.062,2514.00
1849.909,2460.00
1850.757,3382.00
1851.604,2812.00
1852.452,2653.00
1853.298,2901.00
1854.146,2757.00
1854.993,2757.00
1855.839,3272.00
1856.687,2847.00
1857.532,2862.00
1858.380,2767.00
1859.226,2790.00
1860.073,2848.00
1860.919,2558.00
1861.765,2633.00
1862.612,2950.00
1863.457,2917.00
1864.304,2676.00
1865.150,2832.00
1865.995,2687.00
1866.842,2837.00
1867.686,2934.00
1868.533,2800.00
1869.378,2772.00
1870.223,2771.00
1871.069,2639.00
1871.914,2729.00
1872.760,2708.00
1873.604,2497.00
1874.448,2879.00
1875.294,2898.00
1876.139,2599.00
1876.984,2856.00
1877.828,2402.00
1878.672,2254.00
1879.518,2604.00
1880.361,2903.00
1881.205,2861.00
1882.050,2565.00
1882.894,3253.00
1883.739,2608.00
1884.582,2487.00
1885.425,2558.00
1886.270,2951.00
1887.113,2515.00
1887.956,2804.00
1888.801,2762.00
1889.644,2552.00
1890.486,2323.00
1891.331,2658.00
1892.173,2772.00
1893.017,2817.00
1893.860,3001.00
1894.702,3034.00
1895.546,2749.00
1896.388,3388.00
1897.230,3150.00
1898.074,2638.00
1898.916,2501.00
1899.757,2551.00
1900.601,3417.00
1901.443,3005.00
1902.284,3045.00
1903.125,3183.00
1903.969,2939.00
1904.810,2958.00
1905.651,2839.00
1906.494,3062.00
1907.335,3154.00
1908.176,2851.00
1909.018,2849.00
1909.859,2703.00
1910.700,2620.00
1911.542,3297.00
1912.383,2818.00
1913.223,2367.00
1914.064,2847.00
1914.906,3000.00
1915.746,3074.00
1916.586,3209.00
1917.428,2699.00
1918.268,2771.00
1919.107,2620.00
1919.947,2513.00
1920.789,2679.00
1921.628,2978.00
1922.468,2735.00
1923.309,2589.00
1924.148,3082.00
1924.988,2867.00
1925.827,2724.00
1926.667,2654.00
1927.507,2794.00
1928.345,2573.00
1929.184,2906.00
1930.025,2568.00
1930.864,3021.00
1931.702,3021.00
1932.541,2642.00
1933.381,2896.00
1934.219,2869.00
1935.057,3034.00
1935.896,2415.00
1936.735,2724.00
1937.573,2700.00
1938.411,2583.00
1939.249,2892.00
1940.089,2627.00
1940.927,3005.00
1941.764,3040.00
1942.602,2662.00
1943.439,2653.00
1944.278,2686.00
1945.115,2667.00
1945.953,2473.00
1946.790,2809.00
1947.628,3086.00
1948.465,2848.00
1949.302,2899.00
1950.139,2851.00
1950.976,2639.00
1951.814,2913.00
1952.651,2825.00
1953.487,2554.00
1954.323,2986.00
1955.160,2739.00
1955.998,3099.00
1956.834,2754.00
1957.670,2804.00
1958.506,2972.00
1959.342,2862.00
1960.177,2783.00
1961.015,2896.00
1961.850,2812.00
1962.686,2848.00
1963.521,2805.00
1964.357,3054.00
1965.192,2513.00
1966.029,2865.00
1966.864,2712.00
1967.699,2979.00
1968.534,2812.00
1969.369,3051.00
1970.204,2735.00
1971.040,2800.00
1971.875,2707.00
1972.709,2809.00
1973.544,2586.00
1974.378,2606.00
1975.212,2884.00
1976.047,2666.00
1976.882,2630.00
1977.716,3137.00
1978.550,2425.00
1979.384,2705.00
1980.218,2736.00
1981.052,2729.00
1981.885,2818.00
1982.719,2763.00
1983.554,2914.00
1984.388,3104.00
1985.221,2830.00
1986.054,2988.00
1986.887,2810.00
1987.720,2605.00
1988.553,3056.00
1989.386,2833.00
1990.219,2853.00
1991.053,3032.00
1991.886,2658.00
1992.719,2957.00
1993.551,2286.00
1994.383,2915.00
1995.216,2684.00
1996.048,2477.00
1996.880,2934.00
1997.712,2657.00
1998.544,2755.00
1999.376,2816.00
2000.208,3027.00
2001.040,3176.00
2001.873,2606.00
2002.705,2578.00
2003.536,2804.00
2004.367,2811.00
2005.199,2789.00
2006.030,2673.00
2006.861,2576.00
2007.692,2760.00
2008.523,2635.00
2009.354,2759.00
2010.185,2562.00
2011.016,2909.00
2011.846,2948.00
2012.677,2703.00
2013.507,3083.00
2014.338,2949.00
2015.168,2703.00
2015.999,3268.00
2016.829,2671.00
2017.659,3010.00
2018.489,3278.00
2019.319,2591.00
2020.149,2929.00
2020.980,2790.00
2021.810,2584.00
2022.639,2628.00
2023.469,2643.00
2024.298,2455.00
2025.128,2372.00
2025.957,2409.00
2026.786,2229.00
2027.615,2411.00
2028.444,2634.00
2029.273,2761.00
2030.102,2391.00
2030.931,2587.00
2031.758,2891.00
2032.586,2552.00
2033.415,2595.00
2034.243,2271.00
2035.072,2010.00
2035.900,2495.00
2036.728,2356.00
2037.556,2374.00
2038.385,2374.00
2039.213,2201.00
2040.040,2210.00
2040.868,2144.00
2041.696,2232.00
2042.524,2241.00
2043.351,2443.00
2044.179,2232.00
2045.006,2013.00
