RamanScope Measure Spectrum Data V3.72

<< MEASURE CONDITION >>
Exposure Type,Aver
Exposure Time [sec],15
Exposure Count,30
Measure Time,2023/07/12 12:13:59
Data Name,""
Data Comment,""
Rayleigh Wave[nm],532.0

<< SAMPLE SPECTRUM >>
Wave[dcm-1],No17
146.591,1095.77
147.626,1324.10
148.664,1500.63
149.699,1716.07
150.737,1997.07
151.772,2184.17
152.809,2388.43
153.846,2555.87
154.881,2710.63
155.918,2863.90
156.953,2994.73
157.989,3081.57
159.026,3161.33
160.060,3211.70
161.096,3318.33
162.130,3357.47
163.167,3390.63
164.200,3410.30
165.236,3510.13
166.272,3592.43
167.305,3610.83
168.341,3719.23
169.374,3782.17
170.409,3829.27
171.445,3966.50
172.477,3988.40
173.512,4008.03
174.545,4071.40
175.580,4100.47
176.614,4083.83
177.647,4084.03
178.681,4043.83
179.713,4067.90
180.747,4000.33
181.781,3990.60
182.813,3955.17
183.847,3900.03
184.878,3936.33
185.912,3906.33
186.945,3955.83
187.976,3898.67
189.010,3930.83
190.043,3928.27
191.073,3964.87
192.106,4032.60
193.137,4009.23
194.170,4073.97
195.202,4094.17
196.232,4137.23
197.265,4209.47
198.297,4259.23
199.327,4285.73
200.359,4328.87
201.388,4360.43
202.420,4454.90
203.452,4543.50
204.481,4629.27
205.512,4672.93
206.544,4854.23
207.573,4847.33
208.604,4992.77
209.635,5098.33
210.663,5241.93
211.694,5354.10
212.725,5476.43
213.753,5607.67
214.783,5724.87
215.813,5735.17
216.841,5855.53
217.871,5791.20
218.899,5807.13
219.929,5742.63
220.959,5694.90
221.986,5576.30
223.016,5502.37
224.045,5373.60
225.072,5312.03
226.101,5190.43
227.130,5110.03
228.157,4990.33
229.185,4969.07
230.214,4834.90
231.241,4792.67
232.269,4775.43
233.297,4716.30
234.323,4742.63
235.351,4696.50
236.379,4687.83
237.407,4667.07
238.433,4699.40
239.460,4723.23
240.488,4762.80
241.513,4812.97
242.540,4895.10
243.568,4959.13
244.592,4989.10
245.619,5014.73
246.646,4999.03
247.671,4965.80
248.697,4930.57
249.724,4867.83
250.748,4849.50
251.774,4807.60
252.801,4797.47
253.827,4789.03
254.850,4774.33
255.876,4780.43
256.902,4798.90
257.925,4818.17
258.951,4809.00
259.976,4876.33
260.999,4948.53
262.024,4943.10
263.049,4919.20
264.074,4922.93
265.097,5004.47
266.122,5038.73
267.146,5013.83
268.168,5114.03
269.193,5151.33
270.217,5147.33
271.241,5195.97
272.263,5292.97
273.287,5276.27
274.311,5332.07
275.332,5360.40
276.356,5341.83
277.379,5374.33
278.402,5357.87
279.424,5300.73
280.447,5223.13
281.470,5181.03
282.492,5119.90
283.513,5075.70
284.536,5021.97
285.558,4933.97
286.581,4892.83
287.601,4830.40
288.623,4768.90
289.645,4710.97
290.665,4713.93
291.687,4645.90
292.709,4546.47
293.730,4463.23
294.750,4451.50
295.771,4390.00
296.792,4387.53
297.813,4320.67
298.832,4271.87
299.853,4268.13
300.874,4215.80
301.895,4179.30
302.913,4141.53
303.934,4075.67
304.954,4034.83
305.975,4060.33
306.993,4007.57
308.013,3974.33
309.033,3937.30
310.052,3893.80
311.072,3951.83
312.090,3865.60
313.109,3886.33
314.129,3878.53
315.148,3833.63
316.165,3869.27
317.184,3820.03
318.203,3796.57
319.222,3742.43
320.238,3724.27
321.257,3766.10
322.275,3755.83
323.294,3702.93
324.312,3705.03
325.328,3691.03
326.346,3615.80
327.364,3696.53
328.382,3691.70
329.397,3651.93
330.415,3661.03
331.432,3649.03
332.450,3614.83
333.467,3658.30
334.482,3586.80
335.499,3520.50
336.516,3606.33
337.533,3595.93
338.547,3588.30
339.564,3614.60
340.580,3568.70
341.597,3524.50
342.613,3549.10
343.627,3538.67
344.643,3556.53
345.659,3533.90
346.675,3547.03
347.690,3536.90
348.704,3480.23
349.719,3457.47
350.735,3455.67
351.750,3476.17
352.765,3467.20
353.778,3479.90
354.793,3438.03
355.808,3512.70
356.822,3491.87
357.837,3472.00
358.851,3487.07
359.864,3465.20
360.878,3491.37
361.892,3518.67
362.906,3484.40
363.920,3463.53
364.932,3478.87
365.945,3475.70
366.959,3503.17
367.972,3511.10
368.986,3542.03
369.999,3516.10
371.010,3555.27
372.023,3552.40
373.036,3528.27
374.049,3514.43
375.061,3568.53
376.072,3566.87
377.084,3604.27
378.097,3580.87
379.109,3561.10
380.121,3597.03
381.133,3592.97
382.143,3603.77
383.155,3603.37
384.166,3603.23
385.178,3587.30
386.189,3578.33
387.201,3657.37
388.212,3646.57
389.221,3537.13
390.232,3579.63
391.243,3597.33
392.254,3550.17
393.264,3564.80
394.275,3581.37
395.283,3575.00
396.294,3549.27
397.304,3550.37
398.314,3483.73
399.324,3479.57
400.334,3484.50
401.344,3449.73
402.351,3458.17
403.361,3460.97
404.370,3480.77
405.380,3473.93
406.389,3418.33
407.398,3459.47
408.407,3369.63
409.414,3344.17
410.423,3356.97
411.431,3377.83
412.440,3328.80
413.448,3363.73
414.457,3344.03
415.465,3331.63
416.471,3336.00
417.479,3370.33
418.487,3345.57
419.495,3343.57
420.503,3310.47
421.510,3325.83
422.518,3345.53
423.525,3304.33
424.530,3257.20
425.537,3318.83
426.544,3290.67
427.551,3308.90
428.558,3227.13
429.565,3312.30
430.571,3293.77
431.578,3298.07
432.582,3327.97
433.588,3255.87
434.595,3293.30
435.601,3266.27
436.607,3280.90
437.612,3307.03
438.618,3302.80
439.624,3321.47
440.627,3290.67
441.633,3289.27
442.638,3267.00
443.643,3285.57
444.648,3282.23
445.653,3277.53
446.658,3289.93
447.663,3246.23
448.667,3280.53
449.672,3330.40
450.674,3302.20
451.678,3362.47
452.682,3327.30
453.687,3302.60
454.690,3259.97
455.694,3304.80
456.698,3375.60
457.702,3334.53
458.705,3300.13
459.709,3326.57
460.710,3355.87
461.713,3386.70
462.716,3344.20
463.719,3336.73
464.722,3359.43
465.725,3364.07
466.727,3387.67
467.730,3382.97
468.732,3357.97
469.735,3344.57
470.737,3387.83
471.737,3399.50
472.739,3427.67
473.741,3353.90
474.742,3354.77
475.744,3405.33
476.746,3361.57
477.747,3383.47
478.748,3366.00
479.750,3354.47
480.751,3412.27
481.752,3425.40
482.753,3432.07
483.751,3373.20
484.752,3392.83
485.753,3405.00
486.753,3455.57
487.753,3470.70
488.754,3426.73
489.754,3414.13
490.754,3383.17
491.754,3446.80
492.754,3391.77
493.753,3398.27
494.753,3455.30
495.752,3358.47
496.752,3400.43
497.749,3400.70
498.748,3447.10
499.747,3365.47
500.746,3391.10
501.745,3408.00
502.744,3389.00
503.742,3307.50
504.741,3348.20
505.739,3309.40
506.737,3335.57
507.735,3337.80
508.734,3335.13
509.732,3267.93
510.729,3265.20
511.727,3311.23
512.725,3276.70
513.720,3315.33
514.718,3285.30
515.715,3221.13
516.712,3235.73
517.709,3271.53
518.706,3264.87
519.703,3243.83
520.700,3226.27
521.696,3290.50
522.693,3259.80
523.689,3318.37
524.686,3265.70
525.682,3282.23
526.678,3261.10
527.674,3279.30
528.670,3322.93
529.666,3317.37
530.661,3298.03
531.657,3303.70
532.652,3316.57
533.648,3357.77
534.641,3384.30
535.636,3344.43
536.631,3350.20
537.626,3343.33
538.621,3356.43
539.616,3344.97
540.610,3310.67
541.605,3323.17
542.599,3374.43
543.593,3360.80
544.587,3355.33
545.581,3328.23
546.575,3308.23
547.569,3298.60
548.563,3377.27
549.557,3356.53
550.550,3311.97
551.543,3298.03
552.537,3303.23
553.530,3323.23
554.523,3323.00
555.516,3289.33
556.509,3295.13
557.502,3288.03
558.494,3257.30
559.487,3347.43
560.479,3310.27
561.472,3293.63
562.464,3248.30
563.456,3280.97
564.448,3283.53
565.440,3312.90
566.432,3251.20
567.423,3293.43
568.415,3289.70
569.404,3319.93
570.396,3326.67
571.387,3295.53
572.378,3355.87
573.369,3325.13
574.360,3400.73
575.351,3354.63
576.341,3364.77
577.332,3346.23
578.323,3362.00
579.313,3368.77
580.303,3359.97
581.293,3406.20
582.283,3355.40
583.273,3392.67
584.263,3424.23
585.253,3403.80
586.243,3448.23
587.232,3482.73
588.222,3395.23
589.211,3394.90
590.200,3500.70
591.189,3511.77
592.178,3489.53
593.167,3459.33
594.156,3412.10
595.145,3492.33
596.133,3510.13
597.122,3535.63
598.110,3505.87
599.098,3502.27
600.086,3538.80
601.074,3544.77
602.062,3552.70
603.050,3549.33
604.038,3550.27
605.025,3565.27
606.013,3567.80
607.000,3529.93
607.987,3561.47
608.975,3483.37
609.962,3505.67
610.949,3521.43
611.936,3511.57
612.922,3495.83
613.909,3445.13
614.895,3417.07
615.882,3454.13
616.868,3419.40
617.854,3372.00
618.841,3343.77
619.826,3318.80
620.812,3329.33
621.798,3274.00
622.784,3266.13
623.769,3226.60
624.755,3239.20
625.740,3221.23
626.725,3190.77
627.711,3106.40
628.698,3122.03
629.683,3102.90
630.667,3048.20
631.652,3051.30
632.637,3012.63
633.621,3026.30
634.606,2973.17
635.590,2953.13
636.574,2961.07
637.558,2913.13
638.542,2939.13
639.526,2862.73
640.510,2853.00
641.493,2840.73
642.477,2862.00
643.460,2804.37
644.444,2816.27
645.427,2763.20
646.410,2735.83
647.393,2778.33
648.376,2741.67
649.359,2728.50
650.341,2706.50
651.324,2734.23
652.307,2708.70
653.289,2695.13
654.271,2720.07
655.253,2649.30
656.235,2667.97
657.217,2698.77
658.199,2685.07
659.181,2596.00
660.163,2657.97
661.144,2647.00
662.126,2678.47
663.107,2630.43
664.088,2643.47
665.069,2565.40
666.050,2575.50
667.033,2549.60
668.014,2565.17
668.995,2583.50
669.975,2529.00
670.956,2538.20
671.936,2520.43
672.916,2577.27
673.896,2534.23
674.876,2490.20
675.856,2460.10
676.836,2430.67
677.816,2431.93
678.795,2433.37
679.775,2412.43
680.754,2352.30
681.734,2344.60
682.713,2310.23
683.692,2325.30
684.671,2334.90
685.650,2287.70
686.629,2293.43
687.607,2226.80
688.586,2231.97
689.564,2240.77
690.543,2233.30
691.523,2187.57
692.501,2191.53
693.479,2186.93
694.457,2190.63
695.435,2181.07
696.413,2145.10
697.390,2139.37
698.368,2091.23
699.345,2149.70
700.322,2132.67
701.300,2111.10
702.277,2106.63
703.254,2076.50
704.231,2104.20
705.207,2093.80
706.184,2076.97
707.161,2062.30
708.137,2064.50
709.113,2017.20
710.090,2035.80
711.068,2098.13
712.044,2044.60
713.020,1960.17
713.996,1997.50
714.971,2033.03
715.947,1984.53
716.922,1936.83
717.898,1921.90
718.873,1960.10
719.848,1935.30
720.823,1956.53
721.798,1951.33
722.773,1999.00
723.748,1898.30
724.723,1924.60
725.697,1929.03
726.672,1943.00
727.646,1936.77
728.622,1923.50
729.596,1897.13
730.570,1882.53
731.544,1916.20
732.518,1922.03
733.492,1882.33
734.466,1922.67
735.439,1890.50
736.413,1866.87
737.386,1889.97
738.359,1868.40
739.332,1862.70
740.305,1849.77
741.278,1860.90
742.251,1885.27
743.224,1868.00
744.196,1835.20
745.171,1840.33
746.143,1842.87
747.115,1825.47
748.087,1838.03
749.059,1832.53
750.031,1802.03
751.003,1773.03
751.975,1795.50
752.947,1841.73
753.918,1819.10
754.890,1802.97
755.861,1758.00
756.832,1743.13
757.803,1785.83
758.774,1734.60
759.747,1777.57
760.718,1705.03
761.689,1757.63
762.659,1730.63
763.630,1763.00
764.600,1705.87
765.570,1701.07
766.540,1695.93
767.510,1697.73
768.480,1700.27
769.450,1730.87
770.420,1710.87
771.390,1683.53
772.359,1688.10
773.329,1705.40
774.300,1683.43
775.269,1661.27
776.238,1701.23
777.207,1713.43
778.176,1675.23
779.145,1664.07
780.114,1685.77
781.083,1653.83
782.051,1647.63
783.019,1657.30
783.988,1621.87
784.956,1650.00
785.924,1618.40
786.894,1636.17
787.862,1613.93
788.830,1597.20
789.797,1628.77
790.765,1603.33
791.732,1609.33
792.700,1578.37
793.667,1610.80
794.634,1535.60
795.601,1606.23
796.568,1584.23
797.535,1602.53
798.502,1560.80
799.468,1539.97
800.437,1582.43
801.403,1558.23
802.370,1556.47
803.336,1536.57
804.302,1578.13
805.268,1541.97
806.234,1538.53
807.200,1538.57
808.166,1506.90
809.131,1507.40
810.097,1526.50
811.062,1456.00
812.027,1518.53
812.994,1516.97
813.960,1501.83
814.925,1504.00
815.889,1504.83
816.854,1487.20
817.819,1484.80
818.783,1487.97
819.748,1493.23
820.712,1440.97
821.677,1470.63
822.641,1459.97
823.605,1501.13
824.571,1428.07
825.534,1503.00
826.498,1449.60
827.462,1488.97
828.425,1501.00
829.389,1458.37
830.352,1471.70
831.315,1480.83
832.279,1492.00
833.242,1483.37
834.204,1430.40
835.167,1438.27
836.132,1463.57
837.095,1443.23
838.057,1436.23
839.020,1451.43
839.982,1432.60
840.944,1464.63
841.906,1448.03
842.868,1484.77
843.830,1435.47
844.792,1401.73
845.753,1457.13
846.715,1455.23
847.679,1440.27
848.640,1420.67
849.601,1449.90
850.562,1409.47
851.523,1456.03
852.484,1466.63
853.445,1436.03
854.406,1449.67
855.367,1415.00
856.327,1442.37
857.288,1435.83
858.248,1462.13
859.210,1416.97
860.170,1432.27
861.130,1427.83
862.090,1432.07
863.050,1430.30
864.010,1427.37
864.969,1392.70
865.929,1415.33
866.888,1452.93
867.848,1429.57
868.807,1371.93
869.766,1420.13
870.727,1408.47
871.686,1365.60
872.645,1433.47
873.604,1421.83
874.562,1431.87
875.521,1384.77
876.479,1417.60
877.437,1403.70
878.396,1416.57
879.354,1449.93
880.312,1417.53
881.270,1401.13
882.229,1422.00
883.187,1449.50
884.145,1429.73
885.102,1404.17
886.059,1408.10
887.017,1438.03
887.974,1406.67
888.931,1424.47
889.888,1422.50
890.845,1413.20
891.802,1432.70
892.758,1421.17
893.717,1430.40
894.673,1403.90
895.630,1479.83
896.586,1429.00
897.542,1464.00
898.498,1438.03
899.454,1446.17
900.410,1438.93
901.366,1426.93
902.321,1476.00
903.277,1462.20
904.232,1446.40
905.189,1465.20
906.145,1444.67
907.100,1433.90
908.055,1464.73
909.010,1459.70
909.965,1450.87
910.919,1458.70
911.874,1464.30
912.828,1461.40
913.783,1434.13
914.737,1479.23
915.693,1448.83
916.648,1464.70
917.602,1452.17
918.555,1466.93
919.509,1483.00
920.463,1486.10
921.417,1457.00
922.370,1449.17
923.324,1472.07
924.277,1472.33
925.230,1487.17
926.183,1479.80
927.138,1524.40
928.091,1475.57
929.044,1453.47
929.996,1474.47
930.949,1481.73
931.902,1491.93
932.854,1476.30
933.806,1490.53
934.758,1493.97
935.711,1480.20
936.663,1526.00
937.614,1496.37
938.568,1503.23
939.520,1485.23
940.471,1527.87
941.423,1521.87
942.374,1453.77
943.326,1511.67
944.277,1466.43
945.228,1509.23
946.179,1486.97
947.130,1508.83
948.080,1490.17
949.031,1498.13
949.984,1442.63
950.934,1462.63
951.884,1506.83
952.835,1497.03
953.785,1513.83
954.735,1459.83
955.685,1457.63
956.635,1449.47
957.585,1491.57
958.534,1461.87
959.484,1448.53
960.433,1474.23
961.383,1484.83
962.334,1451.83
963.283,1453.40
964.232,1455.23
965.181,1441.97
966.130,1503.97
967.079,1411.23
968.027,1444.87
968.976,1439.80
969.924,1393.07
970.873,1447.30
971.821,1416.77
972.769,1440.67
973.719,1451.47
974.667,1448.80
975.615,1425.30
976.562,1464.90
977.510,1444.30
978.458,1471.40
979.405,1454.40
980.352,1477.43
981.300,1446.17
982.247,1411.47
983.194,1438.30
984.141,1415.20
985.088,1456.23
986.036,1389.00
986.983,1436.93
987.930,1434.20
988.876,1454.03
989.822,1424.30
990.769,1423.37
991.715,1416.43
992.661,1422.50
993.607,1393.43
994.553,1422.00
995.498,1405.13
996.444,1415.43
997.389,1421.73
998.337,1431.00
999.282,1449.27
1000.227,1417.83
1001.173,1424.43
1002.118,1440.07
1003.062,1410.30
1004.007,1465.47
1004.952,1414.17
1005.897,1391.77
1006.841,1422.77
1007.786,1408.43
1008.730,1431.47
1009.674,1410.17
1010.618,1430.17
1011.564,1401.60
1012.508,1442.07
1013.452,1412.80
1014.396,1415.17
1015.339,1406.83
1016.283,1425.83
1017.226,1412.40
1018.170,1412.70
1019.113,1435.03
1020.056,1443.70
1020.999,1418.77
1021.942,1453.70
1022.885,1377.70
1023.828,1442.67
1024.770,1455.80
1025.715,1425.63
1026.657,1425.17
1027.600,1446.13
1028.542,1458.00
1029.484,1473.13
1030.426,1450.70
1031.368,1450.23
1032.310,1440.27
1033.251,1461.93
1034.193,1463.20
1035.135,1473.80
1036.076,1466.93
1037.017,1450.13
1037.959,1469.17
1038.900,1453.90
1039.843,1460.77
1040.784,1457.70
1041.725,1474.80
1042.665,1464.27
1043.606,1443.20
1044.547,1442.30
1045.487,1471.03
1046.427,1474.97
1047.368,1487.57
1048.308,1510.23
1049.248,1481.40
1050.188,1519.00
1051.128,1517.70
1052.067,1499.27
1053.007,1491.20
1053.947,1540.40
1054.886,1488.23
1055.827,1553.73
1056.766,1508.00
1057.706,1521.97
1058.645,1515.67
1059.584,1514.87
1060.522,1480.97
1061.461,1524.97
1062.400,1602.37
1063.338,1532.87
1064.277,1534.07
1065.215,1554.43
1066.154,1575.80
1067.092,1567.60
1068.030,1612.00
1068.968,1587.50
1069.906,1596.03
1070.843,1573.23
1071.781,1610.47
1072.720,1590.57
1073.658,1576.50
1074.595,1628.03
1075.533,1564.50
1076.470,1583.83
1077.407,1602.10
1078.344,1631.87
1079.281,1649.70
1080.217,1655.17
1081.154,1631.37
1082.091,1614.10
1083.027,1622.70
1083.964,1621.53
1084.900,1589.33
1085.836,1606.27
1086.772,1599.40
1087.708,1606.20
1088.644,1632.03
1089.580,1652.07
1090.515,1628.73
1091.451,1583.03
1092.388,1593.63
1093.324,1667.70
1094.259,1587.80
1095.194,1657.10
1096.129,1590.73
1097.064,1593.83
1097.999,1609.27
1098.934,1571.23
1099.869,1581.27
1100.803,1588.57
1101.738,1516.23
1102.672,1548.37
1103.607,1569.53
1104.541,1548.67
1105.475,1545.27
1106.409,1530.70
1107.343,1552.47
1108.277,1481.87
1109.210,1511.10
1110.144,1501.80
1111.078,1509.13
1112.011,1478.73
1112.944,1513.20
1113.878,1474.80
1114.811,1470.63
1115.744,1461.10
1116.678,1477.57
1117.611,1441.77
1118.544,1418.20
1119.477,1446.90
1120.409,1447.87
1121.342,1431.67
1122.274,1468.93
1123.206,1379.27
1124.138,1392.90
1125.070,1370.97
1126.002,1353.77
1126.934,1435.17
1127.866,1360.43
1128.798,1357.50
1129.729,1376.40
1130.661,1353.23
1131.592,1378.30
1132.523,1333.57
1133.454,1311.97
1134.385,1291.43
1135.317,1321.43
1136.247,1324.57
1137.178,1282.23
1138.109,1294.53
1139.039,1315.73
1139.970,1293.93
1140.900,1287.63
1141.831,1284.73
1142.761,1291.03
1143.691,1262.43
1144.621,1256.73
1145.551,1237.57
1146.480,1287.77
1147.410,1298.50
1148.340,1258.67
1149.269,1242.67
1150.199,1228.00
1151.128,1264.43
1152.057,1259.43
1152.979,1279.13
1153.898,1226.47
1154.819,1267.13
1155.739,1230.70
1156.658,1191.50
1157.579,1209.63
1158.498,1200.13
1159.419,1192.00
1160.338,1209.47
1161.256,1169.67
1162.177,1246.20
1163.095,1202.13
1164.016,1182.57
1164.934,1200.40
1165.852,1182.03
1166.772,1196.87
1167.690,1203.87
1168.610,1187.00
1169.528,1173.77
1170.446,1177.83
1171.365,1166.00
1172.283,1177.90
1173.202,1168.37
1174.120,1201.43
1175.037,1179.33
1175.956,1179.77
1176.873,1109.03
1177.792,1163.27
1178.709,1142.40
1179.626,1139.60
1180.544,1172.43
1181.461,1155.20
1182.379,1152.27
1183.296,1123.17
1184.212,1138.13
1185.130,1140.60
1186.046,1129.03
1186.962,1139.83
1187.880,1143.07
1188.796,1149.87
1189.714,1102.10
1190.629,1148.47
1191.545,1116.13
1192.462,1110.80
1193.378,1125.30
1194.295,1141.33
1195.210,1087.83
1196.125,1119.67
1197.042,1137.57
1197.957,1124.37
1198.872,1127.23
1199.788,1079.00
1200.703,1102.30
1201.619,1100.63
1202.534,1113.13
1203.448,1104.27
1204.364,1109.37
1205.278,1083.87
1206.192,1093.17
1207.108,1079.03
1208.022,1138.87
1208.938,1137.73
1209.851,1082.53
1210.765,1102.13
1211.680,1114.73
1212.594,1112.43
1213.507,1086.80
1214.422,1137.07
1215.335,1098.03
1216.248,1126.77
1217.163,1086.93
1218.076,1092.13
1218.990,1084.23
1219.903,1102.57
1220.816,1105.97
1221.730,1115.33
1222.642,1117.30
1223.554,1064.67
1224.469,1059.50
1225.380,1118.10
1226.292,1129.87
1227.206,1117.87
1228.118,1132.30
1229.032,1100.23
1229.943,1092.17
1230.855,1100.23
1231.768,1097.30
1232.679,1085.57
1233.590,1123.63
1234.503,1134.37
1235.414,1090.27
1236.325,1130.43
1237.238,1109.63
1238.149,1095.97
1239.059,1115.00
1239.972,1160.43
1240.882,1097.10
1241.793,1125.43
1242.705,1142.13
1243.615,1078.33
1244.525,1074.97
1245.437,1127.23
1246.347,1145.20
1247.259,1132.33
1248.168,1140.33
1249.078,1083.53
1249.989,1110.93
1250.899,1131.30
1251.808,1143.70
1252.719,1144.63
1253.628,1115.73
1254.537,1110.20
1255.448,1125.73
1256.357,1106.23
1257.266,1105.57
1258.176,1115.13
1259.085,1128.67
1259.993,1124.53
1260.904,1118.43
1261.812,1115.67
1262.720,1127.03
1263.630,1140.60
1264.538,1155.23
1265.446,1143.90
1266.356,1101.53
1267.263,1111.93
1268.171,1149.87
1269.080,1140.33
1269.988,1132.20
1270.895,1110.60
1271.804,1126.20
1272.711,1090.20
1273.619,1173.23
1274.527,1113.37
1275.434,1146.90
1276.341,1130.63
1277.248,1141.10
1278.156,1115.43
1279.063,1116.47
1279.969,1142.67
1280.877,1118.43
1281.783,1129.93
1282.690,1118.07
1283.598,1102.20
1284.503,1133.60
1285.409,1144.23
1286.317,1095.60
1287.223,1097.30
1288.128,1100.20
1289.036,1111.93
1289.941,1096.63
1290.846,1125.93
1291.751,1148.33
1292.658,1088.23
1293.563,1088.80
1294.468,1109.00
1295.375,1094.77
1296.280,1056.90
1297.184,1071.83
1298.091,1114.60
1298.995,1092.87
1299.900,1075.33
1300.806,1084.97
1301.710,1056.00
1302.614,1102.07
1303.518,1072.80
1304.424,1075.33
1305.327,1070.80
1306.231,1064.67
1307.137,1029.47
1308.040,1078.97
1308.943,1045.47
1309.847,1101.10
1310.752,1103.23
1311.655,1032.93
1312.558,1044.73
1313.463,1034.37
1314.366,1005.60
1315.269,1014.10
1316.171,1033.43
1317.076,982.67
1317.978,986.93
1318.881,999.00
1319.785,1016.97
1320.687,1013.13
1321.589,1016.67
1322.491,988.83
1323.395,978.03
1324.297,1024.13
1325.198,992.57
1326.102,1022.03
1327.004,1042.93
1327.905,1024.70
1328.806,1000.10
1329.709,980.53
1330.611,1003.60
1331.512,999.90
1332.413,977.37
1333.316,1014.03
1334.216,1027.50
1335.117,983.23
1336.020,995.47
1336.920,986.57
1337.821,989.13
1338.721,978.97
1339.623,985.63
1340.523,955.07
1341.423,967.90
1342.323,935.47
1343.225,973.87
1344.125,958.70
1345.025,943.03
1345.924,939.83
1346.826,991.17
1347.725,939.93
1348.624,947.87
1349.524,929.17
1350.425,936.37
1351.324,900.17
1352.223,949.03
1353.121,935.23
1354.022,871.67
1354.921,952.60
1355.819,940.73
1356.718,914.77
1357.618,919.23
1358.516,911.40
1359.415,899.20
1360.313,955.97
1361.213,917.17
1362.111,901.43
1363.008,904.57
1363.906,907.13
1364.806,905.03
1365.703,903.50
1366.601,927.30
1367.498,855.73
1368.397,904.20
1369.295,877.20
1370.192,911.87
1371.089,904.60
1371.987,880.57
1372.884,900.17
1373.781,907.50
1374.678,883.80
1375.574,871.93
1376.473,866.23
1377.369,880.67
1378.265,865.87
1379.161,881.87
1380.059,863.17
1380.955,855.93
1381.851,864.13
1382.747,861.00
1383.643,895.70
1384.540,884.17
1385.436,882.70
1386.331,837.90
1387.227,851.73
1388.124,859.07
1389.019,865.67
1389.914,867.40
1390.809,879.67
1391.704,840.27
1392.601,832.67
1393.495,816.47
1394.390,845.30
1395.285,825.37
1396.179,815.97
1397.075,845.17
1397.969,834.90
1398.864,853.13
1399.758,857.97
1400.652,840.77
1401.547,848.27
1402.441,786.00
1403.335,840.70
1404.229,844.33
1405.122,805.20
1406.017,845.40
1406.911,848.63
1407.804,801.97
1408.697,811.70
1409.590,802.90
1410.485,839.50
1411.378,839.10
1412.271,825.57
1413.163,827.83
1414.056,840.70
1414.949,838.17
1415.843,848.83
1416.735,849.73
1417.627,816.60
1418.520,793.80
1419.412,773.17
1420.306,832.30
1421.197,783.33
1422.089,790.33
1422.981,825.27
1423.873,788.87
1424.764,813.20
1425.657,795.43
1426.549,770.13
1427.440,779.87
1428.331,849.03
1429.222,822.50
1430.113,792.23
1431.006,794.93
1431.897,769.73
1432.787,773.27
1433.678,814.70
1434.568,767.63
1435.459,797.23
1436.351,800.80
1437.241,771.67
1438.131,788.53
1439.021,779.20
1439.911,792.20
1440.801,801.47
1441.693,788.30
1442.583,785.70
1443.472,763.93
1444.362,798.30
1445.251,795.57
1446.140,779.60
1447.030,765.63
1447.921,779.73
1448.810,752.33
1449.699,758.30
1450.588,770.03
1451.476,784.97
1452.365,801.67
1453.254,727.43
1454.144,774.50
1455.032,779.67
1455.921,765.73
1456.809,773.20
1457.697,764.70
1458.585,770.87
1459.473,747.20
1460.361,713.97
1461.251,741.20
1462.138,772.13
1463.026,764.83
1463.913,763.03
1464.801,742.83
1465.688,774.83
1466.575,782.80
1467.463,748.47
1468.351,738.70
1469.238,752.50
1470.125,744.73
1471.012,774.43
1471.899,759.93
1472.785,740.90
1473.672,749.33
1474.558,751.33
1475.446,702.60
1476.333,768.30
1477.219,759.60
1478.105,744.73
1478.991,759.90
1479.877,702.10
1480.762,733.00
1481.648,725.83
1482.534,739.80
1483.419,731.13
1484.307,715.43
1485.192,707.90
1486.077,751.63
1486.962,727.80
1487.847,698.87
1488.732,697.17
1489.617,703.87
1490.502,734.43
1491.387,740.20
1492.271,733.00
1493.156,734.67
1494.042,706.07
1494.927,688.37
1495.811,719.87
1496.695,736.80
1497.579,731.50
1498.463,737.17
1499.347,722.40
1500.231,716.70
1501.114,704.73
1501.998,695.90
1502.881,753.63
1503.765,695.83
1504.648,693.10
1505.533,685.70
1506.417,702.00
1507.300,708.40
1508.183,719.67
1509.066,705.20
1509.948,695.13
1510.831,682.83
1511.714,706.07
1512.596,711.57
1513.479,701.77
1514.361,672.93
1515.243,649.70
1516.125,684.17
1517.008,719.03
1517.890,676.37
1518.771,688.17
1519.655,711.00
1520.537,661.87
1521.419,655.37
1522.300,665.43
1523.182,687.73
1524.063,666.60
1524.944,640.53
1525.825,714.77
1526.707,684.17
1527.588,679.23
1528.468,687.90
1529.349,662.03
1530.230,680.83
1531.111,701.83
1531.991,715.97
1532.872,648.87
1533.752,655.90
1534.632,657.13
1535.513,653.57
1536.393,658.37
1537.273,677.17
1538.153,607.60
1539.032,663.73
1539.912,700.73
1540.792,649.50
1541.672,675.00
1542.551,659.73
1543.430,649.80
1544.310,670.37
1545.189,667.67
1546.068,687.53
1546.947,643.57
1547.826,627.17
1548.705,648.37
1549.584,603.60
1550.462,670.53
1551.341,651.53
1552.219,648.23
1553.098,651.50
1553.976,635.23
1554.854,647.57
1555.733,668.93
1556.611,712.77
1557.489,621.13
1558.367,634.77
1559.244,634.20
1560.122,648.00
1561.000,604.97
1561.877,673.73
1562.755,647.17
1563.632,668.77
1564.509,652.20
1565.386,636.50
1566.264,631.93
1567.141,631.40
1568.017,617.10
1568.894,652.10
1569.771,642.37
1570.648,638.07
1571.524,669.43
1572.401,662.83
1573.277,637.27
1574.153,673.93
1575.029,625.53
1575.906,626.50
1576.781,640.97
1577.657,616.80
1578.533,639.60
1579.409,637.90
1580.285,626.30
1581.160,597.87
1582.036,631.43
1582.911,630.53
1583.786,616.60
1584.662,639.20
1585.537,668.50
1586.412,612.20
1587.287,619.83
1588.160,631.50
1589.035,651.40
1589.909,600.93
1590.784,626.40
1591.658,630.63
1592.533,634.53
1593.407,602.77
1594.281,641.67
1595.155,621.47
1596.029,614.63
1596.903,606.27
1597.777,635.57
1598.651,623.20
1599.525,639.27
1600.398,642.83
1601.272,621.43
1602.144,576.17
1603.017,565.30
1603.890,634.07
1604.763,613.03
1605.636,638.37
1606.509,598.67
1607.382,632.07
1608.255,624.37
1609.128,655.70
1610.000,620.43
1610.873,661.37
1611.746,603.23
1612.616,642.77
1613.488,605.80
1614.361,616.30
1615.233,606.33
1616.105,666.33
1616.977,594.37
1617.849,604.23
1618.720,601.93
1619.592,618.27
1620.464,607.23
1621.333,608.60
1622.205,610.17
1623.076,628.93
1623.947,590.23
1624.818,590.20
1625.689,604.67
1626.560,628.53
1627.431,601.90
1628.302,602.33
1629.171,588.13
1630.042,594.47
1630.912,606.17
1631.782,576.50
1632.653,602.17
1633.523,587.13
1634.393,591.27
1635.263,568.23
1636.131,607.83
1637.001,609.33
1637.871,576.43
1638.741,594.13
1639.611,592.57
1640.480,628.10
1641.350,561.53
1642.219,579.87
1643.087,583.23
1643.956,604.70
1644.825,566.53
1645.694,614.47
1646.563,579.23
1647.432,570.27
1648.299,579.67
1649.167,567.53
1650.036,634.13
1650.904,557.40
1651.773,588.60
1652.641,556.77
1653.509,581.77
1654.376,583.97
1655.244,603.57
1656.112,577.37
1656.980,595.60
1657.847,587.40
1658.715,574.17
1659.581,597.57
1660.448,537.20
1661.316,535.67
1662.183,589.67
1663.051,584.40
1663.918,569.07
1664.783,570.50
1665.650,587.43
1666.517,558.13
1667.384,554.50
1668.251,612.33
1669.115,587.00
1669.982,605.83
1670.849,544.40
1671.715,616.67
1672.581,560.57
1673.446,530.80
1674.312,580.57
1675.178,580.80
1676.044,608.90
1676.910,580.80
1677.774,563.03
1678.639,567.23
1679.505,534.27
1680.370,553.60
1681.236,552.20
1682.099,557.47
1682.965,561.20
1683.830,576.67
1684.695,575.80
1685.560,587.53
1686.423,581.10
1687.288,535.43
1688.153,600.40
1689.017,579.47
1689.880,570.37
1690.745,594.07
1691.609,559.70
1692.473,556.70
1693.338,543.60
1694.200,527.40
1695.064,554.30
1695.928,543.50
1696.792,506.87
1697.654,580.20
1698.517,558.70
1699.381,568.97
1700.245,553.57
1701.106,609.03
1701.969,592.43
1702.833,547.30
1703.696,555.90
1704.557,570.70
1705.420,559.50
1706.283,532.50
1707.146,571.43
1708.007,566.13
1708.870,542.87
1709.732,568.37
1710.595,595.80
1711.455,590.50
1712.318,528.77
1713.180,533.77
1714.040,571.53
1714.902,513.10
1715.764,547.83
1716.626,569.03
1717.486,577.80
1718.348,597.03
1719.209,547.63
1720.071,562.50
1720.930,592.80
1721.792,552.87
1722.653,528.53
1723.512,557.90
1724.374,552.57
1725.234,548.90
1726.095,552.13
1726.954,523.27
1727.815,586.53
1728.676,538.03
1729.535,530.60
1730.395,528.13
1731.256,519.40
1732.114,554.40
1732.974,545.77
1733.834,554.30
1734.693,539.23
1735.553,530.03
1736.413,569.27
1737.272,544.87
1738.130,533.80
1738.990,523.93
1739.849,538.37
1740.707,532.17
1741.566,567.83
1742.426,554.63
1743.283,565.97
1744.142,528.83
1745.001,561.07
1745.858,521.20
1746.717,523.87
1747.576,581.87
1748.433,571.07
1749.292,508.80
1750.150,524.10
1751.007,543.80
1751.865,521.80
1752.723,539.97
1753.579,528.80
1754.438,534.03
1755.296,603.40
1756.152,554.63
1757.010,544.67
1757.865,550.20
1758.723,550.23
1759.581,568.33
1760.436,507.20
1761.294,511.67
1762.151,537.77
1763.006,543.03
1763.864,560.23
1764.721,530.93
1765.576,558.27
1766.433,534.10
1767.288,512.93
1768.144,553.93
1769.001,529.90
1769.856,552.20
1770.712,533.40
1771.568,568.07
1772.423,517.00
1773.279,546.87
1774.133,561.23
1774.989,514.87
1775.845,569.43
1776.699,539.70
1777.555,525.97
1778.409,501.97
1779.265,515.63
1780.120,493.13
1780.974,530.77
1781.829,548.30
1782.682,531.00
1783.538,539.33
1784.393,541.07
1785.246,514.77
1786.101,534.93
1786.954,544.07
1787.808,510.47
1788.661,525.33
1789.516,524.80
1790.370,526.10
1791.223,542.80
1792.077,518.87
1792.930,529.50
1793.784,559.40
1794.636,532.13
1795.490,522.47
1796.344,536.67
1797.196,560.03
1798.049,553.30
1798.901,552.70
1799.755,521.67
1800.606,539.33
1801.460,555.10
1802.311,493.10
1803.165,529.83
1804.018,521.70
1804.869,540.90
1805.722,513.70
1806.573,511.73
1807.426,531.37
1808.276,540.50
1809.129,519.80
1809.980,548.10
1810.832,517.97
1811.683,517.97
1812.535,543.37
1813.385,509.63
1814.237,508.73
1815.089,536.63
1815.940,555.43
1816.791,531.07
1817.641,523.90
1818.493,530.73
1819.343,539.57
1820.194,510.60
1821.044,547.93
1821.895,551.57
1822.745,549.17
1823.596,509.77
1824.445,565.27
1825.296,513.87
1826.145,469.40
1826.996,538.43
1827.845,524.60
1828.695,558.90
1829.544,531.13
1830.395,527.87
1831.243,524.87
1832.094,553.10
1832.942,495.37
1833.792,526.90
1834.640,523.27
1835.490,507.17
1836.338,532.33
1837.186,536.17
1838.036,519.43
1838.884,521.37
1839.733,531.17
1840.581,507.40
1841.430,522.63
1842.278,493.10
1843.127,526.03
1843.974,535.13
1844.823,490.67
1845.671,533.30
1846.519,505.00
1847.366,497.27
1848.213,489.40
1849.062,473.13
1849.909,528.97
1850.757,525.20
1851.604,476.87
1852.452,533.23
1853.298,503.30
1854.146,508.50
1854.993,507.93
1855.839,533.43
1856.687,543.47
1857.532,497.60
1858.380,505.93
1859.226,519.63
1860.073,488.63
1860.919,488.70
1861.765,473.63
1862.612,504.73
1863.457,482.93
1864.304,513.67
1865.150,509.20
1865.995,523.33
1866.842,491.10
1867.686,510.67
1868.533,463.73
1869.378,488.97
1870.223,478.40
1871.069,528.83
1871.914,540.97
1872.760,522.33
1873.604,460.47
1874.448,489.20
1875.294,534.37
1876.139,479.93
1876.984,539.90
1877.828,517.77
1878.672,513.80
1879.518,495.30
1880.361,504.27
1881.205,507.97
1882.050,529.07
1882.894,502.97
1883.739,486.10
1884.582,467.93
1885.425,494.90
1886.270,493.83
1887.113,508.13
1887.956,535.20
1888.801,477.90
1889.644,497.20
1890.486,502.50
1891.331,508.57
1892.173,511.77
1893.017,522.40
1893.860,503.23
1894.702,491.57
1895.546,487.20
1896.388,445.47
1897.230,518.90
1898.074,487.17
1898.916,511.70
1899.757,502.30
1900.601,491.00
1901.443,486.50
1902.284,490.73
1903.125,445.67
1903.969,532.27
1904.810,463.10
1905.651,488.80
1906.494,475.77
1907.335,476.13
1908.176,473.60
1909.018,494.03
1909.859,493.90
1910.700,471.53
1911.542,508.87
1912.383,511.80
1913.223,479.77
1914.064,499.53
1914.906,489.90
1915.746,485.13
1916.586,459.13
1917.428,498.63
1918.268,519.03
1919.107,489.70
1919.947,485.00
1920.789,510.80
1921.628,524.30
1922.468,464.63
1923.309,479.93
1924.148,479.83
1924.988,500.43
1925.827,492.57
1926.667,497.30
1927.507,507.33
1928.345,507.10
1929.184,507.03
1930.025,482.50
1930.864,489.33
1931.702,526.23
1932.541,492.83
1933.381,523.73
1934.219,493.73
1935.057,505.97
1935.896,502.77
1936.735,489.73
1937.573,502.97
1938.411,521.67
1939.249,481.50
1940.089,467.00
1940.927,482.67
1941.764,481.17
1942.602,462.03
1943.439,463.77
1944.278,486.37
1945.115,466.53
1945.953,484.80
1946.790,492.80
1947.628,513.57
1948.465,505.60
1949.302,488.57
1950.139,474.47
1950.976,490.50
1951.814,513.63
1952.651,484.77
1953.487,515.40
1954.323,488.10
1955.160,529.50
1955.998,452.50
1956.834,494.73
1957.670,495.83
1958.506,522.73
1959.342,490.93
1960.177,473.47
1961.015,523.93
1961.850,497.33
1962.686,516.30
1963.521,487.30
1964.357,497.37
1965.192,473.53
1966.029,480.17
1966.864,463.57
1967.699,491.87
1968.534,478.73
1969.369,455.17
1970.204,487.90
1971.040,481.07
1971.875,472.47
1972.709,491.33
1973.544,455.17
1974.378,511.80
1975.212,477.97
1976.047,479.00
1976.882,467.83
1977.716,464.10
1978.550,476.30
1979.384,471.70
1980.218,476.90
1981.052,523.50
1981.885,482.37
1982.719,490.30
1983.554,469.47
1984.388,513.40
1985.221,439.00
1986.054,483.40
1986.887,462.50
1987.720,450.77
1988.553,504.53
1989.386,451.03
1990.219,491.47
1991.053,449.70
1991.886,483.03
1992.719,499.40
1993.551,478.77
1994.383,504.13
1995.216,465.73
1996.048,489.33
1996.880,528.67
1997.712,436.30
1998.544,463.77
1999.376,466.37
2000.208,469.20
2001.040,450.07
2001.873,468.13
2002.705,473.17
2003.536,454.97
2004.367,478.13
2005.199,450.90
2006.030,474.77
2006.861,458.73
2007.692,496.07
2008.523,483.73
2009.354,463.47
2010.185,456.43
2011.016,441.13
2011.846,481.97
2012.677,423.00
2013.507,442.67
2014.338,497.73
2015.168,441.40
2015.999,468.00
2016.829,466.47
2017.659,495.20
2018.489,483.43
2019.319,474.77
2020.149,464.23
2020.980,479.70
2021.810,471.10
2022.639,476.17
2023.469,480.80
2024.298,542.93
2025.128,484.03
2025.957,484.10
2026.786,437.23
2027.615,469.43
2028.444,495.50
2029.273,499.57
2030.102,482.83
2030.931,482.87
2031.758,511.97
2032.586,509.73
2033.415,487.13
2034.243,474.37
2035.072,450.93
2035.900,508.00
2036.728,495.23
2037.556,510.07
2038.385,479.67
2039.213,463.60
2040.040,478.17
2040.868,449.50
2041.696,470.77
2042.524,513.53
2043.351,504.13
2044.179,487.90
2045.006,485.00
2045.006,485.00

Max Intensity Wave.,216.841
Max Intensity Data,5855.53
Min Intensity Wave.,2012.677
Min Intensity Data,423.00
FWHM Wave.,604.551
FWHM Value,20.66
Pressure Wave.,684.671
Pressure Value [GPa],-24.91530
G/D Ratio,0.64329
G/D Gband Wave.,1556.456
G/D Gband Intensity,714.88
G/D Dband Wave.,1310.326
G/D Dband Intensity,1111.28

<< BACKGROUND SPECTRUM >>
Wave[dcm-1],No17
146.591,2402.00
147.626,2198.00
148.664,2187.00
149.699,2706.00
150.737,2363.00
151.772,2537.00
152.809,2516.00
153.846,2443.00
154.881,2545.00
155.918,2067.00
156.953,2398.00
157.989,2752.00
159.026,2618.00
160.060,2802.00
161.096,2998.00
162.130,2645.00
163.167,2717.00
164.200,2624.00
165.236,2789.00
166.272,2808.00
167.305,2426.00
168.341,2687.00
169.374,2928.00
170.409,2950.00
171.445,2837.00
172.477,2665.00
173.512,2543.00
174.545,2825.00
175.580,3016.00
176.614,3223.00
177.647,2983.00
178.681,3251.00
179.713,3519.00
180.747,2977.00
181.781,2863.00
182.813,3174.00
183.847,3306.00
184.878,2854.00
185.912,3139.00
186.945,3283.00
187.976,3272.00
189.010,2869.00
190.043,3028.00
191.073,3102.00
192.106,2854.00
193.137,3401.00
194.170,2690.00
195.202,3093.00
196.232,2848.00
197.265,3132.00
198.297,3243.00
199.327,2928.00
200.359,3130.00
201.388,3560.00
202.420,3092.00
203.452,3286.00
204.481,2816.00
205.512,3540.00
206.544,3216.00
207.573,3272.00
208.604,3589.00
209.635,3753.00
210.663,3129.00
211.694,3165.00
212.725,3013.00
213.753,2974.00
214.783,3575.00
215.813,3486.00
216.841,3135.00
217.871,3394.00
218.899,3088.00
219.929,3366.00
220.959,3052.00
221.986,3371.00
223.016,2917.00
224.045,3360.00
225.072,3288.00
226.101,3416.00
227.130,3419.00
228.157,3023.00
229.185,2441.00
230.214,3420.00
231.241,3036.00
232.269,2598.00
233.297,2883.00
234.323,3430.00
235.351,2980.00
236.379,3297.00
237.407,2952.00
238.433,3110.00
239.460,3304.00
240.488,3324.00
241.513,3419.00
242.540,3292.00
243.568,3389.00
244.592,3436.00
245.619,3385.00
246.646,3086.00
247.671,3104.00
248.697,2951.00
249.724,3197.00
250.748,3175.00
251.774,3192.00
252.801,3497.00
253.827,3307.00
254.850,3294.00
255.876,2850.00
256.902,3332.00
257.925,3127.00
258.951,2906.00
259.976,2905.00
260.999,3212.00
262.024,2920.00
263.049,3858.00
264.074,3313.00
265.097,3199.00
266.122,3265.00
267.146,3257.00
268.168,3380.00
269.193,3003.00
270.217,3450.00
271.241,2886.00
272.263,3030.00
273.287,3381.00
274.311,2954.00
275.332,3504.00
276.356,3057.00
277.379,3261.00
278.402,3298.00
279.424,3117.00
280.447,3100.00
281.470,2887.00
282.492,3270.00
283.513,3060.00
284.536,3346.00
285.558,3372.00
286.581,3299.00
287.601,3001.00
288.623,2969.00
289.645,3269.00
290.665,3261.00
291.687,3283.00
292.709,3291.00
293.730,3634.00
294.750,3059.00
295.771,2938.00
296.792,3247.00
297.813,3082.00
298.832,3248.00
299.853,2882.00
300.874,3177.00
301.895,3126.00
302.913,3124.00
303.934,3476.00
304.954,3228.00
305.975,3387.00
306.993,2888.00
308.013,3289.00
309.033,3188.00
310.052,3133.00
311.072,3030.00
312.090,3260.00
313.109,3459.00
314.129,3572.00
315.148,3194.00
316.165,3225.00
317.184,3420.00
318.203,2902.00
319.222,2936.00
320.238,3344.00
321.257,2967.00
322.275,2840.00
323.294,3177.00
324.312,3348.00
325.328,3449.00
326.346,3551.00
327.364,3417.00
328.382,3334.00
329.397,3308.00
330.415,3418.00
331.432,3406.00
332.450,3463.00
333.467,3628.00
334.482,2749.00
335.499,3633.00
336.516,3045.00
337.533,2730.00
338.547,3005.00
339.564,2974.00
340.580,3287.00
341.597,3183.00
342.613,3673.00
343.627,3162.00
344.643,3176.00
345.659,3294.00
346.675,3138.00
347.690,3055.00
348.704,3296.00
349.719,3085.00
350.735,2945.00
351.750,3392.00
352.765,3207.00
353.778,3156.00
354.793,3351.00
355.808,2974.00
356.822,3369.00
357.837,2807.00
358.851,3453.00
359.864,3143.00
360.878,2901.00
361.892,3091.00
362.906,3362.00
363.920,2771.00
364.932,3274.00
365.945,3270.00
366.959,3175.00
367.972,3116.00
368.986,2827.00
369.999,3576.00
371.010,2977.00
372.023,3526.00
373.036,3144.00
374.049,3626.00
375.061,3260.00
376.072,3166.00
377.084,3013.00
378.097,2868.00
379.109,3417.00
380.121,3173.00
381.133,2837.00
382.143,3323.00
383.155,2869.00
384.166,3063.00
385.178,3303.00
386.189,3403.00
387.201,2815.00
388.212,3038.00
389.221,3147.00
390.232,3194.00
391.243,3067.00
392.254,3223.00
393.264,3005.00
394.275,3387.00
395.283,3348.00
396.294,3815.00
397.304,3654.00
398.314,3327.00
399.324,3234.00
400.334,2809.00
401.344,3350.00
402.351,2812.00
403.361,3410.00
404.370,3116.00
405.380,3054.00
406.389,3548.00
407.398,3260.00
408.407,3320.00
409.414,3472.00
410.423,3548.00
411.431,2932.00
412.440,2876.00
413.448,3549.00
414.457,3060.00
415.465,3001.00
416.471,3053.00
417.479,3168.00
418.487,2979.00
419.495,3497.00
420.503,3331.00
421.510,2771.00
422.518,3304.00
423.525,3387.00
424.530,3654.00
425.537,3058.00
426.544,3450.00
427.551,3017.00
428.558,3875.00
429.565,3641.00
430.571,3052.00
431.578,3072.00
432.582,3002.00
433.588,3155.00
434.595,2779.00
435.601,3521.00
436.607,3432.00
437.612,2900.00
438.618,3531.00
439.624,3087.00
440.627,3122.00
441.633,3297.00
442.638,3832.00
443.643,3270.00
444.648,3215.00
445.653,3392.00
446.658,3066.00
447.663,3240.00
448.667,3076.00
449.672,3063.00
450.674,3153.00
451.678,2829.00
452.682,3029.00
453.687,3033.00
454.690,3875.00
455.694,3506.00
456.698,2682.00
457.702,2806.00
458.705,2978.00
459.709,2974.00
460.710,3028.00
461.713,3177.00
462.716,3249.00
463.719,3172.00
464.722,3337.00
465.725,3116.00
466.727,2994.00
467.730,3202.00
468.732,2937.00
469.735,3502.00
470.737,3073.00
471.737,3052.00
472.739,3021.00
473.741,2990.00
474.742,3264.00
475.744,3279.00
476.746,3236.00
477.747,3138.00
478.748,3365.00
479.750,3132.00
480.751,3171.00
481.752,3948.00
482.753,3253.00
483.751,3782.00
484.752,2781.00
485.753,3142.00
486.753,3016.00
487.753,3123.00
488.754,3613.00
489.754,2846.00
490.754,3540.00
491.754,3280.00
492.754,2883.00
493.753,3214.00
494.753,3041.00
495.752,3573.00
496.752,3213.00
497.749,3171.00
498.748,2992.00
499.747,3618.00
500.746,3275.00
501.745,2911.00
502.744,2935.00
503.742,3573.00
504.741,3100.00
505.739,2643.00
506.737,3070.00
507.735,3338.00
508.734,3566.00
509.732,3356.00
510.729,3563.00
511.727,3029.00
512.725,3100.00
513.720,2909.00
514.718,3424.00
515.715,2867.00
516.712,2810.00
517.709,3152.00
518.706,3058.00
519.703,3228.00
520.700,3398.00
521.696,3512.00
522.693,3112.00
523.689,2977.00
524.686,3361.00
525.682,2956.00
526.678,3697.00
527.674,3109.00
528.670,2722.00
529.666,3690.00
530.661,3681.00
531.657,3879.00
532.652,3363.00
533.648,3172.00
534.641,3356.00
535.636,3207.00
536.631,3274.00
537.626,3355.00
538.621,2905.00
539.616,2741.00
540.610,2675.00
541.605,3184.00
542.599,3194.00
543.593,3154.00
544.587,4127.00
545.581,3011.00
546.575,3221.00
547.569,3232.00
548.563,2805.00
549.557,2783.00
550.550,2939.00
551.543,2911.00
552.537,3341.00
553.530,2918.00
554.523,2914.00
555.516,3307.00
556.509,3118.00
557.502,2786.00
558.494,3400.00
559.487,3021.00
560.479,3350.00
561.472,3401.00
562.464,3329.00
563.456,3480.00
564.448,3111.00
565.440,3149.00
566.432,3627.00
567.423,3050.00
568.415,3048.00
569.404,3267.00
570.396,2954.00
571.387,3322.00
572.378,3148.00
573.369,4184.00
574.360,3838.00
575.351,3124.00
576.341,2988.00
577.332,3028.00
578.323,2841.00
579.313,3041.00
580.303,3444.00
581.293,3272.00
582.283,3176.00
583.273,3295.00
584.263,3170.00
585.253,3309.00
586.243,3337.00
587.232,2752.00
588.222,3158.00
589.211,3405.00
590.200,3190.00
591.189,3086.00
592.178,3116.00
593.167,3629.00
594.156,3518.00
595.145,3069.00
596.133,3664.00
597.122,3281.00
598.110,3390.00
599.098,3265.00
600.086,3154.00
601.074,3357.00
602.062,2994.00
603.050,2888.00
604.038,3275.00
605.025,2953.00
606.013,3375.00
607.000,3592.00
607.987,3165.00
608.975,3282.00
609.962,2934.00
610.949,3319.00
611.936,3445.00
612.922,3339.00
613.909,2857.00
614.895,3580.00
615.882,2998.00
616.868,3186.00
617.854,2930.00
618.841,3211.00
619.826,3300.00
620.812,3137.00
621.798,2973.00
622.784,3357.00
623.769,3279.00
624.755,2836.00
625.740,3211.00
626.725,2854.00
627.711,3063.00
628.698,3243.00
629.683,2944.00
630.667,3363.00
631.652,2900.00
632.637,3130.00
633.621,3314.00
634.606,3097.00
635.590,3302.00
636.574,3100.00
637.558,3261.00
638.542,3180.00
639.526,3015.00
640.510,2780.00
641.493,3229.00
642.477,3142.00
643.460,2872.00
644.444,3414.00
645.427,3472.00
646.410,2858.00
647.393,3132.00
648.376,3248.00
649.359,3073.00
650.341,3268.00
651.324,3233.00
652.307,3221.00
653.289,3116.00
654.271,3002.00
655.253,3097.00
656.235,3283.00
657.217,3395.00
658.199,2756.00
659.181,2953.00
660.163,3142.00
661.144,3015.00
662.126,2995.00
663.107,2925.00
664.088,4943.00
665.069,3444.00
666.050,2983.00
667.033,2894.00
668.014,3219.00
668.995,2722.00
669.975,3177.00
670.956,3158.00
671.936,3321.00
672.916,3078.00
673.896,3256.00
674.876,3062.00
675.856,3012.00
676.836,2894.00
677.816,2425.00
678.795,2965.00
679.775,2828.00
680.754,3225.00
681.734,3337.00
682.713,3355.00
683.692,2931.00
684.671,2756.00
685.650,2907.00
686.629,2987.00
687.607,2930.00
688.586,2939.00
689.564,3004.00
690.543,3426.00
691.523,2522.00
692.501,2980.00
693.479,3087.00
694.457,2924.00
695.435,3005.00
696.413,2813.00
697.390,2629.00
698.368,2854.00
699.345,3244.00
700.322,3098.00
701.300,3243.00
702.277,3206.00
703.254,3440.00
704.231,2676.00
705.207,3100.00
706.184,2926.00
707.161,2792.00
708.137,2980.00
709.113,2981.00
710.090,2948.00
711.068,2672.00
712.044,2728.00
713.020,3080.00
713.996,2759.00
714.971,2917.00
715.947,2997.00
716.922,3004.00
717.898,2929.00
718.873,3058.00
719.848,2890.00
720.823,2847.00
721.798,3148.00
722.773,2839.00
723.748,2688.00
724.723,3181.00
725.697,2995.00
726.672,2897.00
727.646,2630.00
728.622,3136.00
729.596,2750.00
730.570,2903.00
731.544,3231.00
732.518,3429.00
733.492,2997.00
734.466,2984.00
735.439,3150.00
736.413,3306.00
737.386,2571.00
738.359,2546.00
739.332,2652.00
740.305,3009.00
741.278,3501.00
742.251,3066.00
743.224,2844.00
744.196,2696.00
745.171,3322.00
746.143,3191.00
747.115,2924.00
748.087,2857.00
749.059,3257.00
750.031,3064.00
751.003,3915.00
751.975,3448.00
752.947,2807.00
753.918,3242.00
754.890,2692.00
755.861,2931.00
756.832,3244.00
757.803,2970.00
758.774,3032.00
759.747,2713.00
760.718,3423.00
761.689,2860.00
762.659,2756.00
763.630,3288.00
764.600,2710.00
765.570,3230.00
766.540,3305.00
767.510,3097.00
768.480,3209.00
769.450,2844.00
770.420,2973.00
771.390,2802.00
772.359,2930.00
773.329,2783.00
774.300,2637.00
775.269,2914.00
776.238,3132.00
777.207,3289.00
778.176,2631.00
779.145,2935.00
780.114,2785.00
781.083,2680.00
782.051,2874.00
783.019,2806.00
783.988,3274.00
784.956,2966.00
785.924,3133.00
786.894,3017.00
787.862,2849.00
788.830,3316.00
789.797,2748.00
790.765,2719.00
791.732,2882.00
792.700,2802.00
793.667,2692.00
794.634,2932.00
795.601,2871.00
796.568,2913.00
797.535,2944.00
798.502,3621.00
799.468,3084.00
800.437,2503.00
801.403,2775.00
802.370,3452.00
803.336,3147.00
804.302,2981.00
805.268,2563.00
806.234,2658.00
807.200,2864.00
808.166,2930.00
809.131,2719.00
810.097,3142.00
811.062,3900.00
812.027,3153.00
812.994,2713.00
813.960,2739.00
814.925,3093.00
815.889,2632.00
816.854,3178.00
817.819,2786.00
818.783,2859.00
819.748,3254.00
820.712,2908.00
821.677,2760.00
822.641,2836.00
823.605,2815.00
824.571,3344.00
825.534,2864.00
826.498,2844.00
827.462,2932.00
828.425,2726.00
829.389,3236.00
830.352,2961.00
831.315,3045.00
832.279,2605.00
833.242,2889.00
834.204,2804.00
835.167,2798.00
836.132,3215.00
837.095,2658.00
838.057,2846.00
839.020,2949.00
839.982,3009.00
840.944,2791.00
841.906,2768.00
842.868,3077.00
843.830,2682.00
844.792,3243.00
845.753,2806.00
846.715,2549.00
847.679,2723.00
848.640,2761.00
849.601,2878.00
850.562,3436.00
851.523,2822.00
852.484,2575.00
853.445,3135.00
854.406,2828.00
855.367,2869.00
856.327,3189.00
857.288,2610.00
858.248,2790.00
859.210,2832.00
860.170,2634.00
861.130,3155.00
862.090,2529.00
863.050,2736.00
864.010,2797.00
864.969,3065.00
865.929,2727.00
866.888,2615.00
867.848,2964.00
868.807,2819.00
869.766,2998.00
870.727,2862.00
871.686,3187.00
872.645,3136.00
873.604,3459.00
874.562,2884.00
875.521,2961.00
876.479,3535.00
877.437,2728.00
878.396,2726.00
879.354,3285.00
880.312,2730.00
881.270,2811.00
882.229,3268.00
883.187,2721.00
884.145,2794.00
885.102,3092.00
886.059,2971.00
887.017,3045.00
887.974,3118.00
888.931,3217.00
889.888,2649.00
890.845,2558.00
891.802,2442.00
892.758,2785.00
893.717,2543.00
894.673,2727.00
895.630,2717.00
896.586,3040.00
897.542,2791.00
898.498,2662.00
899.454,2986.00
900.410,2815.00
901.366,2801.00
902.321,2707.00
903.277,2801.00
904.232,2884.00
905.189,2595.00
906.145,2770.00
907.100,2342.00
908.055,2830.00
909.010,3069.00
909.965,2458.00
910.919,2936.00
911.874,2684.00
912.828,2896.00
913.783,2954.00
914.737,2453.00
915.693,2913.00
916.648,3036.00
917.602,3109.00
918.555,2929.00
919.509,2982.00
920.463,2894.00
921.417,2925.00
922.370,2703.00
923.324,2807.00
924.277,2793.00
925.230,2893.00
926.183,2519.00
927.138,2787.00
928.091,3102.00
929.044,2995.00
929.996,2806.00
930.949,2783.00
931.902,2966.00
932.854,2980.00
933.806,2710.00
934.758,3117.00
935.711,3163.00
936.663,2869.00
937.614,2936.00
938.568,2869.00
939.520,2503.00
940.471,2819.00
941.423,2895.00
942.374,3077.00
943.326,2870.00
944.277,2754.00
945.228,2959.00
946.179,2822.00
947.130,3166.00
948.080,2793.00
949.031,2676.00
949.984,2846.00
950.934,2861.00
951.884,2565.00
952.835,2830.00
953.785,2856.00
954.735,2741.00
955.685,2483.00
956.635,2759.00
957.585,2744.00
958.534,2765.00
959.484,2887.00
960.433,2706.00
961.383,2554.00
962.334,3105.00
963.283,2906.00
964.232,2986.00
965.181,2853.00
966.130,2868.00
967.079,2787.00
968.027,2860.00
968.976,2852.00
969.924,2786.00
970.873,2937.00
971.821,2890.00
972.769,3073.00
973.719,2980.00
974.667,2588.00
975.615,2863.00
976.562,2829.00
977.510,2531.00
978.458,2717.00
979.405,2957.00
980.352,2855.00
981.300,3102.00
982.247,2959.00
983.194,2667.00
984.141,2775.00
985.088,2842.00
986.036,2945.00
986.983,3146.00
987.930,3279.00
988.876,2447.00
989.822,3117.00
990.769,2671.00
991.715,2732.00
992.661,2538.00
993.607,2966.00
994.553,3434.00
995.498,2731.00
996.444,2388.00
997.389,2909.00
998.337,2652.00
999.282,2988.00
1000.227,2791.00
1001.173,2820.00
1002.118,2546.00
1003.062,3041.00
1004.007,2772.00
1004.952,3147.00
1005.897,3113.00
1006.841,2820.00
1007.786,2575.00
1008.730,2532.00
1009.674,3338.00
1010.618,2774.00
1011.564,2632.00
1012.508,2474.00
1013.452,3080.00
1014.396,2876.00
1015.339,2761.00
1016.283,2825.00
1017.226,2881.00
1018.170,2840.00
1019.113,3021.00
1020.056,2846.00
1020.999,2850.00
1021.942,2694.00
1022.885,3049.00
1023.828,3118.00
1024.770,2609.00
1025.715,2892.00
1026.657,2820.00
1027.600,2886.00
1028.542,3048.00
1029.484,2858.00
1030.426,2973.00
1031.368,2912.00
1032.310,2705.00
1033.251,2636.00
1034.193,2809.00
1035.135,2590.00
1036.076,2741.00
1037.017,2658.00
1037.959,2953.00
1038.900,2903.00
1039.843,2928.00
1040.784,2883.00
1041.725,2924.00
1042.665,2758.00
1043.606,2918.00
1044.547,2893.00
1045.487,2491.00
1046.427,2808.00
1047.368,2908.00
1048.308,2321.00
1049.248,2647.00
1050.188,2815.00
1051.128,2728.00
1052.067,2800.00
1053.007,2522.00
1053.947,2466.00
1054.886,2711.00
1055.827,2568.00
1056.766,3121.00
1057.706,2565.00
1058.645,2793.00
1059.584,2887.00
1060.522,3172.00
1061.461,2575.00
1062.400,2547.00
1063.338,2783.00
1064.277,2647.00
1065.215,2632.00
1066.154,2494.00
1067.092,2706.00
1068.030,2730.00
1068.968,2986.00
1069.906,3137.00
1070.843,3093.00
1071.781,2848.00
1072.720,2945.00
1073.658,2973.00
1074.595,2695.00
1075.533,2702.00
1076.470,2716.00
1077.407,3122.00
1078.344,2878.00
1079.281,2899.00
1080.217,2368.00
1081.154,2764.00
1082.091,2849.00
1083.027,2556.00
1083.964,3055.00
1084.900,2705.00
1085.836,2740.00
1086.772,3023.00
1087.708,2585.00
1088.644,2955.00
1089.580,2774.00
1090.515,2852.00
1091.451,2746.00
1092.388,2859.00
1093.324,2502.00
1094.259,3416.00
1095.194,2828.00
1096.129,2744.00
1097.064,2682.00
1097.999,2924.00
1098.934,2669.00
1099.869,2661.00
1100.803,2813.00
1101.738,2884.00
1102.672,2513.00
1103.607,2926.00
1104.541,2671.00
1105.475,2655.00
1106.409,2541.00
1107.343,2691.00
1108.277,2577.00
1109.210,2834.00
1110.144,2799.00
1111.078,2783.00
1112.011,2574.00
1112.944,2862.00
1113.878,2856.00
1114.811,2279.00
1115.744,2690.00
1116.678,2405.00
1117.611,2708.00
1118.544,2725.00
1119.477,2870.00
1120.409,2653.00
1121.342,3278.00
1122.274,2820.00
1123.206,3195.00
1124.138,2804.00
1125.070,3131.00
1126.002,3013.00
1126.934,2333.00
1127.866,2683.00
1128.798,2437.00
1129.729,2467.00
1130.661,2783.00
1131.592,2655.00
1132.523,2874.00
1133.454,2907.00
1134.385,2423.00
1135.317,2775.00
1136.247,2694.00
1137.178,3036.00
1138.109,2487.00
1139.039,3135.00
1139.970,2970.00
1140.900,2704.00
1141.831,2465.00
1142.761,2331.00
1143.691,2898.00
1144.621,2780.00
1145.551,2848.00
1146.480,2782.00
1147.410,2939.00
1148.340,2400.00
1149.269,2484.00
1150.199,2729.00
1151.128,3176.00
1152.057,2546.00
1152.979,2673.00
1153.898,2736.00
1154.819,2810.00
1155.739,2744.00
1156.658,2696.00
1157.579,2810.00
1158.498,2768.00
1159.419,2301.00
1160.338,2809.00
1161.256,2856.00
1162.177,2573.00
1163.095,2748.00
1164.016,2847.00
1164.934,3019.00
1165.852,2956.00
1166.772,2734.00
1167.690,2752.00
1168.610,2815.00
1169.528,2771.00
1170.446,2288.00
1171.365,2664.00
1172.283,2624.00
1173.202,2750.00
1174.120,2763.00
1175.037,2589.00
1175.956,2544.00
1176.873,2660.00
1177.792,2628.00
1178.709,3259.00
1179.626,2659.00
1180.544,2949.00
1181.461,2608.00
1182.379,2853.00
1183.296,2759.00
1184.212,2379.00
1185.130,2587.00
1186.046,3104.00
1186.962,2747.00
1187.880,3031.00
1188.796,2787.00
1189.714,2566.00
1190.629,2864.00
1191.545,2835.00
1192.462,2694.00
1193.378,2715.00
1194.295,2436.00
1195.210,2801.00
1196.125,2902.00
1197.042,2820.00
1197.957,2751.00
1198.872,2609.00
1199.788,2687.00
1200.703,3104.00
1201.619,2781.00
1202.534,2611.00
1203.448,2846.00
1204.364,2702.00
1205.278,2425.00
1206.192,2810.00
1207.108,3306.00
1208.022,3109.00
1208.938,2565.00
1209.851,2934.00
1210.765,3005.00
1211.680,2649.00
1212.594,2511.00
1213.507,2714.00
1214.422,3145.00
1215.335,2886.00
1216.248,2670.00
1217.163,2782.00
1218.076,3388.00
1218.990,2903.00
1219.903,2541.00
1220.816,2576.00
1221.730,2713.00
1222.642,2625.00
1223.554,2711.00
1224.469,2891.00
1225.380,2705.00
1226.292,2370.00
1227.206,2882.00
1228.118,3075.00
1229.032,2379.00
1229.943,2647.00
1230.855,2701.00
1231.768,2501.00
1232.679,2870.00
1233.590,2711.00
1234.503,2955.00
1235.414,2626.00
1236.325,2606.00
1237.238,2837.00
1238.149,2875.00
1239.059,2563.00
1239.972,2892.00
1240.882,2568.00
1241.793,2879.00
1242.705,3102.00
1243.615,2747.00
1244.525,2873.00
1245.437,2296.00
1246.347,2787.00
1247.259,2921.00
1248.168,3182.00
1249.078,3042.00
1249.989,3040.00
1250.899,2542.00
1251.808,2598.00
1252.719,2668.00
1253.628,2624.00
1254.537,3160.00
1255.448,2581.00
1256.357,2608.00
1257.266,2772.00
1258.176,2480.00
1259.085,2453.00
1259.993,2550.00
1260.904,2588.00
1261.812,2569.00
1262.720,3297.00
1263.630,2931.00
1264.538,2545.00
1265.446,2836.00
1266.356,2735.00
1267.263,3051.00
1268.171,2527.00
1269.080,2803.00
1269.988,2921.00
1270.895,2674.00
1271.804,2710.00
1272.711,2974.00
1273.619,2871.00
1274.527,2567.00
1275.434,2841.00
1276.341,2536.00
1277.248,2768.00
1278.156,3063.00
1279.063,2611.00
1279.969,2835.00
1280.877,3672.00
1281.783,2941.00
1282.690,2810.00
1283.598,2727.00
1284.503,2571.00
1285.409,2540.00
1286.317,3139.00
1287.223,3177.00
1288.128,2807.00
1289.036,2627.00
1289.941,2693.00
1290.846,2735.00
1291.751,2499.00
1292.658,2667.00
1293.563,3222.00
1294.468,2758.00
1295.375,2922.00
1296.280,3026.00
1297.184,3514.00
1298.091,2816.00
1298.995,2909.00
1299.900,3153.00
1300.806,2636.00
1301.710,2497.00
1302.614,2277.00
1303.518,3011.00
1304.424,2695.00
1305.327,2956.00
1306.231,2735.00
1307.137,2935.00
1308.040,2791.00
1308.943,2791.00
1309.847,2933.00
1310.752,2911.00
1311.655,2415.00
1312.558,2527.00
1313.463,2695.00
1314.366,2667.00
1315.269,2823.00
1316.171,2726.00
1317.076,2694.00
1317.978,2582.00
1318.881,2363.00
1319.785,2611.00
1320.687,2621.00
1321.589,2345.00
1322.491,2601.00
1323.395,2862.00
1324.297,3331.00
1325.198,2915.00
1326.102,2534.00
1327.004,2535.00
1327.905,3148.00
1328.806,2710.00
1329.709,2839.00
1330.611,2672.00
1331.512,2582.00
1332.413,3233.00
1333.316,2780.00
1334.216,2890.00
1335.117,2493.00
1336.020,2776.00
1336.920,2754.00
1337.821,2589.00
1338.721,3025.00
1339.623,2803.00
1340.523,2720.00
1341.423,2609.00
1342.323,3067.00
1343.225,2830.00
1344.125,2571.00
1345.025,2629.00
1345.924,2407.00
1346.826,3087.00
1347.725,3193.00
1348.624,2994.00
1349.524,2623.00
1350.425,2718.00
1351.324,2891.00
1352.223,2927.00
1353.121,2729.00
1354.022,3022.00
1354.921,3141.00
1355.819,2854.00
1356.718,2819.00
1357.618,2499.00
1358.516,2877.00
1359.415,3174.00
1360.313,2809.00
1361.213,2699.00
1362.111,3070.00
1363.008,3458.00
1363.906,2733.00
1364.806,2762.00
1365.703,2851.00
1366.601,2545.00
1367.498,2624.00
1368.397,2955.00
1369.295,2825.00
1370.192,2550.00
1371.089,2830.00
1371.987,2745.00
1372.884,3035.00
1373.781,2526.00
1374.678,2761.00
1375.574,2597.00
1376.473,2895.00
1377.369,2983.00
1378.265,2608.00
1379.161,2715.00
1380.059,2443.00
1380.955,2886.00
1381.851,2526.00
1382.747,2641.00
1383.643,2662.00
1384.540,2527.00
1385.436,2624.00
1386.331,2844.00
1387.227,2926.00
1388.124,2864.00
1389.019,2546.00
1389.914,2721.00
1390.809,2348.00
1391.704,3204.00
1392.601,2680.00
1393.495,3073.00
1394.390,2930.00
1395.285,3028.00
1396.179,2868.00
1397.075,2728.00
1397.969,2818.00
1398.864,2428.00
1399.758,2696.00
1400.652,2781.00
1401.547,2568.00
1402.441,2568.00
1403.335,3128.00
1404.229,2789.00
1405.122,2858.00
1406.017,2721.00
1406.911,2889.00
1407.804,3209.00
1408.697,2762.00
1409.590,2604.00
1410.485,2922.00
1411.378,2815.00
1412.271,2430.00
1413.163,2817.00
1414.056,2896.00
1414.949,3137.00
1415.843,2767.00
1416.735,2677.00
1417.627,2770.00
1418.520,2744.00
1419.412,3034.00
1420.306,2895.00
1421.197,3087.00
1422.089,3021.00
1422.981,3229.00
1423.873,2952.00
1424.764,2870.00
1425.657,2818.00
1426.549,2950.00
1427.440,2999.00
1428.331,2616.00
1429.222,2408.00
1430.113,2821.00
1431.006,2965.00
1431.897,2687.00
1432.787,2812.00
1433.678,2677.00
1434.568,2602.00
1435.459,2994.00
1436.351,2958.00
1437.241,2932.00
1438.131,2938.00
1439.021,2520.00
1439.911,2729.00
1440.801,2817.00
1441.693,3009.00
1442.583,2805.00
1443.472,2785.00
1444.362,2875.00
1445.251,2695.00
1446.140,2686.00
1447.030,2990.00
1447.921,2982.00
1448.810,2607.00
1449.699,3182.00
1450.588,2821.00
1451.476,2664.00
1452.365,2856.00
1453.254,2715.00
1454.144,2644.00
1455.032,2899.00
1455.921,2501.00
1456.809,3077.00
1457.697,2562.00
1458.585,2708.00
1459.473,2738.00
1460.361,2643.00
1461.251,2875.00
1462.138,2848.00
1463.026,2745.00
1463.913,3021.00
1464.801,2698.00
1465.688,2863.00
1466.575,2781.00
1467.463,3246.00
1468.351,2650.00
1469.238,2748.00
1470.125,2363.00
1471.012,2806.00
1471.899,2849.00
1472.785,2589.00
1473.672,2773.00
1474.558,3002.00
1475.446,2973.00
1476.333,2926.00
1477.219,2558.00
1478.105,2751.00
1478.991,2716.00
1479.877,3127.00
1480.762,2780.00
1481.648,2641.00
1482.534,2919.00
1483.419,2856.00
1484.307,2922.00
1485.192,2781.00
1486.077,2602.00
1486.962,2635.00
1487.847,2537.00
1488.732,2632.00
1489.617,2810.00
1490.502,3060.00
1491.387,2903.00
1492.271,2582.00
1493.156,2593.00
1494.042,2581.00
1494.927,3036.00
1495.811,2667.00
1496.695,2908.00
1497.579,3070.00
1498.463,2762.00
1499.347,2821.00
1500.231,2802.00
1501.114,2857.00
1501.998,3077.00
1502.881,2781.00
1503.765,3107.00
1504.648,3213.00
1505.533,2918.00
1506.417,2802.00
1507.300,2751.00
1508.183,2843.00
1509.066,2238.00
1509.948,3049.00
1510.831,3176.00
1511.714,2559.00
1512.596,2922.00
1513.479,3056.00
1514.361,3014.00
1515.243,2856.00
1516.125,2966.00
1517.008,3041.00
1517.890,2756.00
1518.771,2821.00
1519.655,2976.00
1520.537,2757.00
1521.419,2635.00
1522.300,2853.00
1523.182,2935.00
1524.063,2953.00
1524.944,3135.00
1525.825,2963.00
1526.707,2587.00
1527.588,2566.00
1528.468,2870.00
1529.349,2451.00
1530.230,2710.00
1531.111,2943.00
1531.991,2805.00
1532.872,2517.00
1533.752,2783.00
1534.632,2660.00
1535.513,2670.00
1536.393,2962.00
1537.273,3119.00
1538.153,3519.00
1539.032,2524.00
1539.912,2740.00
1540.792,2817.00
1541.672,2815.00
1542.551,2922.00
1543.430,3417.00
1544.310,2813.00
1545.189,2686.00
1546.068,3207.00
1546.947,2929.00
1547.826,3158.00
1548.705,2811.00
1549.584,3088.00
1550.462,2739.00
1551.341,2975.00
1552.219,2869.00
1553.098,2963.00
1553.976,3041.00
1554.854,3231.00
1555.733,2999.00
1556.611,2670.00
1557.489,2626.00
1558.367,2822.00
1559.244,2986.00
1560.122,2794.00
1561.000,2917.00
1561.877,3085.00
1562.755,2660.00
1563.632,2741.00
1564.509,3076.00
1565.386,3194.00
1566.264,2567.00
1567.141,2417.00
1568.017,2982.00
1568.894,2789.00
1569.771,2852.00
1570.648,2922.00
1571.524,2794.00
1572.401,2512.00
1573.277,2566.00
1574.153,2820.00
1575.029,2664.00
1575.906,3580.00
1576.781,2976.00
1577.657,2776.00
1578.533,3061.00
1579.409,2421.00
1580.285,2761.00
1581.160,3284.00
1582.036,2984.00
1582.911,2611.00
1583.786,3162.00
1584.662,2575.00
1585.537,2733.00
1586.412,2861.00
1587.287,2630.00
1588.160,2993.00
1589.035,2411.00
1589.909,2847.00
1590.784,2771.00
1591.658,2580.00
1592.533,2854.00
1593.407,2838.00
1594.281,2675.00
1595.155,3235.00
1596.029,2737.00
1596.903,2764.00
1597.777,2708.00
1598.651,3074.00
1599.525,2475.00
1600.398,2814.00
1601.272,2764.00
1602.144,3413.00
1603.017,2809.00
1603.890,3047.00
1604.763,2901.00
1605.636,2936.00
1606.509,2511.00
1607.382,2615.00
1608.255,2866.00
1609.128,2998.00
1610.000,2765.00
1610.873,2446.00
1611.746,2710.00
1612.616,2717.00
1613.488,2381.00
1614.361,2803.00
1615.233,2768.00
1616.105,2973.00
1616.977,2723.00
1617.849,2642.00
1618.720,3142.00
1619.592,3124.00
1620.464,2899.00
1621.333,3298.00
1622.205,2793.00
1623.076,2764.00
1623.947,2820.00
1624.818,3083.00
1625.689,2936.00
1626.560,2694.00
1627.431,2856.00
1628.302,3240.00
1629.171,2958.00
1630.042,3145.00
1630.912,3845.00
1631.782,3444.00
1632.653,2596.00
1633.523,2996.00
1634.393,3070.00
1635.263,2694.00
1636.131,2808.00
1637.001,2721.00
1637.871,2432.00
1638.741,2432.00
1639.611,2544.00
1640.480,2909.00
1641.350,2699.00
1642.219,2644.00
1643.087,2288.00
1643.956,3257.00
1644.825,3099.00
1645.694,3019.00
1646.563,2993.00
1647.432,2864.00
1648.299,2846.00
1649.167,2974.00
1650.036,2579.00
1650.904,2979.00
1651.773,3060.00
1652.641,2849.00
1653.509,3008.00
1654.376,2683.00
1655.244,2846.00
1656.112,2869.00
1656.980,2822.00
1657.847,2673.00
1658.715,3015.00
1659.581,2693.00
1660.448,3114.00
1661.316,2340.00
1662.183,2851.00
1663.051,2854.00
1663.918,2855.00
1664.783,2852.00
1665.650,2908.00
1666.517,3015.00
1667.384,2864.00
1668.251,2826.00
1669.115,3056.00
1669.982,2753.00
1670.849,3139.00
1671.715,2756.00
1672.581,2981.00
1673.446,3000.00
1674.312,2846.00
1675.178,3250.00
1676.044,2888.00
1676.910,2903.00
1677.774,2880.00
1678.639,2465.00
1679.505,2857.00
1680.370,2988.00
1681.236,3511.00
1682.099,2780.00
1682.965,2855.00
1683.830,2403.00
1684.695,2621.00
1685.560,2727.00
1686.423,2952.00
1687.288,2990.00
1688.153,2847.00
1689.017,2747.00
1689.880,2899.00
1690.745,2952.00
1691.609,2657.00
1692.473,2999.00
1693.338,3071.00
1694.200,3147.00
1695.064,2848.00
1695.928,2750.00
1696.792,2894.00
1697.654,3343.00
1698.517,2862.00
1699.381,2561.00
1700.245,2465.00
1701.106,3096.00
1701.969,2694.00
1702.833,3001.00
1703.696,2747.00
1704.557,2786.00
1705.420,2685.00
1706.283,2885.00
1707.146,2966.00
1708.007,2618.00
1708.870,2636.00
1709.732,2478.00
1710.595,2682.00
1711.455,2532.00
1712.318,2781.00
1713.180,3128.00
1714.040,2868.00
1714.902,3057.00
1715.764,2848.00
1716.626,2595.00
1717.486,2800.00
1718.348,3073.00
1719.209,4239.00
1720.071,2469.00
1720.930,2531.00
1721.792,2669.00
1722.653,2690.00
1723.512,2710.00
1724.374,2783.00
1725.234,2894.00
1726.095,2859.00
1726.954,2865.00
1727.815,2936.00
1728.676,2842.00
1729.535,3080.00
1730.395,2823.00
1731.256,2771.00
1732.114,2885.00
1732.974,2272.00
1733.834,3213.00
1734.693,3014.00
1735.553,2875.00
1736.413,3251.00
1737.272,2717.00
1738.130,2771.00
1738.990,2936.00
1739.849,2731.00
1740.707,3903.00
1741.566,2850.00
1742.426,2867.00
1743.283,3237.00
1744.142,2731.00
1745.001,2470.00
1745.858,3049.00
1746.717,2934.00
1747.576,2910.00
1748.433,2975.00
1749.292,3501.00
1750.150,3515.00
1751.007,3040.00
1751.865,3073.00
1752.723,2855.00
1753.579,2770.00
1754.438,3078.00
1755.296,3013.00
1756.152,2371.00
1757.010,2494.00
1757.865,3041.00
1758.723,2465.00
1759.581,3146.00
1760.436,2846.00
1761.294,3245.00
1762.151,2822.00
1763.006,2755.00
1763.864,2453.00
1764.721,3060.00
1765.576,2875.00
1766.433,3008.00
1767.288,2758.00
1768.144,2890.00
1769.001,2801.00
1769.856,2914.00
1770.712,3072.00
1771.568,2593.00
1772.423,2761.00
1773.279,2742.00
1774.133,2717.00
1774.989,3280.00
1775.845,3203.00
1776.699,3095.00
1777.555,2828.00
1778.409,3430.00
1779.265,2809.00
1780.120,2830.00
1780.974,2819.00
1781.829,2412.00
1782.682,2908.00
1783.538,2650.00
1784.393,2868.00
1785.246,2738.00
1786.101,2941.00
1786.954,2968.00
1787.808,3077.00
1788.661,2552.00
1789.516,2753.00
1790.370,2771.00
1791.223,3029.00
1792.077,2846.00
1792.930,2941.00
1793.784,2683.00
1794.636,2859.00
1795.490,2803.00
1796.344,2864.00
1797.196,2803.00
1798.049,2983.00
1798.901,2691.00
1799.755,3094.00
1800.606,2613.00
1801.460,3370.00
1802.311,3202.00
1803.165,3266.00
1804.018,3213.00
1804.869,2919.00
1805.722,3341.00
1806.573,2896.00
1807.426,2661.00
1808.276,2814.00
1809.129,2742.00
1809.980,3034.00
1810.832,3152.00
1811.683,2782.00
1812.535,3180.00
1813.385,2785.00
1814.237,3148.00
1815.089,2872.00
1815.940,3105.00
1816.791,2784.00
1817.641,2711.00
1818.493,3005.00
1819.343,2904.00
1820.194,2723.00
1821.044,2936.00
1821.895,3050.00
1822.745,2534.00
1823.596,2745.00
1824.445,3235.00
1825.296,2964.00
1826.145,2865.00
1826.996,3037.00
1827.845,2891.00
1828.695,2879.00
1829.544,2836.00
1830.395,2890.00
1831.243,2758.00
1832.094,2555.00
1832.942,3495.00
1833.792,2973.00
1834.640,2917.00
1835.490,2872.00
1836.338,2906.00
1837.186,2723.00
1838.036,2699.00
1838.884,2838.00
1839.733,3173.00
1840.581,3072.00
1841.430,2974.00
1842.278,3226.00
1843.127,2729.00
1843.974,2495.00
1844.823,3312.00
1845.671,3001.00
1846.519,2880.00
1847.366,2942.00
1848.213,2499.00
1849.062,2704.00
1849.909,2566.00
1850.757,3532.00
1851.604,3005.00
1852.452,2743.00
1853.298,3064.00
1854.146,2913.00
1854.993,2897.00
1855.839,3374.00
1856.687,2934.00
1857.532,2988.00
1858.380,2874.00
1859.226,2922.00
1860.073,3013.00
1860.919,2692.00
1861.765,2773.00
1862.612,3112.00
1863.457,3121.00
1864.304,2803.00
1865.150,2984.00
1865.995,2810.00
1866.842,3001.00
1867.686,3115.00
1868.533,2995.00
1869.378,2945.00
1870.223,2908.00
1871.069,2734.00
1871.914,2858.00
1872.760,2826.00
1873.604,2690.00
1874.448,3021.00
1875.294,3028.00
1876.139,2752.00
1876.984,2960.00
1877.828,2489.00
1878.672,2335.00
1879.518,2733.00
1880.361,3056.00
1881.205,3029.00
1882.050,2634.00
1882.894,3402.00
1883.739,2742.00
1884.582,2644.00
1885.425,2686.00
1886.270,3137.00
1887.113,2581.00
1887.956,2936.00
1888.801,2945.00
1889.644,2665.00
1890.486,2438.00
1891.331,2770.00
1892.173,2900.00
1893.017,2923.00
1893.860,3163.00
1894.702,3181.00
1895.546,2893.00
1896.388,3644.00
1897.230,3226.00
1898.074,2770.00
1898.916,2630.00
1899.757,2686.00
1900.601,3580.00
1901.443,3185.00
1902.284,3192.00
1903.125,3421.00
1903.969,3032.00
1904.810,3153.00
1905.651,2974.00
1906.494,3225.00
1907.335,3363.00
1908.176,3024.00
1909.018,2974.00
1909.859,2841.00
1910.700,2750.00
1911.542,3415.00
1912.383,2936.00
1913.223,2489.00
1914.064,3023.00
1914.906,3160.00
1915.746,3247.00
1916.586,3401.00
1917.428,2867.00
1918.268,2894.00
1919.107,2764.00
1919.947,2626.00
1920.789,2779.00
1921.628,3107.00
1922.468,2904.00
1923.309,2720.00
1924.148,3221.00
1924.988,2951.00
1925.827,2858.00
1926.667,2752.00
1927.507,2913.00
1928.345,2694.00
1929.184,3039.00
1930.025,2688.00
1930.864,3144.00
1931.702,3170.00
1932.541,2784.00
1933.381,2995.00
1934.219,3052.00
1935.057,3176.00
1935.896,2560.00
1936.735,2844.00
1937.573,2754.00
1938.411,2636.00
1939.249,3069.00
1940.089,2777.00
1940.927,3165.00
1941.764,3189.00
1942.602,2829.00
1943.439,2786.00
1944.278,2842.00
1945.115,2831.00
1945.953,2622.00
1946.790,2959.00
1947.628,3224.00
1948.465,2976.00
1949.302,3038.00
1950.139,3024.00
1950.976,2739.00
1951.814,3033.00
1952.651,2957.00
1953.487,2640.00
1954.323,3157.00
1955.160,2818.00
1955.998,3311.00
1956.834,2866.00
1957.670,2949.00
1958.506,3090.00
1959.342,2985.00
1960.177,2943.00
1961.015,2992.00
1961.850,2923.00
1962.686,2909.00
1963.521,2934.00
1964.357,3174.00
1965.192,2668.00
1966.029,3062.00
1966.864,2815.00
1967.699,3116.00
1968.534,2941.00
1969.369,3208.00
1970.204,2833.00
1971.040,2922.00
1971.875,2828.00
1972.709,2919.00
1973.544,2748.00
1974.378,2751.00
1975.212,3013.00
1976.047,2781.00
1976.882,2759.00
1977.716,3344.00
1978.550,2579.00
1979.384,2834.00
1980.218,2846.00
1981.052,2775.00
1981.885,2929.00
1982.719,2898.00
1983.554,3061.00
1984.388,3192.00
1985.221,3015.00
1986.054,3166.00
1986.887,2953.00
1987.720,2747.00
1988.553,3197.00
1989.386,3019.00
1990.219,3028.00
1991.053,3239.00
1991.886,2754.00
1992.719,3095.00
1993.551,2403.00
1994.383,3025.00
1995.216,2819.00
1996.048,2585.00
1996.880,3019.00
1997.712,2807.00
1998.544,2898.00
1999.376,2991.00
2000.208,3202.00
2001.040,3403.00
2001.873,2723.00
2002.705,2728.00
2003.536,2962.00
2004.367,2945.00
2005.199,2967.00
2006.030,2790.00
2006.861,2704.00
2007.692,2905.00
2008.523,2742.00
2009.354,2950.00
2010.185,2709.00
2011.016,3081.00
2011.846,3114.00
2012.677,2892.00
2013.507,3297.00
2014.338,3126.00
2015.168,2854.00
2015.999,3461.00
2016.829,2836.00
2017.659,3122.00
2018.489,3449.00
2019.319,2705.00
2020.149,3106.00
2020.980,2936.00
2021.810,2705.00
2022.639,2782.00
2023.469,2771.00
2024.298,2520.00
2025.128,2492.00
2025.957,2495.00
2026.786,2357.00
2027.615,2539.00
2028.444,2721.00
2029.273,2908.00
2030.102,2514.00
2030.931,2747.00
2031.758,3010.00
2032.586,2655.00
2033.415,2744.00
2034.243,2348.00
2035.072,2154.00
2035.900,2613.00
2036.728,2434.00
2037.556,2461.00
2038.385,2512.00
2039.213,2332.00
2040.040,2299.00
2040.868,2297.00
2041.696,2335.00
2042.524,2305.00
2043.351,2516.00
2044.179,2339.00
2045.006,2098.00
