RamanScope Measure Spectrum Data V3.72

<< MEASURE CONDITION >>
Exposure Type,Aver
Exposure Time [sec],15
Exposure Count,4
Measure Time,2023/07/14 22:20:02
Data Name,""
Data Comment,""
Rayleigh Wave[nm],532.0

<< SAMPLE SPECTRUM >>
Wave[dcm-1],No119
146.591,573.00
147.626,744.25
148.664,826.50
149.699,962.50
150.737,1090.50
151.772,1256.25
152.809,1433.00
153.846,1604.75
154.881,1718.50
155.918,1862.25
156.953,1936.25
157.989,2007.25
159.026,2100.00
160.060,2219.25
161.096,2225.75
162.130,2329.25
163.167,2292.00
164.200,2353.00
165.236,2452.50
166.272,2477.00
167.305,2470.75
168.341,2578.75
169.374,2596.00
170.409,2650.75
171.445,2681.50
172.477,2672.00
173.512,2736.00
174.545,2773.50
175.580,2787.00
176.614,2825.50
177.647,2898.25
178.681,2889.50
179.713,2873.75
180.747,2858.25
181.781,2897.25
182.813,2887.50
183.847,2941.00
184.878,2870.25
185.912,2902.75
186.945,2910.75
187.976,2962.50
189.010,2979.75
190.043,2989.25
191.073,3058.00
192.106,3081.25
193.137,3127.50
194.170,3105.75
195.202,3164.75
196.232,3255.25
197.265,3297.75
198.297,3385.25
199.327,3394.25
200.359,3477.25
201.388,3567.25
202.420,3628.75
203.452,3732.00
204.481,3803.25
205.512,3957.00
206.544,4084.75
207.573,4143.00
208.604,4232.50
209.635,4464.75
210.663,4635.75
211.694,4734.75
212.725,4850.50
213.753,4982.75
214.783,5175.00
215.813,5268.25
216.841,5238.75
217.871,5344.75
218.899,5318.25
219.929,5390.50
220.959,5331.00
221.986,5229.00
223.016,5109.25
224.045,4946.75
225.072,4837.25
226.101,4690.50
227.130,4564.50
228.157,4489.50
229.185,4353.00
230.214,4308.25
231.241,4180.50
232.269,4089.25
233.297,4091.75
234.323,3961.00
235.351,3944.00
236.379,3944.50
237.407,3914.75
238.433,3910.50
239.460,3860.75
240.488,3857.75
241.513,3944.75
242.540,3926.50
243.568,3929.50
244.592,3985.00
245.619,4013.00
246.646,4032.00
247.671,4026.50
248.697,3963.75
249.724,3966.25
250.748,3918.75
251.774,3927.25
252.801,3937.75
253.827,3920.25
254.850,3907.25
255.876,3986.00
256.902,3933.25
257.925,3946.00
258.951,3998.25
259.976,4009.25
260.999,4039.50
262.024,4069.25
263.049,4091.00
264.074,4117.00
265.097,4143.00
266.122,4227.25
267.146,4244.75
268.168,4270.50
269.193,4310.25
270.217,4404.75
271.241,4400.50
272.263,4461.75
273.287,4573.25
274.311,4535.25
275.332,4629.00
276.356,4620.00
277.379,4629.00
278.402,4567.25
279.424,4576.75
280.447,4486.75
281.470,4458.25
282.492,4444.50
283.513,4375.75
284.536,4317.00
285.558,4324.75
286.581,4227.25
287.601,4201.75
288.623,4102.25
289.645,4051.25
290.665,3962.75
291.687,3964.00
292.709,3952.50
293.730,3871.75
294.750,3796.25
295.771,3708.25
296.792,3678.25
297.813,3703.50
298.832,3604.00
299.853,3561.50
300.874,3520.00
301.895,3458.00
302.913,3437.50
303.934,3390.25
304.954,3337.25
305.975,3296.25
306.993,3297.50
308.013,3214.25
309.033,3230.50
310.052,3240.50
311.072,3132.00
312.090,3169.75
313.109,3069.75
314.129,3109.75
315.148,3112.50
316.165,3022.50
317.184,3062.25
318.203,3048.00
319.222,3003.75
320.238,2999.50
321.257,2953.75
322.275,2968.00
323.294,2951.00
324.312,2957.25
325.328,2916.50
326.346,2922.00
327.364,2866.25
328.382,2953.50
329.397,2870.75
330.415,2895.50
331.432,2851.75
332.450,2822.25
333.467,2837.75
334.482,2858.25
335.499,2816.25
336.516,2843.25
337.533,2859.00
338.547,2819.00
339.564,2795.50
340.580,2810.00
341.597,2777.00
342.613,2827.75
343.627,2850.50
344.643,2797.25
345.659,2838.75
346.675,2800.75
347.690,2778.25
348.704,2762.25
349.719,2813.00
350.735,2818.25
351.750,2776.75
352.765,2770.25
353.778,2772.75
354.793,2790.00
355.808,2812.25
356.822,2786.00
357.837,2801.25
358.851,2836.00
359.864,2779.25
360.878,2778.50
361.892,2805.25
362.906,2812.25
363.920,2808.50
364.932,2748.75
365.945,2785.75
366.959,2824.00
367.972,2755.00
368.986,2836.75
369.999,2797.75
371.010,2802.75
372.023,2811.50
373.036,2798.00
374.049,2796.00
375.061,2861.00
376.072,2795.75
377.084,2846.75
378.097,2847.25
379.109,2857.50
380.121,2851.75
381.133,2894.00
382.143,2854.50
383.155,2842.00
384.166,2840.00
385.178,2925.25
386.189,2834.50
387.201,2846.75
388.212,2833.50
389.221,2852.50
390.232,2885.50
391.243,2835.25
392.254,2833.50
393.264,2816.50
394.275,2834.00
395.283,2842.75
396.294,2782.75
397.304,2818.50
398.314,2789.25
399.324,2757.25
400.334,2777.00
401.344,2709.00
402.351,2745.50
403.361,2741.25
404.370,2726.00
405.380,2713.25
406.389,2691.75
407.398,2692.50
408.407,2640.75
409.414,2629.25
410.423,2652.75
411.431,2656.25
412.440,2634.00
413.448,2590.75
414.457,2622.75
415.465,2650.50
416.471,2623.00
417.479,2582.75
418.487,2558.00
419.495,2514.00
420.503,2568.00
421.510,2591.25
422.518,2648.00
423.525,2524.25
424.530,2519.00
425.537,2543.00
426.544,2597.75
427.551,2529.50
428.558,2511.75
429.565,2528.75
430.571,2499.75
431.578,2524.00
432.582,2521.75
433.588,2475.50
434.595,2491.25
435.601,2529.00
436.607,2527.25
437.612,2506.75
438.618,2475.25
439.624,2450.00
440.627,2496.25
441.633,2531.25
442.638,2404.25
443.643,2514.25
444.648,2451.75
445.653,2469.25
446.658,2451.00
447.663,2505.25
448.667,2453.00
449.672,2438.00
450.674,2512.75
451.678,2540.75
452.682,2539.00
453.687,2460.00
454.690,2475.50
455.694,2482.25
456.698,2522.00
457.702,2566.25
458.705,2513.25
459.709,2545.25
460.710,2524.75
461.713,2481.50
462.716,2537.00
463.719,2526.50
464.722,2512.00
465.725,2480.75
466.727,2501.75
467.730,2544.25
468.732,2522.50
469.735,2551.50
470.737,2515.00
471.737,2526.00
472.739,2552.75
473.741,2509.50
474.742,2563.50
475.744,2499.50
476.746,2583.75
477.747,2526.00
478.748,2566.50
479.750,2570.25
480.751,2550.75
481.752,2493.00
482.753,2521.50
483.751,2597.50
484.752,2556.25
485.753,2520.25
486.753,2532.00
487.753,2570.25
488.754,2578.75
489.754,2512.00
490.754,2498.00
491.754,2505.00
492.754,2564.75
493.753,2542.50
494.753,2547.50
495.752,2539.75
496.752,2527.50
497.749,2568.25
498.748,2500.75
499.747,2551.50
500.746,2546.25
501.745,2536.50
502.744,2541.50
503.742,2526.25
504.741,2476.75
505.739,2506.25
506.737,2460.75
507.735,2509.25
508.734,2463.75
509.732,2466.00
510.729,2455.50
511.727,2444.25
512.725,2430.75
513.720,2422.75
514.718,2444.25
515.715,2392.75
516.712,2366.75
517.709,2394.00
518.706,2399.75
519.703,2388.75
520.700,2386.75
521.696,2380.75
522.693,2383.50
523.689,2385.00
524.686,2407.75
525.682,2371.25
526.678,2375.00
527.674,2415.25
528.670,2370.50
529.666,2372.75
530.661,2412.50
531.657,2340.25
532.652,2382.00
533.648,2382.75
534.641,2384.75
535.636,2377.50
536.631,2443.50
537.626,2417.50
538.621,2414.25
539.616,2368.75
540.610,2454.25
541.605,2411.50
542.599,2420.25
543.593,2415.00
544.587,2440.75
545.581,2420.00
546.575,2391.75
547.569,2439.75
548.563,2369.50
549.557,2443.50
550.550,2416.00
551.543,2445.50
552.537,2393.25
553.530,2404.50
554.523,2364.75
555.516,2463.25
556.509,2440.25
557.502,2388.25
558.494,2402.50
559.487,2383.50
560.479,2412.75
561.472,2424.00
562.464,2470.00
563.456,2420.00
564.448,2435.25
565.440,2468.25
566.432,2438.50
567.423,2506.50
568.415,2425.75
569.404,2469.25
570.396,2472.00
571.387,2477.50
572.378,2507.50
573.369,2463.50
574.360,2491.00
575.351,2528.50
576.341,2482.00
577.332,2546.25
578.323,2519.50
579.313,2454.25
580.303,2479.50
581.293,2492.75
582.283,2530.00
583.273,2540.50
584.263,2511.25
585.253,2551.75
586.243,2609.00
587.232,2519.25
588.222,2586.25
589.211,2573.25
590.200,2565.00
591.189,2581.25
592.178,2555.75
593.167,2549.75
594.156,2522.00
595.145,2499.75
596.133,2554.25
597.122,2547.00
598.110,2601.25
599.098,2541.75
600.086,2524.00
601.074,2572.75
602.062,2513.50
603.050,2566.50
604.038,2572.00
605.025,2461.50
606.013,2569.75
607.000,2500.50
607.987,2515.00
608.975,2519.00
609.962,2498.25
610.949,2475.00
611.936,2431.75
612.922,2463.50
613.909,2466.75
614.895,2432.75
615.882,2431.75
616.868,2424.00
617.854,2421.00
618.841,2382.75
619.826,2333.25
620.812,2295.25
621.798,2331.25
622.784,2298.50
623.769,2269.00
624.755,2293.25
625.740,2256.75
626.725,2255.00
627.711,2269.25
628.698,2271.75
629.683,2213.50
630.667,2226.00
631.652,2198.25
632.637,2145.50
633.621,2215.00
634.606,2182.00
635.590,2207.50
636.574,2136.25
637.558,2141.50
638.542,2162.75
639.526,2141.50
640.510,2125.25
641.493,2107.25
642.477,2102.50
643.460,2101.50
644.444,2114.50
645.427,2094.75
646.410,2075.75
647.393,2055.00
648.376,2065.25
649.359,2025.50
650.341,2063.75
651.324,2025.25
652.307,1991.75
653.289,2005.00
654.271,2040.25
655.253,2029.75
656.235,1987.75
657.217,1986.75
658.199,2020.25
659.181,2022.75
660.163,2014.25
661.144,1974.00
662.126,1948.25
663.107,1974.00
664.088,1946.00
665.069,2013.00
666.050,1956.75
667.033,1961.00
668.014,1921.50
668.995,1929.75
669.975,1931.25
670.956,1986.75
671.936,1911.75
672.916,1867.50
673.896,1898.25
674.876,1895.00
675.856,1936.75
676.836,1870.50
677.816,1878.50
678.795,1880.00
679.775,1819.25
680.754,1823.25
681.734,1803.25
682.713,1787.50
683.692,1813.50
684.671,1809.00
685.650,1820.50
686.629,1814.75
687.607,1757.50
688.586,1784.50
689.564,1795.75
690.543,1735.25
691.523,1800.00
692.501,1728.25
693.479,1633.50
694.457,1729.25
695.435,1669.00
696.413,1747.25
697.390,1673.75
698.368,1663.25
699.345,1703.75
700.322,1687.00
701.300,1688.75
702.277,1716.75
703.254,1676.00
704.231,1644.50
705.207,1700.50
706.184,1674.75
707.161,1668.00
708.137,1668.50
709.113,1661.25
710.090,1670.50
711.068,1616.75
712.044,1629.75
713.020,1681.50
713.996,1647.00
714.971,1616.00
715.947,1624.50
716.922,1629.75
717.898,1597.50
718.873,1665.75
719.848,1617.75
720.823,1534.25
721.798,1590.00
722.773,1616.00
723.748,1578.00
724.723,1594.00
725.697,1538.25
726.672,1545.25
727.646,1561.00
728.622,1582.75
729.596,1572.25
730.570,1560.25
731.544,1512.25
732.518,1583.25
733.492,1561.00
734.466,1494.75
735.439,1563.50
736.413,1513.25
737.386,1542.75
738.359,1554.50
739.332,1529.75
740.305,1521.25
741.278,1512.75
742.251,1529.75
743.224,1542.50
744.196,1504.00
745.171,1544.00
746.143,1475.50
747.115,1502.00
748.087,1515.50
749.059,1483.50
750.031,1458.75
751.003,1485.25
751.975,1484.50
752.947,1466.50
753.918,1476.00
754.890,1512.25
755.861,1424.75
756.832,1446.25
757.803,1460.75
758.774,1469.50
759.747,1484.75
760.718,1414.50
761.689,1413.25
762.659,1437.25
763.630,1431.25
764.600,1396.00
765.570,1414.50
766.540,1446.00
767.510,1436.50
768.480,1393.50
769.450,1420.00
770.420,1419.00
771.390,1423.50
772.359,1347.50
773.329,1389.50
774.300,1432.75
775.269,1384.25
776.238,1388.00
777.207,1343.75
778.176,1389.25
779.145,1383.75
780.114,1390.00
781.083,1379.50
782.051,1365.00
783.019,1342.00
783.988,1347.75
784.956,1361.50
785.924,1287.75
786.894,1351.50
787.862,1361.75
788.830,1320.25
789.797,1337.50
790.765,1348.25
791.732,1349.75
792.700,1322.00
793.667,1290.25
794.634,1342.75
795.601,1334.00
796.568,1298.75
797.535,1349.75
798.502,1339.25
799.468,1301.00
800.437,1307.25
801.403,1291.00
802.370,1352.75
803.336,1282.00
804.302,1316.50
805.268,1262.25
806.234,1254.00
807.200,1299.50
808.166,1273.50
809.131,1257.50
810.097,1287.75
811.062,1277.50
812.027,1281.75
812.994,1224.50
813.960,1267.50
814.925,1242.50
815.889,1242.25
816.854,1264.00
817.819,1244.75
818.783,1260.50
819.748,1248.50
820.712,1273.00
821.677,1251.25
822.641,1235.25
823.605,1275.50
824.571,1285.50
825.534,1245.75
826.498,1239.75
827.462,1240.00
828.425,1234.25
829.389,1275.00
830.352,1213.00
831.315,1253.25
832.279,1199.50
833.242,1248.00
834.204,1181.00
835.167,1194.50
836.132,1213.75
837.095,1179.50
838.057,1220.00
839.020,1187.25
839.982,1196.25
840.944,1218.00
841.906,1252.50
842.868,1165.75
843.830,1205.00
844.792,1213.50
845.753,1217.50
846.715,1186.25
847.679,1201.00
848.640,1142.00
849.601,1207.50
850.562,1193.25
851.523,1196.00
852.484,1149.75
853.445,1147.75
854.406,1162.00
855.367,1154.00
856.327,1235.25
857.288,1185.00
858.248,1167.00
859.210,1118.75
860.170,1134.75
861.130,1187.00
862.090,1157.75
863.050,1198.50
864.010,1164.25
864.969,1208.25
865.929,1135.00
866.888,1108.00
867.848,1153.75
868.807,1151.50
869.766,1175.00
870.727,1149.50
871.686,1131.50
872.645,1114.00
873.604,1120.00
874.562,1155.25
875.521,1134.50
876.479,1121.75
877.437,1103.50
878.396,1147.50
879.354,1173.25
880.312,1138.25
881.270,1127.50
882.229,1079.25
883.187,1137.50
884.145,1141.75
885.102,1097.25
886.059,1122.25
887.017,1139.25
887.974,1120.50
888.931,1130.00
889.888,1112.25
890.845,1103.00
891.802,1144.75
892.758,1176.75
893.717,1094.50
894.673,1107.75
895.630,1122.75
896.586,1116.00
897.542,1088.75
898.498,1148.00
899.454,1141.50
900.410,1143.00
901.366,1135.50
902.321,1085.00
903.277,1119.75
904.232,1136.75
905.189,1099.50
906.145,1098.50
907.100,1167.75
908.055,1100.75
909.010,1090.75
909.965,1123.50
910.919,1105.00
911.874,1099.75
912.828,1152.50
913.783,1122.75
914.737,1157.25
915.693,1090.25
916.648,1110.50
917.602,1125.75
918.555,1118.00
919.509,1113.75
920.463,1094.25
921.417,1133.25
922.370,1072.25
923.324,1101.25
924.277,1085.75
925.230,1108.25
926.183,1125.75
927.138,1112.00
928.091,1133.00
929.044,1105.25
929.996,1155.00
930.949,1151.25
931.902,1135.50
932.854,1139.25
933.806,1180.25
934.758,1092.50
935.711,1131.00
936.663,1159.75
937.614,1137.75
938.568,1137.75
939.520,1079.50
940.471,1121.75
941.423,1132.00
942.374,1128.50
943.326,1123.50
944.277,1153.75
945.228,1138.25
946.179,1152.25
947.130,1128.50
948.080,1140.50
949.031,1146.00
949.984,1124.75
950.934,1074.50
951.884,1117.50
952.835,1091.50
953.785,1119.50
954.735,1116.75
955.685,1080.00
956.635,1099.25
957.585,1089.00
958.534,1093.50
959.484,1104.25
960.433,1106.25
961.383,1110.75
962.334,1101.50
963.283,1121.75
964.232,1062.00
965.181,1111.00
966.130,1117.75
967.079,1055.50
968.027,1084.75
968.976,1068.00
969.924,1062.25
970.873,1120.75
971.821,1106.50
972.769,1099.25
973.719,1155.50
974.667,1109.00
975.615,1092.75
976.562,1115.50
977.510,1057.00
978.458,1072.50
979.405,1110.50
980.352,1068.75
981.300,1056.50
982.247,1126.50
983.194,1138.50
984.141,1096.75
985.088,1072.25
986.036,1103.00
986.983,1096.50
987.930,1095.75
988.876,1118.00
989.822,1068.75
990.769,1112.25
991.715,1058.75
992.661,1119.25
993.607,1074.50
994.553,1081.00
995.498,1090.25
996.444,1103.75
997.389,1093.00
998.337,1078.75
999.282,1050.00
1000.227,1102.50
1001.173,1097.75
1002.118,1129.50
1003.062,1058.00
1004.007,1117.50
1004.952,1083.00
1005.897,1104.00
1006.841,1035.00
1007.786,1067.25
1008.730,1094.75
1009.674,1055.00
1010.618,1077.25
1011.564,1055.00
1012.508,1074.00
1013.452,1095.00
1014.396,1091.25
1015.339,1096.25
1016.283,1078.75
1017.226,1138.25
1018.170,1087.75
1019.113,1106.50
1020.056,1090.00
1020.999,1053.25
1021.942,1084.25
1022.885,1070.00
1023.828,1045.25
1024.770,1099.50
1025.715,1115.00
1026.657,1127.75
1027.600,1078.50
1028.542,1085.00
1029.484,1125.75
1030.426,1066.50
1031.368,1066.75
1032.310,1101.50
1033.251,1108.50
1034.193,1078.00
1035.135,1131.50
1036.076,1069.50
1037.017,1122.50
1037.959,1085.75
1038.900,1128.25
1039.843,1113.25
1040.784,1114.50
1041.725,1107.50
1042.665,1089.75
1043.606,1080.00
1044.547,1060.25
1045.487,1123.50
1046.427,1143.50
1047.368,1086.00
1048.308,1111.00
1049.248,1124.50
1050.188,1144.25
1051.128,1166.50
1052.067,1109.50
1053.007,1169.00
1053.947,1157.00
1054.886,1118.25
1055.827,1166.50
1056.766,1166.50
1057.706,1146.25
1058.645,1130.00
1059.584,1134.00
1060.522,1159.75
1061.461,1121.25
1062.400,1160.25
1063.338,1119.50
1064.277,1169.75
1065.215,1103.25
1066.154,1152.25
1067.092,1104.25
1068.030,1143.50
1068.968,1100.25
1069.906,1135.25
1070.843,1169.50
1071.781,1147.25
1072.720,1173.25
1073.658,1164.25
1074.595,1164.25
1075.533,1174.75
1076.470,1191.75
1077.407,1169.75
1078.344,1131.00
1079.281,1152.25
1080.217,1151.25
1081.154,1137.25
1082.091,1178.75
1083.027,1175.75
1083.964,1195.50
1084.900,1145.00
1085.836,1159.00
1086.772,1175.00
1087.708,1177.75
1088.644,1159.25
1089.580,1127.25
1090.515,1178.00
1091.451,1108.75
1092.388,1146.00
1093.324,1131.75
1094.259,1140.75
1095.194,1167.25
1096.129,1156.50
1097.064,1142.50
1097.999,1173.50
1098.934,1128.25
1099.869,1077.25
1100.803,1182.75
1101.738,1159.75
1102.672,1168.50
1103.607,1145.00
1104.541,1160.00
1105.475,1133.75
1106.409,1138.25
1107.343,1135.50
1108.277,1101.25
1109.210,1136.25
1110.144,1122.00
1111.078,1106.00
1112.011,1115.00
1112.944,1132.25
1113.878,1091.00
1114.811,1095.75
1115.744,1124.75
1116.678,1113.75
1117.611,1074.50
1118.544,1139.50
1119.477,1109.25
1120.409,1103.00
1121.342,1116.00
1122.274,1094.00
1123.206,1067.75
1124.138,1041.25
1125.070,1053.75
1126.002,1073.25
1126.934,1069.25
1127.866,1051.25
1128.798,1081.00
1129.729,1081.00
1130.661,1091.25
1131.592,1049.25
1132.523,1069.75
1133.454,1014.25
1134.385,1028.25
1135.317,1047.75
1136.247,1076.00
1137.178,1048.75
1138.109,1053.50
1139.039,1066.25
1139.970,1034.00
1140.900,1030.00
1141.831,1047.25
1142.761,1010.25
1143.691,1034.00
1144.621,1044.25
1145.551,1050.25
1146.480,990.25
1147.410,1032.00
1148.340,1019.50
1149.269,1038.00
1150.199,1007.75
1151.128,1000.75
1152.057,1032.00
1152.979,1034.25
1153.898,1014.00
1154.819,1007.75
1155.739,1012.00
1156.658,1021.75
1157.579,1021.00
1158.498,984.25
1159.419,1000.75
1160.338,1014.25
1161.256,1028.25
1162.177,991.50
1163.095,1006.75
1164.016,1001.25
1164.934,997.75
1165.852,991.00
1166.772,980.75
1167.690,1014.50
1168.610,1018.75
1169.528,1021.50
1170.446,989.50
1171.365,971.25
1172.283,980.50
1173.202,954.75
1174.120,984.50
1175.037,966.50
1175.956,1016.00
1176.873,985.50
1177.792,990.25
1178.709,979.50
1179.626,982.25
1180.544,959.25
1181.461,965.75
1182.379,941.00
1183.296,1009.50
1184.212,1001.00
1185.130,969.50
1186.046,972.25
1186.962,960.75
1187.880,1008.75
1188.796,949.75
1189.714,972.50
1190.629,954.25
1191.545,1009.50
1192.462,1012.00
1193.378,965.75
1194.295,962.25
1195.210,983.50
1196.125,1007.50
1197.042,997.75
1197.957,981.00
1198.872,973.50
1199.788,986.75
1200.703,976.75
1201.619,998.00
1202.534,981.50
1203.448,981.50
1204.364,974.75
1205.278,963.00
1206.192,973.50
1207.108,1026.25
1208.022,969.50
1208.938,938.75
1209.851,985.00
1210.765,1031.25
1211.680,962.00
1212.594,956.50
1213.507,1038.00
1214.422,1014.50
1215.335,984.50
1216.248,979.25
1217.163,998.75
1218.076,958.00
1218.990,973.25
1219.903,969.50
1220.816,960.00
1221.730,986.75
1222.642,1007.25
1223.554,933.25
1224.469,918.75
1225.380,1009.25
1226.292,1049.25
1227.206,1015.00
1228.118,982.25
1229.032,997.75
1229.943,988.25
1230.855,1006.25
1231.768,989.50
1232.679,966.75
1233.590,988.00
1234.503,1017.00
1235.414,1007.75
1236.325,985.50
1237.238,964.00
1238.149,958.75
1239.059,1046.25
1239.972,1003.25
1240.882,985.75
1241.793,957.50
1242.705,985.25
1243.615,969.25
1244.525,1036.75
1245.437,1004.00
1246.347,954.50
1247.259,995.50
1248.168,992.75
1249.078,1000.75
1249.989,973.50
1250.899,1005.00
1251.808,1007.50
1252.719,977.25
1253.628,941.75
1254.537,1002.50
1255.448,994.50
1256.357,1007.75
1257.266,950.50
1258.176,997.75
1259.085,1003.25
1259.993,992.50
1260.904,969.00
1261.812,986.50
1262.720,979.25
1263.630,990.75
1264.538,1007.00
1265.446,987.00
1266.356,1026.50
1267.263,1012.75
1268.171,993.00
1269.080,1023.50
1269.988,1009.75
1270.895,1014.25
1271.804,991.75
1272.711,1002.75
1273.619,995.75
1274.527,1034.75
1275.434,1012.00
1276.341,1021.50
1277.248,1024.75
1278.156,984.50
1279.063,1005.75
1279.969,957.25
1280.877,956.75
1281.783,990.00
1282.690,1004.75
1283.598,990.75
1284.503,975.00
1285.409,986.00
1286.317,964.50
1287.223,992.00
1288.128,1022.00
1289.036,1009.50
1289.941,965.25
1290.846,976.50
1291.751,984.50
1292.658,996.50
1293.563,978.25
1294.468,954.75
1295.375,977.75
1296.280,994.50
1297.184,974.50
1298.091,966.75
1298.995,962.00
1299.900,993.75
1300.806,968.75
1301.710,977.75
1302.614,962.00
1303.518,1004.00
1304.424,923.25
1305.327,939.75
1306.231,970.75
1307.137,950.75
1308.040,981.75
1308.943,967.75
1309.847,932.25
1310.752,939.75
1311.655,900.75
1312.558,967.50
1313.463,905.75
1314.366,918.25
1315.269,915.00
1316.171,898.50
1317.076,912.50
1317.978,948.75
1318.881,887.00
1319.785,910.50
1320.687,929.50
1321.589,924.00
1322.491,895.25
1323.395,914.75
1324.297,903.25
1325.198,887.25
1326.102,912.75
1327.004,876.00
1327.905,897.00
1328.806,909.00
1329.709,904.25
1330.611,917.75
1331.512,862.25
1332.413,924.50
1333.316,901.50
1334.216,888.50
1335.117,903.00
1336.020,888.75
1336.920,870.75
1337.821,900.50
1338.721,886.25
1339.623,880.25
1340.523,896.75
1341.423,874.25
1342.323,877.25
1343.225,868.75
1344.125,846.75
1345.025,879.00
1345.924,869.50
1346.826,838.00
1347.725,852.25
1348.624,852.75
1349.524,881.50
1350.425,872.75
1351.324,823.75
1352.223,833.25
1353.121,880.00
1354.022,851.50
1354.921,858.75
1355.819,866.00
1356.718,826.00
1357.618,846.25
1358.516,825.75
1359.415,792.75
1360.313,849.25
1361.213,815.50
1362.111,857.00
1363.008,829.50
1363.906,863.25
1364.806,812.25
1365.703,826.25
1366.601,893.50
1367.498,812.25
1368.397,883.25
1369.295,792.00
1370.192,836.00
1371.089,855.00
1371.987,870.00
1372.884,833.75
1373.781,836.25
1374.678,777.75
1375.574,820.25
1376.473,781.75
1377.369,788.50
1378.265,830.75
1379.161,781.75
1380.059,845.25
1380.955,774.00
1381.851,797.50
1382.747,766.00
1383.643,807.00
1384.540,814.00
1385.436,794.50
1386.331,777.25
1387.227,811.75
1388.124,767.75
1389.019,781.25
1389.914,787.50
1390.809,781.00
1391.704,799.75
1392.601,762.00
1393.495,790.00
1394.390,764.25
1395.285,791.25
1396.179,804.75
1397.075,775.50
1397.969,751.00
1398.864,807.50
1399.758,762.00
1400.652,773.75
1401.547,799.75
1402.441,748.75
1403.335,746.75
1404.229,772.75
1405.122,747.25
1406.017,707.75
1406.911,761.75
1407.804,756.25
1408.697,776.00
1409.590,747.00
1410.485,743.00
1411.378,761.25
1412.271,766.50
1413.163,732.50
1414.056,749.00
1414.949,791.50
1415.843,765.00
1416.735,778.75
1417.627,754.25
1418.520,744.75
1419.412,706.25
1420.306,741.25
1421.197,755.75
1422.089,728.75
1422.981,779.00
1423.873,749.00
1424.764,761.00
1425.657,732.75
1426.549,732.25
1427.440,733.75
1428.331,766.00
1429.222,747.00
1430.113,755.00
1431.006,754.00
1431.897,750.00
1432.787,764.00
1433.678,756.25
1434.568,751.50
1435.459,747.50
1436.351,693.75
1437.241,701.50
1438.131,754.00
1439.021,710.50
1439.911,749.25
1440.801,728.75
1441.693,754.75
1442.583,719.50
1443.472,731.50
1444.362,664.00
1445.251,759.00
1446.140,707.00
1447.030,680.50
1447.921,708.75
1448.810,690.25
1449.699,743.75
1450.588,766.75
1451.476,717.75
1452.365,712.25
1453.254,691.75
1454.144,700.75
1455.032,673.25
1455.921,705.00
1456.809,696.25
1457.697,712.75
1458.585,682.25
1459.473,738.25
1460.361,710.25
1461.251,706.75
1462.138,707.50
1463.026,678.00
1463.913,711.50
1464.801,674.00
1465.688,722.00
1466.575,724.50
1467.463,731.50
1468.351,704.00
1469.238,677.50
1470.125,704.25
1471.012,710.25
1471.899,638.75
1472.785,638.50
1473.672,712.00
1474.558,694.00
1475.446,673.25
1476.333,667.25
1477.219,665.75
1478.105,671.75
1478.991,704.50
1479.877,701.00
1480.762,697.50
1481.648,685.75
1482.534,692.75
1483.419,656.25
1484.307,690.75
1485.192,703.75
1486.077,670.25
1486.962,681.25
1487.847,662.75
1488.732,727.25
1489.617,629.75
1490.502,692.75
1491.387,692.25
1492.271,686.00
1493.156,657.00
1494.042,666.00
1494.927,638.50
1495.811,650.00
1496.695,628.50
1497.579,664.25
1498.463,698.75
1499.347,669.25
1500.231,660.50
1501.114,667.25
1501.998,692.25
1502.881,695.00
1503.765,707.00
1504.648,663.50
1505.533,650.75
1506.417,677.25
1507.300,674.75
1508.183,614.50
1509.066,688.50
1509.948,655.00
1510.831,641.75
1511.714,685.25
1512.596,641.75
1513.479,660.50
1514.361,647.25
1515.243,677.75
1516.125,683.00
1517.008,641.25
1517.890,666.25
1518.771,620.00
1519.655,623.00
1520.537,672.50
1521.419,644.75
1522.300,615.00
1523.182,627.25
1524.063,659.50
1524.944,639.50
1525.825,651.25
1526.707,658.00
1527.588,664.25
1528.468,665.50
1529.349,645.75
1530.230,648.25
1531.111,624.00
1531.991,643.75
1532.872,591.50
1533.752,650.25
1534.632,630.00
1535.513,654.00
1536.393,623.00
1537.273,603.25
1538.153,577.00
1539.032,643.25
1539.912,667.50
1540.792,635.50
1541.672,637.75
1542.551,636.50
1543.430,622.75
1544.310,642.25
1545.189,635.75
1546.068,602.75
1546.947,631.75
1547.826,626.00
1548.705,604.75
1549.584,639.50
1550.462,616.00
1551.341,643.00
1552.219,606.75
1553.098,621.00
1553.976,596.25
1554.854,658.25
1555.733,605.75
1556.611,612.75
1557.489,617.25
1558.367,670.75
1559.244,642.50
1560.122,628.25
1561.000,596.50
1561.877,596.00
1562.755,632.75
1563.632,621.25
1564.509,621.00
1565.386,677.50
1566.264,647.50
1567.141,663.75
1568.017,631.75
1568.894,603.25
1569.771,589.25
1570.648,631.50
1571.524,632.75
1572.401,601.75
1573.277,654.50
1574.153,647.00
1575.029,617.25
1575.906,625.25
1576.781,627.25
1577.657,588.50
1578.533,611.50
1579.409,607.00
1580.285,622.25
1581.160,580.00
1582.036,613.75
1582.911,618.75
1583.786,601.50
1584.662,607.50
1585.537,614.50
1586.412,581.50
1587.287,589.00
1588.160,627.00
1589.035,582.25
1589.909,556.75
1590.784,623.75
1591.658,626.50
1592.533,594.75
1593.407,613.50
1594.281,628.25
1595.155,647.75
1596.029,598.50
1596.903,575.00
1597.777,623.50
1598.651,617.25
1599.525,578.00
1600.398,603.50
1601.272,596.25
1602.144,610.75
1603.017,560.00
1603.890,629.50
1604.763,611.50
1605.636,585.50
1606.509,616.00
1607.382,594.50
1608.255,588.00
1609.128,575.00
1610.000,588.50
1610.873,606.25
1611.746,588.25
1612.616,594.25
1613.488,665.25
1614.361,598.50
1615.233,585.25
1616.105,600.00
1616.977,622.25
1617.849,569.75
1618.720,586.00
1619.592,608.25
1620.464,596.50
1621.333,573.00
1622.205,611.75
1623.076,593.25
1623.947,589.25
1624.818,625.75
1625.689,598.25
1626.560,581.25
1627.431,555.25
1628.302,603.25
1629.171,576.75
1630.042,603.25
1630.912,608.75
1631.782,563.75
1632.653,610.50
1633.523,610.00
1634.393,602.00
1635.263,609.25
1636.131,582.00
1637.001,561.75
1637.871,570.25
1638.741,581.75
1639.611,570.50
1640.480,584.25
1641.350,564.00
1642.219,605.00
1643.087,591.75
1643.956,554.25
1644.825,597.25
1645.694,606.00
1646.563,585.50
1647.432,610.00
1648.299,565.75
1649.167,556.75
1650.036,551.75
1650.904,576.50
1651.773,608.50
1652.641,585.00
1653.509,593.75
1654.376,568.00
1655.244,584.00
1656.112,546.75
1656.980,632.25
1657.847,601.00
1658.715,578.50
1659.581,561.00
1660.448,588.75
1661.316,603.00
1662.183,572.25
1663.051,568.75
1663.918,552.00
1664.783,607.00
1665.650,607.50
1666.517,572.75
1667.384,585.00
1668.251,563.00
1669.115,588.75
1669.982,576.75
1670.849,564.75
1671.715,620.50
1672.581,542.25
1673.446,546.25
1674.312,594.00
1675.178,566.00
1676.044,584.75
1676.910,529.00
1677.774,537.25
1678.639,554.50
1679.505,554.50
1680.370,549.75
1681.236,582.50
1682.099,533.25
1682.965,573.25
1683.830,575.75
1684.695,575.00
1685.560,571.75
1686.423,542.25
1687.288,544.50
1688.153,541.50
1689.017,555.25
1689.880,583.50
1690.745,571.75
1691.609,522.00
1692.473,518.75
1693.338,517.75
1694.200,617.75
1695.064,517.00
1695.928,594.25
1696.792,562.25
1697.654,536.25
1698.517,508.25
1699.381,546.00
1700.245,547.25
1701.106,578.75
1701.969,556.75
1702.833,584.25
1703.696,576.00
1704.557,549.00
1705.420,572.00
1706.283,573.00
1707.146,567.25
1708.007,570.25
1708.870,529.50
1709.732,573.25
1710.595,538.50
1711.455,577.00
1712.318,568.00
1713.180,548.50
1714.040,559.75
1714.902,537.75
1715.764,534.25
1716.626,566.25
1717.486,569.00
1718.348,559.00
1719.209,519.00
1720.071,558.75
1720.930,549.00
1721.792,560.75
1722.653,554.50
1723.512,536.75
1724.374,555.00
1725.234,537.50
1726.095,594.25
1726.954,555.50
1727.815,559.00
1728.676,557.00
1729.535,550.75
1730.395,545.00
1731.256,553.25
1732.114,498.25
1732.974,532.50
1733.834,532.75
1734.693,608.25
1735.553,603.25
1736.413,562.00
1737.272,561.50
1738.130,556.00
1738.990,558.00
1739.849,566.50
1740.707,574.50
1741.566,563.75
1742.426,551.50
1743.283,572.75
1744.142,563.75
1745.001,536.75
1745.858,518.25
1746.717,592.25
1747.576,544.50
1748.433,528.25
1749.292,497.25
1750.150,544.50
1751.007,547.00
1751.865,583.25
1752.723,553.75
1753.579,575.25
1754.438,542.75
1755.296,539.50
1756.152,550.00
1757.010,567.50
1757.865,549.00
1758.723,588.00
1759.581,541.50
1760.436,554.50
1761.294,516.50
1762.151,548.50
1763.006,546.25
1763.864,500.50
1764.721,559.25
1765.576,574.50
1766.433,547.25
1767.288,592.00
1768.144,574.25
1769.001,582.75
1769.856,585.25
1770.712,535.00
1771.568,566.25
1772.423,552.25
1773.279,551.25
1774.133,547.00
1774.989,542.00
1775.845,574.00
1776.699,564.00
1777.555,568.00
1778.409,585.50
1779.265,518.00
1780.120,567.50
1780.974,555.50
1781.829,546.50
1782.682,530.50
1783.538,576.50
1784.393,563.75
1785.246,538.00
1786.101,557.75
1786.954,526.75
1787.808,494.25
1788.661,576.75
1789.516,551.00
1790.370,532.50
1791.223,587.00
1792.077,524.00
1792.930,550.75
1793.784,573.25
1794.636,546.75
1795.490,559.25
1796.344,530.25
1797.196,513.75
1798.049,557.25
1798.901,528.25
1799.755,564.25
1800.606,509.25
1801.460,515.75
1802.311,543.25
1803.165,555.25
1804.018,551.25
1804.869,578.75
1805.722,533.00
1806.573,520.25
1807.426,568.00
1808.276,557.75
1809.129,546.00
1809.980,582.75
1810.832,538.25
1811.683,477.50
1812.535,530.25
1813.385,511.75
1814.237,486.25
1815.089,528.00
1815.940,568.00
1816.791,507.50
1817.641,503.25
1818.493,505.75
1819.343,556.25
1820.194,546.50
1821.044,542.50
1821.895,553.50
1822.745,529.25
1823.596,506.25
1824.445,547.25
1825.296,548.50
1826.145,496.50
1826.996,538.75
1827.845,550.25
1828.695,564.00
1829.544,488.50
1830.395,535.75
1831.243,513.25
1832.094,530.25
1832.942,547.75
1833.792,551.50
1834.640,554.00
1835.490,515.00
1836.338,517.00
1837.186,545.00
1838.036,518.50
1838.884,518.75
1839.733,541.25
1840.581,546.75
1841.430,563.25
1842.278,503.75
1843.127,537.75
1843.974,534.50
1844.823,512.00
1845.671,507.00
1846.519,562.00
1847.366,560.50
1848.213,509.25
1849.062,567.25
1849.909,545.50
1850.757,530.75
1851.604,534.50
1852.452,519.75
1853.298,516.00
1854.146,530.75
1854.993,575.25
1855.839,492.00
1856.687,532.75
1857.532,516.25
1858.380,571.00
1859.226,567.75
1860.073,502.50
1860.919,525.75
1861.765,526.00
1862.612,516.25
1863.457,540.50
1864.304,510.75
1865.150,538.25
1865.995,524.50
1866.842,537.25
1867.686,551.25
1868.533,552.00
1869.378,536.00
1870.223,522.50
1871.069,567.00
1871.914,547.25
1872.760,503.50
1873.604,565.75
1874.448,498.25
1875.294,539.75
1876.139,512.00
1876.984,523.25
1877.828,564.00
1878.672,537.25
1879.518,534.25
1880.361,499.25
1881.205,560.75
1882.050,534.50
1882.894,516.75
1883.739,510.00
1884.582,510.00
1885.425,552.00
1886.270,505.75
1887.113,594.50
1887.956,524.75
1888.801,531.50
1889.644,495.50
1890.486,540.25
1891.331,545.50
1892.173,555.00
1893.017,515.00
1893.860,530.50
1894.702,528.75
1895.546,563.25
1896.388,521.75
1897.230,568.25
1898.074,518.00
1898.916,559.25
1899.757,499.00
1900.601,507.25
1901.443,548.00
1902.284,555.25
1903.125,514.75
1903.969,497.25
1904.810,531.25
1905.651,549.25
1906.494,538.75
1907.335,573.00
1908.176,522.25
1909.018,499.50
1909.859,548.00
1910.700,515.75
1911.542,515.25
1912.383,535.50
1913.223,558.75
1914.064,539.25
1914.906,529.00
1915.746,537.50
1916.586,533.50
1917.428,541.75
1918.268,567.25
1919.107,523.50
1919.947,515.50
1920.789,529.25
1921.628,529.25
1922.468,532.00
1923.309,484.50
1924.148,517.50
1924.988,525.75
1925.827,524.25
1926.667,502.25
1927.507,546.00
1928.345,497.25
1929.184,541.00
1930.025,533.50
1930.864,535.75
1931.702,547.25
1932.541,503.25
1933.381,495.75
1934.219,510.50
1935.057,521.50
1935.896,526.25
1936.735,514.00
1937.573,472.00
1938.411,562.50
1939.249,541.25
1940.089,505.50
1940.927,480.00
1941.764,494.50
1942.602,523.25
1943.439,571.00
1944.278,528.50
1945.115,504.75
1945.953,505.25
1946.790,503.25
1947.628,528.50
1948.465,537.25
1949.302,506.00
1950.139,507.00
1950.976,544.25
1951.814,557.75
1952.651,543.25
1953.487,533.50
1954.323,525.50
1955.160,480.75
1955.998,504.00
1956.834,536.75
1957.670,542.25
1958.506,516.50
1959.342,526.75
1960.177,488.50
1961.015,554.00
1961.850,480.75
1962.686,466.50
1963.521,496.25
1964.357,519.75
1965.192,493.50
1966.029,534.50
1966.864,522.50
1967.699,543.25
1968.534,517.00
1969.369,517.75
1970.204,558.75
1971.040,531.50
1971.875,516.00
1972.709,519.50
1973.544,481.75
1974.378,526.00
1975.212,542.50
1976.047,520.50
1976.882,482.50
1977.716,551.75
1978.550,512.75
1979.384,512.00
1980.218,530.00
1981.052,537.25
1981.885,507.00
1982.719,546.75
1983.554,526.25
1984.388,544.75
1985.221,564.00
1986.054,483.75
1986.887,544.25
1987.720,526.00
1988.553,492.00
1989.386,497.75
1990.219,495.75
1991.053,543.75
1991.886,532.25
1992.719,505.75
1993.551,548.25
1994.383,510.00
1995.216,519.25
1996.048,544.75
1996.880,512.00
1997.712,498.75
1998.544,531.50
1999.376,536.75
2000.208,510.25
2001.040,539.50
2001.873,521.00
2002.705,479.75
2003.536,573.75
2004.367,513.25
2005.199,534.00
2006.030,578.25
2006.861,503.50
2007.692,520.25
2008.523,490.25
2009.354,536.50
2010.185,522.00
2011.016,499.50
2011.846,520.25
2012.677,469.25
2013.507,473.75
2014.338,527.50
2015.168,501.25
2015.999,517.00
2016.829,534.25
2017.659,510.75
2018.489,521.25
2019.319,500.25
2020.149,553.50
2020.980,559.00
2021.810,516.25
2022.639,548.00
2023.469,536.75
2024.298,518.50
2025.128,507.25
2025.957,498.75
2026.786,492.25
2027.615,552.75
2028.444,542.50
2029.273,526.50
2030.102,532.25
2030.931,545.00
2031.758,556.00
2032.586,547.00
2033.415,530.25
2034.243,545.75
2035.072,536.50
2035.900,533.50
2036.728,546.75
2037.556,519.75
2038.385,540.25
2039.213,531.50
2040.040,495.00
2040.868,549.75
2041.696,497.00
2042.524,545.75
2043.351,494.25
2044.179,559.25
2045.006,511.25
2045.006,511.25

Max Intensity Wave.,219.929
Max Intensity Data,5390.50
Min Intensity Wave.,1962.686
Min Intensity Data,466.50
FWHM Wave.,400.182
FWHM Value,0.55
Pressure Wave.,685.813
Pressure Value [GPa],-21.93749
G/D Ratio,0.67480
G/D Gband Wave.,1565.521
G/D Gband Intensity,678.51
G/D Dband Wave.,1303.376
G/D Dband Intensity,1005.51

<< BACKGROUND SPECTRUM >>
Wave[dcm-1],No119
146.591,2366.00
147.626,2168.00
148.664,2175.00
149.699,2683.00
150.737,2415.00
151.772,2528.00
152.809,2513.00
153.846,2387.00
154.881,2523.00
155.918,2038.00
156.953,2400.00
157.989,2778.00
159.026,2594.00
160.060,2787.00
161.096,3028.00
162.130,2600.00
163.167,2725.00
164.200,2608.00
165.236,2762.00
166.272,2821.00
167.305,2400.00
168.341,2647.00
169.374,2917.00
170.409,2912.00
171.445,2883.00
172.477,2684.00
173.512,2535.00
174.545,2839.00
175.580,3020.00
176.614,3203.00
177.647,2924.00
178.681,3202.00
179.713,3531.00
180.747,2984.00
181.781,2867.00
182.813,3164.00
183.847,3249.00
184.878,2910.00
185.912,3176.00
186.945,3326.00
187.976,3257.00
189.010,2866.00
190.043,3037.00
191.073,3092.00
192.106,2852.00
193.137,3366.00
194.170,2744.00
195.202,3102.00
196.232,2853.00
197.265,3180.00
198.297,3225.00
199.327,2961.00
200.359,3156.00
201.388,3542.00
202.420,3065.00
203.452,3267.00
204.481,2827.00
205.512,3501.00
206.544,3224.00
207.573,3235.00
208.604,3610.00
209.635,3714.00
210.663,3086.00
211.694,3141.00
212.725,3007.00
213.753,2964.00
214.783,3568.00
215.813,3433.00
216.841,3219.00
217.871,3359.00
218.899,3072.00
219.929,3340.00
220.959,3010.00
221.986,3298.00
223.016,2895.00
224.045,3340.00
225.072,3316.00
226.101,3408.00
227.130,3449.00
228.157,3010.00
229.185,2460.00
230.214,3353.00
231.241,2996.00
232.269,2607.00
233.297,2817.00
234.323,3441.00
235.351,2986.00
236.379,3260.00
237.407,2935.00
238.433,3098.00
239.460,3311.00
240.488,3324.00
241.513,3348.00
242.540,3283.00
243.568,3404.00
244.592,3383.00
245.619,3364.00
246.646,3089.00
247.671,3082.00
248.697,2960.00
249.724,3170.00
250.748,3177.00
251.774,3171.00
252.801,3456.00
253.827,3264.00
254.850,3260.00
255.876,2794.00
256.902,3327.00
257.925,3196.00
258.951,2888.00
259.976,2929.00
260.999,3261.00
262.024,2963.00
263.049,3889.00
264.074,3304.00
265.097,3195.00
266.122,3274.00
267.146,3215.00
268.168,3419.00
269.193,3021.00
270.217,3403.00
271.241,2864.00
272.263,3067.00
273.287,3350.00
274.311,2931.00
275.332,3454.00
276.356,2984.00
277.379,3279.00
278.402,3293.00
279.424,3087.00
280.447,3080.00
281.470,2852.00
282.492,3259.00
283.513,3063.00
284.536,3371.00
285.558,3301.00
286.581,3313.00
287.601,3003.00
288.623,2987.00
289.645,3254.00
290.665,3291.00
291.687,3294.00
292.709,3250.00
293.730,3587.00
294.750,3056.00
295.771,2942.00
296.792,3248.00
297.813,3036.00
298.832,3239.00
299.853,2888.00
300.874,3161.00
301.895,3116.00
302.913,3172.00
303.934,3451.00
304.954,3216.00
305.975,3407.00
306.993,2884.00
308.013,3296.00
309.033,3179.00
310.052,3044.00
311.072,3066.00
312.090,3229.00
313.109,3472.00
314.129,3606.00
315.148,3152.00
316.165,3252.00
317.184,3407.00
318.203,2909.00
319.222,2896.00
320.238,3316.00
321.257,2996.00
322.275,2847.00
323.294,3155.00
324.312,3324.00
325.328,3460.00
326.346,3469.00
327.364,3419.00
328.382,3295.00
329.397,3333.00
330.415,3420.00
331.432,3423.00
332.450,3470.00
333.467,3695.00
334.482,2707.00
335.499,3565.00
336.516,3034.00
337.533,2717.00
338.547,3042.00
339.564,3043.00
340.580,3246.00
341.597,3133.00
342.613,3655.00
343.627,3132.00
344.643,3186.00
345.659,3256.00
346.675,3147.00
347.690,3066.00
348.704,3272.00
349.719,3032.00
350.735,2873.00
351.750,3370.00
352.765,3184.00
353.778,3145.00
354.793,3324.00
355.808,2987.00
356.822,3337.00
357.837,2757.00
358.851,3387.00
359.864,3133.00
360.878,2911.00
361.892,3114.00
362.906,3331.00
363.920,2726.00
364.932,3286.00
365.945,3274.00
366.959,3144.00
367.972,3138.00
368.986,2841.00
369.999,3585.00
371.010,3025.00
372.023,3557.00
373.036,3128.00
374.049,3574.00
375.061,3262.00
376.072,3198.00
377.084,3035.00
378.097,2857.00
379.109,3368.00
380.121,3180.00
381.133,2833.00
382.143,3330.00
383.155,2894.00
384.166,3069.00
385.178,3236.00
386.189,3406.00
387.201,2868.00
388.212,3088.00
389.221,3063.00
390.232,3141.00
391.243,3105.00
392.254,3212.00
393.264,2980.00
394.275,3383.00
395.283,3346.00
396.294,3830.00
397.304,3665.00
398.314,3297.00
399.324,3203.00
400.334,2784.00
401.344,3380.00
402.351,2819.00
403.361,3390.00
404.370,3103.00
405.380,3068.00
406.389,3556.00
407.398,3294.00
408.407,3289.00
409.414,3354.00
410.423,3505.00
411.431,2948.00
412.440,2833.00
413.448,3562.00
414.457,3028.00
415.465,2915.00
416.471,3020.00
417.479,3207.00
418.487,2972.00
419.495,3512.00
420.503,3306.00
421.510,2757.00
422.518,3282.00
423.525,3372.00
424.530,3621.00
425.537,3073.00
426.544,3367.00
427.551,3005.00
428.558,3820.00
429.565,3639.00
430.571,3050.00
431.578,3063.00
432.582,3046.00
433.588,3156.00
434.595,2746.00
435.601,3472.00
436.607,3395.00
437.612,2924.00
438.618,3537.00
439.624,3136.00
440.627,3092.00
441.633,3262.00
442.638,3860.00
443.643,3239.00
444.648,3205.00
445.653,3365.00
446.658,3069.00
447.663,3180.00
448.667,3082.00
449.672,3119.00
450.674,3126.00
451.678,2834.00
452.682,3013.00
453.687,3029.00
454.690,3818.00
455.694,3464.00
456.698,2693.00
457.702,2791.00
458.705,2939.00
459.709,2912.00
460.710,3032.00
461.713,3211.00
462.716,3223.00
463.719,3186.00
464.722,3384.00
465.725,3116.00
466.727,2995.00
467.730,3219.00
468.732,2932.00
469.735,3461.00
470.737,3057.00
471.737,3062.00
472.739,3038.00
473.741,2992.00
474.742,3218.00
475.744,3307.00
476.746,3157.00
477.747,3128.00
478.748,3297.00
479.750,3040.00
480.751,3143.00
481.752,3987.00
482.753,3272.00
483.751,3707.00
484.752,2744.00
485.753,3163.00
486.753,3015.00
487.753,3152.00
488.754,3598.00
489.754,2880.00
490.754,3519.00
491.754,3290.00
492.754,2796.00
493.753,3184.00
494.753,3076.00
495.752,3494.00
496.752,3193.00
497.749,3149.00
498.748,3017.00
499.747,3584.00
500.746,3237.00
501.745,2907.00
502.744,2867.00
503.742,3495.00
504.741,3124.00
505.739,2575.00
506.737,3079.00
507.735,3291.00
508.734,3563.00
509.732,3300.00
510.729,3511.00
511.727,3003.00
512.725,3063.00
513.720,2906.00
514.718,3436.00
515.715,2827.00
516.712,2807.00
517.709,3143.00
518.706,3044.00
519.703,3220.00
520.700,3386.00
521.696,3538.00
522.693,3074.00
523.689,2980.00
524.686,3325.00
525.682,2956.00
526.678,3660.00
527.674,3069.00
528.670,2724.00
529.666,3711.00
530.661,3653.00
531.657,3920.00
532.652,3351.00
533.648,3149.00
534.641,3407.00
535.636,3243.00
536.631,3265.00
537.626,3323.00
538.621,2866.00
539.616,2734.00
540.610,2639.00
541.605,3174.00
542.599,3226.00
543.593,3168.00
544.587,4101.00
545.581,2995.00
546.575,3237.00
547.569,3184.00
548.563,2868.00
549.557,2755.00
550.550,2899.00
551.543,2883.00
552.537,3341.00
553.530,2892.00
554.523,2923.00
555.516,3271.00
556.509,3107.00
557.502,2815.00
558.494,3349.00
559.487,3091.00
560.479,3351.00
561.472,3439.00
562.464,3299.00
563.456,3498.00
564.448,3110.00
565.440,3167.00
566.432,3571.00
567.423,3027.00
568.415,3044.00
569.404,3285.00
570.396,2959.00
571.387,3294.00
572.378,3170.00
573.369,4204.00
574.360,3874.00
575.351,3102.00
576.341,3020.00
577.332,3020.00
578.323,2793.00
579.313,3080.00
580.303,3424.00
581.293,3293.00
582.283,3168.00
583.273,3282.00
584.263,3181.00
585.253,3248.00
586.243,3282.00
587.232,2797.00
588.222,3097.00
589.211,3311.00
590.200,3213.00
591.189,3089.00
592.178,3103.00
593.167,3602.00
594.156,3467.00
595.145,3059.00
596.133,3643.00
597.122,3278.00
598.110,3328.00
599.098,3230.00
600.086,3147.00
601.074,3303.00
602.062,2997.00
603.050,2857.00
604.038,3232.00
605.025,2982.00
606.013,3339.00
607.000,3567.00
607.987,3195.00
608.975,3225.00
609.962,2880.00
610.949,3298.00
611.936,3459.00
612.922,3322.00
613.909,2838.00
614.895,3561.00
615.882,2948.00
616.868,3138.00
617.854,2892.00
618.841,3176.00
619.826,3302.00
620.812,3168.00
621.798,2921.00
622.784,3341.00
623.769,3281.00
624.755,2849.00
625.740,3233.00
626.725,2863.00
627.711,2999.00
628.698,3218.00
629.683,2982.00
630.667,3323.00
631.652,2914.00
632.637,3130.00
633.621,3329.00
634.606,3073.00
635.590,3259.00
636.574,3113.00
637.558,3224.00
638.542,3182.00
639.526,2983.00
640.510,2715.00
641.493,3199.00
642.477,3132.00
643.460,2836.00
644.444,3394.00
645.427,3435.00
646.410,2798.00
647.393,3112.00
648.376,3221.00
649.359,3080.00
650.341,3242.00
651.324,3265.00
652.307,3248.00
653.289,3103.00
654.271,3008.00
655.253,3052.00
656.235,3306.00
657.217,3417.00
658.199,2754.00
659.181,2852.00
660.163,3133.00
661.144,3032.00
662.126,3059.00
663.107,2932.00
664.088,4952.00
665.069,3379.00
666.050,2996.00
667.033,2859.00
668.014,3216.00
668.995,2717.00
669.975,3147.00
670.956,3129.00
671.936,3318.00
672.916,3153.00
673.896,3258.00
674.876,3059.00
675.856,2979.00
676.836,2889.00
677.816,2419.00
678.795,2928.00
679.775,2830.00
680.754,3198.00
681.734,3338.00
682.713,3327.00
683.692,2913.00
684.671,2776.00
685.650,2900.00
686.629,2993.00
687.607,2899.00
688.586,2903.00
689.564,2981.00
690.543,3448.00
691.523,2475.00
692.501,2974.00
693.479,3170.00
694.457,2915.00
695.435,3056.00
696.413,2759.00
697.390,2645.00
698.368,2845.00
699.345,3259.00
700.322,3101.00
701.300,3223.00
702.277,3187.00
703.254,3434.00
704.231,2718.00
705.207,3098.00
706.184,2923.00
707.161,2786.00
708.137,2976.00
709.113,2932.00
710.090,2921.00
711.068,2746.00
712.044,2744.00
713.020,3005.00
713.996,2720.00
714.971,2951.00
715.947,2961.00
716.922,2929.00
717.898,2886.00
718.873,2981.00
719.848,2826.00
720.823,2882.00
721.798,3107.00
722.773,2888.00
723.748,2654.00
724.723,3145.00
725.697,2988.00
726.672,2898.00
727.646,2628.00
728.622,3117.00
729.596,2723.00
730.570,2864.00
731.544,3272.00
732.518,3416.00
733.492,2935.00
734.466,3050.00
735.439,3137.00
736.413,3252.00
737.386,2552.00
738.359,2522.00
739.332,2668.00
740.305,2982.00
741.278,3480.00
742.251,3057.00
743.224,2840.00
744.196,2673.00
745.171,3248.00
746.143,3204.00
747.115,2890.00
748.087,2825.00
749.059,3242.00
750.031,3057.00
751.003,3876.00
751.975,3409.00
752.947,2835.00
753.918,3252.00
754.890,2670.00
755.861,2936.00
756.832,3187.00
757.803,2954.00
758.774,2965.00
759.747,2697.00
760.718,3389.00
761.689,2874.00
762.659,2724.00
763.630,3298.00
764.600,2699.00
765.570,3223.00
766.540,3240.00
767.510,3064.00
768.480,3193.00
769.450,2847.00
770.420,2951.00
771.390,2776.00
772.359,2933.00
773.329,2810.00
774.300,2598.00
775.269,2902.00
776.238,3136.00
777.207,3342.00
778.176,2617.00
779.145,2925.00
780.114,2793.00
781.083,2673.00
782.051,2888.00
783.019,2843.00
783.988,3219.00
784.956,2998.00
785.924,3190.00
786.894,3028.00
787.862,2815.00
788.830,3310.00
789.797,2760.00
790.765,2712.00
791.732,2885.00
792.700,2774.00
793.667,2744.00
794.634,2877.00
795.601,2873.00
796.568,2922.00
797.535,2952.00
798.502,3592.00
799.468,3035.00
800.437,2511.00
801.403,2793.00
802.370,3437.00
803.336,3133.00
804.302,2987.00
805.268,2603.00
806.234,2698.00
807.200,2875.00
808.166,2915.00
809.131,2707.00
810.097,3110.00
811.062,3836.00
812.027,3159.00
812.994,2759.00
813.960,2723.00
814.925,3104.00
815.889,2633.00
816.854,3186.00
817.819,2775.00
818.783,2859.00
819.748,3264.00
820.712,2842.00
821.677,2708.00
822.641,2819.00
823.605,2826.00
824.571,3264.00
825.534,2853.00
826.498,2788.00
827.462,2942.00
828.425,2725.00
829.389,3160.00
830.352,2959.00
831.315,3041.00
832.279,2644.00
833.242,2871.00
834.204,2804.00
835.167,2803.00
836.132,3207.00
837.095,2672.00
838.057,2795.00
839.020,2976.00
839.982,3002.00
840.944,2778.00
841.906,2728.00
842.868,3146.00
843.830,2653.00
844.792,3189.00
845.753,2789.00
846.715,2553.00
847.679,2696.00
848.640,2782.00
849.601,2887.00
850.562,3407.00
851.523,2839.00
852.484,2605.00
853.445,3180.00
854.406,2831.00
855.367,2839.00
856.327,3143.00
857.288,2599.00
858.248,2824.00
859.210,2871.00
860.170,2659.00
861.130,3139.00
862.090,2527.00
863.050,2688.00
864.010,2798.00
864.969,2974.00
865.929,2715.00
866.888,2651.00
867.848,2936.00
868.807,2777.00
869.766,2977.00
870.727,2838.00
871.686,3146.00
872.645,3148.00
873.604,3450.00
874.562,2882.00
875.521,2948.00
876.479,3540.00
877.437,2717.00
878.396,2704.00
879.354,3296.00
880.312,2749.00
881.270,2804.00
882.229,3283.00
883.187,2729.00
884.145,2788.00
885.102,3079.00
886.059,2965.00
887.017,3023.00
887.974,3086.00
888.931,3200.00
889.888,2631.00
890.845,2550.00
891.802,2443.00
892.758,2737.00
893.717,2556.00
894.673,2690.00
895.630,2740.00
896.586,3039.00
897.542,2839.00
898.498,2617.00
899.454,2952.00
900.410,2808.00
901.366,2787.00
902.321,3979.00
903.277,2795.00
904.232,2857.00
905.189,2596.00
906.145,2791.00
907.100,2279.00
908.055,2875.00
909.010,3087.00
909.965,2409.00
910.919,2935.00
911.874,2682.00
912.828,2870.00
913.783,2907.00
914.737,2419.00
915.693,2894.00
916.648,3025.00
917.602,3084.00
918.555,2911.00
919.509,2982.00
920.463,2892.00
921.417,2879.00
922.370,2724.00
923.324,2819.00
924.277,2832.00
925.230,2896.00
926.183,2499.00
927.138,2816.00
928.091,3086.00
929.044,2996.00
929.996,2764.00
930.949,2754.00
931.902,2964.00
932.854,2980.00
933.806,2692.00
934.758,3152.00
935.711,3125.00
936.663,2893.00
937.614,2936.00
938.568,2865.00
939.520,2556.00
940.471,2842.00
941.423,2894.00
942.374,3036.00
943.326,2887.00
944.277,2709.00
945.228,2956.00
946.179,2788.00
947.130,3177.00
948.080,2763.00
949.031,2671.00
949.984,2821.00
950.934,2860.00
951.884,2574.00
952.835,2858.00
953.785,2863.00
954.735,2739.00
955.685,2497.00
956.635,2764.00
957.585,2768.00
958.534,2774.00
959.484,2874.00
960.433,2726.00
961.383,2561.00
962.334,3096.00
963.283,2897.00
964.232,3012.00
965.181,2829.00
966.130,2902.00
967.079,2776.00
968.027,2875.00
968.976,2889.00
969.924,2747.00
970.873,2937.00
971.821,2865.00
972.769,3079.00
973.719,2947.00
974.667,2586.00
975.615,2862.00
976.562,2842.00
977.510,2570.00
978.458,2750.00
979.405,2964.00
980.352,2909.00
981.300,3173.00
982.247,2909.00
983.194,2620.00
984.141,2752.00
985.088,2867.00
986.036,2895.00
986.983,3146.00
987.930,3268.00
988.876,2473.00
989.822,3115.00
990.769,2647.00
991.715,2761.00
992.661,2525.00
993.607,2939.00
994.553,3431.00
995.498,2707.00
996.444,2371.00
997.389,2895.00
998.337,2666.00
999.282,3018.00
1000.227,2754.00
1001.173,2807.00
1002.118,2523.00
1003.062,3069.00
1004.007,2781.00
1004.952,3121.00
1005.897,3071.00
1006.841,2866.00
1007.786,2578.00
1008.730,2523.00
1009.674,3310.00
1010.618,2775.00
1011.564,2652.00
1012.508,2524.00
1013.452,3067.00
1014.396,2852.00
1015.339,2714.00
1016.283,2829.00
1017.226,2824.00
1018.170,2806.00
1019.113,2997.00
1020.056,2836.00
1020.999,2862.00
1021.942,2736.00
1022.885,3009.00
1023.828,3167.00
1024.770,2604.00
1025.715,2877.00
1026.657,2773.00
1027.600,2886.00
1028.542,3055.00
1029.484,2825.00
1030.426,2983.00
1031.368,2930.00
1032.310,2693.00
1033.251,2622.00
1034.193,2830.00
1035.135,2578.00
1036.076,2769.00
1037.017,2622.00
1037.959,2961.00
1038.900,2896.00
1039.843,2896.00
1040.784,2858.00
1041.725,2909.00
1042.665,2742.00
1043.606,2917.00
1044.547,2908.00
1045.487,2441.00
1046.427,2743.00
1047.368,2896.00
1048.308,2322.00
1049.248,2621.00
1050.188,2790.00
1051.128,2671.00
1052.067,2793.00
1053.007,2480.00
1053.947,2483.00
1054.886,2688.00
1055.827,2566.00
1056.766,3058.00
1057.706,2533.00
1058.645,2787.00
1059.584,2856.00
1060.522,3104.00
1061.461,2537.00
1062.400,2543.00
1063.338,2743.00
1064.277,2600.00
1065.215,2665.00
1066.154,2494.00
1067.092,2722.00
1068.030,2742.00
1068.968,3024.00
1069.906,3166.00
1070.843,3085.00
1071.781,2845.00
1072.720,2932.00
1073.658,2944.00
1074.595,2721.00
1075.533,2666.00
1076.470,2663.00
1077.407,3101.00
1078.344,2889.00
1079.281,2930.00
1080.217,2428.00
1081.154,2807.00
1082.091,2838.00
1083.027,2547.00
1083.964,3016.00
1084.900,2664.00
1085.836,2711.00
1086.772,3020.00
1087.708,2539.00
1088.644,2965.00
1089.580,2837.00
1090.515,2830.00
1091.451,2752.00
1092.388,2850.00
1093.324,2575.00
1094.259,3386.00
1095.194,2860.00
1096.129,2736.00
1097.064,2689.00
1097.999,2958.00
1098.934,2657.00
1099.869,2669.00
1100.803,2840.00
1101.738,2827.00
1102.672,2472.00
1103.607,2931.00
1104.541,2635.00
1105.475,2641.00
1106.409,2539.00
1107.343,2708.00
1108.277,2574.00
1109.210,2827.00
1110.144,2771.00
1111.078,2822.00
1112.011,2569.00
1112.944,2869.00
1113.878,2867.00
1114.811,2278.00
1115.744,2688.00
1116.678,2399.00
1117.611,2715.00
1118.544,2687.00
1119.477,2868.00
1120.409,2649.00
1121.342,3250.00
1122.274,2866.00
1123.206,4463.00
1124.138,2821.00
1125.070,3154.00
1126.002,2964.00
1126.934,2385.00
1127.866,2678.00
1128.798,2402.00
1129.729,2449.00
1130.661,2733.00
1131.592,2699.00
1132.523,2849.00
1133.454,2937.00
1134.385,2410.00
1135.317,2759.00
1136.247,2679.00
1137.178,2994.00
1138.109,2466.00
1139.039,3120.00
1139.970,2982.00
1140.900,2702.00
1141.831,2428.00
1142.761,2349.00
1143.691,2880.00
1144.621,2749.00
1145.551,2816.00
1146.480,2836.00
1147.410,2971.00
1148.340,2409.00
1149.269,2447.00
1150.199,2705.00
1151.128,3188.00
1152.057,2530.00
1152.979,2675.00
1153.898,2730.00
1154.819,2846.00
1155.739,2749.00
1156.658,2652.00
1157.579,2791.00
1158.498,2757.00
1159.419,2268.00
1160.338,2794.00
1161.256,2792.00
1162.177,2611.00
1163.095,2727.00
1164.016,2821.00
1164.934,3036.00
1165.852,2969.00
1166.772,2726.00
1167.690,2738.00
1168.610,2818.00
1169.528,2753.00
1170.446,2286.00
1171.365,2676.00
1172.283,2621.00
1173.202,2768.00
1174.120,2783.00
1175.037,2596.00
1175.956,2544.00
1176.873,2606.00
1177.792,2637.00
1178.709,3246.00
1179.626,2657.00
1180.544,2993.00
1181.461,2636.00
1182.379,2866.00
1183.296,2708.00
1184.212,2359.00
1185.130,2582.00
1186.046,3104.00
1186.962,2753.00
1187.880,3013.00
1188.796,2814.00
1189.714,2544.00
1190.629,2908.00
1191.545,2803.00
1192.462,2662.00
1193.378,2713.00
1194.295,2456.00
1195.210,2756.00
1196.125,2858.00
1197.042,2796.00
1197.957,2743.00
1198.872,2641.00
1199.788,2621.00
1200.703,3105.00
1201.619,2752.00
1202.534,2591.00
1203.448,2827.00
1204.364,2695.00
1205.278,2398.00
1206.192,2780.00
1207.108,3239.00
1208.022,3143.00
1208.938,2615.00
1209.851,2877.00
1210.765,2941.00
1211.680,2634.00
1212.594,2534.00
1213.507,2666.00
1214.422,3126.00
1215.335,2855.00
1216.248,2668.00
1217.163,2737.00
1218.076,3364.00
1218.990,2865.00
1219.903,2522.00
1220.816,2564.00
1221.730,2703.00
1222.642,2600.00
1223.554,2710.00
1224.469,2880.00
1225.380,2664.00
1226.292,2322.00
1227.206,2876.00
1228.118,3077.00
1229.032,2357.00
1229.943,2608.00
1230.855,2689.00
1231.768,2473.00
1232.679,2846.00
1233.590,2743.00
1234.503,2940.00
1235.414,2587.00
1236.325,2614.00
1237.238,2841.00
1238.149,2871.00
1239.059,2509.00
1239.972,2935.00
1240.882,2552.00
1241.793,2895.00
1242.705,3110.00
1243.615,2711.00
1244.525,2835.00
1245.437,2285.00
1246.347,2814.00
1247.259,2920.00
1248.168,3174.00
1249.078,2991.00
1249.989,3051.00
1250.899,2548.00
1251.808,2605.00
1252.719,2688.00
1253.628,2650.00
1254.537,3135.00
1255.448,2569.00
1256.357,2530.00
1257.266,2780.00
1258.176,2473.00
1259.085,2435.00
1259.993,2562.00
1260.904,2597.00
1261.812,2561.00
1262.720,3346.00
1263.630,2946.00
1264.538,2557.00
1265.446,2843.00
1266.356,2714.00
1267.263,3021.00
1268.171,2541.00
1269.080,2803.00
1269.988,2918.00
1270.895,2632.00
1271.804,2711.00
1272.711,2938.00
1273.619,2895.00
1274.527,2525.00
1275.434,2857.00
1276.341,2506.00
1277.248,2765.00
1278.156,3039.00
1279.063,2575.00
1279.969,2874.00
1280.877,3705.00
1281.783,2955.00
1282.690,2811.00
1283.598,2699.00
1284.503,2597.00
1285.409,2570.00
1286.317,3154.00
1287.223,3151.00
1288.128,2778.00
1289.036,2619.00
1289.941,2681.00
1290.846,2748.00
1291.751,2579.00
1292.658,2644.00
1293.563,3187.00
1294.468,2779.00
1295.375,2905.00
1296.280,2987.00
1297.184,3493.00
1298.091,2847.00
1298.995,2910.00
1299.900,3111.00
1300.806,2631.00
1301.710,2470.00
1302.614,2318.00
1303.518,2961.00
1304.424,2726.00
1305.327,2950.00
1306.231,2709.00
1307.137,2904.00
1308.040,2775.00
1308.943,2764.00
1309.847,2964.00
1310.752,2938.00
1311.655,2408.00
1312.558,2482.00
1313.463,2701.00
1314.366,2636.00
1315.269,2793.00
1316.171,2753.00
1317.076,2648.00
1317.978,2523.00
1318.881,2345.00
1319.785,2618.00
1320.687,2595.00
1321.589,2324.00
1322.491,2590.00
1323.395,2823.00
1324.297,3329.00
1325.198,2883.00
1326.102,2537.00
1327.004,2584.00
1327.905,3178.00
1328.806,2703.00
1329.709,2807.00
1330.611,2666.00
1331.512,2564.00
1332.413,3188.00
1333.316,2779.00
1334.216,2943.00
1335.117,2497.00
1336.020,2777.00
1336.920,2772.00
1337.821,2579.00
1338.721,3015.00
1339.623,2819.00
1340.523,2699.00
1341.423,2609.00
1342.323,3022.00
1343.225,2835.00
1344.125,2590.00
1345.025,2611.00
1345.924,2375.00
1346.826,3124.00
1347.725,3195.00
1348.624,2993.00
1349.524,2587.00
1350.425,2706.00
1351.324,2861.00
1352.223,2959.00
1353.121,2695.00
1354.022,2926.00
1354.921,3140.00
1355.819,2843.00
1356.718,2798.00
1357.618,2478.00
1358.516,2869.00
1359.415,3193.00
1360.313,2830.00
1361.213,2725.00
1362.111,3021.00
1363.008,3414.00
1363.906,2695.00
1364.806,2760.00
1365.703,2854.00
1366.601,2518.00
1367.498,2568.00
1368.397,2910.00
1369.295,2829.00
1370.192,2528.00
1371.089,2804.00
1371.987,2685.00
1372.884,3005.00
1373.781,2522.00
1374.678,2785.00
1375.574,2557.00
1376.473,2923.00
1377.369,2986.00
1378.265,2577.00
1379.161,2730.00
1380.059,2403.00
1380.955,2891.00
1381.851,2504.00
1382.747,2650.00
1383.643,2685.00
1384.540,2502.00
1385.436,2619.00
1386.331,2829.00
1387.227,2877.00
1388.124,2882.00
1389.019,2540.00
1389.914,2726.00
1390.809,2391.00
1391.704,3174.00
1392.601,2689.00
1393.495,3036.00
1394.390,2916.00
1395.285,3007.00
1396.179,2805.00
1397.075,2726.00
1397.969,2809.00
1398.864,2421.00
1399.758,2703.00
1400.652,2771.00
1401.547,2552.00
1402.441,2543.00
1403.335,3115.00
1404.229,2911.00
1405.122,2846.00
1406.017,2761.00
1406.911,2922.00
1407.804,3202.00
1408.697,2739.00
1409.590,2568.00
1410.485,2931.00
1411.378,2824.00
1412.271,2425.00
1413.163,2831.00
1414.056,2913.00
1414.949,3127.00
1415.843,2804.00
1416.735,2706.00
1417.627,2767.00
1418.520,2734.00
1419.412,3023.00
1420.306,2933.00
1421.197,3032.00
1422.089,2975.00
1422.981,3257.00
1423.873,2951.00
1424.764,2851.00
1425.657,2801.00
1426.549,2915.00
1427.440,2978.00
1428.331,2635.00
1429.222,2414.00
1430.113,2807.00
1431.006,2927.00
1431.897,2661.00
1432.787,2747.00
1433.678,2672.00
1434.568,2551.00
1435.459,2999.00
1436.351,2970.00
1437.241,2939.00
1438.131,2912.00
1439.021,2511.00
1439.911,2699.00
1440.801,2825.00
1441.693,2967.00
1442.583,2805.00
1443.472,2754.00
1444.362,2907.00
1445.251,2691.00
1446.140,2702.00
1447.030,2999.00
1447.921,2969.00
1448.810,2602.00
1449.699,3150.00
1450.588,2761.00
1451.476,2655.00
1452.365,2886.00
1453.254,2705.00
1454.144,2657.00
1455.032,2938.00
1455.921,2498.00
1456.809,3089.00
1457.697,2550.00
1458.585,2731.00
1459.473,2693.00
1460.361,2593.00
1461.251,2839.00
1462.138,2877.00
1463.026,2751.00
1463.913,2999.00
1464.801,2695.00
1465.688,2854.00
1466.575,2771.00
1467.463,3219.00
1468.351,2627.00
1469.238,2751.00
1470.125,2353.00
1471.012,2806.00
1471.899,2886.00
1472.785,2627.00
1473.672,2766.00
1474.558,2983.00
1475.446,2925.00
1476.333,2956.00
1477.219,2578.00
1478.105,2744.00
1478.991,2726.00
1479.877,3075.00
1480.762,2752.00
1481.648,2632.00
1482.534,2901.00
1483.419,2864.00
1484.307,2878.00
1485.192,2721.00
1486.077,2620.00
1486.962,2618.00
1487.847,2496.00
1488.732,2592.00
1489.617,2802.00
1490.502,3024.00
1491.387,2912.00
1492.271,2576.00
1493.156,2609.00
1494.042,2585.00
1494.927,2996.00
1495.811,2676.00
1496.695,2961.00
1497.579,3086.00
1498.463,2743.00
1499.347,2820.00
1500.231,2797.00
1501.114,2834.00
1501.998,3028.00
1502.881,2782.00
1503.765,3033.00
1504.648,3214.00
1505.533,2905.00
1506.417,2784.00
1507.300,2728.00
1508.183,2886.00
1509.066,2217.00
1509.948,2999.00
1510.831,3165.00
1511.714,2540.00
1512.596,2932.00
1513.479,3034.00
1514.361,3007.00
1515.243,2778.00
1516.125,2928.00
1517.008,3052.00
1517.890,2753.00
1518.771,2838.00
1519.655,3029.00
1520.537,2689.00
1521.419,2613.00
1522.300,2851.00
1523.182,2932.00
1524.063,2902.00
1524.944,3078.00
1525.825,2990.00
1526.707,2583.00
1527.588,2556.00
1528.468,2865.00
1529.349,2420.00
1530.230,2685.00
1531.111,2983.00
1531.991,2836.00
1532.872,2519.00
1533.752,2716.00
1534.632,2643.00
1535.513,2622.00
1536.393,2956.00
1537.273,3122.00
1538.153,3485.00
1539.032,2491.00
1539.912,2728.00
1540.792,2788.00
1541.672,2809.00
1542.551,2922.00
1543.430,3390.00
1544.310,2805.00
1545.189,2685.00
1546.068,3251.00
1546.947,2892.00
1547.826,3128.00
1548.705,2795.00
1549.584,2999.00
1550.462,2750.00
1551.341,2936.00
1552.219,2885.00
1553.098,2926.00
1553.976,3035.00
1554.854,3185.00
1555.733,3029.00
1556.611,2719.00
1557.489,2588.00
1558.367,2750.00
1559.244,2954.00
1560.122,2774.00
1561.000,2902.00
1561.877,3129.00
1562.755,2649.00
1563.632,2748.00
1564.509,3064.00
1565.386,3148.00
1566.264,2534.00
1567.141,2366.00
1568.017,2908.00
1568.894,2789.00
1569.771,2869.00
1570.648,2892.00
1571.524,2789.00
1572.401,2552.00
1573.277,2527.00
1574.153,2815.00
1575.029,2637.00
1575.906,3527.00
1576.781,2953.00
1577.657,2759.00
1578.533,3055.00
1579.409,2406.00
1580.285,2750.00
1581.160,3270.00
1582.036,2983.00
1582.911,2591.00
1583.786,3172.00
1584.662,2585.00
1585.537,2740.00
1586.412,2855.00
1587.287,2634.00
1588.160,2965.00
1589.035,2438.00
1589.909,2865.00
1590.784,2739.00
1591.658,2560.00
1592.533,2850.00
1593.407,2793.00
1594.281,2663.00
1595.155,3190.00
1596.029,2713.00
1596.903,2753.00
1597.777,2674.00
1598.651,3039.00
1599.525,2497.00
1600.398,2834.00
1601.272,2750.00
1602.144,3348.00
1603.017,2791.00
1603.890,3030.00
1604.763,2884.00
1605.636,2952.00
1606.509,2444.00
1607.382,2631.00
1608.255,2888.00
1609.128,3021.00
1610.000,2785.00
1610.873,2465.00
1611.746,2707.00
1612.616,2737.00
1613.488,2318.00
1614.361,2798.00
1615.233,2755.00
1616.105,3022.00
1616.977,2691.00
1617.849,2661.00
1618.720,3140.00
1619.592,3118.00
1620.464,2897.00
1621.333,3310.00
1622.205,2779.00
1623.076,2768.00
1623.947,2801.00
1624.818,3019.00
1625.689,2921.00
1626.560,2726.00
1627.431,2880.00
1628.302,3226.00
1629.171,2922.00
1630.042,3135.00
1630.912,3464.00
1631.782,3428.00
1632.653,2601.00
1633.523,2960.00
1634.393,3062.00
1635.263,2648.00
1636.131,2789.00
1637.001,2746.00
1637.871,2433.00
1638.741,2425.00
1639.611,2540.00
1640.480,2926.00
1641.350,2656.00
1642.219,2590.00
1643.087,2267.00
1643.956,3288.00
1644.825,3073.00
1645.694,3001.00
1646.563,2972.00
1647.432,2835.00
1648.299,2836.00
1649.167,2959.00
1650.036,2634.00
1650.904,2945.00
1651.773,2991.00
1652.641,2809.00
1653.509,2998.00
1654.376,2681.00
1655.244,2826.00
1656.112,2871.00
1656.980,2778.00
1657.847,2644.00
1658.715,3002.00
1659.581,2736.00
1660.448,3038.00
1661.316,2277.00
1662.183,2821.00
1663.051,2857.00
1663.918,2852.00
1664.783,2805.00
1665.650,2886.00
1666.517,2998.00
1667.384,2811.00
1668.251,2857.00
1669.115,3046.00
1669.982,2752.00
1670.849,3101.00
1671.715,2755.00
1672.581,2982.00
1673.446,2933.00
1674.312,2813.00
1675.178,3251.00
1676.044,2911.00
1676.910,2912.00
1677.774,2875.00
1678.639,2442.00
1679.505,2799.00
1680.370,2978.00
1681.236,3477.00
1682.099,2794.00
1682.965,2836.00
1683.830,2403.00
1684.695,2636.00
1685.560,2727.00
1686.423,2981.00
1687.288,2957.00
1688.153,2866.00
1689.017,2765.00
1689.880,2883.00
1690.745,2955.00
1691.609,2666.00
1692.473,3005.00
1693.338,3083.00
1694.200,3059.00
1695.064,2847.00
1695.928,2713.00
1696.792,2835.00
1697.654,3371.00
1698.517,2894.00
1699.381,2547.00
1700.245,2470.00
1701.106,3098.00
1701.969,2710.00
1702.833,2960.00
1703.696,2711.00
1704.557,2781.00
1705.420,2680.00
1706.283,2840.00
1707.146,2949.00
1708.007,2614.00
1708.870,2606.00
1709.732,2476.00
1710.595,2728.00
1711.455,2526.00
1712.318,2736.00
1713.180,3109.00
1714.040,2872.00
1714.902,3024.00
1715.764,2845.00
1716.626,2592.00
1717.486,2778.00
1718.348,3097.00
1719.209,5128.00
1720.071,2483.00
1720.930,2553.00
1721.792,2653.00
1722.653,2650.00
1723.512,2724.00
1724.374,2778.00
1725.234,2878.00
1726.095,2810.00
1726.954,2809.00
1727.815,2953.00
1728.676,2824.00
1729.535,3052.00
1730.395,2792.00
1731.256,2719.00
1732.114,2911.00
1732.974,2281.00
1733.834,3220.00
1734.693,2961.00
1735.553,2814.00
1736.413,3251.00
1737.272,2703.00
1738.130,2745.00
1738.990,2910.00
1739.849,2705.00
1740.707,3846.00
1741.566,2838.00
1742.426,2855.00
1743.283,3216.00
1744.142,2691.00
1745.001,2496.00
1745.858,3025.00
1746.717,2878.00
1747.576,2929.00
1748.433,3015.00
1749.292,3500.00
1750.150,3494.00
1751.007,3024.00
1751.865,3019.00
1752.723,2846.00
1753.579,2744.00
1754.438,3081.00
1755.296,3061.00
1756.152,2378.00
1757.010,2464.00
1757.865,3045.00
1758.723,2438.00
1759.581,3162.00
1760.436,2816.00
1761.294,3216.00
1762.151,2819.00
1763.006,2761.00
1763.864,2488.00
1764.721,3048.00
1765.576,2833.00
1766.433,3007.00
1767.288,2678.00
1768.144,2872.00
1769.001,2741.00
1769.856,2898.00
1770.712,3067.00
1771.568,2592.00
1772.423,2753.00
1773.279,2723.00
1774.133,2729.00
1774.989,3250.00
1775.845,3217.00
1776.699,3075.00
1777.555,2787.00
1778.409,3342.00
1779.265,2797.00
1780.120,2770.00
1780.974,2807.00
1781.829,2430.00
1782.682,2913.00
1783.538,2619.00
1784.393,2856.00
1785.246,2714.00
1786.101,2928.00
1786.954,2990.00
1787.808,3098.00
1788.661,2505.00
1789.516,2737.00
1790.370,2756.00
1791.223,2996.00
1792.077,2833.00
1792.930,2919.00
1793.784,2670.00
1794.636,2849.00
1795.490,2773.00
1796.344,2867.00
1797.196,2819.00
1798.049,2997.00
1798.901,2735.00
1799.755,3062.00
1800.606,2639.00
1801.460,3386.00
1802.311,3174.00
1803.165,3274.00
1804.018,3200.00
1804.869,2902.00
1805.722,3321.00
1806.573,2905.00
1807.426,2641.00
1808.276,2812.00
1809.129,2720.00
1809.980,3019.00
1810.832,3142.00
1811.683,2815.00
1812.535,3196.00
1813.385,2776.00
1814.237,3171.00
1815.089,2885.00
1815.940,3114.00
1816.791,2817.00
1817.641,2737.00
1818.493,3026.00
1819.343,2887.00
1820.194,2701.00
1821.044,2959.00
1821.895,3059.00
1822.745,2556.00
1823.596,2762.00
1824.445,3266.00
1825.296,2915.00
1826.145,2815.00
1826.996,3068.00
1827.845,2877.00
1828.695,2889.00
1829.544,2871.00
1830.395,2890.00
1831.243,2769.00
1832.094,2570.00
1832.942,3490.00
1833.792,2966.00
1834.640,2905.00
1835.490,2854.00
1836.338,2924.00
1837.186,2712.00
1838.036,2704.00
1838.884,2850.00
1839.733,3177.00
1840.581,3024.00
1841.430,2952.00
1842.278,3217.00
1843.127,2736.00
1843.974,2515.00
1844.823,3308.00
1845.671,3017.00
1846.519,2839.00
1847.366,2896.00
1848.213,2490.00
1849.062,2629.00
1849.909,2554.00
1850.757,3526.00
1851.604,2980.00
1852.452,2772.00
1853.298,3067.00
1854.146,2913.00
1854.993,2849.00
1855.839,3417.00
1856.687,2964.00
1857.532,2986.00
1858.380,2806.00
1859.226,2895.00
1860.073,2983.00
1860.919,2684.00
1861.765,2724.00
1862.612,3116.00
1863.457,3062.00
1864.304,2799.00
1865.150,2964.00
1865.995,2821.00
1866.842,2953.00
1867.686,3076.00
1868.533,2898.00
1869.378,2904.00
1870.223,2878.00
1871.069,2723.00
1871.914,2869.00
1872.760,2857.00
1873.604,2592.00
1874.448,3049.00
1875.294,3023.00
1876.139,2714.00
1876.984,2991.00
1877.828,2468.00
1878.672,2327.00
1879.518,2714.00
1880.361,3044.00
1881.205,2991.00
1882.050,2637.00
1882.894,3387.00
1883.739,2732.00
1884.582,2620.00
1885.425,2639.00
1886.270,3135.00
1887.113,2526.00
1887.956,2961.00
1888.801,2900.00
1889.644,2671.00
1890.486,2430.00
1891.331,2765.00
1892.173,2883.00
1893.017,2968.00
1893.860,3127.00
1894.702,3176.00
1895.546,2850.00
1896.388,3571.00
1897.230,3193.00
1898.074,2750.00
1898.916,2620.00
1899.757,2689.00
1900.601,3587.00
1901.443,3167.00
1902.284,3149.00
1903.125,3353.00
1903.969,3091.00
1904.810,3110.00
1905.651,2934.00
1906.494,3195.00
1907.335,3314.00
1908.176,2995.00
1909.018,2973.00
1909.859,2789.00
1910.700,2731.00
1911.542,3436.00
1912.383,2931.00
1913.223,2447.00
1914.064,2987.00
1914.906,3135.00
1915.746,3220.00
1916.586,3354.00
1917.428,2847.00
1918.268,2874.00
1919.107,2751.00
1919.947,2616.00
1920.789,2780.00
1921.628,3115.00
1922.468,2856.00
1923.309,2742.00
1924.148,3177.00
1924.988,2928.00
1925.827,2839.00
1926.667,2748.00
1927.507,2900.00
1928.345,2694.00
1929.184,3008.00
1930.025,2682.00
1930.864,3136.00
1931.702,3180.00
1932.541,2773.00
1933.381,3024.00
1934.219,3036.00
1935.057,3169.00
1935.896,2564.00
1936.735,2839.00
1937.573,2804.00
1938.411,2636.00
1939.249,3042.00
1940.089,2756.00
1940.927,3167.00
1941.764,3193.00
1942.602,2776.00
1943.439,2724.00
1944.278,2840.00
1945.115,2814.00
1945.953,2611.00
1946.790,2976.00
1947.628,3237.00
1948.465,2992.00
1949.302,3049.00
1950.139,3002.00
1950.976,2721.00
1951.814,3034.00
1952.651,2909.00
1953.487,2655.00
1954.323,3133.00
1955.160,2882.00
1955.998,3293.00
1956.834,2866.00
1957.670,2946.00
1958.506,3102.00
1959.342,2985.00
1960.177,2963.00
1961.015,3017.00
1961.850,2941.00
1962.686,2985.00
1963.521,2946.00
1964.357,3182.00
1965.192,2662.00
1966.029,3011.00
1966.864,2814.00
1967.699,3109.00
1968.534,2909.00
1969.369,3165.00
1970.204,2799.00
1971.040,2912.00
1971.875,2803.00
1972.709,2930.00
1973.544,2742.00
1974.378,2775.00
1975.212,2972.00
1976.047,2787.00
1976.882,2765.00
1977.716,3273.00
1978.550,2590.00
1979.384,2832.00
1980.218,2831.00
1981.052,2802.00
1981.885,2942.00
1982.719,2869.00
1983.554,3040.00
1984.388,3187.00
1985.221,2948.00
1986.054,3173.00
1986.887,2943.00
1987.720,2721.00
1988.553,3239.00
1989.386,3017.00
1990.219,3039.00
1991.053,3191.00
1991.886,2730.00
1992.719,3111.00
1993.551,2378.00
1994.383,3039.00
1995.216,2807.00
1996.048,2569.00
1996.880,3071.00
1997.712,2761.00
1998.544,2879.00
1999.376,2974.00
2000.208,3186.00
2001.040,3347.00
2001.873,2703.00
2002.705,2727.00
2003.536,2889.00
2004.367,2932.00
2005.199,2923.00
2006.030,2742.00
2006.861,2690.00
2007.692,2907.00
2008.523,2752.00
2009.354,2922.00
2010.185,2689.00
2011.016,3068.00
2011.846,3106.00
2012.677,2864.00
2013.507,3276.00
2014.338,3143.00
2015.168,2804.00
2015.999,3460.00
2016.829,2809.00
2017.659,3120.00
2018.489,3458.00
2019.319,2721.00
2020.149,3045.00
2020.980,2903.00
2021.810,2705.00
2022.639,2753.00
2023.469,2767.00
2024.298,2579.00
2025.128,2506.00
2025.957,2503.00
2026.786,2346.00
2027.615,2507.00
2028.444,2715.00
2029.273,2901.00
2030.102,2486.00
2030.931,2737.00
2031.758,3026.00
2032.586,2663.00
2033.415,2770.00
2034.243,2313.00
2035.072,2115.00
2035.900,2613.00
2036.728,2442.00
2037.556,2489.00
2038.385,2506.00
2039.213,2303.00
2040.040,2315.00
2040.868,2232.00
2041.696,2355.00
2042.524,2305.00
2043.351,2570.00
2044.179,2299.00
2045.006,2121.00
