RamanScope Measure Spectrum Data V3.72

<< MEASURE CONDITION >>
Exposure Type,Aver
Exposure Time [sec],15
Exposure Count,30
Measure Time,2023/07/04 16:59:30
Data Name,""
Data Comment,""
Rayleigh Wave[nm],532.0

<< SAMPLE SPECTRUM >>
Wave[dcm-1],No293
146.591,568.40
147.626,696.97
148.664,833.90
149.699,988.53
150.737,1146.30
151.772,1284.73
152.809,1442.17
153.846,1646.30
154.881,1764.90
155.918,1924.80
156.953,2048.63
157.989,2128.47
159.026,2245.67
160.060,2331.20
161.096,2428.20
162.130,2416.00
163.167,2518.77
164.200,2570.87
165.236,2602.03
166.272,2659.03
167.305,2658.93
168.341,2722.60
169.374,2770.17
170.409,2856.17
171.445,2862.70
172.477,2947.43
173.512,2951.80
174.545,3007.27
175.580,3040.03
176.614,3081.57
177.647,3165.87
178.681,3152.93
179.713,3164.47
180.747,3184.97
181.781,3139.47
182.813,3102.03
183.847,3082.57
184.878,3128.53
185.912,3086.57
186.945,3052.90
187.976,3114.53
189.010,3162.33
190.043,3151.63
191.073,3190.23
192.106,3188.43
193.137,3227.50
194.170,3273.03
195.202,3309.27
196.232,3366.73
197.265,3416.00
198.297,3426.23
199.327,3533.73
200.359,3557.47
201.388,3635.93
202.420,3718.43
203.452,3820.93
204.481,3869.40
205.512,4054.50
206.544,4170.17
207.573,4262.60
208.604,4430.73
209.635,4622.87
210.663,4817.53
211.694,4980.10
212.725,5240.43
213.753,5496.20
214.783,5691.57
215.813,5953.40
216.841,6131.77
217.871,6254.33
218.899,6359.63
219.929,6421.87
220.959,6439.13
221.986,6354.63
223.016,6200.13
224.045,5999.37
225.072,5878.90
226.101,5601.80
227.130,5431.17
228.157,5220.00
229.185,5002.27
230.214,4863.83
231.241,4726.70
232.269,4556.90
233.297,4479.23
234.323,4391.77
235.351,4301.03
236.379,4217.70
237.407,4142.00
238.433,4095.33
239.460,4136.63
240.488,4081.83
241.513,4107.47
242.540,4085.60
243.568,4076.70
244.592,4154.83
245.619,4154.33
246.646,4175.23
247.671,4194.00
248.697,4203.67
249.724,4171.60
250.748,4147.77
251.774,4158.53
252.801,4119.50
253.827,4062.30
254.850,4072.93
255.876,4073.27
256.902,4130.80
257.925,4137.37
258.951,4123.77
259.976,4168.03
260.999,4203.13
262.024,4233.53
263.049,4278.10
264.074,4309.47
265.097,4315.77
266.122,4400.80
267.146,4455.27
268.168,4494.90
269.193,4528.23
270.217,4606.90
271.241,4665.23
272.263,4715.73
273.287,4781.63
274.311,4848.70
275.332,4912.47
276.356,4962.40
277.379,5009.70
278.402,4945.57
279.424,4985.10
280.447,4942.43
281.470,4946.83
282.492,4940.10
283.513,4822.73
284.536,4790.60
285.558,4713.33
286.581,4667.27
287.601,4590.00
288.623,4513.03
289.645,4429.20
290.665,4346.30
291.687,4272.77
292.709,4170.87
293.730,4157.20
294.750,4097.53
295.771,4017.97
296.792,3961.63
297.813,3898.67
298.832,3818.80
299.853,3702.07
300.874,3713.13
301.895,3639.20
302.913,3602.83
303.934,3555.37
304.954,3506.03
305.975,3451.07
306.993,3373.13
308.013,3372.33
309.033,3371.00
310.052,3297.13
311.072,3252.07
312.090,3245.87
313.109,3212.93
314.129,3202.57
315.148,3167.80
316.165,3137.97
317.184,3097.93
318.203,3079.73
319.222,3075.97
320.238,3083.13
321.257,3026.97
322.275,3028.00
323.294,3022.60
324.312,2994.23
325.328,2953.27
326.346,2966.87
327.364,2954.97
328.382,2917.97
329.397,2936.97
330.415,2976.27
331.432,2890.50
332.450,2907.90
333.467,2893.80
334.482,2915.30
335.499,2885.50
336.516,2901.93
337.533,2874.57
338.547,2893.70
339.564,2835.17
340.580,2833.77
341.597,2836.80
342.613,2830.77
343.627,2813.30
344.643,2808.83
345.659,2832.23
346.675,2809.33
347.690,2808.63
348.704,2840.43
349.719,2804.57
350.735,2809.10
351.750,2835.37
352.765,2797.60
353.778,2799.53
354.793,2807.00
355.808,2820.53
356.822,2784.23
357.837,2826.97
358.851,2786.80
359.864,2766.13
360.878,2788.33
361.892,2797.00
362.906,2797.57
363.920,2824.70
364.932,2847.37
365.945,2836.20
366.959,2818.03
367.972,2802.80
368.986,2814.90
369.999,2855.20
371.010,2874.90
372.023,2827.43
373.036,2859.17
374.049,2854.47
375.061,2909.87
376.072,2877.73
377.084,2933.23
378.097,2896.60
379.109,2967.33
380.121,2928.70
381.133,2961.00
382.143,2977.43
383.155,2946.67
384.166,2951.73
385.178,2985.03
386.189,2956.33
387.201,2991.67
388.212,2935.27
389.221,2966.83
390.232,3009.30
391.243,2971.20
392.254,2959.93
393.264,2930.37
394.275,2922.83
395.283,2919.93
396.294,2938.20
397.304,2909.60
398.314,2873.57
399.324,2862.93
400.334,2843.07
401.344,2858.97
402.351,2890.23
403.361,2820.33
404.370,2836.70
405.380,2810.13
406.389,2777.13
407.398,2775.27
408.407,2736.27
409.414,2758.67
410.423,2734.43
411.431,2722.27
412.440,2704.93
413.448,2672.30
414.457,2693.97
415.465,2671.50
416.471,2623.10
417.479,2654.10
418.487,2645.47
419.495,2637.07
420.503,2599.10
421.510,2618.27
422.518,2579.27
423.525,2637.93
424.530,2589.93
425.537,2616.73
426.544,2606.63
427.551,2557.97
428.558,2566.67
429.565,2541.07
430.571,2590.03
431.578,2596.53
432.582,2566.60
433.588,2562.63
434.595,2556.73
435.601,2538.10
436.607,2547.57
437.612,2570.80
438.618,2545.07
439.624,2582.80
440.627,2507.10
441.633,2573.90
442.638,2536.37
443.643,2558.57
444.648,2587.10
445.653,2517.47
446.658,2553.43
447.663,2605.37
448.667,2575.33
449.672,2543.57
450.674,2531.83
451.678,2568.57
452.682,2571.73
453.687,2558.17
454.690,2556.17
455.694,2557.50
456.698,2579.23
457.702,2583.97
458.705,2607.07
459.709,2610.70
460.710,2601.73
461.713,2647.03
462.716,2628.83
463.719,2653.53
464.722,2620.97
465.725,2652.73
466.727,2632.17
467.730,2647.80
468.732,2650.03
469.735,2669.67
470.737,2668.60
471.737,2634.33
472.739,2644.23
473.741,2638.20
474.742,2667.37
475.744,2635.53
476.746,2652.83
477.747,2687.50
478.748,2692.03
479.750,2676.93
480.751,2656.87
481.752,2689.13
482.753,2638.57
483.751,2667.73
484.752,2671.17
485.753,2656.37
486.753,2658.03
487.753,2678.13
488.754,2652.17
489.754,2681.27
490.754,2640.53
491.754,2631.93
492.754,2683.47
493.753,2663.70
494.753,2693.67
495.752,2647.33
496.752,2666.97
497.749,2640.50
498.748,2645.27
499.747,2650.60
500.746,2616.63
501.745,2629.97
502.744,2649.03
503.742,2611.73
504.741,2586.50
505.739,2608.63
506.737,2645.87
507.735,2643.13
508.734,2538.97
509.732,2598.43
510.729,2597.30
511.727,2573.53
512.725,2509.63
513.720,2561.07
514.718,2569.20
515.715,2540.97
516.712,2507.93
517.709,2517.80
518.706,2522.00
519.703,2546.20
520.700,2486.00
521.696,2506.70
522.693,2520.23
523.689,2491.67
524.686,2540.57
525.682,2539.00
526.678,2524.90
527.674,2520.80
528.670,2509.53
529.666,2524.73
530.661,2550.50
531.657,2459.87
532.652,2543.60
533.648,2531.87
534.641,2555.90
535.636,2513.77
536.631,2548.47
537.626,2497.00
538.621,2527.10
539.616,2557.00
540.610,2564.90
541.605,2555.57
542.599,2542.07
543.593,2523.97
544.587,2567.90
545.581,2567.47
546.575,2567.80
547.569,2561.73
548.563,2525.87
549.557,2579.23
550.550,2568.40
551.543,2570.03
552.537,2580.30
553.530,2559.33
554.523,2568.10
555.516,2613.60
556.509,2545.33
557.502,2536.83
558.494,2562.40
559.487,2559.23
560.479,2562.00
561.472,2566.87
562.464,2583.70
563.456,2561.43
564.448,2522.27
565.440,2576.60
566.432,2543.27
567.423,2633.07
568.415,2580.63
569.404,2616.50
570.396,2616.87
571.387,2642.17
572.378,2611.37
573.369,2591.80
574.360,2635.80
575.351,2685.03
576.341,2642.70
577.332,2654.43
578.323,2676.90
579.313,2641.00
580.303,2657.90
581.293,2676.23
582.283,2716.83
583.273,2699.70
584.263,2645.00
585.253,2674.77
586.243,2696.17
587.232,2707.83
588.222,2721.07
589.211,2710.83
590.200,2717.03
591.189,2689.13
592.178,2716.90
593.167,2705.80
594.156,2697.97
595.145,2734.17
596.133,2684.90
597.122,2697.47
598.110,2721.03
599.098,2712.77
600.086,2702.57
601.074,2708.33
602.062,2710.47
603.050,2708.47
604.038,2659.40
605.025,2728.63
606.013,2686.63
607.000,2667.17
607.987,2718.60
608.975,2673.30
609.962,2686.73
610.949,2645.97
611.936,2618.80
612.922,2672.87
613.909,2614.67
614.895,2636.63
615.882,2610.47
616.868,2589.23
617.854,2585.03
618.841,2589.50
619.826,2553.20
620.812,2569.67
621.798,2562.30
622.784,2502.23
623.769,2506.83
624.755,2522.87
625.740,2443.57
626.725,2497.30
627.711,2457.80
628.698,2445.03
629.683,2435.47
630.667,2381.23
631.652,2403.93
632.637,2379.20
633.621,2363.67
634.606,2376.80
635.590,2359.37
636.574,2346.27
637.558,2325.07
638.542,2281.23
639.526,2272.77
640.510,2262.60
641.493,2252.73
642.477,2227.47
643.460,2244.63
644.444,2249.07
645.427,2206.47
646.410,2210.40
647.393,2290.77
648.376,2254.10
649.359,2144.20
650.341,2202.67
651.324,2130.67
652.307,2163.87
653.289,2168.37
654.271,2161.73
655.253,2138.90
656.235,2107.10
657.217,2146.53
658.199,2088.77
659.181,2123.70
660.163,2099.03
661.144,2110.17
662.126,2083.83
663.107,2062.60
664.088,2033.67
665.069,2097.23
666.050,2057.73
667.033,2079.53
668.014,2024.00
668.995,2016.93
669.975,2040.87
670.956,2107.07
671.936,2012.30
672.916,2013.23
673.896,1997.27
674.876,1983.83
675.856,1991.50
676.836,1979.40
677.816,1967.33
678.795,1895.43
679.775,1888.17
680.754,1902.63
681.734,1938.03
682.713,1879.13
683.692,1890.93
684.671,1855.33
685.650,1837.63
686.629,1863.57
687.607,1861.87
688.586,1811.03
689.564,1823.07
690.543,1849.73
691.523,1812.23
692.501,1826.20
693.479,1837.93
694.457,1787.03
695.435,1748.33
696.413,1753.10
697.390,1735.40
698.368,1768.47
699.345,1691.33
700.322,1725.30
701.300,1710.20
702.277,1700.87
703.254,1719.33
704.231,1704.30
705.207,1658.37
706.184,1704.50
707.161,1703.83
708.137,1694.37
709.113,1643.63
710.090,1617.80
711.068,1681.40
712.044,1645.37
713.020,1632.10
713.996,1640.00
714.971,1622.30
715.947,1625.47
716.922,1633.73
717.898,1639.30
718.873,1639.37
719.848,1604.73
720.823,1619.93
721.798,1557.43
722.773,1610.13
723.748,1604.20
724.723,1584.73
725.697,1554.73
726.672,1560.87
727.646,1556.47
728.622,1569.57
729.596,1590.17
730.570,1557.63
731.544,1549.47
732.518,1532.00
733.492,1543.13
734.466,1538.00
735.439,1560.07
736.413,1529.97
737.386,1530.90
738.359,1513.13
739.332,1543.33
740.305,1534.50
741.278,1534.47
742.251,1477.23
743.224,1528.20
744.196,1519.93
745.171,1534.37
746.143,1478.90
747.115,1508.47
748.087,1462.57
749.059,1491.57
750.031,1486.40
751.003,1468.63
751.975,1516.03
752.947,1517.10
753.918,1488.33
754.890,1470.60
755.861,1484.43
756.832,1409.07
757.803,1449.93
758.774,1459.03
759.747,1443.67
760.718,1499.03
761.689,1405.07
762.659,1420.47
763.630,1432.50
764.600,1426.83
765.570,1377.60
766.540,1397.07
767.510,1422.10
768.480,1426.00
769.450,1414.70
770.420,1438.80
771.390,1428.07
772.359,1363.67
773.329,1395.77
774.300,1386.47
775.269,1408.17
776.238,1366.33
777.207,1370.70
778.176,1373.37
779.145,1369.67
780.114,1359.73
781.083,1359.63
782.051,1408.53
783.019,1368.57
783.988,1366.77
784.956,1338.43
785.924,1335.83
786.894,1351.03
787.862,1362.67
788.830,1347.20
789.797,1319.10
790.765,1380.73
791.732,1354.30
792.700,1327.43
793.667,1331.63
794.634,1356.90
795.601,1316.77
796.568,1333.83
797.535,1332.20
798.502,1291.63
799.468,1305.87
800.437,1293.47
801.403,1285.80
802.370,1275.03
803.336,1294.80
804.302,1274.67
805.268,1304.33
806.234,1300.07
807.200,1299.50
808.166,1282.03
809.131,1292.23
810.097,1228.67
811.062,1291.53
812.027,1308.37
812.994,1283.53
813.960,1285.63
814.925,1277.17
815.889,1238.90
816.854,1261.80
817.819,1277.73
818.783,1284.20
819.748,1254.57
820.712,1242.23
821.677,1233.80
822.641,1238.47
823.605,1266.50
824.571,1185.87
825.534,1212.67
826.498,1238.47
827.462,1241.93
828.425,1224.33
829.389,1286.67
830.352,1244.93
831.315,1265.03
832.279,1214.70
833.242,1249.30
834.204,1219.23
835.167,1204.50
836.132,1197.93
837.095,1245.57
838.057,1229.67
839.020,1234.43
839.982,1213.40
840.944,1195.47
841.906,1211.70
842.868,1192.73
843.830,1202.43
844.792,1197.20
845.753,1188.80
846.715,1201.03
847.679,1211.63
848.640,1190.33
849.601,1224.77
850.562,1200.10
851.523,1194.13
852.484,1209.17
853.445,1169.97
854.406,1202.53
855.367,1230.47
856.327,1190.60
857.288,1191.37
858.248,1265.90
859.210,1220.97
860.170,1172.10
861.130,1171.40
862.090,1174.83
863.050,1206.13
864.010,1194.40
864.969,1217.37
865.929,1158.23
866.888,1198.73
867.848,1198.60
868.807,1149.70
869.766,1177.93
870.727,1176.97
871.686,1178.67
872.645,1205.00
873.604,1192.33
874.562,1195.77
875.521,1182.67
876.479,1168.37
877.437,1187.67
878.396,1167.80
879.354,1140.83
880.312,1203.60
881.270,1202.23
882.229,1188.40
883.187,1176.77
884.145,1175.73
885.102,1198.80
886.059,1170.93
887.017,1197.40
887.974,1154.87
888.931,1183.50
889.888,1201.30
890.845,1209.00
891.802,1206.50
892.758,1145.80
893.717,1198.33
894.673,1203.27
895.630,1175.07
896.586,1210.33
897.542,1162.27
898.498,1171.37
899.454,1133.00
900.410,1162.50
901.366,1171.90
902.321,1173.87
903.277,1215.47
904.232,1184.50
905.189,1192.03
906.145,1189.07
907.100,1208.80
908.055,1196.83
909.010,1171.73
909.965,1180.93
910.919,1206.17
911.874,1188.67
912.828,1186.30
913.783,1219.60
914.737,1203.07
915.693,1181.73
916.648,1190.93
917.602,1199.07
918.555,1250.73
919.509,1202.13
920.463,1191.53
921.417,1171.53
922.370,1176.77
923.324,1214.93
924.277,1188.63
925.230,1187.20
926.183,1171.00
927.138,1214.83
928.091,1205.63
929.044,1185.90
929.996,1210.10
930.949,1213.23
931.902,1224.60
932.854,1193.10
933.806,1195.83
934.758,1180.63
935.711,1199.90
936.663,1185.87
937.614,1192.70
938.568,1211.63
939.520,1203.60
940.471,1171.10
941.423,1210.17
942.374,1224.60
943.326,1214.70
944.277,1196.77
945.228,1193.47
946.179,1244.13
947.130,1210.63
948.080,1225.97
949.031,1188.20
949.984,1218.17
950.934,1208.07
951.884,1214.77
952.835,1171.93
953.785,1215.23
954.735,1167.13
955.685,1185.00
956.635,1176.53
957.585,1193.70
958.534,1175.03
959.484,1201.30
960.433,1206.10
961.383,1192.00
962.334,1158.60
963.283,1144.03
964.232,1206.43
965.181,1180.70
966.130,1164.23
967.079,1188.67
968.027,1167.80
968.976,1183.03
969.924,1182.27
970.873,1151.77
971.821,1180.47
972.769,1195.47
973.719,1182.53
974.667,1208.47
975.615,1135.17
976.562,1175.67
977.510,1180.97
978.458,1138.97
979.405,1184.40
980.352,1158.97
981.300,1142.87
982.247,1129.37
983.194,1186.33
984.141,1157.83
985.088,1167.97
986.036,1164.20
986.983,1211.27
987.930,1164.53
988.876,1183.90
989.822,1217.43
990.769,1189.67
991.715,1174.43
992.661,1181.80
993.607,1176.00
994.553,1198.93
995.498,1145.53
996.444,1206.40
997.389,1204.40
998.337,1170.40
999.282,1162.83
1000.227,1168.20
1001.173,1191.43
1002.118,1165.53
1003.062,1176.67
1004.007,1144.47
1004.952,1146.80
1005.897,1142.43
1006.841,1166.20
1007.786,1177.90
1008.730,1138.20
1009.674,1150.67
1010.618,1168.23
1011.564,1167.07
1012.508,1171.77
1013.452,1152.07
1014.396,1190.67
1015.339,1211.87
1016.283,1176.40
1017.226,1163.93
1018.170,1149.60
1019.113,1139.13
1020.056,1144.87
1020.999,1169.40
1021.942,1175.53
1022.885,1196.37
1023.828,1172.13
1024.770,1213.30
1025.715,1159.83
1026.657,1156.47
1027.600,1180.77
1028.542,1176.90
1029.484,1172.23
1030.426,1187.97
1031.368,1181.00
1032.310,1168.63
1033.251,1189.70
1034.193,1190.83
1035.135,1216.57
1036.076,1200.13
1037.017,1162.90
1037.959,1206.83
1038.900,1217.67
1039.843,1170.50
1040.784,1142.77
1041.725,1210.20
1042.665,1169.50
1043.606,1232.90
1044.547,1191.13
1045.487,1188.63
1046.427,1228.93
1047.368,1209.27
1048.308,1228.47
1049.248,1212.30
1050.188,1250.60
1051.128,1234.90
1052.067,1207.20
1053.007,1219.03
1053.947,1230.07
1054.886,1233.53
1055.827,1247.00
1056.766,1210.03
1057.706,1230.83
1058.645,1218.57
1059.584,1254.03
1060.522,1257.73
1061.461,1221.07
1062.400,1239.83
1063.338,1266.90
1064.277,1229.17
1065.215,1260.57
1066.154,1270.53
1067.092,1285.53
1068.030,1300.50
1068.968,1283.10
1069.906,1259.67
1070.843,1247.70
1071.781,1299.10
1072.720,1286.70
1073.658,1260.90
1074.595,1246.53
1075.533,1249.97
1076.470,1296.53
1077.407,1288.53
1078.344,1258.17
1079.281,1305.13
1080.217,1291.83
1081.154,1287.87
1082.091,1245.23
1083.027,1296.27
1083.964,1301.93
1084.900,1314.50
1085.836,1318.03
1086.772,1285.97
1087.708,1276.40
1088.644,1241.00
1089.580,1284.10
1090.515,1289.07
1091.451,1302.17
1092.388,1263.47
1093.324,1308.33
1094.259,1314.93
1095.194,1300.57
1096.129,1300.50
1097.064,1286.57
1097.999,1313.50
1098.934,1277.93
1099.869,1286.90
1100.803,1259.97
1101.738,1299.70
1102.672,1232.30
1103.607,1266.07
1104.541,1296.63
1105.475,1281.33
1106.409,1266.00
1107.343,1251.43
1108.277,1260.43
1109.210,1281.23
1110.144,1220.00
1111.078,1247.37
1112.011,1214.50
1112.944,1219.50
1113.878,1201.50
1114.811,1211.40
1115.744,1242.70
1116.678,1253.77
1117.611,1193.67
1118.544,1227.13
1119.477,1183.07
1120.409,1209.77
1121.342,1197.10
1122.274,1226.53
1123.206,310.47
1124.138,1189.47
1125.070,1194.83
1126.002,1166.97
1126.934,1162.47
1127.866,1172.73
1128.798,1164.37
1129.729,1183.33
1130.661,1165.70
1131.592,1158.73
1132.523,1177.03
1133.454,1137.03
1134.385,1145.57
1135.317,1180.07
1136.247,1107.80
1137.178,1127.13
1138.109,1137.33
1139.039,1091.63
1139.970,1152.43
1140.900,1129.47
1141.831,1133.83
1142.761,1159.83
1143.691,1155.43
1144.621,1119.33
1145.551,1122.90
1146.480,1146.83
1147.410,1129.20
1148.340,1141.40
1149.269,1109.53
1150.199,1114.73
1151.128,1114.93
1152.057,1074.70
1152.979,1113.67
1153.898,1082.97
1154.819,1084.23
1155.739,1075.30
1156.658,1102.27
1157.579,1051.73
1158.498,1085.63
1159.419,1088.40
1160.338,1049.73
1161.256,1043.30
1162.177,1069.57
1163.095,1081.03
1164.016,1070.17
1164.934,1113.27
1165.852,1063.40
1166.772,1052.80
1167.690,1079.47
1168.610,1109.10
1169.528,1096.77
1170.446,1099.47
1171.365,1075.50
1172.283,1077.17
1173.202,1044.67
1174.120,1085.57
1175.037,1057.40
1175.956,1071.40
1176.873,1031.53
1177.792,1047.43
1178.709,1043.90
1179.626,1080.60
1180.544,1056.70
1181.461,1054.13
1182.379,1027.93
1183.296,1052.37
1184.212,1036.23
1185.130,1072.17
1186.046,1072.93
1186.962,1052.00
1187.880,1013.77
1188.796,1065.40
1189.714,1073.67
1190.629,1051.03
1191.545,1062.17
1192.462,1036.30
1193.378,1035.97
1194.295,1028.80
1195.210,1050.93
1196.125,1077.97
1197.042,1044.37
1197.957,1020.47
1198.872,1015.30
1199.788,1053.10
1200.703,1060.10
1201.619,1060.00
1202.534,1063.57
1203.448,1071.13
1204.364,1045.20
1205.278,1026.77
1206.192,1062.83
1207.108,1011.37
1208.022,1077.47
1208.938,1050.03
1209.851,1062.57
1210.765,1019.97
1211.680,1067.57
1212.594,1049.10
1213.507,1049.00
1214.422,1068.07
1215.335,1028.20
1216.248,1045.57
1217.163,1042.87
1218.076,1048.80
1218.990,1047.33
1219.903,1079.10
1220.816,1087.87
1221.730,1084.50
1222.642,1016.80
1223.554,1026.63
1224.469,1043.03
1225.380,1102.30
1226.292,1060.23
1227.206,1067.03
1228.118,1044.80
1229.032,1067.73
1229.943,1066.40
1230.855,1040.80
1231.768,1051.10
1232.679,1136.90
1233.590,1086.17
1234.503,1086.07
1235.414,1063.67
1236.325,1095.10
1237.238,1077.20
1238.149,1125.73
1239.059,1092.53
1239.972,1084.47
1240.882,1072.20
1241.793,1069.87
1242.705,1102.30
1243.615,1123.93
1244.525,1098.97
1245.437,1072.63
1246.347,1107.43
1247.259,1099.20
1248.168,1100.87
1249.078,1078.73
1249.989,1132.83
1250.899,1088.73
1251.808,1112.87
1252.719,1118.97
1253.628,1103.60
1254.537,1113.50
1255.448,1104.53
1256.357,1109.30
1257.266,1078.17
1258.176,1116.60
1259.085,1117.13
1259.993,1150.77
1260.904,1138.20
1261.812,1109.40
1262.720,1122.57
1263.630,1089.13
1264.538,1081.87
1265.446,1091.60
1266.356,1115.87
1267.263,1127.43
1268.171,1109.43
1269.080,1113.37
1269.988,1109.63
1270.895,1063.43
1271.804,1113.10
1272.711,1111.73
1273.619,1098.37
1274.527,1117.10
1275.434,1147.03
1276.341,1153.17
1277.248,1131.13
1278.156,1110.03
1279.063,1094.20
1279.969,1119.83
1280.877,1102.37
1281.783,1089.33
1282.690,1084.20
1283.598,1065.17
1284.503,1082.87
1285.409,1133.17
1286.317,1141.30
1287.223,1076.93
1288.128,1125.83
1289.036,1087.70
1289.941,1083.77
1290.846,1113.80
1291.751,1094.27
1292.658,1075.33
1293.563,1085.10
1294.468,1049.83
1295.375,1105.93
1296.280,1088.20
1297.184,1044.60
1298.091,1076.63
1298.995,1058.43
1299.900,1061.00
1300.806,1088.33
1301.710,1078.30
1302.614,1059.50
1303.518,1058.83
1304.424,1059.10
1305.327,1034.37
1306.231,1082.60
1307.137,1022.83
1308.040,1054.53
1308.943,1027.90
1309.847,1066.23
1310.752,1013.03
1311.655,1000.33
1312.558,1014.73
1313.463,1008.70
1314.366,1037.67
1315.269,990.27
1316.171,990.27
1317.076,1008.10
1317.978,1000.93
1318.881,1007.80
1319.785,973.17
1320.687,956.37
1321.589,989.90
1322.491,994.70
1323.395,1006.63
1324.297,1024.07
1325.198,986.73
1326.102,985.07
1327.004,982.03
1327.905,1014.30
1328.806,995.00
1329.709,959.47
1330.611,991.77
1331.512,978.57
1332.413,955.83
1333.316,967.47
1334.216,938.17
1335.117,950.83
1336.020,955.70
1336.920,968.30
1337.821,897.30
1338.721,942.37
1339.623,934.33
1340.523,970.50
1341.423,929.37
1342.323,943.17
1343.225,930.47
1344.125,883.67
1345.025,951.20
1345.924,905.43
1346.826,915.13
1347.725,910.93
1348.624,907.97
1349.524,907.50
1350.425,907.83
1351.324,885.50
1352.223,871.63
1353.121,876.93
1354.022,898.93
1354.921,869.13
1355.819,873.07
1356.718,890.37
1357.618,882.23
1358.516,879.03
1359.415,877.00
1360.313,905.00
1361.213,846.40
1362.111,858.47
1363.008,891.17
1363.906,877.17
1364.806,892.83
1365.703,860.90
1366.601,883.17
1367.498,812.43
1368.397,825.87
1369.295,859.83
1370.192,889.30
1371.089,861.83
1371.987,807.67
1372.884,844.40
1373.781,802.53
1374.678,831.23
1375.574,863.93
1376.473,809.40
1377.369,840.23
1378.265,825.33
1379.161,839.17
1380.059,813.40
1380.955,822.30
1381.851,840.23
1382.747,805.47
1383.643,822.83
1384.540,808.37
1385.436,804.50
1386.331,812.40
1387.227,815.20
1388.124,834.13
1389.019,825.17
1389.914,808.03
1390.809,777.07
1391.704,794.13
1392.601,805.60
1393.495,823.90
1394.390,774.13
1395.285,804.73
1396.179,768.63
1397.075,750.83
1397.969,776.07
1398.864,807.30
1399.758,768.80
1400.652,807.93
1401.547,764.60
1402.441,806.93
1403.335,781.97
1404.229,776.10
1405.122,766.13
1406.017,747.40
1406.911,768.80
1407.804,746.37
1408.697,746.93
1409.590,751.27
1410.485,718.83
1411.378,779.90
1412.271,775.50
1413.163,779.70
1414.056,759.70
1414.949,752.57
1415.843,770.33
1416.735,744.10
1417.627,767.83
1418.520,743.63
1419.412,735.87
1420.306,759.97
1421.197,730.87
1422.089,782.80
1422.981,726.30
1423.873,760.80
1424.764,771.53
1425.657,733.53
1426.549,763.63
1427.440,739.80
1428.331,745.67
1429.222,715.90
1430.113,716.50
1431.006,710.00
1431.897,723.43
1432.787,711.27
1433.678,710.70
1434.568,739.67
1435.459,754.83
1436.351,714.53
1437.241,732.83
1438.131,705.57
1439.021,726.63
1439.911,750.33
1440.801,754.27
1441.693,714.23
1442.583,753.97
1443.472,715.20
1444.362,743.10
1445.251,697.80
1446.140,736.47
1447.030,670.97
1447.921,726.07
1448.810,722.63
1449.699,699.57
1450.588,721.60
1451.476,729.53
1452.365,715.13
1453.254,749.67
1454.144,693.03
1455.032,711.93
1455.921,696.37
1456.809,702.30
1457.697,703.63
1458.585,682.70
1459.473,692.47
1460.361,669.87
1461.251,712.93
1462.138,702.33
1463.026,706.80
1463.913,694.57
1464.801,707.37
1465.688,704.33
1466.575,714.40
1467.463,675.63
1468.351,668.20
1469.238,693.10
1470.125,700.57
1471.012,654.37
1471.899,680.20
1472.785,710.63
1473.672,666.77
1474.558,688.00
1475.446,666.23
1476.333,720.33
1477.219,657.13
1478.105,676.47
1478.991,679.77
1479.877,678.03
1480.762,694.97
1481.648,680.43
1482.534,676.37
1483.419,666.30
1484.307,690.70
1485.192,678.03
1486.077,646.20
1486.962,654.93
1487.847,626.03
1488.732,655.87
1489.617,660.30
1490.502,662.17
1491.387,675.37
1492.271,649.87
1493.156,636.67
1494.042,655.50
1494.927,672.77
1495.811,669.37
1496.695,668.10
1497.579,634.67
1498.463,653.43
1499.347,623.37
1500.231,641.13
1501.114,645.67
1501.998,658.07
1502.881,643.57
1503.765,631.97
1504.648,633.30
1505.533,668.20
1506.417,623.27
1507.300,664.20
1508.183,638.00
1509.066,628.47
1509.948,614.77
1510.831,649.93
1511.714,609.97
1512.596,662.67
1513.479,652.90
1514.361,686.23
1515.243,611.07
1516.125,640.00
1517.008,644.47
1517.890,607.03
1518.771,586.43
1519.655,628.40
1520.537,620.13
1521.419,631.00
1522.300,609.00
1523.182,628.40
1524.063,621.80
1524.944,628.03
1525.825,622.77
1526.707,613.70
1527.588,608.90
1528.468,614.90
1529.349,638.23
1530.230,591.23
1531.111,635.23
1531.991,634.27
1532.872,597.03
1533.752,610.73
1534.632,636.73
1535.513,568.27
1536.393,622.97
1537.273,596.33
1538.153,588.47
1539.032,590.03
1539.912,602.57
1540.792,611.50
1541.672,630.23
1542.551,588.50
1543.430,619.90
1544.310,536.37
1545.189,606.90
1546.068,594.10
1546.947,611.60
1547.826,653.40
1548.705,575.60
1549.584,626.63
1550.462,593.70
1551.341,590.70
1552.219,596.33
1553.098,595.13
1553.976,593.17
1554.854,590.57
1555.733,617.93
1556.611,570.23
1557.489,603.17
1558.367,604.30
1559.244,598.83
1560.122,589.30
1561.000,606.27
1561.877,603.13
1562.755,629.40
1563.632,600.30
1564.509,628.97
1565.386,628.57
1566.264,588.60
1567.141,605.60
1568.017,595.13
1568.894,583.47
1569.771,603.33
1570.648,560.60
1571.524,606.97
1572.401,583.10
1573.277,574.23
1574.153,605.50
1575.029,601.97
1575.906,588.07
1576.781,600.60
1577.657,579.90
1578.533,565.50
1579.409,577.10
1580.285,591.20
1581.160,543.07
1582.036,602.07
1582.911,632.60
1583.786,541.07
1584.662,566.27
1585.537,579.03
1586.412,590.10
1587.287,568.10
1588.160,598.90
1589.035,567.10
1589.909,587.97
1590.784,569.17
1591.658,546.03
1592.533,579.90
1593.407,590.33
1594.281,573.13
1595.155,630.33
1596.029,576.63
1596.903,586.77
1597.777,531.73
1598.651,546.37
1599.525,570.73
1600.398,566.77
1601.272,571.13
1602.144,553.27
1603.017,590.63
1603.890,555.73
1604.763,588.07
1605.636,597.17
1606.509,560.00
1607.382,558.83
1608.255,587.27
1609.128,556.43
1610.000,614.60
1610.873,533.37
1611.746,534.20
1612.616,536.70
1613.488,549.67
1614.361,559.37
1615.233,545.10
1616.105,591.53
1616.977,577.23
1617.849,550.13
1618.720,539.83
1619.592,549.50
1620.464,569.17
1621.333,542.63
1622.205,566.67
1623.076,587.50
1623.947,520.70
1624.818,556.37
1625.689,568.77
1626.560,573.90
1627.431,557.53
1628.302,552.43
1629.171,558.20
1630.042,608.20
1630.912,435.80
1631.782,560.93
1632.653,533.37
1633.523,557.60
1634.393,590.37
1635.263,541.77
1636.131,575.17
1637.001,549.73
1637.871,542.37
1638.741,554.80
1639.611,535.87
1640.480,570.53
1641.350,549.37
1642.219,562.30
1643.087,548.23
1643.956,532.23
1644.825,545.47
1645.694,599.53
1646.563,554.93
1647.432,562.50
1648.299,527.70
1649.167,518.47
1650.036,561.93
1650.904,607.10
1651.773,544.80
1652.641,511.47
1653.509,590.57
1654.376,541.17
1655.244,550.13
1656.112,570.13
1656.980,497.20
1657.847,531.77
1658.715,566.93
1659.581,524.03
1660.448,553.63
1661.316,535.13
1662.183,526.10
1663.051,547.20
1663.918,485.17
1664.783,538.20
1665.650,524.50
1666.517,533.57
1667.384,563.13
1668.251,517.70
1669.115,561.33
1669.982,519.63
1670.849,530.63
1671.715,530.93
1672.581,525.07
1673.446,505.03
1674.312,542.47
1675.178,538.30
1676.044,502.93
1676.910,528.40
1677.774,524.97
1678.639,512.13
1679.505,563.77
1680.370,514.83
1681.236,520.70
1682.099,514.20
1682.965,525.70
1683.830,556.00
1684.695,499.67
1685.560,533.20
1686.423,536.20
1687.288,531.70
1688.153,538.83
1689.017,516.07
1689.880,523.27
1690.745,533.10
1691.609,518.77
1692.473,538.63
1693.338,491.83
1694.200,528.23
1695.064,547.07
1695.928,545.37
1696.792,522.20
1697.654,511.87
1698.517,510.83
1699.381,535.83
1700.245,508.87
1701.106,525.87
1701.969,512.60
1702.833,562.03
1703.696,500.13
1704.557,528.23
1705.420,495.50
1706.283,498.00
1707.146,529.43
1708.007,505.97
1708.870,514.03
1709.732,510.80
1710.595,502.03
1711.455,523.03
1712.318,504.43
1713.180,539.53
1714.040,505.53
1714.902,499.67
1715.764,516.23
1716.626,499.00
1717.486,513.97
1718.348,504.50
1719.209,388.47
1720.071,525.27
1720.930,516.60
1721.792,480.87
1722.653,505.53
1723.512,527.00
1724.374,510.90
1725.234,509.87
1726.095,489.17
1726.954,458.07
1727.815,476.53
1728.676,514.20
1729.535,480.37
1730.395,537.77
1731.256,490.20
1732.114,477.47
1732.974,532.40
1733.834,526.30
1734.693,512.40
1735.553,471.27
1736.413,515.43
1737.272,529.90
1738.130,507.20
1738.990,534.33
1739.849,515.87
1740.707,513.80
1741.566,516.33
1742.426,535.53
1743.283,513.60
1744.142,547.80
1745.001,494.87
1745.858,530.77
1746.717,512.80
1747.576,515.90
1748.433,507.03
1749.292,535.13
1750.150,487.90
1751.007,500.27
1751.865,509.63
1752.723,515.57
1753.579,539.73
1754.438,478.50
1755.296,486.33
1756.152,520.20
1757.010,503.70
1757.865,498.50
1758.723,484.97
1759.581,484.37
1760.436,463.90
1761.294,520.17
1762.151,492.23
1763.006,530.37
1763.864,500.30
1764.721,507.63
1765.576,510.30
1766.433,498.03
1767.288,480.73
1768.144,504.57
1769.001,493.33
1769.856,504.77
1770.712,492.43
1771.568,496.03
1772.423,501.83
1773.279,519.80
1774.133,514.07
1774.989,504.70
1775.845,497.77
1776.699,482.67
1777.555,506.63
1778.409,501.67
1779.265,501.10
1780.120,491.53
1780.974,484.83
1781.829,485.87
1782.682,530.10
1783.538,481.53
1784.393,459.83
1785.246,519.80
1786.101,508.23
1786.954,490.53
1787.808,477.37
1788.661,480.50
1789.516,490.83
1790.370,482.23
1791.223,514.00
1792.077,479.47
1792.930,479.13
1793.784,493.50
1794.636,507.20
1795.490,501.00
1796.344,482.33
1797.196,495.77
1798.049,499.67
1798.901,499.97
1799.755,459.30
1800.606,464.43
1801.460,472.97
1802.311,487.60
1803.165,484.30
1804.018,472.80
1804.869,502.00
1805.722,495.40
1806.573,487.20
1807.426,484.23
1808.276,466.73
1809.129,495.03
1809.980,497.00
1810.832,471.17
1811.683,470.67
1812.535,470.40
1813.385,453.10
1814.237,459.60
1815.089,488.50
1815.940,496.83
1816.791,473.00
1817.641,460.90
1818.493,515.67
1819.343,450.27
1820.194,472.67
1821.044,519.63
1821.895,479.10
1822.745,491.23
1823.596,483.10
1824.445,466.00
1825.296,500.03
1826.145,495.03
1826.996,467.67
1827.845,494.23
1828.695,485.07
1829.544,484.00
1830.395,465.13
1831.243,467.47
1832.094,496.63
1832.942,498.13
1833.792,482.73
1834.640,427.20
1835.490,514.87
1836.338,504.37
1837.186,473.70
1838.036,488.07
1838.884,471.13
1839.733,462.03
1840.581,471.00
1841.430,466.00
1842.278,450.47
1843.127,469.50
1843.974,477.03
1844.823,496.43
1845.671,502.10
1846.519,470.20
1847.366,443.80
1848.213,464.97
1849.062,494.23
1849.909,459.00
1850.757,476.77
1851.604,525.83
1852.452,447.20
1853.298,445.53
1854.146,507.37
1854.993,457.00
1855.839,462.53
1856.687,464.17
1857.532,464.97
1858.380,472.23
1859.226,454.30
1860.073,526.30
1860.919,443.13
1861.765,450.17
1862.612,460.90
1863.457,460.40
1864.304,471.73
1865.150,444.00
1865.995,509.17
1866.842,473.43
1867.686,474.13
1868.533,472.30
1869.378,488.67
1870.223,457.17
1871.069,454.17
1871.914,463.30
1872.760,451.53
1873.604,483.23
1874.448,447.57
1875.294,462.43
1876.139,439.50
1876.984,436.17
1877.828,459.33
1878.672,462.80
1879.518,510.07
1880.361,488.50
1881.205,470.30
1882.050,467.40
1882.894,463.00
1883.739,470.40
1884.582,451.53
1885.425,469.13
1886.270,467.07
1887.113,448.10
1887.956,512.90
1888.801,491.67
1889.644,449.93
1890.486,465.83
1891.331,484.03
1892.173,468.70
1893.017,444.80
1893.860,477.43
1894.702,442.87
1895.546,480.97
1896.388,460.13
1897.230,429.77
1898.074,464.13
1898.916,462.20
1899.757,466.17
1900.601,439.53
1901.443,465.63
1902.284,457.13
1903.125,487.60
1903.969,477.23
1904.810,432.00
1905.651,449.73
1906.494,508.97
1907.335,447.93
1908.176,444.70
1909.018,481.20
1909.859,466.60
1910.700,424.03
1911.542,464.97
1912.383,433.83
1913.223,456.27
1914.064,464.70
1914.906,498.80
1915.746,476.73
1916.586,456.53
1917.428,459.00
1918.268,470.77
1919.107,468.47
1919.947,478.00
1920.789,456.00
1921.628,484.33
1922.468,454.23
1923.309,463.93
1924.148,425.40
1924.988,438.40
1925.827,460.40
1926.667,494.47
1927.507,455.83
1928.345,433.07
1929.184,453.23
1930.025,446.70
1930.864,480.60
1931.702,441.60
1932.541,467.53
1933.381,467.17
1934.219,427.20
1935.057,432.70
1935.896,453.10
1936.735,504.67
1937.573,483.03
1938.411,421.70
1939.249,466.03
1940.089,498.03
1940.927,479.17
1941.764,478.90
1942.602,467.57
1943.439,455.40
1944.278,466.17
1945.115,473.37
1945.953,464.33
1946.790,450.30
1947.628,474.90
1948.465,422.70
1949.302,471.77
1950.139,448.53
1950.976,460.00
1951.814,437.17
1952.651,460.33
1953.487,474.93
1954.323,495.93
1955.160,468.40
1955.998,439.50
1956.834,477.77
1957.670,438.47
1958.506,455.47
1959.342,484.13
1960.177,456.17
1961.015,495.83
1961.850,467.63
1962.686,433.80
1963.521,450.53
1964.357,457.23
1965.192,448.17
1966.029,436.70
1966.864,421.50
1967.699,431.60
1968.534,433.47
1969.369,455.00
1970.204,491.77
1971.040,467.00
1971.875,414.67
1972.709,484.33
1973.544,447.40
1974.378,468.00
1975.212,453.93
1976.047,502.93
1976.882,439.37
1977.716,452.83
1978.550,456.00
1979.384,494.50
1980.218,450.03
1981.052,424.30
1981.885,458.40
1982.719,431.67
1983.554,425.17
1984.388,439.40
1985.221,464.97
1986.054,466.80
1986.887,465.37
1987.720,463.33
1988.553,498.93
1989.386,469.97
1990.219,458.40
1991.053,446.37
1991.886,470.70
1992.719,482.60
1993.551,450.30
1994.383,438.43
1995.216,432.60
1996.048,426.90
1996.880,466.23
1997.712,461.63
1998.544,456.60
1999.376,446.03
2000.208,438.87
2001.040,448.10
2001.873,449.60
2002.705,436.47
2003.536,457.50
2004.367,434.43
2005.199,455.73
2006.030,423.73
2006.861,418.70
2007.692,459.43
2008.523,426.93
2009.354,424.57
2010.185,485.87
2011.016,441.80
2011.846,410.33
2012.677,477.70
2013.507,462.73
2014.338,421.03
2015.168,456.60
2015.999,437.40
2016.829,449.80
2017.659,445.63
2018.489,480.43
2019.319,438.93
2020.149,453.27
2020.980,440.77
2021.810,487.97
2022.639,444.73
2023.469,481.70
2024.298,451.00
2025.128,452.03
2025.957,460.10
2026.786,472.60
2027.615,445.20
2028.444,446.87
2029.273,469.87
2030.102,450.70
2030.931,434.80
2031.758,436.80
2032.586,483.77
2033.415,484.77
2034.243,463.67
2035.072,453.73
2035.900,433.03
2036.728,453.40
2037.556,456.33
2038.385,443.00
2039.213,470.50
2040.040,447.80
2040.868,467.87
2041.696,500.07
2042.524,440.37
2043.351,475.13
2044.179,468.50
2045.006,440.57
2045.006,440.57

Max Intensity Wave.,220.959
Max Intensity Data,6439.13
Min Intensity Wave.,1123.206
Min Intensity Data,310.47
FWHM Wave.,402.186
FWHM Value,0.87
Pressure Wave.,687.058
Pressure Value [GPa],-18.66890
G/D Ratio,0.60161
G/D Gband Wave.,1547.694
G/D Gband Intensity,654.75
G/D Dband Wave.,1300.806
G/D Dband Intensity,1088.33

<< BACKGROUND SPECTRUM >>
Wave[dcm-1],No293
146.591,2229.00
147.626,2073.00
148.664,2021.00
149.699,2491.00
150.737,2206.00
151.772,2391.00
152.809,2375.00
153.846,2251.00
154.881,2391.00
155.918,1956.00
156.953,2270.00
157.989,2599.00
159.026,2443.00
160.060,2618.00
161.096,2808.00
162.130,2513.00
163.167,2543.00
164.200,2414.00
165.236,2629.00
166.272,2637.00
167.305,2267.00
168.341,2514.00
169.374,2752.00
170.409,2735.00
171.445,2698.00
172.477,2482.00
173.512,2393.00
174.545,2660.00
175.580,2870.00
176.614,3048.00
177.647,2756.00
178.681,3010.00
179.713,3300.00
180.747,2772.00
181.781,2697.00
182.813,2977.00
183.847,3080.00
184.878,2661.00
185.912,2960.00
186.945,3155.00
187.976,3035.00
189.010,2652.00
190.043,2802.00
191.073,2873.00
192.106,2734.00
193.137,3154.00
194.170,2516.00
195.202,2913.00
196.232,2670.00
197.265,2953.00
198.297,3064.00
199.327,2724.00
200.359,2938.00
201.388,3305.00
202.420,2879.00
203.452,3053.00
204.481,2704.00
205.512,3252.00
206.544,3034.00
207.573,3046.00
208.604,3354.00
209.635,3481.00
210.663,2920.00
211.694,2989.00
212.725,2809.00
213.753,2728.00
214.783,3358.00
215.813,3184.00
216.841,2966.00
217.871,3139.00
218.899,2885.00
219.929,3101.00
220.959,2865.00
221.986,3120.00
223.016,2743.00
224.045,3134.00
225.072,3051.00
226.101,3178.00
227.130,3196.00
228.157,2775.00
229.185,2340.00
230.214,3139.00
231.241,2792.00
232.269,2473.00
233.297,2662.00
234.323,3169.00
235.351,2767.00
236.379,3069.00
237.407,2767.00
238.433,2921.00
239.460,3034.00
240.488,3078.00
241.513,3162.00
242.540,3087.00
243.568,3186.00
244.592,3172.00
245.619,3177.00
246.646,2920.00
247.671,2951.00
248.697,2789.00
249.724,3017.00
250.748,2995.00
251.774,2964.00
252.801,3266.00
253.827,3119.00
254.850,3055.00
255.876,2658.00
256.902,3076.00
257.925,2945.00
258.951,2727.00
259.976,2734.00
260.999,3053.00
262.024,2765.00
263.049,3598.00
264.074,3067.00
265.097,3004.00
266.122,3019.00
267.146,3002.00
268.168,3192.00
269.193,2830.00
270.217,3193.00
271.241,2690.00
272.263,2881.00
273.287,3169.00
274.311,2764.00
275.332,3227.00
276.356,2821.00
277.379,3031.00
278.402,3146.00
279.424,2913.00
280.447,2875.00
281.470,2691.00
282.492,3014.00
283.513,2897.00
284.536,3123.00
285.558,3103.00
286.581,3063.00
287.601,2829.00
288.623,2778.00
289.645,3051.00
290.665,3102.00
291.687,3098.00
292.709,3130.00
293.730,3345.00
294.750,2847.00
295.771,2716.00
296.792,3020.00
297.813,2901.00
298.832,3022.00
299.853,2783.00
300.874,2945.00
301.895,2928.00
302.913,2939.00
303.934,3228.00
304.954,2998.00
305.975,4203.00
306.993,2748.00
308.013,3099.00
309.033,2961.00
310.052,2896.00
311.072,2887.00
312.090,3017.00
313.109,3254.00
314.129,3374.00
315.148,2981.00
316.165,3011.00
317.184,3223.00
318.203,2752.00
319.222,2745.00
320.238,3083.00
321.257,2803.00
322.275,2666.00
323.294,2941.00
324.312,3114.00
325.328,3262.00
326.346,3259.00
327.364,3189.00
328.382,3162.00
329.397,3104.00
330.415,3160.00
331.432,3210.00
332.450,3223.00
333.467,3428.00
334.482,2552.00
335.499,3304.00
336.516,2828.00
337.533,2546.00
338.547,2789.00
339.564,2853.00
340.580,3084.00
341.597,2937.00
342.613,3377.00
343.627,2955.00
344.643,3015.00
345.659,3073.00
346.675,2963.00
347.690,2874.00
348.704,3031.00
349.719,2874.00
350.735,2723.00
351.750,3127.00
352.765,2976.00
353.778,2946.00
354.793,3116.00
355.808,2787.00
356.822,3175.00
357.837,2592.00
358.851,3248.00
359.864,2976.00
360.878,2731.00
361.892,2951.00
362.906,3165.00
363.920,2561.00
364.932,3049.00
365.945,3046.00
366.959,2999.00
367.972,2927.00
368.986,2738.00
369.999,3331.00
371.010,2805.00
372.023,3358.00
373.036,2938.00
374.049,3377.00
375.061,3047.00
376.072,3018.00
377.084,2837.00
378.097,2716.00
379.109,3143.00
380.121,2998.00
381.133,2660.00
382.143,3095.00
383.155,2709.00
384.166,2867.00
385.178,3068.00
386.189,3205.00
387.201,2699.00
388.212,2922.00
389.221,2915.00
390.232,2965.00
391.243,2899.00
392.254,3011.00
393.264,2825.00
394.275,3214.00
395.283,3179.00
396.294,3575.00
397.304,3451.00
398.314,3094.00
399.324,3021.00
400.334,2667.00
401.344,3131.00
402.351,2607.00
403.361,3184.00
404.370,2911.00
405.380,2870.00
406.389,3319.00
407.398,3103.00
408.407,3088.00
409.414,3091.00
410.423,3284.00
411.431,2742.00
412.440,2655.00
413.448,3325.00
414.457,2822.00
415.465,2789.00
416.471,2897.00
417.479,2998.00
418.487,2791.00
419.495,3276.00
420.503,3110.00
421.510,2611.00
422.518,3168.00
423.525,3115.00
424.530,3361.00
425.537,2840.00
426.544,3195.00
427.551,2877.00
428.558,3555.00
429.565,3407.00
430.571,2832.00
431.578,2847.00
432.582,2855.00
433.588,2919.00
434.595,2607.00
435.601,3276.00
436.607,3222.00
437.612,2731.00
438.618,3310.00
439.624,2891.00
440.627,2953.00
441.633,3072.00
442.638,3594.00
443.643,3069.00
444.648,2967.00
445.653,3183.00
446.658,2865.00
447.663,2968.00
448.667,2843.00
449.672,2911.00
450.674,2987.00
451.678,2703.00
452.682,2869.00
453.687,2847.00
454.690,3587.00
455.694,3274.00
456.698,2551.00
457.702,2659.00
458.705,2766.00
459.709,2783.00
460.710,2848.00
461.713,2967.00
462.716,3031.00
463.719,2949.00
464.722,3159.00
465.725,2913.00
466.727,2806.00
467.730,3002.00
468.732,2743.00
469.735,3222.00
470.737,2846.00
471.737,2885.00
472.739,2885.00
473.741,2798.00
474.742,3041.00
475.744,3089.00
476.746,3018.00
477.747,2919.00
478.748,3117.00
479.750,2914.00
480.751,2990.00
481.752,3661.00
482.753,3082.00
483.751,3527.00
484.752,2617.00
485.753,2953.00
486.753,2851.00
487.753,2961.00
488.754,3419.00
489.754,2683.00
490.754,3307.00
491.754,3130.00
492.754,2654.00
493.753,3011.00
494.753,2879.00
495.752,3335.00
496.752,3005.00
497.749,2969.00
498.748,2846.00
499.747,3375.00
500.746,3103.00
501.745,2747.00
502.744,2707.00
503.742,3305.00
504.741,2958.00
505.739,2474.00
506.737,2851.00
507.735,3071.00
508.734,3390.00
509.732,3129.00
510.729,3297.00
511.727,2862.00
512.725,2927.00
513.720,2765.00
514.718,3234.00
515.715,2671.00
516.712,2640.00
517.709,2987.00
518.706,2879.00
519.703,3012.00
520.700,3227.00
521.696,3333.00
522.693,2890.00
523.689,2850.00
524.686,3121.00
525.682,2766.00
526.678,3446.00
527.674,2889.00
528.670,2584.00
529.666,3471.00
530.661,3444.00
531.657,3636.00
532.652,3123.00
533.648,2981.00
534.641,3170.00
535.636,3053.00
536.631,3092.00
537.626,3174.00
538.621,2743.00
539.616,2565.00
540.610,2494.00
541.605,3000.00
542.599,3045.00
543.593,2990.00
544.587,3863.00
545.581,2817.00
546.575,3040.00
547.569,3010.00
548.563,2704.00
549.557,2618.00
550.550,2755.00
551.543,2717.00
552.537,3116.00
553.530,2748.00
554.523,2749.00
555.516,3047.00
556.509,2967.00
557.502,2657.00
558.494,3157.00
559.487,2890.00
560.479,3171.00
561.472,3238.00
562.464,3115.00
563.456,3279.00
564.448,2976.00
565.440,2978.00
566.432,3392.00
567.423,2822.00
568.415,2891.00
569.404,3076.00
570.396,2792.00
571.387,3072.00
572.378,3013.00
573.369,3951.00
574.360,3633.00
575.351,2881.00
576.341,2841.00
577.332,2854.00
578.323,2654.00
579.313,2883.00
580.303,3210.00
581.293,3102.00
582.283,2945.00
583.273,3100.00
584.263,3023.00
585.253,3077.00
586.243,3125.00
587.232,2643.00
588.222,2933.00
589.211,3158.00
590.200,3038.00
591.189,2942.00
592.178,2955.00
593.167,3410.00
594.156,3273.00
595.145,2860.00
596.133,3457.00
597.122,3123.00
598.110,3184.00
599.098,3063.00
600.086,2985.00
601.074,3154.00
602.062,2810.00
603.050,2732.00
604.038,3122.00
605.025,2755.00
606.013,3185.00
607.000,3384.00
607.987,3000.00
608.975,3065.00
609.962,2758.00
610.949,3122.00
611.936,3265.00
612.922,3140.00
613.909,2727.00
614.895,3324.00
615.882,2829.00
616.868,3003.00
617.854,2733.00
618.841,3007.00
619.826,3104.00
620.812,2947.00
621.798,2759.00
622.784,3167.00
623.769,3083.00
624.755,2681.00
625.740,3070.00
626.725,2666.00
627.711,2818.00
628.698,3063.00
629.683,2782.00
630.667,3168.00
631.652,2736.00
632.637,2933.00
633.621,3162.00
634.606,2889.00
635.590,3068.00
636.574,2900.00
637.558,3046.00
638.542,3036.00
639.526,2843.00
640.510,2652.00
641.493,3036.00
642.477,2997.00
643.460,2680.00
644.444,3219.00
645.427,3249.00
646.410,2664.00
647.393,2919.00
648.376,3005.00
649.359,2938.00
650.341,3042.00
651.324,3104.00
652.307,3019.00
653.289,2906.00
654.271,2849.00
655.253,2884.00
656.235,3125.00
657.217,3199.00
658.199,2645.00
659.181,2719.00
660.163,2996.00
661.144,2850.00
662.126,2874.00
663.107,2787.00
664.088,6206.00
665.069,3193.00
666.050,2812.00
667.033,2692.00
668.014,3054.00
668.995,2584.00
669.975,2978.00
670.956,2901.00
671.936,3132.00
672.916,2932.00
673.896,3060.00
674.876,2917.00
675.856,2855.00
676.836,2736.00
677.816,2296.00
678.795,2833.00
679.775,2719.00
680.754,3038.00
681.734,3121.00
682.713,3157.00
683.692,2762.00
684.671,2654.00
685.650,2768.00
686.629,2847.00
687.607,2726.00
688.586,2765.00
689.564,2837.00
690.543,3193.00
691.523,2370.00
692.501,2792.00
693.479,2878.00
694.457,2767.00
695.435,2862.00
696.413,2673.00
697.390,2532.00
698.368,2649.00
699.345,3127.00
700.322,2924.00
701.300,3078.00
702.277,3048.00
703.254,3234.00
704.231,2554.00
705.207,2981.00
706.184,2756.00
707.161,2648.00
708.137,2808.00
709.113,2821.00
710.090,2827.00
711.068,2552.00
712.044,2624.00
713.020,2909.00
713.996,2622.00
714.971,2806.00
715.947,2832.00
716.922,2789.00
717.898,2723.00
718.873,2860.00
719.848,2716.00
720.823,2665.00
721.798,3007.00
722.773,2750.00
723.748,2525.00
724.723,3000.00
725.697,2835.00
726.672,2766.00
727.646,2525.00
728.622,2966.00
729.596,2564.00
730.570,2726.00
731.544,3061.00
732.518,3275.00
733.492,2820.00
734.466,2881.00
735.439,2972.00
736.413,3095.00
737.386,2443.00
738.359,2429.00
739.332,2522.00
740.305,2820.00
741.278,3271.00
742.251,2942.00
743.224,2711.00
744.196,2536.00
745.171,3092.00
746.143,3035.00
747.115,2745.00
748.087,2718.00
749.059,3080.00
750.031,2889.00
751.003,3659.00
751.975,3202.00
752.947,2648.00
753.918,3056.00
754.890,2571.00
755.861,2742.00
756.832,3052.00
757.803,2832.00
758.774,2816.00
759.747,2599.00
760.718,3136.00
761.689,2764.00
762.659,2601.00
763.630,3129.00
764.600,2551.00
765.570,3089.00
766.540,3140.00
767.510,2915.00
768.480,3014.00
769.450,2703.00
770.420,2791.00
771.390,2632.00
772.359,2782.00
773.329,2652.00
774.300,2518.00
775.269,2726.00
776.238,3001.00
777.207,3161.00
778.176,2501.00
779.145,2785.00
780.114,2684.00
781.083,2578.00
782.051,2710.00
783.019,2671.00
783.988,3050.00
784.956,2869.00
785.924,2996.00
786.894,2860.00
787.862,2683.00
788.830,3120.00
789.797,2646.00
790.765,2568.00
791.732,2744.00
792.700,2655.00
793.667,2584.00
794.634,2708.00
795.601,2760.00
796.568,2777.00
797.535,2827.00
798.502,3433.00
799.468,2896.00
800.437,2409.00
801.403,2671.00
802.370,3290.00
803.336,2983.00
804.302,2872.00
805.268,2431.00
806.234,2542.00
807.200,2724.00
808.166,2766.00
809.131,2552.00
810.097,3011.00
811.062,3621.00
812.027,2992.00
812.994,2608.00
813.960,2596.00
814.925,2919.00
815.889,2527.00
816.854,3004.00
817.819,2628.00
818.783,2704.00
819.748,3079.00
820.712,2742.00
821.677,2688.00
822.641,2717.00
823.605,2689.00
824.571,3182.00
825.534,2753.00
826.498,2684.00
827.462,2810.00
828.425,2630.00
829.389,3008.00
830.352,2811.00
831.315,2849.00
832.279,2517.00
833.242,2740.00
834.204,2661.00
835.167,2667.00
836.132,3071.00
837.095,2498.00
838.057,2704.00
839.020,2799.00
839.982,2850.00
840.944,2703.00
841.906,2628.00
842.868,2989.00
843.830,2551.00
844.792,3061.00
845.753,2686.00
846.715,2441.00
847.679,2595.00
848.640,2631.00
849.601,2727.00
850.562,3236.00
851.523,2702.00
852.484,2466.00
853.445,3007.00
854.406,2710.00
855.367,2692.00
856.327,3045.00
857.288,2505.00
858.248,2610.00
859.210,2669.00
860.170,2545.00
861.130,3019.00
862.090,2430.00
863.050,2605.00
864.010,2674.00
864.969,2874.00
865.929,2618.00
866.888,2508.00
867.848,2810.00
868.807,2688.00
869.766,2853.00
870.727,2732.00
871.686,2988.00
872.645,2977.00
873.604,3272.00
874.562,2751.00
875.521,2804.00
876.479,3353.00
877.437,2567.00
878.396,2593.00
879.354,3210.00
880.312,2573.00
881.270,2651.00
882.229,3079.00
883.187,2611.00
884.145,2669.00
885.102,2923.00
886.059,2834.00
887.017,2879.00
887.974,2966.00
888.931,3059.00
889.888,2502.00
890.845,2405.00
891.802,2326.00
892.758,2665.00
893.717,2415.00
894.673,2537.00
895.630,2630.00
896.586,2877.00
897.542,2694.00
898.498,2526.00
899.454,2902.00
900.410,2688.00
901.366,2678.00
902.321,2620.00
903.277,2657.00
904.232,2744.00
905.189,2472.00
906.145,2657.00
907.100,2204.00
908.055,2690.00
909.010,2937.00
909.965,2349.00
910.919,2774.00
911.874,2572.00
912.828,2769.00
913.783,2735.00
914.737,2334.00
915.693,2756.00
916.648,2925.00
917.602,2938.00
918.555,2718.00
919.509,2832.00
920.463,2740.00
921.417,2783.00
922.370,2597.00
923.324,2665.00
924.277,2668.00
925.230,2756.00
926.183,2442.00
927.138,2670.00
928.091,2931.00
929.044,2825.00
929.996,2636.00
930.949,2636.00
931.902,2800.00
932.854,2846.00
933.806,2598.00
934.758,2993.00
935.711,2985.00
936.663,2792.00
937.614,2805.00
938.568,2736.00
939.520,2403.00
940.471,2743.00
941.423,2769.00
942.374,2858.00
943.326,2744.00
944.277,2606.00
945.228,2850.00
946.179,2670.00
947.130,3012.00
948.080,2637.00
949.031,2577.00
949.984,2653.00
950.934,2688.00
951.884,2449.00
952.835,2727.00
953.785,2723.00
954.735,2642.00
955.685,2364.00
956.635,2646.00
957.585,2635.00
958.534,2646.00
959.484,2724.00
960.433,2596.00
961.383,2452.00
962.334,2975.00
963.283,2808.00
964.232,2832.00
965.181,2725.00
966.130,2797.00
967.079,2603.00
968.027,2724.00
968.976,2724.00
969.924,2606.00
970.873,2819.00
971.821,2738.00
972.769,2904.00
973.719,2845.00
974.667,2457.00
975.615,2758.00
976.562,2713.00
977.510,2401.00
978.458,2631.00
979.405,2818.00
980.352,2780.00
981.300,2995.00
982.247,2839.00
983.194,2519.00
984.141,2644.00
985.088,2720.00
986.036,2779.00
986.983,2967.00
987.930,3127.00
988.876,2361.00
989.822,2905.00
990.769,2551.00
991.715,2598.00
992.661,2426.00
993.607,2770.00
994.553,3238.00
995.498,2619.00
996.444,2261.00
997.389,2752.00
998.337,2525.00
999.282,2856.00
1000.227,2658.00
1001.173,2695.00
1002.118,2456.00
1003.062,2895.00
1004.007,2708.00
1004.952,3004.00
1005.897,2955.00
1006.841,2688.00
1007.786,2451.00
1008.730,2468.00
1009.674,3184.00
1010.618,2655.00
1011.564,2516.00
1012.508,2398.00
1013.452,2957.00
1014.396,2704.00
1015.339,2575.00
1016.283,2692.00
1017.226,2753.00
1018.170,2730.00
1019.113,2920.00
1020.056,2759.00
1020.999,2721.00
1021.942,2606.00
1022.885,2840.00
1023.828,3012.00
1024.770,2470.00
1025.715,2763.00
1026.657,2692.00
1027.600,2753.00
1028.542,2928.00
1029.484,2748.00
1030.426,2854.00
1031.368,2780.00
1032.310,2579.00
1033.251,2533.00
1034.193,2696.00
1035.135,2464.00
1036.076,2620.00
1037.017,2566.00
1037.959,2815.00
1038.900,2764.00
1039.843,2829.00
1040.784,2797.00
1041.725,2797.00
1042.665,2654.00
1043.606,2745.00
1044.547,2779.00
1045.487,2391.00
1046.427,2654.00
1047.368,2768.00
1048.308,2226.00
1049.248,2518.00
1050.188,2675.00
1051.128,2592.00
1052.067,2665.00
1053.007,2416.00
1053.947,2393.00
1054.886,2574.00
1055.827,2476.00
1056.766,2911.00
1057.706,2457.00
1058.645,2687.00
1059.584,2736.00
1060.522,2960.00
1061.461,2479.00
1062.400,2487.00
1063.338,2618.00
1064.277,2533.00
1065.215,2517.00
1066.154,2391.00
1067.092,2567.00
1068.030,2593.00
1068.968,2843.00
1069.906,3006.00
1070.843,2986.00
1071.781,2714.00
1072.720,2791.00
1073.658,2834.00
1074.595,2633.00
1075.533,2593.00
1076.470,2577.00
1077.407,2967.00
1078.344,2796.00
1079.281,2794.00
1080.217,2315.00
1081.154,2674.00
1082.091,2778.00
1083.027,2448.00
1083.964,2905.00
1084.900,2538.00
1085.836,2588.00
1086.772,2900.00
1087.708,2488.00
1088.644,2874.00
1089.580,2704.00
1090.515,2768.00
1091.451,2600.00
1092.388,2760.00
1093.324,2441.00
1094.259,3221.00
1095.194,2757.00
1096.129,2617.00
1097.064,2576.00
1097.999,2799.00
1098.934,2547.00
1099.869,2550.00
1100.803,2735.00
1101.738,2688.00
1102.672,2431.00
1103.607,2807.00
1104.541,2525.00
1105.475,2530.00
1106.409,2432.00
1107.343,2619.00
1108.277,2435.00
1109.210,2687.00
1110.144,2696.00
1111.078,2672.00
1112.011,2482.00
1112.944,2791.00
1113.878,2759.00
1114.811,2205.00
1115.744,2568.00
1116.678,2285.00
1117.611,2587.00
1118.544,2594.00
1119.477,2771.00
1120.409,2556.00
1121.342,3126.00
1122.274,2719.00
1123.206,4261.00
1124.138,2686.00
1125.070,2972.00
1126.002,2849.00
1126.934,2302.00
1127.866,2574.00
1128.798,2340.00
1129.729,2369.00
1130.661,2654.00
1131.592,2560.00
1132.523,2729.00
1133.454,2781.00
1134.385,2311.00
1135.317,2620.00
1136.247,2605.00
1137.178,2867.00
1138.109,2374.00
1139.039,3058.00
1139.970,2809.00
1140.900,2566.00
1141.831,2339.00
1142.761,2197.00
1143.691,2741.00
1144.621,2650.00
1145.551,2697.00
1146.480,2651.00
1147.410,2831.00
1148.340,2286.00
1149.269,2369.00
1150.199,2570.00
1151.128,3031.00
1152.057,2466.00
1152.979,2564.00
1153.898,2638.00
1154.819,2749.00
1155.739,2654.00
1156.658,2544.00
1157.579,2705.00
1158.498,2629.00
1159.419,2186.00
1160.338,2721.00
1161.256,2740.00
1162.177,2495.00
1163.095,2631.00
1164.016,2721.00
1164.934,2863.00
1165.852,2833.00
1166.772,2639.00
1167.690,2638.00
1168.610,2663.00
1169.528,2619.00
1170.446,2166.00
1171.365,2554.00
1172.283,2501.00
1173.202,2647.00
1174.120,2654.00
1175.037,2508.00
1175.956,2460.00
1176.873,2535.00
1177.792,2534.00
1178.709,3113.00
1179.626,2512.00
1180.544,2856.00
1181.461,2511.00
1182.379,2745.00
1183.296,2626.00
1184.212,2296.00
1185.130,2473.00
1186.046,2946.00
1186.962,2634.00
1187.880,2937.00
1188.796,2664.00
1189.714,2406.00
1190.629,2772.00
1191.545,2684.00
1192.462,2582.00
1193.378,2629.00
1194.295,2369.00
1195.210,2640.00
1196.125,2749.00
1197.042,2724.00
1197.957,2667.00
1198.872,2550.00
1199.788,2540.00
1200.703,2946.00
1201.619,2644.00
1202.534,2491.00
1203.448,2685.00
1204.364,2564.00
1205.278,2313.00
1206.192,2664.00
1207.108,3171.00
1208.022,2979.00
1208.938,2477.00
1209.851,2774.00
1210.765,2889.00
1211.680,2514.00
1212.594,2427.00
1213.507,2586.00
1214.422,3013.00
1215.335,2782.00
1216.248,2576.00
1217.163,2675.00
1218.076,3229.00
1218.990,2762.00
1219.903,2388.00
1220.816,2429.00
1221.730,2579.00
1222.642,2559.00
1223.554,2592.00
1224.469,2736.00
1225.380,2551.00
1226.292,2306.00
1227.206,2771.00
1228.118,2977.00
1229.032,2265.00
1229.943,2507.00
1230.855,2609.00
1231.768,2403.00
1232.679,2662.00
1233.590,2599.00
1234.503,2838.00
1235.414,2514.00
1236.325,2498.00
1237.238,2712.00
1238.149,2707.00
1239.059,2449.00
1239.972,2812.00
1240.882,2457.00
1241.793,2776.00
1242.705,2987.00
1243.615,2567.00
1244.525,2716.00
1245.437,2231.00
1246.347,2684.00
1247.259,2779.00
1248.168,3063.00
1249.078,2909.00
1249.989,2863.00
1250.899,2441.00
1251.808,2487.00
1252.719,2563.00
1253.628,2487.00
1254.537,2995.00
1255.448,2474.00
1256.357,2467.00
1257.266,2662.00
1258.176,2367.00
1259.085,2354.00
1259.993,2409.00
1260.904,2443.00
1261.812,2460.00
1262.720,3218.00
1263.630,2813.00
1264.538,2495.00
1265.446,2746.00
1266.356,2617.00
1267.263,2888.00
1268.171,2426.00
1269.080,2698.00
1269.988,2808.00
1270.895,2590.00
1271.804,2588.00
1272.711,2800.00
1273.619,2792.00
1274.527,2444.00
1275.434,2712.00
1276.341,2388.00
1277.248,2636.00
1278.156,2909.00
1279.063,2516.00
1279.969,2713.00
1280.877,3517.00
1281.783,2849.00
1282.690,2703.00
1283.598,2625.00
1284.503,2502.00
1285.409,2434.00
1286.317,2955.00
1287.223,3034.00
1288.128,2659.00
1289.036,2529.00
1289.941,2581.00
1290.846,2618.00
1291.751,2452.00
1292.658,2546.00
1293.563,3067.00
1294.468,2671.00
1295.375,2757.00
1296.280,2848.00
1297.184,3372.00
1298.091,2718.00
1298.995,2795.00
1299.900,3007.00
1300.806,2504.00
1301.710,2388.00
1302.614,2201.00
1303.518,2866.00
1304.424,2562.00
1305.327,2833.00
1306.231,2576.00
1307.137,2795.00
1308.040,2680.00
1308.943,2668.00
1309.847,2818.00
1310.752,2840.00
1311.655,2330.00
1312.558,2428.00
1313.463,2577.00
1314.366,2501.00
1315.269,2709.00
1316.171,2629.00
1317.076,2521.00
1317.978,2435.00
1318.881,2246.00
1319.785,2514.00
1320.687,2546.00
1321.589,2254.00
1322.491,2470.00
1323.395,2693.00
1324.297,3149.00
1325.198,2748.00
1326.102,2432.00
1327.004,2452.00
1327.905,2978.00
1328.806,2583.00
1329.709,2696.00
1330.611,2537.00
1331.512,2428.00
1332.413,3089.00
1333.316,2674.00
1334.216,2825.00
1335.117,2374.00
1336.020,2652.00
1336.920,2607.00
1337.821,2560.00
1338.721,2890.00
1339.623,2697.00
1340.523,2548.00
1341.423,2503.00
1342.323,2876.00
1343.225,2705.00
1344.125,2502.00
1345.025,2473.00
1345.924,2303.00
1346.826,2960.00
1347.725,3034.00
1348.624,2868.00
1349.524,2499.00
1350.425,2575.00
1351.324,2732.00
1352.223,2824.00
1353.121,2625.00
1354.022,2815.00
1354.921,3046.00
1355.819,2764.00
1356.718,2677.00
1357.618,2379.00
1358.516,2739.00
1359.415,3009.00
1360.313,2688.00
1361.213,2606.00
1362.111,2903.00
1363.008,3231.00
1363.906,2602.00
1364.806,2608.00
1365.703,2717.00
1366.601,2431.00
1367.498,2494.00
1368.397,2841.00
1369.295,2688.00
1370.192,2427.00
1371.089,2702.00
1371.987,2648.00
1372.884,2879.00
1373.781,2453.00
1374.678,2631.00
1375.574,2437.00
1376.473,2769.00
1377.369,2834.00
1378.265,2478.00
1379.161,2571.00
1380.059,2350.00
1380.955,2750.00
1381.851,2373.00
1382.747,2533.00
1383.643,2563.00
1384.540,2429.00
1385.436,2517.00
1386.331,2690.00
1387.227,2766.00
1388.124,2719.00
1389.019,2418.00
1389.914,2599.00
1390.809,2301.00
1391.704,3045.00
1392.601,2535.00
1393.495,2884.00
1394.390,2814.00
1395.285,2859.00
1396.179,2722.00
1397.075,2626.00
1397.969,2705.00
1398.864,2296.00
1399.758,2595.00
1400.652,2624.00
1401.547,2468.00
1402.441,2386.00
1403.335,2957.00
1404.229,2666.00
1405.122,2708.00
1406.017,2641.00
1406.911,2776.00
1407.804,3042.00
1408.697,2632.00
1409.590,2473.00
1410.485,2858.00
1411.378,2677.00
1412.271,2333.00
1413.163,2676.00
1414.056,2779.00
1414.949,3021.00
1415.843,2659.00
1416.735,2602.00
1417.627,2637.00
1418.520,2614.00
1419.412,2867.00
1420.306,2787.00
1421.197,2921.00
1422.089,2803.00
1422.981,3100.00
1423.873,2790.00
1424.764,2710.00
1425.657,2666.00
1426.549,2751.00
1427.440,2837.00
1428.331,2544.00
1429.222,2352.00
1430.113,2696.00
1431.006,2835.00
1431.897,2550.00
1432.787,2673.00
1433.678,2589.00
1434.568,2444.00
1435.459,2838.00
1436.351,2825.00
1437.241,2778.00
1438.131,2806.00
1439.021,2396.00
1439.911,2592.00
1440.801,2659.00
1441.693,2876.00
1442.583,2616.00
1443.472,2641.00
1444.362,2720.00
1445.251,2603.00
1446.140,2536.00
1447.030,2857.00
1447.921,2830.00
1448.810,2464.00
1449.699,3011.00
1450.588,2653.00
1451.476,2527.00
1452.365,2736.00
1453.254,2501.00
1454.144,2530.00
1455.032,2778.00
1455.921,2367.00
1456.809,2929.00
1457.697,2443.00
1458.585,2593.00
1459.473,2588.00
1460.361,2498.00
1461.251,2690.00
1462.138,2707.00
1463.026,2590.00
1463.913,2873.00
1464.801,2528.00
1465.688,2720.00
1466.575,2634.00
1467.463,3104.00
1468.351,2519.00
1469.238,2608.00
1470.125,2249.00
1471.012,2716.00
1471.899,2724.00
1472.785,2443.00
1473.672,2648.00
1474.558,2847.00
1475.446,2789.00
1476.333,2753.00
1477.219,2474.00
1478.105,2609.00
1478.991,2599.00
1479.877,2922.00
1480.762,2615.00
1481.648,2504.00
1482.534,2767.00
1483.419,2702.00
1484.307,2732.00
1485.192,2610.00
1486.077,2504.00
1486.962,2519.00
1487.847,2437.00
1488.732,2489.00
1489.617,2652.00
1490.502,2901.00
1491.387,2754.00
1492.271,2490.00
1493.156,2502.00
1494.042,2457.00
1494.927,2818.00
1495.811,2521.00
1496.695,2765.00
1497.579,2940.00
1498.463,2635.00
1499.347,2712.00
1500.231,2686.00
1501.114,2707.00
1501.998,2897.00
1502.881,2682.00
1503.765,2944.00
1504.648,3045.00
1505.533,2731.00
1506.417,2675.00
1507.300,2580.00
1508.183,2716.00
1509.066,2155.00
1509.948,2906.00
1510.831,2974.00
1511.714,2460.00
1512.596,2748.00
1513.479,2863.00
1514.361,2801.00
1515.243,2689.00
1516.125,2797.00
1517.008,2892.00
1517.890,2619.00
1518.771,2707.00
1519.655,2867.00
1520.537,2603.00
1521.419,2484.00
1522.300,2702.00
1523.182,2775.00
1524.063,2782.00
1524.944,2923.00
1525.825,2832.00
1526.707,2476.00
1527.588,2443.00
1528.468,2732.00
1529.349,2307.00
1530.230,2604.00
1531.111,2812.00
1531.991,2670.00
1532.872,2381.00
1533.752,2623.00
1534.632,2493.00
1535.513,2573.00
1536.393,2785.00
1537.273,2955.00
1538.153,3311.00
1539.032,2422.00
1539.912,2643.00
1540.792,2655.00
1541.672,2626.00
1542.551,2775.00
1543.430,3224.00
1544.310,2743.00
1545.189,2539.00
1546.068,3073.00
1546.947,2767.00
1547.826,2916.00
1548.705,2678.00
1549.584,2855.00
1550.462,2623.00
1551.341,2818.00
1552.219,2720.00
1553.098,2804.00
1553.976,2863.00
1554.854,3054.00
1555.733,2836.00
1556.611,2605.00
1557.489,2444.00
1558.367,2646.00
1559.244,2813.00
1560.122,2648.00
1561.000,2715.00
1561.877,2941.00
1562.755,2496.00
1563.632,2614.00
1564.509,2889.00
1565.386,2983.00
1566.264,2406.00
1567.141,2281.00
1568.017,2793.00
1568.894,2654.00
1569.771,2682.00
1570.648,2788.00
1571.524,2654.00
1572.401,2414.00
1573.277,2453.00
1574.153,2677.00
1575.029,2497.00
1575.906,3349.00
1576.781,2800.00
1577.657,2602.00
1578.533,2903.00
1579.409,2307.00
1580.285,2611.00
1581.160,3105.00
1582.036,2800.00
1582.911,2427.00
1583.786,3031.00
1584.662,2475.00
1585.537,2614.00
1586.412,2685.00
1587.287,2499.00
1588.160,2811.00
1589.035,2319.00
1589.909,2669.00
1590.784,2626.00
1591.658,2486.00
1592.533,2698.00
1593.407,2647.00
1594.281,2547.00
1595.155,2992.00
1596.029,2565.00
1596.903,2581.00
1597.777,2618.00
1598.651,2930.00
1599.525,2372.00
1600.398,2686.00
1601.272,2622.00
1602.144,3196.00
1603.017,2584.00
1603.890,2917.00
1604.763,2740.00
1605.636,2776.00
1606.509,2377.00
1607.382,2493.00
1608.255,2722.00
1609.128,2889.00
1610.000,2577.00
1610.873,2398.00
1611.746,2583.00
1612.616,2624.00
1613.488,2255.00
1614.361,2658.00
1615.233,2624.00
1616.105,2847.00
1616.977,2561.00
1617.849,2506.00
1618.720,2993.00
1619.592,2972.00
1620.464,2735.00
1621.333,3114.00
1622.205,2641.00
1623.076,2614.00
1623.947,2677.00
1624.818,2890.00
1625.689,2764.00
1626.560,2558.00
1627.431,2701.00
1628.302,3038.00
1629.171,2776.00
1630.042,2924.00
1630.912,3604.00
1631.782,3218.00
1632.653,2489.00
1633.523,2808.00
1634.393,2845.00
1635.263,2541.00
1636.131,2605.00
1637.001,2582.00
1637.871,2301.00
1638.741,2299.00
1639.611,2423.00
1640.480,2755.00
1641.350,2520.00
1642.219,2483.00
1643.087,2170.00
1643.956,3078.00
1644.825,2902.00
1645.694,2808.00
1646.563,2807.00
1647.432,2681.00
1648.299,2697.00
1649.167,2813.00
1650.036,2456.00
1650.904,2794.00
1651.773,2878.00
1652.641,2711.00
1653.509,2807.00
1654.376,2528.00
1655.244,2696.00
1656.112,2681.00
1656.980,2714.00
1657.847,2534.00
1658.715,2804.00
1659.581,2580.00
1660.448,2870.00
1661.316,2184.00
1662.183,2708.00
1663.051,2701.00
1663.918,2732.00
1664.783,2681.00
1665.650,2756.00
1666.517,2825.00
1667.384,2646.00
1668.251,2708.00
1669.115,2843.00
1669.982,2632.00
1670.849,2946.00
1671.715,2640.00
1672.581,2813.00
1673.446,2791.00
1674.312,2668.00
1675.178,3045.00
1676.044,2768.00
1676.910,2739.00
1677.774,2707.00
1678.639,2345.00
1679.505,2626.00
1680.370,2796.00
1681.236,3302.00
1682.099,2619.00
1682.965,2683.00
1683.830,2245.00
1684.695,2521.00
1685.560,2588.00
1686.423,2799.00
1687.288,2786.00
1688.153,2694.00
1689.017,2610.00
1689.880,2741.00
1690.745,2798.00
1691.609,2517.00
1692.473,2800.00
1693.338,2909.00
1694.200,2915.00
1695.064,2640.00
1695.928,2550.00
1696.792,2665.00
1697.654,3167.00
1698.517,2698.00
1699.381,2409.00
1700.245,2345.00
1701.106,2943.00
1701.969,2566.00
1702.833,2744.00
1703.696,2591.00
1704.557,2618.00
1705.420,2558.00
1706.283,2709.00
1707.146,2793.00
1708.007,2494.00
1708.870,2480.00
1709.732,2364.00
1710.595,2575.00
1711.455,2434.00
1712.318,2593.00
1713.180,2917.00
1714.040,2717.00
1714.902,2851.00
1715.764,2681.00
1716.626,2470.00
1717.486,2622.00
1718.348,2939.00
1719.209,4862.00
1720.071,2319.00
1720.930,2417.00
1721.792,2552.00
1722.653,2527.00
1723.512,2544.00
1724.374,2619.00
1725.234,2711.00
1726.095,2709.00
1726.954,2714.00
1727.815,2821.00
1728.676,2659.00
1729.535,2915.00
1730.395,2602.00
1731.256,2596.00
1732.114,2743.00
1732.974,2127.00
1733.834,3006.00
1734.693,2833.00
1735.553,2725.00
1736.413,3070.00
1737.272,2543.00
1738.130,2600.00
1738.990,2723.00
1739.849,2559.00
1740.707,3641.00
1741.566,2695.00
1742.426,2689.00
1743.283,3058.00
1744.142,2511.00
1745.001,2354.00
1745.858,2810.00
1746.717,2723.00
1747.576,2760.00
1748.433,2819.00
1749.292,3201.00
1750.150,3288.00
1751.007,2871.00
1751.865,2868.00
1752.723,2671.00
1753.579,2563.00
1754.438,2904.00
1755.296,2898.00
1756.152,2229.00
1757.010,2362.00
1757.865,2867.00
1758.723,2353.00
1759.581,3001.00
1760.436,2679.00
1761.294,3013.00
1762.151,2663.00
1763.006,2559.00
1763.864,2323.00
1764.721,2858.00
1765.576,2683.00
1766.433,2822.00
1767.288,2591.00
1768.144,2711.00
1769.001,2633.00
1769.856,2747.00
1770.712,2901.00
1771.568,2474.00
1772.423,2567.00
1773.279,2562.00
1774.133,2562.00
1774.989,3051.00
1775.845,3049.00
1776.699,2931.00
1777.555,2653.00
1778.409,3200.00
1779.265,2619.00
1780.120,2635.00
1780.974,2662.00
1781.829,2299.00
1782.682,2685.00
1783.538,2510.00
1784.393,2751.00
1785.246,2541.00
1786.101,2763.00
1786.954,2799.00
1787.808,2900.00
1788.661,2415.00
1789.516,2599.00
1790.370,2630.00
1791.223,2831.00
1792.077,2689.00
1792.930,2771.00
1793.784,2555.00
1794.636,2676.00
1795.490,2630.00
1796.344,2699.00
1797.196,2662.00
1798.049,2822.00
1798.901,2565.00
1799.755,2921.00
1800.606,2494.00
1801.460,3201.00
1802.311,2964.00
1803.165,3074.00
1804.018,3039.00
1804.869,2737.00
1805.722,3126.00
1806.573,2713.00
1807.426,2505.00
1808.276,2694.00
1809.129,2574.00
1809.980,2865.00
1810.832,2982.00
1811.683,2603.00
1812.535,3017.00
1813.385,2640.00
1814.237,2975.00
1815.089,2709.00
1815.940,2939.00
1816.791,2630.00
1817.641,2561.00
1818.493,2798.00
1819.343,2787.00
1820.194,2567.00
1821.044,2752.00
1821.895,2894.00
1822.745,2405.00
1823.596,2571.00
1824.445,3091.00
1825.296,2761.00
1826.145,2637.00
1826.996,2882.00
1827.845,2703.00
1828.695,2739.00
1829.544,2655.00
1830.395,2730.00
1831.243,2609.00
1832.094,2410.00
1832.942,3262.00
1833.792,2791.00
1834.640,2789.00
1835.490,2654.00
1836.338,2717.00
1837.186,2585.00
1838.036,2539.00
1838.884,2679.00
1839.733,3020.00
1840.581,2867.00
1841.430,2811.00
1842.278,3047.00
1843.127,2586.00
1843.974,2369.00
1844.823,3087.00
1845.671,2798.00
1846.519,2699.00
1847.366,2785.00
1848.213,2351.00
1849.062,2491.00
1849.909,2433.00
1850.757,3311.00
1851.604,2734.00
1852.452,2643.00
1853.298,2898.00
1854.146,2703.00
1854.993,2747.00
1855.839,3184.00
1856.687,2818.00
1857.532,2813.00
1858.380,2690.00
1859.226,2770.00
1860.073,2753.00
1860.919,2545.00
1861.765,2594.00
1862.612,2929.00
1863.457,2917.00
1864.304,2647.00
1865.150,2827.00
1865.995,2629.00
1866.842,2794.00
1867.686,2911.00
1868.533,2763.00
1869.378,2730.00
1870.223,2731.00
1871.069,2589.00
1871.914,2710.00
1872.760,2694.00
1873.604,2473.00
1874.448,2859.00
1875.294,2878.00
1876.139,2593.00
1876.984,2836.00
1877.828,2367.00
1878.672,2223.00
1879.518,2529.00
1880.361,2850.00
1881.205,2841.00
1882.050,2507.00
1882.894,3179.00
1883.739,2559.00
1884.582,2485.00
1885.425,2523.00
1886.270,2943.00
1887.113,2479.00
1887.956,2738.00
1888.801,2715.00
1889.644,2531.00
1890.486,2295.00
1891.331,2599.00
1892.173,2741.00
1893.017,2778.00
1893.860,2954.00
1894.702,3003.00
1895.546,2694.00
1896.388,3375.00
1897.230,3077.00
1898.074,2609.00
1898.916,2495.00
1899.757,2529.00
1900.601,3379.00
1901.443,2974.00
1902.284,2995.00
1903.125,3139.00
1903.969,2878.00
1904.810,2959.00
1905.651,2797.00
1906.494,2970.00
1907.335,3151.00
1908.176,2829.00
1909.018,2763.00
1909.859,2655.00
1910.700,2601.00
1911.542,3227.00
1912.383,2799.00
1913.223,2347.00
1914.064,2826.00
1914.906,2922.00
1915.746,3003.00
1916.586,3163.00
1917.428,2694.00
1918.268,2721.00
1919.107,2593.00
1919.947,2458.00
1920.789,2631.00
1921.628,2909.00
1922.468,2691.00
1923.309,2547.00
1924.148,3041.00
1924.988,2802.00
1925.827,2675.00
1926.667,2559.00
1927.507,2747.00
1928.345,2563.00
1929.184,2869.00
1930.025,2543.00
1930.864,2935.00
1931.702,3027.00
1932.541,2599.00
1933.381,2827.00
1934.219,2887.00
1935.057,3010.00
1935.896,2426.00
1936.735,2607.00
1937.573,2586.00
1938.411,2539.00
1939.249,2861.00
1940.089,2556.00
1940.927,2938.00
1941.764,2961.00
1942.602,2622.00
1943.439,2594.00
1944.278,2669.00
1945.115,2616.00
1945.953,2435.00
1946.790,2785.00
1947.628,3028.00
1948.465,2835.00
1949.302,2825.00
1950.139,2850.00
1950.976,2583.00
1951.814,2881.00
1952.651,2758.00
1953.487,2491.00
1954.323,2921.00
1955.160,2682.00
1955.998,3078.00
1956.834,2676.00
1957.670,2782.00
1958.506,2923.00
1959.342,2772.00
1960.177,2744.00
1961.015,2800.00
1961.850,2737.00
1962.686,2778.00
1963.521,2749.00
1964.357,2976.00
1965.192,2508.00
1966.029,2858.00
1966.864,2668.00
1967.699,2950.00
1968.534,2765.00
1969.369,2980.00
1970.204,2640.00
1971.040,2728.00
1971.875,2696.00
1972.709,2722.00
1973.544,2557.00
1974.378,2596.00
1975.212,2804.00
1976.047,2564.00
1976.882,2589.00
1977.716,3095.00
1978.550,2425.00
1979.384,2621.00
1980.218,2672.00
1981.052,2674.00
1981.885,2730.00
1982.719,2730.00
1983.554,2883.00
1984.388,3020.00
1985.221,2769.00
1986.054,2944.00
1986.887,2741.00
1987.720,2550.00
1988.553,2965.00
1989.386,2775.00
1990.219,2837.00
1991.053,3022.00
1991.886,2584.00
1992.719,2870.00
1993.551,2247.00
1994.383,2874.00
1995.216,2661.00
1996.048,2472.00
1996.880,2861.00
1997.712,2587.00
1998.544,2724.00
1999.376,2787.00
2000.208,3005.00
2001.040,3139.00
2001.873,2546.00
2002.705,2552.00
2003.536,2762.00
2004.367,2762.00
2005.199,2747.00
2006.030,2612.00
2006.861,2549.00
2007.692,2721.00
2008.523,2605.00
2009.354,2775.00
2010.185,2489.00
2011.016,2859.00
2011.846,2962.00
2012.677,2638.00
2013.507,3038.00
2014.338,2966.00
2015.168,2627.00
2015.999,3248.00
2016.829,2665.00
2017.659,2949.00
2018.489,3200.00
2019.319,2550.00
2020.149,2881.00
2020.980,2758.00
2021.810,2506.00
2022.639,2604.00
2023.469,2573.00
2024.298,2419.00
2025.128,2365.00
2025.957,2353.00
2026.786,2164.00
2027.615,2391.00
2028.444,2587.00
2029.273,2726.00
2030.102,2331.00
2030.931,2585.00
2031.758,2866.00
2032.586,2486.00
2033.415,2552.00
2034.243,2207.00
2035.072,2019.00
2035.900,2496.00
2036.728,2304.00
2037.556,2349.00
2038.385,2370.00
2039.213,2155.00
2040.040,2172.00
2040.868,2120.00
2041.696,2146.00
2042.524,2217.00
2043.351,2379.00
2044.179,2184.00
2045.006,2005.00
