RamanScope Measure Spectrum Data V3.72

<< MEASURE CONDITION >>
Exposure Type,Aver
Exposure Time [sec],15
Exposure Count,30
Measure Time,2023/07/03 20:55:13
Data Name,""
Data Comment,""
Rayleigh Wave[nm],532.0

<< SAMPLE SPECTRUM >>
Wave[dcm-1],No215
146.591,803.63
147.626,989.70
148.664,1122.50
149.699,1291.20
150.737,1486.63
151.772,1624.60
152.809,1747.97
153.846,1909.77
154.881,2014.90
155.918,2128.63
156.953,2228.27
157.989,2314.93
159.026,2388.53
160.060,2396.67
161.096,2542.47
162.130,2510.73
163.167,2575.97
164.200,2584.20
165.236,2663.17
166.272,2652.30
167.305,2715.57
168.341,2770.23
169.374,2827.73
170.409,2875.63
171.445,2904.83
172.477,2937.70
173.512,2977.80
174.545,3010.40
175.580,2980.90
176.614,3049.10
177.647,3044.07
178.681,3070.80
179.713,3052.00
180.747,3045.97
181.781,2980.83
182.813,3037.07
183.847,3032.83
184.878,3026.63
185.912,3058.73
186.945,3073.57
187.976,3058.43
189.010,3059.17
190.043,3162.10
191.073,3142.60
192.106,3180.27
193.137,3205.87
194.170,3251.83
195.202,3282.60
196.232,3329.63
197.265,3339.33
198.297,3386.70
199.327,3468.50
200.359,3497.33
201.388,3567.33
202.420,3639.80
203.452,3725.73
204.481,3771.27
205.512,3879.47
206.544,3954.70
207.573,4087.30
208.604,4251.60
209.635,4375.60
210.663,4522.40
211.694,4729.87
212.725,4911.70
213.753,5084.90
214.783,5373.50
215.813,5517.53
216.841,5695.57
217.871,5840.70
218.899,5859.33
219.929,5947.47
220.959,5938.50
221.986,5838.70
223.016,5728.47
224.045,5592.13
225.072,5421.40
226.101,5273.20
227.130,5040.27
228.157,4808.73
229.185,4691.87
230.214,4589.27
231.241,4438.00
232.269,4327.17
233.297,4213.57
234.323,4251.07
235.351,4105.10
236.379,4027.77
237.407,3991.13
238.433,3950.13
239.460,3987.60
240.488,3972.90
241.513,3970.80
242.540,4027.10
243.568,4064.20
244.592,4069.60
245.619,4172.90
246.646,4149.77
247.671,4154.17
248.697,4105.90
249.724,4067.17
250.748,4014.43
251.774,4011.10
252.801,3977.03
253.827,3967.17
254.850,3999.90
255.876,3952.30
256.902,3992.03
257.925,4013.87
258.951,4028.73
259.976,4095.83
260.999,4109.63
262.024,4132.03
263.049,4149.23
264.074,4184.10
265.097,4252.90
266.122,4308.27
267.146,4386.57
268.168,4430.67
269.193,4472.80
270.217,4577.30
271.241,4590.77
272.263,4705.50
273.287,4771.73
274.311,4825.67
275.332,4976.07
276.356,4984.97
277.379,5028.50
278.402,5031.97
279.424,5061.73
280.447,5015.60
281.470,5045.67
282.492,4981.70
283.513,4918.47
284.536,4842.80
285.558,4779.47
286.581,4735.17
287.601,4632.03
288.623,4556.03
289.645,4543.47
290.665,4444.13
291.687,4349.50
292.709,4232.63
293.730,4152.60
294.750,4129.97
295.771,4047.67
296.792,3927.97
297.813,3890.47
298.832,3775.07
299.853,3784.43
300.874,3716.40
301.895,3662.97
302.913,3582.93
303.934,3484.43
304.954,3463.83
305.975,4433.33
306.993,3384.77
308.013,3347.33
309.033,3263.67
310.052,3270.10
311.072,3300.07
312.090,3236.50
313.109,3233.40
314.129,3112.63
315.148,3113.17
316.165,3112.73
317.184,3197.47
318.203,3040.07
319.222,3020.13
320.238,3031.83
321.257,3026.07
322.275,2960.30
323.294,2989.63
324.312,2934.87
325.328,2947.20
326.346,2933.03
327.364,2943.10
328.382,2934.73
329.397,2902.93
330.415,2855.20
331.432,2904.13
332.450,2890.63
333.467,2885.40
334.482,2855.40
335.499,2831.47
336.516,2860.07
337.533,2839.03
338.547,2829.13
339.564,2804.83
340.580,2819.00
341.597,2849.33
342.613,2826.57
343.627,2787.00
344.643,2804.93
345.659,2783.80
346.675,2801.07
347.690,2803.57
348.704,2776.77
349.719,2808.47
350.735,2787.83
351.750,2752.60
352.765,2784.10
353.778,2797.17
354.793,2760.40
355.808,2753.97
356.822,2761.23
357.837,2791.30
358.851,2752.83
359.864,2758.17
360.878,2797.57
361.892,2785.83
362.906,2834.87
363.920,2835.43
364.932,2847.27
365.945,2823.73
366.959,2817.10
367.972,2850.50
368.986,2867.87
369.999,2849.57
371.010,2817.17
372.023,2929.33
373.036,2873.20
374.049,2944.73
375.061,2944.73
376.072,2920.77
377.084,2964.07
378.097,2987.10
379.109,3034.00
380.121,3023.53
381.133,2997.33
382.143,3075.63
383.155,3011.57
384.166,3048.30
385.178,3055.47
386.189,3050.20
387.201,3081.40
388.212,3103.27
389.221,3094.37
390.232,3069.67
391.243,3067.53
392.254,3067.60
393.264,3101.57
394.275,3057.33
395.283,3041.90
396.294,3005.33
397.304,2986.87
398.314,3013.83
399.324,3014.53
400.334,2992.20
401.344,2988.87
402.351,2952.87
403.361,2928.83
404.370,2889.20
405.380,2875.87
406.389,2846.90
407.398,2837.37
408.407,2845.77
409.414,2897.07
410.423,2794.10
411.431,2715.90
412.440,2756.00
413.448,2787.43
414.457,2732.33
415.465,2682.00
416.471,2676.37
417.479,2653.13
418.487,2695.03
419.495,2685.30
420.503,2677.63
421.510,2630.37
422.518,2622.37
423.525,2606.27
424.530,2631.43
425.537,2638.83
426.544,2644.47
427.551,2602.10
428.558,2548.53
429.565,2562.00
430.571,2637.30
431.578,2608.30
432.582,2536.30
433.588,2624.13
434.595,2547.23
435.601,2575.20
436.607,2575.97
437.612,2543.23
438.618,2573.83
439.624,2547.43
440.627,2516.50
441.633,2578.33
442.638,2567.37
443.643,2545.80
444.648,2566.30
445.653,2583.40
446.658,2571.77
447.663,2556.07
448.667,2583.00
449.672,2587.93
450.674,2596.83
451.678,2575.00
452.682,2602.43
453.687,2605.50
454.690,2565.93
455.694,2618.93
456.698,2599.00
457.702,2580.63
458.705,2577.87
459.709,2609.10
460.710,2626.10
461.713,2621.57
462.716,2656.87
463.719,2630.53
464.722,2668.93
465.725,2635.43
466.727,2689.20
467.730,2673.23
468.732,2664.57
469.735,2685.30
470.737,2668.23
471.737,2694.47
472.739,2681.90
473.741,2718.83
474.742,2688.80
475.744,2690.20
476.746,2721.57
477.747,2721.90
478.748,2694.97
479.750,2687.83
480.751,2709.03
481.752,2720.17
482.753,2764.20
483.751,2721.77
484.752,2675.53
485.753,2687.63
486.753,2721.07
487.753,2697.13
488.754,2697.30
489.754,2703.40
490.754,2678.23
491.754,2690.30
492.754,2696.23
493.753,2681.27
494.753,2680.60
495.752,2689.20
496.752,2710.73
497.749,2697.83
498.748,2673.37
499.747,2677.40
500.746,2656.50
501.745,2705.00
502.744,2689.57
503.742,2601.73
504.741,2619.63
505.739,2646.47
506.737,2646.57
507.735,2597.43
508.734,2642.10
509.732,2587.10
510.729,2601.27
511.727,2591.30
512.725,2627.17
513.720,2607.10
514.718,2502.10
515.715,2531.87
516.712,2548.60
517.709,2593.07
518.706,2574.13
519.703,2596.33
520.700,2572.00
521.696,2554.80
522.693,2556.37
523.689,2615.63
524.686,2569.27
525.682,2572.07
526.678,2567.50
527.674,2603.77
528.670,2616.47
529.666,2614.20
530.661,2648.17
531.657,2808.10
532.652,2611.97
533.648,2677.53
534.641,2636.13
535.636,2588.17
536.631,2622.03
537.626,2622.50
538.621,2670.47
539.616,2621.47
540.610,2661.57
541.605,2646.33
542.599,2642.00
543.593,2687.17
544.587,2681.87
545.581,2677.33
546.575,2680.77
547.569,2722.70
548.563,2592.30
549.557,2698.70
550.550,2658.10
551.543,2671.47
552.537,2663.40
553.530,2668.03
554.523,2710.53
555.516,2694.30
556.509,2664.53
557.502,2641.23
558.494,2705.17
559.487,2669.27
560.479,2711.67
561.472,2695.67
562.464,2709.90
563.456,2685.60
564.448,2692.67
565.440,2722.73
566.432,2709.53
567.423,2704.53
568.415,2713.37
569.404,2723.80
570.396,2728.00
571.387,2755.93
572.378,2723.03
573.369,2759.50
574.360,2748.70
575.351,2788.20
576.341,2780.83
577.332,2779.10
578.323,2794.90
579.313,2816.17
580.303,2806.20
581.293,2809.57
582.283,2822.47
583.273,2845.50
584.263,2811.83
585.253,2864.07
586.243,2858.97
587.232,2818.27
588.222,2829.27
589.211,2880.83
590.200,2849.20
591.189,2841.73
592.178,2852.50
593.167,2822.90
594.156,2873.27
595.145,2876.03
596.133,2855.90
597.122,2821.63
598.110,2843.67
599.098,2829.93
600.086,2834.63
601.074,2831.97
602.062,2873.70
603.050,2872.53
604.038,2786.87
605.025,2836.90
606.013,2866.30
607.000,2852.80
607.987,2792.47
608.975,2823.87
609.962,2811.67
610.949,2835.63
611.936,2842.93
612.922,2789.07
613.909,2789.67
614.895,2741.13
615.882,2766.80
616.868,2745.77
617.854,2721.30
618.841,2710.13
619.826,2645.67
620.812,2657.87
621.798,2670.03
622.784,2642.20
623.769,2622.47
624.755,2598.47
625.740,2595.97
626.725,2570.57
627.711,2580.33
628.698,2546.90
629.683,2516.27
630.667,2521.43
631.652,2500.23
632.637,2435.67
633.621,2459.90
634.606,2433.17
635.590,2437.17
636.574,2413.30
637.558,2412.23
638.542,2401.50
639.526,2401.30
640.510,2352.43
641.493,2366.13
642.477,2341.13
643.460,2411.03
644.444,2355.80
645.427,2322.67
646.410,2290.27
647.393,2292.47
648.376,2315.07
649.359,2264.13
650.341,2218.37
651.324,2239.70
652.307,2230.53
653.289,2217.20
654.271,2244.23
655.253,2225.63
656.235,2210.57
657.217,2214.83
658.199,2200.00
659.181,2192.13
660.163,2198.60
661.144,2136.43
662.126,2187.50
663.107,2146.70
664.088,2113.33
665.069,2151.60
666.050,2086.23
667.033,2107.93
668.014,2074.17
668.995,2142.30
669.975,2086.33
670.956,2092.70
671.936,2100.77
672.916,2026.47
673.896,2061.63
674.876,2024.47
675.856,2053.50
676.836,2008.03
677.816,1985.60
678.795,1973.67
679.775,1962.40
680.754,1978.97
681.734,1952.37
682.713,1971.20
683.692,1912.50
684.671,1928.23
685.650,1895.17
686.629,1894.67
687.607,1863.00
688.586,1886.90
689.564,1865.73
690.543,1829.70
691.523,1820.30
692.501,1848.23
693.479,1826.47
694.457,1813.03
695.435,1811.93
696.413,1769.77
697.390,1786.90
698.368,1749.17
699.345,1782.17
700.322,1726.33
701.300,1749.00
702.277,1753.77
703.254,1712.93
704.231,1719.80
705.207,1727.20
706.184,1748.70
707.161,1659.40
708.137,1651.90
709.113,1726.13
710.090,1675.70
711.068,1692.43
712.044,1684.53
713.020,1610.00
713.996,1671.50
714.971,1669.10
715.947,1597.10
716.922,1656.73
717.898,1602.90
718.873,1643.73
719.848,1610.60
720.823,1616.60
721.798,1620.97
722.773,1604.97
723.748,1559.97
724.723,1593.10
725.697,1583.70
726.672,1597.47
727.646,1595.77
728.622,1561.97
729.596,1590.53
730.570,1542.20
731.544,1576.77
732.518,1559.50
733.492,1554.67
734.466,1551.53
735.439,1543.67
736.413,1563.13
737.386,1527.67
738.359,1514.63
739.332,1549.77
740.305,1536.30
741.278,1528.97
742.251,1562.00
743.224,1516.50
744.196,1530.43
745.171,1502.33
746.143,1496.33
747.115,1499.60
748.087,1501.57
749.059,1473.97
750.031,1505.70
751.003,1528.90
751.975,1523.53
752.947,1497.87
753.918,1467.50
754.890,1442.80
755.861,1438.03
756.832,1428.00
757.803,1484.60
758.774,1455.10
759.747,1466.60
760.718,1444.00
761.689,1440.17
762.659,1430.03
763.630,1447.77
764.600,1425.67
765.570,1480.20
766.540,1443.97
767.510,1418.37
768.480,1430.37
769.450,1438.90
770.420,1439.37
771.390,1431.97
772.359,1466.07
773.329,1402.80
774.300,1435.00
775.269,1403.17
776.238,1394.60
777.207,1387.47
778.176,1376.40
779.145,1394.13
780.114,1414.70
781.083,1416.67
782.051,1403.27
783.019,1403.53
783.988,1364.60
784.956,1413.80
785.924,1352.37
786.894,1355.10
787.862,1376.90
788.830,1355.90
789.797,1346.50
790.765,1338.80
791.732,1364.53
792.700,1338.93
793.667,1346.17
794.634,1359.90
795.601,1334.03
796.568,1325.37
797.535,1321.30
798.502,1333.23
799.468,1326.80
800.437,1351.70
801.403,1299.63
802.370,1375.93
803.336,1282.70
804.302,1302.60
805.268,1314.67
806.234,1313.03
807.200,1320.00
808.166,1320.93
809.131,1311.17
810.097,1286.83
811.062,1270.90
812.027,1294.73
812.994,1267.47
813.960,1275.20
814.925,1272.80
815.889,1240.60
816.854,1273.33
817.819,1273.17
818.783,1276.57
819.748,1267.30
820.712,1269.07
821.677,1254.00
822.641,1286.33
823.605,1218.07
824.571,1253.30
825.534,1294.30
826.498,1288.40
827.462,1285.13
828.425,1262.50
829.389,1248.47
830.352,1240.83
831.315,1276.03
832.279,1265.87
833.242,1267.67
834.204,1246.13
835.167,1259.70
836.132,1247.33
837.095,1239.47
838.057,1230.17
839.020,1274.07
839.982,1225.60
840.944,1255.57
841.906,1283.63
842.868,1236.30
843.830,1229.33
844.792,1275.43
845.753,1226.10
846.715,1222.07
847.679,1235.10
848.640,1203.00
849.601,1267.10
850.562,1245.50
851.523,1240.33
852.484,1259.47
853.445,1169.43
854.406,1236.10
855.367,1249.57
856.327,1246.77
857.288,1241.43
858.248,1231.90
859.210,1224.93
860.170,1188.37
861.130,1231.03
862.090,1208.10
863.050,1191.37
864.010,1196.57
864.969,1209.13
865.929,1192.67
866.888,1171.33
867.848,1209.60
868.807,1203.30
869.766,1198.10
870.727,1155.27
871.686,1195.47
872.645,1181.57
873.604,1182.17
874.562,1185.03
875.521,1208.77
876.479,1192.03
877.437,1199.93
878.396,1207.40
879.354,1195.80
880.312,1191.43
881.270,1205.63
882.229,1212.50
883.187,1227.97
884.145,1165.13
885.102,1215.73
886.059,1174.67
887.017,1184.43
887.974,1183.43
888.931,1192.13
889.888,1219.03
890.845,1125.43
891.802,1176.93
892.758,1235.73
893.717,1214.07
894.673,1189.27
895.630,1205.13
896.586,1217.63
897.542,1187.97
898.498,1199.90
899.454,1216.47
900.410,1236.60
901.366,1171.50
902.321,1164.87
903.277,1173.33
904.232,1188.07
905.189,1208.70
906.145,1204.50
907.100,1188.23
908.055,1172.03
909.010,1172.97
909.965,1201.17
910.919,1209.60
911.874,1207.53
912.828,1211.57
913.783,1198.57
914.737,1198.77
915.693,1186.77
916.648,1182.23
917.602,1214.57
918.555,1219.97
919.509,1182.50
920.463,1168.60
921.417,1214.93
922.370,1176.07
923.324,1189.67
924.277,1221.20
925.230,1215.77
926.183,1234.80
927.138,1169.00
928.091,1206.43
929.044,1166.63
929.996,1214.17
930.949,1242.33
931.902,1214.67
932.854,1190.40
933.806,1203.17
934.758,1175.53
935.711,1245.07
936.663,1230.07
937.614,1154.83
938.568,1213.10
939.520,1206.70
940.471,1198.53
941.423,1201.60
942.374,1261.00
943.326,1212.70
944.277,1189.73
945.228,1193.33
946.179,1232.50
947.130,1184.27
948.080,1241.07
949.031,1203.67
949.984,1172.80
950.934,1184.07
951.884,1245.23
952.835,1199.97
953.785,1221.43
954.735,1199.77
955.685,1186.90
956.635,1221.37
957.585,1264.07
958.534,1168.30
959.484,1198.97
960.433,1186.20
961.383,1212.47
962.334,1197.80
963.283,1182.43
964.232,1191.53
965.181,1201.67
966.130,1239.43
967.079,1162.43
968.027,1213.93
968.976,1188.77
969.924,1226.33
970.873,1180.07
971.821,1187.77
972.769,1209.40
973.719,1195.60
974.667,1213.57
975.615,1176.63
976.562,1168.70
977.510,1196.47
978.458,1237.27
979.405,1205.33
980.352,1172.90
981.300,1224.53
982.247,1229.90
983.194,1223.27
984.141,1198.93
985.088,1202.70
986.036,1172.87
986.983,1171.70
987.930,1201.83
988.876,1243.87
989.822,1221.20
990.769,1202.47
991.715,1208.33
992.661,1234.43
993.607,1243.47
994.553,1238.07
995.498,1231.73
996.444,1216.80
997.389,1222.53
998.337,1229.30
999.282,1203.03
1000.227,1238.03
1001.173,1224.77
1002.118,1212.10
1003.062,1236.30
1004.007,1227.40
1004.952,1216.57
1005.897,1255.73
1006.841,1232.47
1007.786,1246.83
1008.730,1244.83
1009.674,1228.20
1010.618,1218.33
1011.564,1196.67
1012.508,1241.20
1013.452,1262.47
1014.396,1232.93
1015.339,1224.40
1016.283,1204.30
1017.226,1218.67
1018.170,1236.27
1019.113,1235.03
1020.056,1253.73
1020.999,1242.33
1021.942,1252.40
1022.885,1251.63
1023.828,1260.70
1024.770,1283.83
1025.715,1262.93
1026.657,1286.73
1027.600,1275.77
1028.542,1251.37
1029.484,1300.07
1030.426,1286.70
1031.368,1276.33
1032.310,1257.63
1033.251,1321.70
1034.193,1294.60
1035.135,1296.97
1036.076,1298.57
1037.017,1264.07
1037.959,1314.90
1038.900,1278.03
1039.843,1275.37
1040.784,1310.17
1041.725,1317.83
1042.665,1320.33
1043.606,1322.97
1044.547,1319.50
1045.487,1361.73
1046.427,1320.47
1047.368,1336.93
1048.308,1317.90
1049.248,1362.53
1050.188,1325.27
1051.128,1336.47
1052.067,1355.37
1053.007,1340.33
1053.947,1338.37
1054.886,1362.63
1055.827,1373.30
1056.766,1395.07
1057.706,1337.43
1058.645,1377.13
1059.584,1377.57
1060.522,1414.63
1061.461,1383.37
1062.400,1379.80
1063.338,1359.87
1064.277,1371.60
1065.215,1381.90
1066.154,1400.40
1067.092,1382.63
1068.030,1403.47
1068.968,1439.47
1069.906,1441.23
1070.843,1402.47
1071.781,1402.43
1072.720,1432.30
1073.658,1441.47
1074.595,1438.83
1075.533,1425.47
1076.470,1448.20
1077.407,1447.07
1078.344,1460.50
1079.281,1463.70
1080.217,1444.93
1081.154,1437.27
1082.091,1442.23
1083.027,1433.23
1083.964,1479.77
1084.900,1445.60
1085.836,1436.30
1086.772,1473.03
1087.708,1444.13
1088.644,1462.93
1089.580,1460.57
1090.515,1456.50
1091.451,1438.73
1092.388,1462.10
1093.324,1448.73
1094.259,1451.87
1095.194,1478.27
1096.129,1447.37
1097.064,1455.87
1097.999,1467.77
1098.934,1438.90
1099.869,1417.13
1100.803,1442.10
1101.738,1419.67
1102.672,1431.30
1103.607,1405.37
1104.541,1432.47
1105.475,1425.53
1106.409,1421.40
1107.343,1383.37
1108.277,1364.67
1109.210,1406.83
1110.144,1393.80
1111.078,1408.93
1112.011,1351.30
1112.944,1342.03
1113.878,1379.30
1114.811,1337.90
1115.744,1351.87
1116.678,1311.63
1117.611,1299.90
1118.544,1320.53
1119.477,1332.87
1120.409,1298.90
1121.342,1314.77
1122.274,1304.37
1123.206,2078.43
1124.138,1259.40
1125.070,1297.97
1126.002,1291.40
1126.934,1253.17
1127.866,1288.23
1128.798,1267.67
1129.729,1233.77
1130.661,1252.33
1131.592,1257.13
1132.523,1271.80
1133.454,1237.87
1134.385,1233.67
1135.317,1237.77
1136.247,1220.57
1137.178,1210.97
1138.109,1188.67
1139.039,1227.70
1139.970,1206.53
1140.900,1212.30
1141.831,1208.37
1142.761,1205.27
1143.691,710.27
1144.621,1134.93
1145.551,1155.97
1146.480,1154.17
1147.410,1197.33
1148.340,1153.07
1149.269,1195.37
1150.199,1179.43
1151.128,1149.17
1152.057,1169.23
1152.979,1169.27
1153.898,1163.30
1154.819,1147.43
1155.739,1142.47
1156.658,1148.57
1157.579,1148.83
1158.498,1134.23
1159.419,1167.13
1160.338,1143.53
1161.256,1129.83
1162.177,1165.43
1163.095,1139.13
1164.016,1132.93
1164.934,1140.20
1165.852,1136.53
1166.772,1087.27
1167.690,1133.93
1168.610,1113.10
1169.528,1152.50
1170.446,1097.67
1171.365,1115.17
1172.283,1125.73
1173.202,1144.10
1174.120,1112.47
1175.037,1137.50
1175.956,1098.37
1176.873,1100.03
1177.792,1114.60
1178.709,1110.97
1179.626,1114.53
1180.544,1094.30
1181.461,1070.20
1182.379,1069.53
1183.296,1090.57
1184.212,1080.70
1185.130,1089.63
1186.046,1084.57
1186.962,1083.30
1187.880,1123.23
1188.796,1092.23
1189.714,1072.63
1190.629,1057.97
1191.545,1102.60
1192.462,1080.00
1193.378,1069.77
1194.295,1067.77
1195.210,1083.00
1196.125,1085.27
1197.042,1097.23
1197.957,1099.17
1198.872,1085.77
1199.788,1111.13
1200.703,1090.97
1201.619,1074.40
1202.534,1091.33
1203.448,1088.80
1204.364,1093.13
1205.278,1120.33
1206.192,1097.70
1207.108,1054.03
1208.022,1117.90
1208.938,1065.80
1209.851,1116.47
1210.765,1082.60
1211.680,1112.10
1212.594,1103.63
1213.507,1118.77
1214.422,1120.70
1215.335,1118.77
1216.248,1095.47
1217.163,1104.07
1218.076,1117.37
1218.990,1095.67
1219.903,1118.10
1220.816,1145.73
1221.730,1092.43
1222.642,1150.23
1223.554,1108.10
1224.469,1108.83
1225.380,1114.23
1226.292,1121.43
1227.206,1168.63
1228.118,1133.57
1229.032,1121.47
1229.943,1165.80
1230.855,1154.33
1231.768,1101.73
1232.679,1137.00
1233.590,1121.67
1234.503,1146.50
1235.414,1171.77
1236.325,1145.77
1237.238,1183.73
1238.149,1153.33
1239.059,1192.03
1239.972,1183.87
1240.882,1142.50
1241.793,1164.10
1242.705,1147.17
1243.615,1173.30
1244.525,1182.73
1245.437,1160.40
1246.347,1169.93
1247.259,1187.30
1248.168,1189.97
1249.078,1207.30
1249.989,1206.60
1250.899,1197.47
1251.808,1171.43
1252.719,1211.60
1253.628,1201.07
1254.537,1213.17
1255.448,1231.33
1256.357,1190.60
1257.266,1211.07
1258.176,1201.23
1259.085,1182.57
1259.993,1186.67
1260.904,1176.03
1261.812,1219.87
1262.720,1277.00
1263.630,1247.13
1264.538,1202.50
1265.446,1191.37
1266.356,1203.50
1267.263,1181.63
1268.171,1215.50
1269.080,1220.37
1269.988,1203.33
1270.895,1212.73
1271.804,1199.13
1272.711,1211.87
1273.619,1218.00
1274.527,1220.77
1275.434,1245.80
1276.341,1202.27
1277.248,1191.67
1278.156,1209.33
1279.063,1215.80
1279.969,1232.20
1280.877,1227.30
1281.783,1224.70
1282.690,1199.07
1283.598,1238.93
1284.503,1191.90
1285.409,1211.00
1286.317,1207.20
1287.223,1197.80
1288.128,1215.23
1289.036,1178.90
1289.941,1229.43
1290.846,1220.20
1291.751,1240.40
1292.658,1177.23
1293.563,1198.60
1294.468,1187.87
1295.375,1200.50
1296.280,1197.87
1297.184,1199.77
1298.091,1149.30
1298.995,1169.00
1299.900,1156.17
1300.806,1163.10
1301.710,1118.80
1302.614,1140.77
1303.518,1196.67
1304.424,1171.97
1305.327,1109.10
1306.231,1172.07
1307.137,1127.53
1308.040,1135.57
1308.943,1112.07
1309.847,1121.33
1310.752,1144.87
1311.655,1128.30
1312.558,1061.57
1313.463,1094.73
1314.366,1100.10
1315.269,1093.40
1316.171,1119.80
1317.076,1101.03
1317.978,1078.43
1318.881,1070.73
1319.785,1087.27
1320.687,1093.27
1321.589,1067.13
1322.491,1066.83
1323.395,1036.03
1324.297,1078.53
1325.198,1055.47
1326.102,1051.77
1327.004,1037.37
1327.905,1064.90
1328.806,1059.63
1329.709,1050.23
1330.611,1046.47
1331.512,1045.23
1332.413,1042.97
1333.316,1022.20
1334.216,1043.00
1335.117,1002.20
1336.020,1026.27
1336.920,1005.57
1337.821,1017.07
1338.721,994.53
1339.623,959.33
1340.523,998.50
1341.423,1011.87
1342.323,978.13
1343.225,961.97
1344.125,981.33
1345.025,968.50
1345.924,957.40
1346.826,968.93
1347.725,958.77
1348.624,961.57
1349.524,933.03
1350.425,950.67
1351.324,946.33
1352.223,934.93
1353.121,933.00
1354.022,945.83
1354.921,917.77
1355.819,905.80
1356.718,925.90
1357.618,902.10
1358.516,901.27
1359.415,916.67
1360.313,906.10
1361.213,943.20
1362.111,892.07
1363.008,871.07
1363.906,869.73
1364.806,844.93
1365.703,855.23
1366.601,896.20
1367.498,894.23
1368.397,863.57
1369.295,873.87
1370.192,854.67
1371.089,888.87
1371.987,838.63
1372.884,843.47
1373.781,863.40
1374.678,851.83
1375.574,832.00
1376.473,831.57
1377.369,836.73
1378.265,837.13
1379.161,850.67
1380.059,845.77
1380.955,842.40
1381.851,825.40
1382.747,830.20
1383.643,837.93
1384.540,802.80
1385.436,821.53
1386.331,805.67
1387.227,852.13
1388.124,835.17
1389.019,844.20
1389.914,818.37
1390.809,778.87
1391.704,782.00
1392.601,798.90
1393.495,787.60
1394.390,783.90
1395.285,815.83
1396.179,807.20
1397.075,767.20
1397.969,782.43
1398.864,773.57
1399.758,770.80
1400.652,802.70
1401.547,800.97
1402.441,773.03
1403.335,789.57
1404.229,761.50
1405.122,760.57
1406.017,800.23
1406.911,743.10
1407.804,787.90
1408.697,743.03
1409.590,731.23
1410.485,766.20
1411.378,761.57
1412.271,774.27
1413.163,775.27
1414.056,733.37
1414.949,771.17
1415.843,752.20
1416.735,730.27
1417.627,745.67
1418.520,751.60
1419.412,763.73
1420.306,757.50
1421.197,765.77
1422.089,728.47
1422.981,741.07
1423.873,754.87
1424.764,727.83
1425.657,758.30
1426.549,750.43
1427.440,730.53
1428.331,717.20
1429.222,724.40
1430.113,751.70
1431.006,733.63
1431.897,708.03
1432.787,709.50
1433.678,737.47
1434.568,723.70
1435.459,749.37
1436.351,741.97
1437.241,732.53
1438.131,736.57
1439.021,697.77
1439.911,709.00
1440.801,692.97
1441.693,706.23
1442.583,729.23
1443.472,703.33
1444.362,681.43
1445.251,700.50
1446.140,718.87
1447.030,704.47
1447.921,705.20
1448.810,723.50
1449.699,713.60
1450.588,732.33
1451.476,693.23
1452.365,729.23
1453.254,705.50
1454.144,672.80
1455.032,675.07
1455.921,695.97
1456.809,694.63
1457.697,699.30
1458.585,688.13
1459.473,651.97
1460.361,698.47
1461.251,700.03
1462.138,695.37
1463.026,658.77
1463.913,711.33
1464.801,684.73
1465.688,698.57
1466.575,670.63
1467.463,710.43
1468.351,661.37
1469.238,678.57
1470.125,693.17
1471.012,681.07
1471.899,677.37
1472.785,710.23
1473.672,691.37
1474.558,674.47
1475.446,653.53
1476.333,661.17
1477.219,658.93
1478.105,633.23
1478.991,671.47
1479.877,688.83
1480.762,683.03
1481.648,663.23
1482.534,680.57
1483.419,669.13
1484.307,685.93
1485.192,666.87
1486.077,639.20
1486.962,643.40
1487.847,650.10
1488.732,678.97
1489.617,659.30
1490.502,650.07
1491.387,668.80
1492.271,648.13
1493.156,670.67
1494.042,604.17
1494.927,686.63
1495.811,634.10
1496.695,633.30
1497.579,647.83
1498.463,668.07
1499.347,673.23
1500.231,629.93
1501.114,647.73
1501.998,612.13
1502.881,626.43
1503.765,622.17
1504.648,663.10
1505.533,647.97
1506.417,662.97
1507.300,633.30
1508.183,619.90
1509.066,625.63
1509.948,632.53
1510.831,611.27
1511.714,647.53
1512.596,640.67
1513.479,590.67
1514.361,638.20
1515.243,603.33
1516.125,617.90
1517.008,631.90
1517.890,633.37
1518.771,623.93
1519.655,626.07
1520.537,617.17
1521.419,632.30
1522.300,605.20
1523.182,639.83
1524.063,603.10
1524.944,618.70
1525.825,606.87
1526.707,605.00
1527.588,653.87
1528.468,641.57
1529.349,641.50
1530.230,603.77
1531.111,587.40
1531.991,554.10
1532.872,615.90
1533.752,603.60
1534.632,632.77
1535.513,603.57
1536.393,604.20
1537.273,642.30
1538.153,578.13
1539.032,628.37
1539.912,608.27
1540.792,588.13
1541.672,607.50
1542.551,565.63
1543.430,595.70
1544.310,626.23
1545.189,608.80
1546.068,622.33
1546.947,607.53
1547.826,594.73
1548.705,590.07
1549.584,606.80
1550.462,589.57
1551.341,559.30
1552.219,599.63
1553.098,633.23
1553.976,602.67
1554.854,576.33
1555.733,573.17
1556.611,566.77
1557.489,606.57
1558.367,571.10
1559.244,587.13
1560.122,603.63
1561.000,572.13
1561.877,596.13
1562.755,577.70
1563.632,610.97
1564.509,554.97
1565.386,589.13
1566.264,590.07
1567.141,612.63
1568.017,600.60
1568.894,592.47
1569.771,556.03
1570.648,558.60
1571.524,598.07
1572.401,565.80
1573.277,579.83
1574.153,553.30
1575.029,534.50
1575.906,545.17
1576.781,573.43
1577.657,559.87
1578.533,576.53
1579.409,575.33
1580.285,549.90
1581.160,568.27
1582.036,573.17
1582.911,595.30
1583.786,597.67
1584.662,545.13
1585.537,545.20
1586.412,532.17
1587.287,541.80
1588.160,569.73
1589.035,575.13
1589.909,572.33
1590.784,553.27
1591.658,566.83
1592.533,566.20
1593.407,563.40
1594.281,550.90
1595.155,596.83
1596.029,559.63
1596.903,571.60
1597.777,583.40
1598.651,581.00
1599.525,549.40
1600.398,556.60
1601.272,562.60
1602.144,588.50
1603.017,564.13
1603.890,561.90
1604.763,533.73
1605.636,532.53
1606.509,551.90
1607.382,537.60
1608.255,557.97
1609.128,592.90
1610.000,568.07
1610.873,554.03
1611.746,545.30
1612.616,560.80
1613.488,553.87
1614.361,546.30
1615.233,543.47
1616.105,549.63
1616.977,555.60
1617.849,534.17
1618.720,559.03
1619.592,502.13
1620.464,581.83
1621.333,563.77
1622.205,548.00
1623.076,551.23
1623.947,552.80
1624.818,518.73
1625.689,552.07
1626.560,544.87
1627.431,542.33
1628.302,540.70
1629.171,527.27
1630.042,538.77
1630.912,567.20
1631.782,569.53
1632.653,536.87
1633.523,501.43
1634.393,531.27
1635.263,514.67
1636.131,542.33
1637.001,548.27
1637.871,566.23
1638.741,536.93
1639.611,530.50
1640.480,550.20
1641.350,523.60
1642.219,517.93
1643.087,533.30
1643.956,495.40
1644.825,584.77
1645.694,551.10
1646.563,546.47
1647.432,536.90
1648.299,533.10
1649.167,503.60
1650.036,540.40
1650.904,532.83
1651.773,525.10
1652.641,539.47
1653.509,520.03
1654.376,521.63
1655.244,548.63
1656.112,566.10
1656.980,533.83
1657.847,522.90
1658.715,502.10
1659.581,539.73
1660.448,548.30
1661.316,521.67
1662.183,547.00
1663.051,551.70
1663.918,494.20
1664.783,548.90
1665.650,535.30
1666.517,518.30
1667.384,488.80
1668.251,490.57
1669.115,498.33
1669.982,538.70
1670.849,513.97
1671.715,536.33
1672.581,502.40
1673.446,511.33
1674.312,528.93
1675.178,518.23
1676.044,503.10
1676.910,515.03
1677.774,500.13
1678.639,516.73
1679.505,517.20
1680.370,495.83
1681.236,519.33
1682.099,572.37
1682.965,516.17
1683.830,509.73
1684.695,489.00
1685.560,510.97
1686.423,484.17
1687.288,523.30
1688.153,520.47
1689.017,491.77
1689.880,477.20
1690.745,492.27
1691.609,464.67
1692.473,525.43
1693.338,528.73
1694.200,518.53
1695.064,501.43
1695.928,475.33
1696.792,506.70
1697.654,527.13
1698.517,459.97
1699.381,496.10
1700.245,522.20
1701.106,508.90
1701.969,495.27
1702.833,527.20
1703.696,508.13
1704.557,516.57
1705.420,490.20
1706.283,490.93
1707.146,515.53
1708.007,514.03
1708.870,471.30
1709.732,486.80
1710.595,493.13
1711.455,479.57
1712.318,484.07
1713.180,502.53
1714.040,482.67
1714.902,515.27
1715.764,482.87
1716.626,524.37
1717.486,484.27
1718.348,507.70
1719.209,1251.30
1720.071,449.17
1720.930,506.13
1721.792,495.10
1722.653,500.93
1723.512,499.60
1724.374,482.10
1725.234,491.87
1726.095,523.50
1726.954,510.43
1727.815,471.00
1728.676,481.30
1729.535,493.87
1730.395,513.37
1731.256,464.10
1732.114,470.33
1732.974,497.53
1733.834,494.57
1734.693,519.73
1735.553,495.87
1736.413,445.43
1737.272,477.53
1738.130,477.23
1738.990,509.57
1739.849,486.70
1740.707,490.80
1741.566,463.33
1742.426,519.83
1743.283,488.17
1744.142,472.07
1745.001,483.57
1745.858,466.27
1746.717,497.33
1747.576,445.00
1748.433,520.77
1749.292,486.07
1750.150,510.90
1751.007,469.10
1751.865,501.97
1752.723,506.47
1753.579,489.30
1754.438,488.03
1755.296,484.03
1756.152,469.43
1757.010,499.23
1757.865,486.07
1758.723,465.70
1759.581,533.20
1760.436,521.70
1761.294,473.53
1762.151,481.40
1763.006,475.23
1763.864,489.37
1764.721,496.97
1765.576,432.57
1766.433,461.93
1767.288,477.77
1768.144,497.90
1769.001,517.27
1769.856,477.93
1770.712,438.30
1771.568,498.77
1772.423,484.83
1773.279,477.60
1774.133,469.03
1774.989,473.80
1775.845,452.57
1776.699,476.27
1777.555,489.83
1778.409,478.20
1779.265,496.47
1780.120,455.00
1780.974,475.93
1781.829,477.83
1782.682,486.73
1783.538,492.27
1784.393,494.87
1785.246,477.23
1786.101,487.50
1786.954,478.17
1787.808,463.50
1788.661,474.07
1789.516,472.47
1790.370,455.97
1791.223,483.40
1792.077,432.63
1792.930,489.20
1793.784,470.90
1794.636,461.70
1795.490,470.10
1796.344,459.70
1797.196,451.67
1798.049,447.30
1798.901,489.73
1799.755,442.00
1800.606,460.37
1801.460,474.27
1802.311,459.40
1803.165,471.87
1804.018,519.80
1804.869,426.87
1805.722,481.60
1806.573,448.90
1807.426,504.23
1808.276,476.83
1809.129,482.20
1809.980,460.17
1810.832,509.43
1811.683,466.17
1812.535,474.57
1813.385,473.67
1814.237,472.43
1815.089,451.07
1815.940,469.70
1816.791,464.07
1817.641,480.43
1818.493,470.43
1819.343,468.10
1820.194,471.77
1821.044,456.37
1821.895,462.60
1822.745,488.10
1823.596,455.03
1824.445,441.40
1825.296,446.70
1826.145,442.10
1826.996,477.73
1827.845,461.87
1828.695,428.67
1829.544,431.30
1830.395,458.33
1831.243,469.57
1832.094,427.13
1832.942,490.57
1833.792,429.80
1834.640,436.53
1835.490,448.47
1836.338,445.20
1837.186,442.83
1838.036,409.67
1838.884,472.17
1839.733,474.93
1840.581,465.70
1841.430,469.33
1842.278,445.37
1843.127,444.97
1843.974,487.10
1844.823,454.00
1845.671,475.63
1846.519,452.33
1847.366,405.10
1848.213,448.77
1849.062,451.40
1849.909,474.03
1850.757,407.60
1851.604,473.80
1852.452,465.80
1853.298,479.67
1854.146,456.57
1854.993,469.20
1855.839,452.00
1856.687,450.70
1857.532,455.80
1858.380,469.37
1859.226,408.43
1860.073,434.23
1860.919,475.03
1861.765,471.27
1862.612,472.90
1863.457,463.60
1864.304,449.90
1865.150,449.87
1865.995,446.13
1866.842,481.47
1867.686,459.13
1868.533,457.30
1869.378,460.03
1870.223,459.67
1871.069,463.40
1871.914,425.10
1872.760,467.13
1873.604,455.60
1874.448,429.63
1875.294,446.43
1876.139,413.60
1876.984,447.70
1877.828,483.00
1878.672,455.87
1879.518,456.47
1880.361,490.30
1881.205,467.63
1882.050,482.63
1882.894,460.63
1883.739,480.00
1884.582,441.43
1885.425,419.80
1886.270,450.20
1887.113,455.90
1887.956,443.47
1888.801,425.47
1889.644,440.40
1890.486,431.70
1891.331,402.80
1892.173,409.60
1893.017,506.67
1893.860,470.53
1894.702,459.20
1895.546,470.10
1896.388,446.50
1897.230,425.20
1898.074,422.60
1898.916,461.50
1899.757,426.20
1900.601,443.87
1901.443,479.00
1902.284,449.63
1903.125,443.37
1903.969,432.83
1904.810,445.37
1905.651,411.07
1906.494,429.83
1907.335,437.83
1908.176,427.10
1909.018,475.03
1909.859,427.30
1910.700,427.57
1911.542,454.20
1912.383,484.37
1913.223,457.37
1914.064,419.80
1914.906,425.37
1915.746,456.83
1916.586,485.50
1917.428,443.07
1918.268,439.63
1919.107,442.43
1919.947,448.30
1920.789,448.30
1921.628,439.90
1922.468,429.37
1923.309,435.00
1924.148,414.33
1924.988,406.53
1925.827,426.83
1926.667,438.20
1927.507,439.70
1928.345,438.27
1929.184,420.03
1930.025,415.53
1930.864,420.63
1931.702,430.47
1932.541,430.80
1933.381,487.67
1934.219,447.37
1935.057,416.20
1935.896,435.77
1936.735,440.67
1937.573,461.70
1938.411,433.17
1939.249,448.70
1940.089,404.73
1940.927,416.47
1941.764,438.40
1942.602,425.17
1943.439,435.50
1944.278,439.27
1945.115,437.63
1945.953,446.37
1946.790,410.63
1947.628,459.50
1948.465,428.73
1949.302,412.90
1950.139,414.53
1950.976,429.93
1951.814,416.80
1952.651,440.20
1953.487,427.73
1954.323,437.40
1955.160,415.03
1955.998,467.93
1956.834,458.77
1957.670,434.77
1958.506,432.90
1959.342,435.87
1960.177,435.53
1961.015,404.77
1961.850,459.73
1962.686,460.60
1963.521,405.93
1964.357,451.43
1965.192,409.27
1966.029,430.97
1966.864,402.07
1967.699,440.83
1968.534,422.00
1969.369,429.67
1970.204,429.80
1971.040,425.40
1971.875,448.53
1972.709,429.00
1973.544,386.20
1974.378,438.40
1975.212,457.53
1976.047,419.03
1976.882,436.73
1977.716,423.17
1978.550,410.33
1979.384,443.97
1980.218,420.50
1981.052,431.93
1981.885,415.87
1982.719,411.90
1983.554,413.33
1984.388,425.27
1985.221,423.00
1986.054,439.87
1986.887,429.37
1987.720,421.60
1988.553,395.77
1989.386,447.23
1990.219,422.20
1991.053,455.43
1991.886,409.57
1992.719,450.67
1993.551,422.37
1994.383,367.63
1995.216,428.20
1996.048,400.77
1996.880,397.07
1997.712,401.20
1998.544,415.33
1999.376,399.33
2000.208,442.23
2001.040,387.83
2001.873,441.27
2002.705,427.63
2003.536,421.20
2004.367,423.47
2005.199,433.77
2006.030,388.00
2006.861,427.87
2007.692,451.20
2008.523,398.40
2009.354,419.03
2010.185,403.50
2011.016,427.00
2011.846,376.33
2012.677,399.07
2013.507,381.27
2014.338,416.83
2015.168,413.77
2015.999,446.20
2016.829,422.40
2017.659,431.90
2018.489,412.00
2019.319,441.20
2020.149,401.77
2020.980,429.83
2021.810,385.70
2022.639,437.03
2023.469,383.60
2024.298,419.70
2025.128,432.03
2025.957,409.30
2026.786,418.63
2027.615,414.83
2028.444,404.30
2029.273,445.30
2030.102,427.67
2030.931,436.00
2031.758,432.17
2032.586,456.13
2033.415,417.27
2034.243,412.70
2035.072,399.63
2035.900,434.70
2036.728,415.37
2037.556,434.17
2038.385,437.53
2039.213,387.43
2040.040,453.63
2040.868,398.43
2041.696,440.47
2042.524,435.87
2043.351,431.07
2044.179,437.33
2045.006,424.50
2045.006,424.50

Max Intensity Wave.,219.929
Max Intensity Data,5947.47
Min Intensity Wave.,1994.383
Min Intensity Data,367.63
FWHM Wave.,389.700
FWHM Value,23.70
Pressure Wave.,1123.193
Pressure Value [GPa],3847.55738
G/D Ratio,0.52851
G/D Gband Wave.,1553.119
G/D Gband Intensity,633.25
G/D Dband Wave.,1303.694
G/D Dband Intensity,1198.19

<< BACKGROUND SPECTRUM >>
Wave[dcm-1],No215
146.591,2256.00
147.626,2070.00
148.664,2047.00
149.699,2508.00
150.737,2198.00
151.772,2380.00
152.809,2393.00
153.846,2267.00
154.881,2384.00
155.918,1965.00
156.953,2268.00
157.989,2574.00
159.026,2438.00
160.060,2653.00
161.096,2790.00
162.130,2508.00
163.167,2552.00
164.200,2472.00
165.236,2627.00
166.272,2688.00
167.305,2285.00
168.341,2537.00
169.374,2752.00
170.409,2754.00
171.445,2697.00
172.477,2523.00
173.512,2391.00
174.545,2649.00
175.580,2864.00
176.614,3006.00
177.647,2790.00
178.681,3014.00
179.713,3322.00
180.747,2777.00
181.781,2768.00
182.813,2973.00
183.847,3080.00
184.878,2717.00
185.912,2955.00
186.945,3109.00
187.976,3070.00
189.010,2752.00
190.043,2782.00
191.073,2914.00
192.106,2723.00
193.137,3164.00
194.170,2548.00
195.202,2916.00
196.232,2677.00
197.265,2994.00
198.297,3092.00
199.327,2765.00
200.359,2952.00
201.388,3307.00
202.420,2884.00
203.452,3081.00
204.481,2714.00
205.512,3301.00
206.544,3079.00
207.573,3045.00
208.604,3363.00
209.635,3524.00
210.663,2967.00
211.694,2963.00
212.725,2830.00
213.753,2822.00
214.783,3328.00
215.813,3227.00
216.841,2983.00
217.871,3104.00
218.899,2940.00
219.929,3116.00
220.959,2863.00
221.986,3146.00
223.016,2769.00
224.045,3136.00
225.072,3060.00
226.101,3114.00
227.130,3200.00
228.157,2843.00
229.185,2332.00
230.214,3125.00
231.241,2789.00
232.269,2440.00
233.297,2679.00
234.323,3141.00
235.351,2791.00
236.379,3099.00
237.407,2765.00
238.433,2958.00
239.460,3094.00
240.488,3114.00
241.513,3226.00
242.540,3110.00
243.568,3201.00
244.592,3253.00
245.619,3173.00
246.646,2913.00
247.671,2900.00
248.697,2791.00
249.724,3014.00
250.748,3011.00
251.774,2974.00
252.801,3269.00
253.827,3119.00
254.850,3045.00
255.876,2699.00
256.902,3121.00
257.925,2954.00
258.951,2731.00
259.976,2735.00
260.999,3062.00
262.024,2775.00
263.049,3621.00
264.074,3119.00
265.097,3002.00
266.122,3060.00
267.146,3002.00
268.168,3175.00
269.193,2858.00
270.217,3200.00
271.241,2741.00
272.263,2856.00
273.287,3147.00
274.311,2785.00
275.332,3229.00
276.356,2839.00
277.379,3064.00
278.402,3119.00
279.424,2923.00
280.447,2902.00
281.470,2699.00
282.492,3065.00
283.513,2883.00
284.536,3171.00
285.558,3153.00
286.581,3102.00
287.601,2847.00
288.623,2791.00
289.645,3018.00
290.665,3090.00
291.687,3112.00
292.709,3123.00
293.730,3394.00
294.750,2857.00
295.771,2756.00
296.792,3084.00
297.813,2914.00
298.832,3068.00
299.853,2706.00
300.874,2972.00
301.895,2940.00
302.913,2973.00
303.934,3288.00
304.954,3040.00
305.975,3176.00
306.993,2748.00
308.013,3118.00
309.033,3064.00
310.052,2916.00
311.072,2844.00
312.090,3025.00
313.109,3216.00
314.129,3432.00
315.148,3024.00
316.165,3045.00
317.184,3143.00
318.203,2780.00
319.222,2776.00
320.238,3105.00
321.257,2803.00
322.275,2727.00
323.294,2976.00
324.312,3160.00
325.328,3254.00
326.346,3291.00
327.364,3203.00
328.382,3140.00
329.397,3112.00
330.415,3256.00
331.432,3199.00
332.450,3239.00
333.467,3425.00
334.482,2580.00
335.499,3356.00
336.516,2870.00
337.533,2582.00
338.547,2839.00
339.564,2865.00
340.580,3077.00
341.597,2921.00
342.613,3389.00
343.627,3006.00
344.643,2998.00
345.659,3103.00
346.675,2962.00
347.690,2874.00
348.704,3080.00
349.719,2841.00
350.735,2731.00
351.750,3196.00
352.765,2997.00
353.778,2964.00
354.793,3159.00
355.808,2838.00
356.822,3212.00
357.837,2631.00
358.851,3296.00
359.864,2983.00
360.878,2720.00
361.892,2961.00
362.906,3134.00
363.920,2568.00
364.932,3055.00
365.945,3064.00
366.959,3022.00
367.972,2921.00
368.986,2713.00
369.999,3379.00
371.010,2893.00
372.023,3292.00
373.036,2966.00
374.049,3350.00
375.061,3066.00
376.072,3018.00
377.084,2873.00
378.097,2724.00
379.109,3153.00
380.121,2969.00
381.133,2693.00
382.143,3094.00
383.155,2753.00
384.166,2906.00
385.178,3106.00
386.189,3206.00
387.201,2696.00
388.212,2899.00
389.221,2921.00
390.232,3016.00
391.243,2916.00
392.254,3004.00
393.264,2802.00
394.275,3218.00
395.283,3180.00
396.294,3620.00
397.304,3501.00
398.314,3089.00
399.324,3005.00
400.334,2644.00
401.344,3092.00
402.351,2631.00
403.361,3187.00
404.370,2974.00
405.380,2901.00
406.389,3337.00
407.398,3115.00
408.407,3063.00
409.414,3084.00
410.423,3306.00
411.431,2806.00
412.440,2663.00
413.448,3270.00
414.457,2856.00
415.465,2844.00
416.471,2897.00
417.479,3027.00
418.487,2789.00
419.495,3280.00
420.503,3092.00
421.510,2626.00
422.518,3158.00
423.525,3186.00
424.530,3372.00
425.537,2877.00
426.544,3185.00
427.551,2856.00
428.558,3617.00
429.565,3444.00
430.571,2842.00
431.578,2867.00
432.582,2900.00
433.588,2898.00
434.595,2644.00
435.601,3305.00
436.607,3231.00
437.612,2764.00
438.618,3320.00
439.624,2964.00
440.627,2987.00
441.633,3106.00
442.638,3580.00
443.643,3105.00
444.648,3009.00
445.653,3175.00
446.658,2884.00
447.663,3028.00
448.667,2854.00
449.672,2907.00
450.674,2974.00
451.678,2720.00
452.682,2856.00
453.687,2816.00
454.690,3623.00
455.694,3257.00
456.698,2580.00
457.702,2676.00
458.705,2816.00
459.709,2811.00
460.710,2878.00
461.713,3040.00
462.716,3028.00
463.719,3001.00
464.722,3159.00
465.725,2972.00
466.727,2816.00
467.730,3016.00
468.732,2754.00
469.735,3250.00
470.737,2900.00
471.737,2869.00
472.739,2881.00
473.741,2781.00
474.742,3061.00
475.744,3076.00
476.746,3022.00
477.747,2938.00
478.748,3155.00
479.750,2926.00
480.751,2992.00
481.752,3700.00
482.753,3029.00
483.751,3519.00
484.752,2632.00
485.753,2964.00
486.753,2860.00
487.753,3007.00
488.754,3422.00
489.754,2680.00
490.754,3308.00
491.754,3149.00
492.754,2699.00
493.753,3029.00
494.753,2892.00
495.752,3316.00
496.752,3015.00
497.749,3014.00
498.748,2846.00
499.747,3361.00
500.746,3097.00
501.745,2727.00
502.744,2716.00
503.742,3349.00
504.741,2950.00
505.739,2451.00
506.737,2890.00
507.735,3152.00
508.734,3351.00
509.732,3157.00
510.729,3311.00
511.727,2880.00
512.725,2869.00
513.720,2778.00
514.718,3315.00
515.715,2702.00
516.712,2628.00
517.709,2967.00
518.706,2884.00
519.703,3011.00
520.700,3180.00
521.696,3332.00
522.693,2922.00
523.689,2809.00
524.686,3162.00
525.682,2788.00
526.678,3485.00
527.674,2889.00
528.670,2570.00
529.666,3480.00
530.661,3421.00
531.657,3123.00
532.652,3163.00
533.648,2965.00
534.641,3209.00
535.636,3075.00
536.631,3094.00
537.626,3175.00
538.621,2730.00
539.616,2626.00
540.610,2498.00
541.605,3001.00
542.599,3062.00
543.593,2961.00
544.587,3881.00
545.581,2833.00
546.575,3022.00
547.569,2976.00
548.563,2767.00
549.557,2643.00
550.550,2791.00
551.543,2729.00
552.537,3145.00
553.530,2782.00
554.523,2750.00
555.516,3103.00
556.509,2970.00
557.502,2662.00
558.494,3153.00
559.487,2944.00
560.479,3142.00
561.472,3212.00
562.464,3108.00
563.456,3275.00
564.448,2953.00
565.440,2977.00
566.432,3377.00
567.423,2892.00
568.415,2895.00
569.404,3107.00
570.396,2822.00
571.387,3114.00
572.378,3028.00
573.369,3926.00
574.360,3690.00
575.351,2936.00
576.341,2852.00
577.332,2876.00
578.323,2673.00
579.313,2865.00
580.303,3228.00
581.293,3116.00
582.283,2980.00
583.273,3086.00
584.263,3015.00
585.253,3065.00
586.243,3137.00
587.232,2676.00
588.222,2961.00
589.211,3135.00
590.200,3058.00
591.189,2951.00
592.178,2952.00
593.167,3422.00
594.156,3235.00
595.145,2881.00
596.133,3447.00
597.122,3128.00
598.110,3188.00
599.098,3062.00
600.086,3007.00
601.074,3179.00
602.062,2809.00
603.050,2705.00
604.038,3125.00
605.025,2770.00
606.013,3166.00
607.000,3346.00
607.987,3039.00
608.975,3026.00
609.962,2760.00
610.949,3089.00
611.936,3201.00
612.922,3150.00
613.909,2669.00
614.895,3356.00
615.882,2826.00
616.868,2994.00
617.854,2741.00
618.841,3006.00
619.826,3120.00
620.812,2997.00
621.798,2785.00
622.784,3171.00
623.769,3080.00
624.755,2713.00
625.740,3043.00
626.725,2730.00
627.711,2831.00
628.698,3073.00
629.683,2803.00
630.667,3142.00
631.652,2748.00
632.637,2999.00
633.621,3167.00
634.606,2923.00
635.590,3105.00
636.574,2949.00
637.558,3058.00
638.542,3043.00
639.526,2806.00
640.510,2639.00
641.493,3042.00
642.477,2984.00
643.460,2634.00
644.444,3205.00
645.427,3218.00
646.410,2684.00
647.393,2965.00
648.376,3045.00
649.359,2910.00
650.341,3109.00
651.324,3092.00
652.307,3038.00
653.289,2963.00
654.271,2852.00
655.253,2883.00
656.235,3108.00
657.217,3224.00
658.199,2627.00
659.181,2748.00
660.163,2974.00
661.144,2881.00
662.126,2849.00
663.107,2798.00
664.088,6248.00
665.069,3209.00
666.050,2843.00
667.033,2719.00
668.014,3080.00
668.995,2553.00
669.975,2986.00
670.956,2971.00
671.936,3099.00
672.916,2988.00
673.896,3078.00
674.876,2933.00
675.856,2839.00
676.836,2743.00
677.816,2337.00
678.795,2836.00
679.775,2711.00
680.754,3006.00
681.734,3131.00
682.713,3115.00
683.692,2801.00
684.671,2642.00
685.650,2753.00
686.629,2859.00
687.607,2751.00
688.586,2734.00
689.564,2825.00
690.543,3263.00
691.523,2398.00
692.501,2802.00
693.479,2921.00
694.457,2779.00
695.435,2850.00
696.413,2681.00
697.390,2488.00
698.368,2687.00
699.345,3079.00
700.322,2952.00
701.300,3059.00
702.277,3033.00
703.254,3251.00
704.231,2559.00
705.207,2948.00
706.184,2739.00
707.161,2691.00
708.137,2862.00
709.113,2762.00
710.090,2801.00
711.068,2566.00
712.044,2586.00
713.020,2928.00
713.996,2596.00
714.971,2782.00
715.947,2885.00
716.922,2789.00
717.898,2764.00
718.873,2857.00
719.848,2720.00
720.823,2698.00
721.798,2962.00
722.773,2756.00
723.748,2562.00
724.723,3001.00
725.697,2832.00
726.672,2740.00
727.646,2493.00
728.622,2976.00
729.596,2575.00
730.570,2761.00
731.544,3064.00
732.518,3258.00
733.492,2808.00
734.466,2866.00
735.439,2999.00
736.413,3089.00
737.386,2477.00
738.359,2448.00
739.332,2512.00
740.305,2819.00
741.278,3290.00
742.251,2875.00
743.224,2733.00
744.196,2537.00
745.171,3126.00
746.143,3036.00
747.115,2786.00
748.087,2715.00
749.059,3102.00
750.031,2881.00
751.003,3624.00
751.975,3220.00
752.947,2678.00
753.918,3088.00
754.890,2602.00
755.861,2797.00
756.832,3061.00
757.803,2825.00
758.774,2836.00
759.747,2601.00
760.718,3207.00
761.689,2742.00
762.659,2610.00
763.630,3144.00
764.600,2566.00
765.570,2999.00
766.540,3120.00
767.510,2956.00
768.480,3045.00
769.450,2709.00
770.420,2807.00
771.390,2620.00
772.359,2701.00
773.329,2678.00
774.300,2486.00
775.269,2750.00
776.238,2989.00
777.207,3159.00
778.176,2533.00
779.145,2792.00
780.114,2661.00
781.083,2535.00
782.051,2722.00
783.019,2658.00
783.988,3093.00
784.956,2810.00
785.924,2991.00
786.894,2872.00
787.862,2689.00
788.830,3154.00
789.797,2640.00
790.765,2618.00
791.732,2749.00
792.700,2662.00
793.667,2592.00
794.634,2749.00
795.601,2753.00
796.568,2802.00
797.535,2848.00
798.502,3424.00
799.468,2899.00
800.437,2378.00
801.403,2664.00
802.370,3197.00
803.336,3013.00
804.302,2878.00
805.268,2449.00
806.234,2556.00
807.200,2711.00
808.166,2751.00
809.131,2553.00
810.097,2987.00
811.062,3664.00
812.027,2999.00
812.994,2622.00
813.960,2611.00
814.925,2950.00
815.889,2548.00
816.854,3018.00
817.819,2637.00
818.783,2718.00
819.748,3096.00
820.712,2744.00
821.677,2685.00
822.641,2675.00
823.605,2748.00
824.571,3128.00
825.534,2700.00
826.498,2662.00
827.462,2774.00
828.425,2605.00
829.389,3060.00
830.352,2849.00
831.315,2885.00
832.279,2500.00
833.242,2711.00
834.204,2649.00
835.167,2643.00
836.132,3051.00
837.095,2528.00
838.057,2719.00
839.020,2786.00
839.982,2867.00
840.944,2666.00
841.906,2596.00
842.868,2970.00
843.830,2545.00
844.792,3003.00
845.753,2684.00
846.715,2445.00
847.679,2592.00
848.640,2643.00
849.601,2706.00
850.562,3221.00
851.523,2686.00
852.484,2444.00
853.445,3018.00
854.406,2700.00
855.367,2694.00
856.327,3017.00
857.288,2488.00
858.248,2672.00
859.210,2697.00
860.170,2552.00
861.130,2987.00
862.090,2425.00
863.050,2645.00
864.010,2691.00
864.969,2896.00
865.929,2606.00
866.888,2570.00
867.848,2822.00
868.807,2666.00
869.766,2845.00
870.727,2764.00
871.686,2993.00
872.645,3021.00
873.604,3313.00
874.562,2787.00
875.521,2788.00
876.479,3350.00
877.437,2582.00
878.396,2587.00
879.354,3175.00
880.312,2600.00
881.270,2656.00
882.229,3080.00
883.187,2578.00
884.145,2703.00
885.102,2908.00
886.059,2840.00
887.017,2905.00
887.974,2960.00
888.931,3071.00
889.888,2496.00
890.845,2497.00
891.802,2354.00
892.758,2597.00
893.717,2423.00
894.673,2569.00
895.630,2611.00
896.586,2873.00
897.542,2683.00
898.498,2519.00
899.454,2838.00
900.410,2634.00
901.366,2686.00
902.321,2634.00
903.277,2710.00
904.232,2749.00
905.189,2461.00
906.145,2649.00
907.100,2228.00
908.055,2733.00
909.010,2946.00
909.965,2339.00
910.919,2779.00
911.874,2553.00
912.828,2735.00
913.783,2764.00
914.737,2351.00
915.693,2766.00
916.648,2934.00
917.602,2927.00
918.555,2768.00
919.509,2858.00
920.463,2789.00
921.417,2744.00
922.370,2598.00
923.324,2688.00
924.277,2641.00
925.230,2739.00
926.183,2385.00
927.138,2720.00
928.091,2929.00
929.044,2843.00
929.996,2646.00
930.949,2618.00
931.902,2825.00
932.854,2855.00
933.806,2574.00
934.758,3005.00
935.711,2953.00
936.663,2766.00
937.614,2846.00
938.568,2729.00
939.520,2399.00
940.471,2723.00
941.423,2797.00
942.374,2840.00
943.326,2746.00
944.277,2611.00
945.228,2863.00
946.179,2687.00
947.130,3052.00
948.080,2637.00
949.031,2579.00
949.984,2706.00
950.934,2738.00
951.884,2445.00
952.835,2714.00
953.785,2723.00
954.735,2600.00
955.685,2368.00
956.635,2619.00
957.585,2609.00
958.534,2670.00
959.484,2745.00
960.433,2624.00
961.383,2459.00
962.334,2959.00
963.283,2792.00
964.232,2859.00
965.181,2717.00
966.130,2751.00
967.079,2654.00
968.027,2713.00
968.976,2747.00
969.924,2582.00
970.873,2826.00
971.821,2765.00
972.769,2910.00
973.719,2863.00
974.667,2480.00
975.615,2744.00
976.562,2746.00
977.510,2416.00
978.458,2595.00
979.405,2821.00
980.352,2800.00
981.300,2949.00
982.247,2780.00
983.194,2534.00
984.141,2638.00
985.088,2744.00
986.036,2818.00
986.983,3041.00
987.930,3136.00
988.876,2336.00
989.822,2941.00
990.769,2565.00
991.715,2606.00
992.661,2417.00
993.607,2764.00
994.553,3243.00
995.498,2579.00
996.444,2289.00
997.389,2775.00
998.337,2520.00
999.282,2890.00
1000.227,2646.00
1001.173,2719.00
1002.118,2462.00
1003.062,2896.00
1004.007,2672.00
1004.952,3000.00
1005.897,2907.00
1006.841,2681.00
1007.786,2445.00
1008.730,2420.00
1009.674,3168.00
1010.618,2675.00
1011.564,2543.00
1012.508,2399.00
1013.452,2913.00
1014.396,2737.00
1015.339,2646.00
1016.283,2735.00
1017.226,2766.00
1018.170,2714.00
1019.113,2911.00
1020.056,2728.00
1020.999,2726.00
1021.942,2612.00
1022.885,2865.00
1023.828,2995.00
1024.770,2484.00
1025.715,2752.00
1026.657,2652.00
1027.600,2743.00
1028.542,2943.00
1029.484,2720.00
1030.426,2845.00
1031.368,2773.00
1032.310,2599.00
1033.251,2498.00
1034.193,2697.00
1035.135,2495.00
1036.076,2630.00
1037.017,2559.00
1037.959,2809.00
1038.900,2795.00
1039.843,2831.00
1040.784,2756.00
1041.725,2790.00
1042.665,2619.00
1043.606,2767.00
1044.547,2747.00
1045.487,2332.00
1046.427,2673.00
1047.368,2759.00
1048.308,2255.00
1049.248,2490.00
1050.188,2708.00
1051.128,2623.00
1052.067,2650.00
1053.007,2411.00
1053.947,2409.00
1054.886,2560.00
1055.827,2475.00
1056.766,2856.00
1057.706,2498.00
1058.645,2659.00
1059.584,2741.00
1060.522,2938.00
1061.461,2445.00
1062.400,2489.00
1063.338,2674.00
1064.277,2526.00
1065.215,2524.00
1066.154,2414.00
1067.092,2618.00
1068.030,2648.00
1068.968,2841.00
1069.906,2968.00
1070.843,2976.00
1071.781,2765.00
1072.720,2801.00
1073.658,2819.00
1074.595,2605.00
1075.533,2568.00
1076.470,2575.00
1077.407,2971.00
1078.344,2747.00
1079.281,2795.00
1080.217,2316.00
1081.154,2678.00
1082.091,2739.00
1083.027,2478.00
1083.964,2903.00
1084.900,2569.00
1085.836,2628.00
1086.772,2862.00
1087.708,2476.00
1088.644,2835.00
1089.580,2691.00
1090.515,2737.00
1091.451,2624.00
1092.388,2701.00
1093.324,2458.00
1094.259,3243.00
1095.194,2739.00
1096.129,2616.00
1097.064,2559.00
1097.999,2793.00
1098.934,2543.00
1099.869,2563.00
1100.803,2701.00
1101.738,2719.00
1102.672,2367.00
1103.607,2814.00
1104.541,2526.00
1105.475,2519.00
1106.409,2407.00
1107.343,2606.00
1108.277,2453.00
1109.210,2688.00
1110.144,2663.00
1111.078,2626.00
1112.011,2464.00
1112.944,2791.00
1113.878,2696.00
1114.811,2207.00
1115.744,2569.00
1116.678,2333.00
1117.611,2595.00
1118.544,2597.00
1119.477,2734.00
1120.409,2571.00
1121.342,3119.00
1122.274,2746.00
1123.206,2995.00
1124.138,2697.00
1125.070,2962.00
1126.002,2827.00
1126.934,2308.00
1127.866,2543.00
1128.798,2327.00
1129.729,2404.00
1130.661,2662.00
1131.592,2561.00
1132.523,2707.00
1133.454,2754.00
1134.385,2300.00
1135.317,2648.00
1136.247,2582.00
1137.178,2875.00
1138.109,2404.00
1139.039,2992.00
1139.970,2825.00
1140.900,2564.00
1141.831,2342.00
1142.761,2224.00
1143.691,3296.00
1144.621,2690.00
1145.551,2721.00
1146.480,2720.00
1147.410,2836.00
1148.340,2328.00
1149.269,2344.00
1150.199,2567.00
1151.128,3060.00
1152.057,2440.00
1152.979,2564.00
1153.898,2613.00
1154.819,2726.00
1155.739,2640.00
1156.658,2556.00
1157.579,2661.00
1158.498,2655.00
1159.419,2161.00
1160.338,2653.00
1161.256,2704.00
1162.177,2466.00
1163.095,2607.00
1164.016,2711.00
1164.934,2879.00
1165.852,2804.00
1166.772,2648.00
1167.690,2646.00
1168.610,2714.00
1169.528,2607.00
1170.446,2213.00
1171.365,2553.00
1172.283,2504.00
1173.202,2613.00
1174.120,2666.00
1175.037,2471.00
1175.956,2466.00
1176.873,2504.00
1177.792,2522.00
1178.709,3093.00
1179.626,2527.00
1180.544,2852.00
1181.461,2533.00
1182.379,2749.00
1183.296,2646.00
1184.212,2290.00
1185.130,2496.00
1186.046,2970.00
1186.962,2638.00
1187.880,2876.00
1188.796,2673.00
1189.714,2453.00
1190.629,2797.00
1191.545,2676.00
1192.462,2569.00
1193.378,2623.00
1194.295,2362.00
1195.210,2650.00
1196.125,2781.00
1197.042,2695.00
1197.957,2618.00
1198.872,2512.00
1199.788,2524.00
1200.703,2951.00
1201.619,2658.00
1202.534,2496.00
1203.448,2704.00
1204.364,2556.00
1205.278,2266.00
1206.192,2677.00
1207.108,3169.00
1208.022,2973.00
1208.938,2508.00
1209.851,2768.00
1210.765,2878.00
1211.680,2518.00
1212.594,2410.00
1213.507,2548.00
1214.422,3001.00
1215.335,2724.00
1216.248,2564.00
1217.163,2652.00
1218.076,3201.00
1218.990,2758.00
1219.903,2400.00
1220.816,2424.00
1221.730,2617.00
1222.642,2463.00
1223.554,2556.00
1224.469,2708.00
1225.380,2592.00
1226.292,2295.00
1227.206,2715.00
1228.118,2941.00
1229.032,2261.00
1229.943,2477.00
1230.855,2555.00
1231.768,2406.00
1232.679,2718.00
1233.590,2622.00
1234.503,2843.00
1235.414,2463.00
1236.325,2505.00
1237.238,2665.00
1238.149,2720.00
1239.059,2426.00
1239.972,2782.00
1240.882,2462.00
1241.793,2751.00
1242.705,3001.00
1243.615,2573.00
1244.525,2697.00
1245.437,2217.00
1246.347,2698.00
1247.259,2774.00
1248.168,3054.00
1249.078,2858.00
1249.989,2874.00
1250.899,2424.00
1251.808,2508.00
1252.719,2552.00
1253.628,2472.00
1254.537,2977.00
1255.448,2417.00
1256.357,2465.00
1257.266,2621.00
1258.176,2373.00
1259.085,2367.00
1259.993,2459.00
1260.904,2498.00
1261.812,2434.00
1262.720,3158.00
1263.630,2751.00
1264.538,2470.00
1265.446,2736.00
1266.356,2633.00
1267.263,2928.00
1268.171,2430.00
1269.080,2692.00
1269.988,2809.00
1270.895,2519.00
1271.804,2601.00
1272.711,2808.00
1273.619,2768.00
1274.527,2438.00
1275.434,2703.00
1276.341,2435.00
1277.248,2676.00
1278.156,2913.00
1279.063,2501.00
1279.969,2702.00
1280.877,3503.00
1281.783,2817.00
1282.690,2698.00
1283.598,2562.00
1284.503,2504.00
1285.409,2455.00
1286.317,2978.00
1287.223,3017.00
1288.128,2668.00
1289.036,2544.00
1289.941,2542.00
1290.846,2601.00
1291.751,2419.00
1292.658,2536.00
1293.563,3057.00
1294.468,2649.00
1295.375,2775.00
1296.280,2846.00
1297.184,3312.00
1298.091,2735.00
1298.995,2798.00
1299.900,3011.00
1300.806,2541.00
1301.710,2428.00
1302.614,2226.00
1303.518,2833.00
1304.424,2554.00
1305.327,2851.00
1306.231,2588.00
1307.137,2785.00
1308.040,2683.00
1308.943,2685.00
1309.847,2859.00
1310.752,2804.00
1311.655,2282.00
1312.558,2458.00
1313.463,2586.00
1314.366,2530.00
1315.269,2685.00
1316.171,2584.00
1317.076,2508.00
1317.978,2441.00
1318.881,2249.00
1319.785,2475.00
1320.687,2485.00
1321.589,2252.00
1322.491,2463.00
1323.395,2719.00
1324.297,3171.00
1325.198,2754.00
1326.102,2453.00
1327.004,2466.00
1327.905,3002.00
1328.806,2570.00
1329.709,2676.00
1330.611,2546.00
1331.512,2424.00
1332.413,3068.00
1333.316,2681.00
1334.216,2765.00
1335.117,2377.00
1336.020,2640.00
1336.920,2624.00
1337.821,2499.00
1338.721,2891.00
1339.623,2715.00
1340.523,2577.00
1341.423,2469.00
1342.323,2907.00
1343.225,2715.00
1344.125,2442.00
1345.025,2495.00
1345.924,2299.00
1346.826,2954.00
1347.725,3034.00
1348.624,2861.00
1349.524,2507.00
1350.425,2571.00
1351.324,2712.00
1352.223,2796.00
1353.121,2614.00
1354.022,2803.00
1354.921,3019.00
1355.819,2760.00
1356.718,2665.00
1357.618,2401.00
1358.516,2747.00
1359.415,3006.00
1360.313,2721.00
1361.213,2539.00
1362.111,2914.00
1363.008,3283.00
1363.906,2625.00
1364.806,2686.00
1365.703,2747.00
1366.601,2444.00
1367.498,2434.00
1368.397,2827.00
1369.295,2693.00
1370.192,2475.00
1371.089,2693.00
1371.987,2645.00
1372.884,2919.00
1373.781,2426.00
1374.678,2634.00
1375.574,2474.00
1376.473,2774.00
1377.369,2858.00
1378.265,2485.00
1379.161,2576.00
1380.059,2332.00
1380.955,2741.00
1381.851,2413.00
1382.747,2514.00
1383.643,2557.00
1384.540,2452.00
1385.436,2518.00
1386.331,2699.00
1387.227,2769.00
1388.124,2734.00
1389.019,2408.00
1389.914,2596.00
1390.809,2310.00
1391.704,3062.00
1392.601,2540.00
1393.495,2920.00
1394.390,2796.00
1395.285,2856.00
1396.179,2689.00
1397.075,2613.00
1397.969,2701.00
1398.864,2336.00
1399.758,2620.00
1400.652,2635.00
1401.547,2443.00
1402.441,2427.00
1403.335,2949.00
1404.229,2693.00
1405.122,2730.00
1406.017,2591.00
1406.911,2798.00
1407.804,3023.00
1408.697,2635.00
1409.590,2488.00
1410.485,2826.00
1411.378,2696.00
1412.271,2331.00
1413.163,2683.00
1414.056,2809.00
1414.949,2996.00
1415.843,2684.00
1416.735,2610.00
1417.627,2655.00
1418.520,2606.00
1419.412,2840.00
1420.306,2789.00
1421.197,2893.00
1422.089,2851.00
1422.981,3085.00
1423.873,2797.00
1424.764,2755.00
1425.657,2647.00
1426.549,2763.00
1427.440,2838.00
1428.331,2567.00
1429.222,2334.00
1430.113,2658.00
1431.006,2819.00
1431.897,2565.00
1432.787,2675.00
1433.678,2564.00
1434.568,2465.00
1435.459,2839.00
1436.351,2790.00
1437.241,2766.00
1438.131,2776.00
1439.021,2419.00
1439.911,2610.00
1440.801,2717.00
1441.693,2876.00
1442.583,2624.00
1443.472,2655.00
1444.362,2784.00
1445.251,2610.00
1446.140,2549.00
1447.030,2832.00
1447.921,2830.00
1448.810,2453.00
1449.699,2989.00
1450.588,2642.00
1451.476,2556.00
1452.365,2716.00
1453.254,2542.00
1454.144,2558.00
1455.032,2804.00
1455.921,2377.00
1456.809,2936.00
1457.697,2432.00
1458.585,2604.00
1459.473,2617.00
1460.361,2471.00
1461.251,2700.00
1462.138,2708.00
1463.026,2633.00
1463.913,2851.00
1464.801,2555.00
1465.688,2709.00
1466.575,2672.00
1467.463,3066.00
1468.351,2527.00
1469.238,2615.00
1470.125,2235.00
1471.012,2689.00
1471.899,2721.00
1472.785,2430.00
1473.672,2618.00
1474.558,2858.00
1475.446,2799.00
1476.333,2811.00
1477.219,2461.00
1478.105,2645.00
1478.991,2604.00
1479.877,2914.00
1480.762,2622.00
1481.648,2510.00
1482.534,2762.00
1483.419,2701.00
1484.307,2737.00
1485.192,2608.00
1486.077,2513.00
1486.962,2521.00
1487.847,2406.00
1488.732,2462.00
1489.617,2648.00
1490.502,2918.00
1491.387,2758.00
1492.271,2488.00
1493.156,2464.00
1494.042,2492.00
1494.927,2809.00
1495.811,2557.00
1496.695,2801.00
1497.579,2925.00
1498.463,2629.00
1499.347,2667.00
1500.231,2683.00
1501.114,2694.00
1501.998,2934.00
1502.881,2694.00
1503.765,2947.00
1504.648,3027.00
1505.533,2748.00
1506.417,2621.00
1507.300,2604.00
1508.183,2722.00
1509.066,2147.00
1509.948,2869.00
1510.831,3007.00
1511.714,2428.00
1512.596,2768.00
1513.479,2922.00
1514.361,2847.00
1515.243,2687.00
1516.125,2821.00
1517.008,2889.00
1517.890,2601.00
1518.771,2675.00
1519.655,2875.00
1520.537,2599.00
1521.419,2463.00
1522.300,2707.00
1523.182,2766.00
1524.063,2790.00
1524.944,2934.00
1525.825,2846.00
1526.707,2474.00
1527.588,2385.00
1528.468,2692.00
1529.349,2297.00
1530.230,2572.00
1531.111,2856.00
1531.991,2747.00
1532.872,2364.00
1533.752,2623.00
1534.632,2496.00
1535.513,2529.00
1536.393,2799.00
1537.273,2904.00
1538.153,3315.00
1539.032,2377.00
1539.912,2622.00
1540.792,2679.00
1541.672,2653.00
1542.551,2798.00
1543.430,3243.00
1544.310,2653.00
1545.189,2543.00
1546.068,3046.00
1546.947,2752.00
1547.826,2966.00
1548.705,2647.00
1549.584,2862.00
1550.462,2621.00
1551.341,2837.00
1552.219,2709.00
1553.098,2766.00
1553.976,2869.00
1554.854,3078.00
1555.733,2866.00
1556.611,2602.00
1557.489,2444.00
1558.367,2678.00
1559.244,2817.00
1560.122,2628.00
1561.000,2736.00
1561.877,2936.00
1562.755,2540.00
1563.632,2602.00
1564.509,2945.00
1565.386,3024.00
1566.264,2408.00
1567.141,2265.00
1568.017,2789.00
1568.894,2647.00
1569.771,2724.00
1570.648,2793.00
1571.524,2662.00
1572.401,2422.00
1573.277,2439.00
1574.153,2724.00
1575.029,2563.00
1575.906,3389.00
1576.781,2825.00
1577.657,2618.00
1578.533,2892.00
1579.409,2306.00
1580.285,2639.00
1581.160,3070.00
1582.036,2817.00
1582.911,2460.00
1583.786,2965.00
1584.662,2486.00
1585.537,2645.00
1586.412,2731.00
1587.287,2517.00
1588.160,2830.00
1589.035,2317.00
1589.909,2675.00
1590.784,2642.00
1591.658,2454.00
1592.533,2717.00
1593.407,2675.00
1594.281,2567.00
1595.155,3021.00
1596.029,2576.00
1596.903,2595.00
1597.777,2559.00
1598.651,2902.00
1599.525,2378.00
1600.398,2680.00
1601.272,2603.00
1602.144,3174.00
1603.017,2601.00
1603.890,2893.00
1604.763,2781.00
1605.636,2843.00
1606.509,2388.00
1607.382,2511.00
1608.255,2731.00
1609.128,2842.00
1610.000,2598.00
1610.873,2365.00
1611.746,2566.00
1612.616,2587.00
1613.488,2248.00
1614.361,2664.00
1615.233,2627.00
1616.105,2896.00
1616.977,2578.00
1617.849,2512.00
1618.720,2964.00
1619.592,3010.00
1620.464,2713.00
1621.333,3089.00
1622.205,2665.00
1623.076,2637.00
1623.947,2636.00
1624.818,2927.00
1625.689,2775.00
1626.560,2574.00
1627.431,2711.00
1628.302,3040.00
1629.171,2806.00
1630.042,2983.00
1630.912,3581.00
1631.782,3211.00
1632.653,2477.00
1633.523,2840.00
1634.393,2903.00
1635.263,2566.00
1636.131,2639.00
1637.001,2579.00
1637.871,2269.00
1638.741,2310.00
1639.611,2420.00
1640.480,2770.00
1641.350,2547.00
1642.219,2518.00
1643.087,2184.00
1643.956,3117.00
1644.825,2852.00
1645.694,2847.00
1646.563,2813.00
1647.432,2704.00
1648.299,2690.00
1649.167,2837.00
1650.036,2475.00
1650.904,2859.00
1651.773,2889.00
1652.641,2669.00
1653.509,2879.00
1654.376,2535.00
1655.244,2690.00
1656.112,2671.00
1656.980,2670.00
1657.847,2530.00
1658.715,2855.00
1659.581,2556.00
1660.448,2867.00
1661.316,2192.00
1662.183,2681.00
1663.051,2687.00
1663.918,2721.00
1664.783,2658.00
1665.650,2737.00
1666.517,2830.00
1667.384,2718.00
1668.251,2731.00
1669.115,2905.00
1669.982,2615.00
1670.849,2945.00
1671.715,2625.00
1672.581,2827.00
1673.446,2775.00
1674.312,2675.00
1675.178,3059.00
1676.044,2767.00
1676.910,2754.00
1677.774,2719.00
1678.639,2334.00
1679.505,2659.00
1680.370,2803.00
1681.236,3305.00
1682.099,2563.00
1682.965,2684.00
1683.830,2287.00
1684.695,2515.00
1685.560,2598.00
1686.423,2830.00
1687.288,2789.00
1688.153,2699.00
1689.017,2627.00
1689.880,2777.00
1690.745,2841.00
1691.609,2551.00
1692.473,2799.00
1693.338,2871.00
1694.200,2927.00
1695.064,2683.00
1695.928,2595.00
1696.792,2679.00
1697.654,3151.00
1698.517,2742.00
1699.381,2435.00
1700.245,2322.00
1701.106,2966.00
1701.969,2575.00
1702.833,2788.00
1703.696,2578.00
1704.557,2636.00
1705.420,2556.00
1706.283,2706.00
1707.146,2801.00
1708.007,2473.00
1708.870,2504.00
1709.732,2377.00
1710.595,2561.00
1711.455,2462.00
1712.318,2607.00
1713.180,2933.00
1714.040,2734.00
1714.902,2831.00
1715.764,2701.00
1716.626,2434.00
1717.486,2643.00
1718.348,2925.00
1719.209,4374.00
1720.071,2386.00
1720.930,2421.00
1721.792,2523.00
1722.653,2523.00
1723.512,2565.00
1724.374,2640.00
1725.234,2722.00
1726.095,2670.00
1726.954,2659.00
1727.815,2823.00
1728.676,2680.00
1729.535,2893.00
1730.395,2624.00
1731.256,2618.00
1732.114,2747.00
1732.974,2157.00
1733.834,3030.00
1734.693,2825.00
1735.553,2688.00
1736.413,3134.00
1737.272,2583.00
1738.130,2621.00
1738.990,2734.00
1739.849,2569.00
1740.707,3648.00
1741.566,2735.00
1742.426,2695.00
1743.283,3064.00
1744.142,2583.00
1745.001,2349.00
1745.858,2871.00
1746.717,2722.00
1747.576,2828.00
1748.433,2791.00
1749.292,3250.00
1750.150,3263.00
1751.007,2889.00
1751.865,2873.00
1752.723,2682.00
1753.579,2617.00
1754.438,2899.00
1755.296,2895.00
1756.152,2271.00
1757.010,2352.00
1757.865,2870.00
1758.723,2367.00
1759.581,2946.00
1760.436,2611.00
1761.294,3061.00
1762.151,2669.00
1763.006,2611.00
1763.864,2321.00
1764.721,2862.00
1765.576,2751.00
1766.433,2839.00
1767.288,2602.00
1768.144,2710.00
1769.001,2596.00
1769.856,2770.00
1770.712,2943.00
1771.568,2452.00
1772.423,2580.00
1773.279,2597.00
1774.133,2585.00
1774.989,3074.00
1775.845,3261.00
1776.699,2929.00
1777.555,2650.00
1778.409,3210.00
1779.265,2624.00
1780.120,2658.00
1780.974,2667.00
1781.829,2292.00
1782.682,2724.00
1783.538,2485.00
1784.393,2704.00
1785.246,2574.00
1786.101,2772.00
1786.954,2808.00
1787.808,2906.00
1788.661,2413.00
1789.516,2601.00
1790.370,2645.00
1791.223,2860.00
1792.077,2725.00
1792.930,2746.00
1793.784,2563.00
1794.636,2707.00
1795.490,2644.00
1796.344,2710.00
1797.196,2697.00
1798.049,2862.00
1798.901,2551.00
1799.755,2932.00
1800.606,2489.00
1801.460,3210.00
1802.311,2992.00
1803.165,3078.00
1804.018,2981.00
1804.869,2802.00
1805.722,3129.00
1806.573,2744.00
1807.426,2481.00
1808.276,2674.00
1809.129,2585.00
1809.980,2891.00
1810.832,2940.00
1811.683,2599.00
1812.535,3004.00
1813.385,2614.00
1814.237,2962.00
1815.089,2732.00
1815.940,2970.00
1816.791,2633.00
1817.641,2545.00
1818.493,2832.00
1819.343,2768.00
1820.194,2557.00
1821.044,2799.00
1821.895,2902.00
1822.745,2400.00
1823.596,2588.00
1824.445,3115.00
1825.296,2802.00
1826.145,2677.00
1826.996,2869.00
1827.845,2741.00
1828.695,2787.00
1829.544,2704.00
1830.395,2731.00
1831.243,2603.00
1832.094,2463.00
1832.942,3267.00
1833.792,2832.00
1834.640,2774.00
1835.490,2710.00
1836.338,2767.00
1837.186,2607.00
1838.036,2604.00
1838.884,2669.00
1839.733,3000.00
1840.581,2863.00
1841.430,2803.00
1842.278,3044.00
1843.127,2602.00
1843.974,2352.00
1844.823,3123.00
1845.671,2830.00
1846.519,2713.00
1847.366,2813.00
1848.213,2348.00
1849.062,2515.00
1849.909,2421.00
1850.757,3371.00
1851.604,2791.00
1852.452,2609.00
1853.298,2851.00
1854.146,2743.00
1854.993,2730.00
1855.839,3202.00
1856.687,2826.00
1857.532,2822.00
1858.380,2694.00
1859.226,2797.00
1860.073,2832.00
1860.919,2513.00
1861.765,2569.00
1862.612,2908.00
1863.457,2894.00
1864.304,2644.00
1865.150,2807.00
1865.995,2686.00
1866.842,2785.00
1867.686,2929.00
1868.533,2752.00
1869.378,2750.00
1870.223,2705.00
1871.069,2574.00
1871.914,2754.00
1872.760,2673.00
1873.604,2496.00
1874.448,2878.00
1875.294,2881.00
1876.139,2613.00
1876.984,2819.00
1877.828,2336.00
1878.672,2220.00
1879.518,2566.00
1880.361,2834.00
1881.205,2831.00
1882.050,2484.00
1882.894,3180.00
1883.739,2548.00
1884.582,2493.00
1885.425,2551.00
1886.270,2948.00
1887.113,2460.00
1887.956,2801.00
1888.801,2778.00
1889.644,2531.00
1890.486,2320.00
1891.331,2676.00
1892.173,2770.00
1893.017,2713.00
1893.860,2954.00
1894.702,2981.00
1895.546,2688.00
1896.388,3376.00
1897.230,3071.00
1898.074,2628.00
1898.916,2487.00
1899.757,2556.00
1900.601,3369.00
1901.443,2954.00
1902.284,2996.00
1903.125,3174.00
1903.969,2905.00
1904.810,2927.00
1905.651,2820.00
1906.494,3037.00
1907.335,3156.00
1908.176,2839.00
1909.018,2759.00
1909.859,2685.00
1910.700,2595.00
1911.542,3228.00
1912.383,2742.00
1913.223,2338.00
1914.064,2858.00
1914.906,2983.00
1915.746,3016.00
1916.586,3125.00
1917.428,2696.00
1918.268,2744.00
1919.107,2610.00
1919.947,2480.00
1920.789,2631.00
1921.628,2948.00
1922.468,2709.00
1923.309,2560.00
1924.148,3041.00
1924.988,2823.00
1925.827,2700.00
1926.667,2606.00
1927.507,2753.00
1928.345,2543.00
1929.184,2878.00
1930.025,2561.00
1930.864,2965.00
1931.702,3026.00
1932.541,2626.00
1933.381,2792.00
1934.219,2859.00
1935.057,3023.00
1935.896,2424.00
1936.735,2672.00
1937.573,2601.00
1938.411,2523.00
1939.249,2875.00
1940.089,2632.00
1940.927,2976.00
1941.764,2991.00
1942.602,2655.00
1943.439,2614.00
1944.278,2688.00
1945.115,2637.00
1945.953,2446.00
1946.790,2807.00
1947.628,3036.00
1948.465,2824.00
1949.302,2875.00
1950.139,2877.00
1950.976,2594.00
1951.814,2889.00
1952.651,2764.00
1953.487,2519.00
1954.323,2974.00
1955.160,2728.00
1955.998,3035.00
1956.834,2669.00
1957.670,2783.00
1958.506,2941.00
1959.342,2813.00
1960.177,2759.00
1961.015,2870.00
1961.850,2730.00
1962.686,2735.00
1963.521,2794.00
1964.357,2979.00
1965.192,2520.00
1966.029,2852.00
1966.864,2682.00
1967.699,2940.00
1968.534,2759.00
1969.369,3001.00
1970.204,2688.00
1971.040,2765.00
1971.875,2640.00
1972.709,2762.00
1973.544,2606.00
1974.378,2616.00
1975.212,2795.00
1976.047,2621.00
1976.882,2584.00
1977.716,3101.00
1978.550,2449.00
1979.384,2666.00
1980.218,2695.00
1981.052,2661.00
1981.885,2763.00
1982.719,2738.00
1983.554,2881.00
1984.388,3022.00
1985.221,2806.00
1986.054,2962.00
1986.887,2769.00
1987.720,2587.00
1988.553,3057.00
1989.386,2789.00
1990.219,2865.00
1991.053,3006.00
1991.886,2635.00
1992.719,2894.00
1993.551,2263.00
1994.383,2914.00
1995.216,2649.00
1996.048,2483.00
1996.880,2912.00
1997.712,2638.00
1998.544,2749.00
1999.376,2838.00
2000.208,2995.00
2001.040,3181.00
2001.873,2560.00
2002.705,2547.00
2003.536,2776.00
2004.367,2766.00
2005.199,2750.00
2006.030,2649.00
2006.861,2527.00
2007.692,2716.00
2008.523,2621.00
2009.354,2773.00
2010.185,2570.00
2011.016,2875.00
2011.846,2980.00
2012.677,2702.00
2013.507,3106.00
2014.338,2972.00
2015.168,2663.00
2015.999,3228.00
2016.829,2676.00
2017.659,2944.00
2018.489,3253.00
2019.319,2534.00
2020.149,2921.00
2020.980,2753.00
2021.810,2588.00
2022.639,2590.00
2023.469,2657.00
2024.298,2443.00
2025.128,2363.00
2025.957,2392.00
2026.786,2205.00
2027.615,2403.00
2028.444,2607.00
2029.273,2739.00
2030.102,2341.00
2030.931,2578.00
2031.758,2855.00
2032.586,2502.00
2033.415,2603.00
2034.243,2238.00
2035.072,2049.00
2035.900,2487.00
2036.728,2325.00
2037.556,2350.00
2038.385,2356.00
2039.213,2219.00
2040.040,2151.00
2040.868,2170.00
2041.696,2177.00
2042.524,2208.00
2043.351,2403.00
2044.179,2183.00
2045.006,1992.00
