RamanScope Measure Spectrum Data V3.72

<< MEASURE CONDITION >>
Exposure Type,Aver
Exposure Time [sec],15
Exposure Count,30
Measure Time,2023/07/04 16:24:20
Data Name,""
Data Comment,""
Rayleigh Wave[nm],532.0

<< SAMPLE SPECTRUM >>
Wave[dcm-1],No283
146.591,314.20
147.626,349.33
148.664,466.90
149.699,566.50
150.737,662.47
151.772,756.27
152.809,833.97
153.846,907.83
154.881,968.87
155.918,1078.87
156.953,1165.20
157.989,1260.30
159.026,1298.43
160.060,1335.27
161.096,1372.93
162.130,1426.63
163.167,1402.57
164.200,1470.97
165.236,1487.03
166.272,1492.43
167.305,1550.20
168.341,1556.87
169.374,1578.60
170.409,1656.50
171.445,1642.00
172.477,1693.07
173.512,1723.23
174.545,1747.97
175.580,1753.50
176.614,1814.57
177.647,1794.30
178.681,1868.07
179.713,1826.47
180.747,1868.63
181.781,1871.33
182.813,1878.27
183.847,1854.93
184.878,1860.37
185.912,1866.73
186.945,1884.47
187.976,1911.47
189.010,1939.83
190.043,1931.43
191.073,1968.83
192.106,1989.87
193.137,2023.50
194.170,2025.50
195.202,2087.47
196.232,2135.87
197.265,2174.97
198.297,2197.00
199.327,2290.90
200.359,2324.73
201.388,2382.77
202.420,2438.33
203.452,2502.57
204.481,2588.97
205.512,2702.27
206.544,2856.80
207.573,2947.03
208.604,2996.60
209.635,3217.87
210.663,3391.93
211.694,3546.80
212.725,3743.20
213.753,3960.53
214.783,4152.17
215.813,4425.97
216.841,4604.50
217.871,4767.37
218.899,4941.00
219.929,5090.67
220.959,5143.30
221.986,5091.13
223.016,5010.57
224.045,4891.50
225.072,4746.10
226.101,4580.23
227.130,4370.07
228.157,4153.57
229.185,3959.07
230.214,3728.83
231.241,3566.10
232.269,3446.40
233.297,3323.33
234.323,3190.10
235.351,3122.47
236.379,3026.33
237.407,2971.90
238.433,2851.33
239.460,2874.00
240.488,2851.00
241.513,2828.10
242.540,2747.50
243.568,2771.90
244.592,2777.70
245.619,2744.63
246.646,2792.60
247.671,2814.63
248.697,2796.47
249.724,2786.63
250.748,2811.67
251.774,2842.37
252.801,2810.77
253.827,2861.57
254.850,2857.23
255.876,2864.07
256.902,2885.67
257.925,2954.30
258.951,2962.67
259.976,3013.97
260.999,3078.17
262.024,3168.93
263.049,3179.73
264.074,3254.90
265.097,3283.80
266.122,3335.53
267.146,3392.93
268.168,3454.03
269.193,3562.23
270.217,3606.30
271.241,3677.60
272.263,3733.57
273.287,3800.33
274.311,3862.27
275.332,3885.27
276.356,3904.07
277.379,3976.83
278.402,3967.77
279.424,3990.63
280.447,3941.07
281.470,3933.23
282.492,3921.77
283.513,3850.30
284.536,3819.90
285.558,3770.20
286.581,3702.40
287.601,3620.97
288.623,3560.33
289.645,3451.90
290.665,3413.57
291.687,3327.73
292.709,3233.57
293.730,3175.87
294.750,3145.97
295.771,3037.13
296.792,2977.87
297.813,2936.40
298.832,2848.00
299.853,2775.00
300.874,2731.73
301.895,2650.40
302.913,2538.03
303.934,2512.30
304.954,2486.50
305.975,2453.23
306.993,2387.60
308.013,2301.67
309.033,2322.60
310.052,2256.97
311.072,2251.93
312.090,2194.53
313.109,2157.80
314.129,2129.40
315.148,2058.97
316.165,2095.63
317.184,2050.93
318.203,2053.93
319.222,2017.57
320.238,1996.10
321.257,2003.13
322.275,1970.37
323.294,1963.30
324.312,1957.47
325.328,1925.63
326.346,1902.90
327.364,1885.73
328.382,1899.67
329.397,1931.60
330.415,1845.83
331.432,1887.97
332.450,1864.27
333.467,1845.23
334.482,1837.37
335.499,1859.70
336.516,1843.90
337.533,1818.83
338.547,1851.17
339.564,1819.37
340.580,1841.60
341.597,1834.33
342.613,1799.17
343.627,1823.87
344.643,1810.23
345.659,1818.13
346.675,1771.13
347.690,1860.53
348.704,1784.50
349.719,1798.20
350.735,1839.17
351.750,1840.47
352.765,1836.87
353.778,1820.10
354.793,1791.07
355.808,1812.83
356.822,1831.53
357.837,1826.27
358.851,1831.13
359.864,1888.17
360.878,1890.43
361.892,1874.70
362.906,1877.73
363.920,1887.40
364.932,1898.60
365.945,1889.33
366.959,1875.73
367.972,1896.90
368.986,1926.67
369.999,1946.83
371.010,1932.97
372.023,1943.13
373.036,1933.97
374.049,2008.80
375.061,1996.33
376.072,1997.93
377.084,2004.20
378.097,1964.07
379.109,2047.37
380.121,2011.53
381.133,2032.63
382.143,2040.63
383.155,2013.13
384.166,2016.50
385.178,2009.40
386.189,1994.90
387.201,2078.00
388.212,2043.80
389.221,2077.30
390.232,2046.87
391.243,2028.13
392.254,2029.97
393.264,2007.63
394.275,2014.13
395.283,2044.00
396.294,2015.73
397.304,1979.13
398.314,1993.10
399.324,1965.07
400.334,1960.47
401.344,1941.97
402.351,1907.87
403.361,1936.20
404.370,1892.73
405.380,1851.40
406.389,1833.43
407.398,1808.03
408.407,1850.27
409.414,2116.40
410.423,1785.43
411.431,1761.30
412.440,1801.27
413.448,1793.57
414.457,1749.00
415.465,1718.87
416.471,1716.17
417.479,1704.17
418.487,1721.50
419.495,1659.50
420.503,1663.10
421.510,1687.10
422.518,1661.63
423.525,1627.20
424.530,1616.50
425.537,1634.10
426.544,1601.03
427.551,1609.70
428.558,1598.57
429.565,1620.50
430.571,1608.37
431.578,1608.47
432.582,1621.93
433.588,1601.43
434.595,1570.53
435.601,1572.37
436.607,1594.87
437.612,1559.87
438.618,1593.67
439.624,1567.13
440.627,1540.73
441.633,1548.97
442.638,1621.50
443.643,1582.97
444.648,1553.07
445.653,1530.40
446.658,1563.53
447.663,1577.50
448.667,1598.73
449.672,1554.37
450.674,1568.60
451.678,1558.43
452.682,1572.07
453.687,1596.70
454.690,1561.47
455.694,1573.17
456.698,1570.50
457.702,1591.13
458.705,1554.00
459.709,1589.17
460.710,1554.97
461.713,1600.33
462.716,1589.57
463.719,1586.37
464.722,1629.53
465.725,1582.30
466.727,1602.93
467.730,1617.43
468.732,1622.07
469.735,1610.80
470.737,1588.50
471.737,1658.67
472.739,1651.03
473.741,1658.17
474.742,1646.30
475.744,1639.63
476.746,1657.67
477.747,1637.30
478.748,1636.87
479.750,1609.40
480.751,1633.07
481.752,1648.83
482.753,1613.47
483.751,1637.47
484.752,1664.07
485.753,1632.90
486.753,1611.93
487.753,1643.43
488.754,1632.60
489.754,1607.67
490.754,1643.67
491.754,1577.33
492.754,1656.10
493.753,1630.27
494.753,1623.00
495.752,1608.87
496.752,1635.93
497.749,1603.17
498.748,1635.70
499.747,1623.50
500.746,1618.00
501.745,1571.17
502.744,1616.73
503.742,1621.20
504.741,1594.30
505.739,1618.67
506.737,1588.83
507.735,1613.17
508.734,1617.40
509.732,1596.77
510.729,1557.73
511.727,1590.67
512.725,1535.20
513.720,1553.20
514.718,1574.20
515.715,1549.47
516.712,1548.67
517.709,1555.70
518.706,1575.67
519.703,1581.33
520.700,1554.83
521.696,1573.53
522.693,1520.57
523.689,1537.40
524.686,1578.30
525.682,1555.30
526.678,1527.50
527.674,1486.03
528.670,1558.90
529.666,1538.67
530.661,1576.77
531.657,1570.27
532.652,1527.10
533.648,1547.83
534.641,1558.77
535.636,1532.23
536.631,1593.97
537.626,1545.70
538.621,1531.63
539.616,1577.97
540.610,1584.17
541.605,1611.10
542.599,1571.27
543.593,1570.37
544.587,1558.63
545.581,1587.97
546.575,1561.03
547.569,1576.00
548.563,1593.43
549.557,1576.87
550.550,1568.37
551.543,1633.53
552.537,1594.43
553.530,1585.47
554.523,1605.60
555.516,1613.40
556.509,1611.93
557.502,1584.30
558.494,1587.97
559.487,1628.23
560.479,1584.93
561.472,1676.13
562.464,1600.13
563.456,1620.83
564.448,1632.17
565.440,1673.43
566.432,1598.47
567.423,1654.17
568.415,1671.27
569.404,1682.83
570.396,1679.93
571.387,1682.37
572.378,1691.30
573.369,1689.70
574.360,1669.17
575.351,1663.13
576.341,1687.17
577.332,1697.13
578.323,1717.00
579.313,1719.97
580.303,1698.13
581.293,1724.13
582.283,1741.53
583.273,1689.23
584.263,1724.70
585.253,1745.67
586.243,1741.77
587.232,1707.77
588.222,1715.23
589.211,1708.27
590.200,1663.53
591.189,1706.17
592.178,1730.03
593.167,1686.47
594.156,1733.07
595.145,1720.10
596.133,1702.23
597.122,1710.30
598.110,1715.53
599.098,1652.40
600.086,1650.63
601.074,1643.43
602.062,1641.20
603.050,1656.23
604.038,1627.00
605.025,1668.20
606.013,1635.43
607.000,1582.07
607.987,1620.90
608.975,1612.13
609.962,1574.13
610.949,1594.33
611.936,1589.10
612.922,1577.97
613.909,1595.33
614.895,1572.77
615.882,1579.93
616.868,1569.10
617.854,1549.37
618.841,1538.40
619.826,1526.93
620.812,1525.67
621.798,1562.77
622.784,1502.40
623.769,1521.73
624.755,1516.20
625.740,1522.70
626.725,1503.27
627.711,1485.17
628.698,1526.17
629.683,1513.67
630.667,1437.80
631.652,1507.77
632.637,1444.90
633.621,1504.27
634.606,1488.10
635.590,1416.23
636.574,1439.57
637.558,1413.13
638.542,1405.10
639.526,1431.67
640.510,1406.33
641.493,1412.27
642.477,1379.77
643.460,1369.93
644.444,1356.67
645.427,1386.70
646.410,1388.83
647.393,1353.47
648.376,1402.43
649.359,1342.63
650.341,1356.10
651.324,1377.23
652.307,1332.00
653.289,1327.87
654.271,1365.03
655.253,1358.40
656.235,1349.10
657.217,1323.33
658.199,1354.07
659.181,1341.60
660.163,1315.77
661.144,1361.77
662.126,1331.33
663.107,1283.67
664.088,1263.03
665.069,1287.40
666.050,1290.67
667.033,1293.80
668.014,1282.00
668.995,1282.33
669.975,1254.43
670.956,1286.90
671.936,1259.07
672.916,1243.87
673.896,1222.20
674.876,1282.57
675.856,1230.97
676.836,1236.93
677.816,1275.77
678.795,1219.87
679.775,1242.20
680.754,1232.53
681.734,1238.93
682.713,1227.60
683.692,1216.60
684.671,1206.03
685.650,1157.57
686.629,1236.47
687.607,1189.03
688.586,1170.13
689.564,1176.27
690.543,1186.90
691.523,1198.87
692.501,1207.40
693.479,1176.57
694.457,1173.10
695.435,1177.17
696.413,1193.03
697.390,1197.97
698.368,1145.50
699.345,1155.47
700.322,1151.13
701.300,1133.63
702.277,1204.50
703.254,1200.53
704.231,1195.63
705.207,1184.90
706.184,1159.40
707.161,1206.03
708.137,1122.23
709.113,1110.77
710.090,1123.67
711.068,1186.43
712.044,1159.47
713.020,1130.87
713.996,1158.83
714.971,1130.37
715.947,1143.60
716.922,1089.10
717.898,1129.53
718.873,1142.23
719.848,1103.67
720.823,1093.63
721.798,1141.60
722.773,1157.70
723.748,1116.43
724.723,1107.53
725.697,1104.80
726.672,1070.47
727.646,1112.93
728.622,1138.03
729.596,1123.43
730.570,1086.73
731.544,1120.13
732.518,1109.80
733.492,1101.97
734.466,1100.93
735.439,1062.10
736.413,1115.77
737.386,1074.33
738.359,1082.20
739.332,1111.67
740.305,1055.20
741.278,1086.63
742.251,1102.00
743.224,1113.57
744.196,1096.30
745.171,1104.97
746.143,1062.43
747.115,1053.60
748.087,1098.27
749.059,1061.83
750.031,1080.33
751.003,1035.87
751.975,1062.17
752.947,1070.63
753.918,1036.03
754.890,1074.97
755.861,1071.97
756.832,1066.10
757.803,1037.13
758.774,1025.57
759.747,1062.87
760.718,1060.77
761.689,1016.37
762.659,994.73
763.630,1008.43
764.600,1052.77
765.570,1081.03
766.540,1082.23
767.510,1031.33
768.480,1024.20
769.450,1047.87
770.420,1022.30
771.390,1025.53
772.359,1062.60
773.329,1015.27
774.300,1047.40
775.269,1040.27
776.238,1057.17
777.207,1047.10
778.176,978.83
779.145,1038.67
780.114,1018.73
781.083,1011.60
782.051,977.60
783.019,984.90
783.988,998.60
784.956,996.23
785.924,1029.40
786.894,1012.33
787.862,993.73
788.830,1004.03
789.797,1015.10
790.765,1021.23
791.732,981.83
792.700,1030.77
793.667,1019.10
794.634,1000.13
795.601,1052.03
796.568,984.43
797.535,1050.53
798.502,1003.83
799.468,958.03
800.437,995.97
801.403,999.60
802.370,1040.40
803.336,934.70
804.302,994.73
805.268,987.07
806.234,973.63
807.200,977.23
808.166,1014.33
809.131,980.40
810.097,961.37
811.062,975.73
812.027,960.13
812.994,982.60
813.960,970.37
814.925,975.03
815.889,979.90
816.854,984.67
817.819,1001.60
818.783,953.43
819.748,895.43
820.712,962.83
821.677,982.50
822.641,953.47
823.605,957.73
824.571,978.67
825.534,979.20
826.498,963.87
827.462,944.30
828.425,929.40
829.389,967.67
830.352,975.67
831.315,958.50
832.279,984.00
833.242,960.80
834.204,933.40
835.167,976.73
836.132,940.53
837.095,943.07
838.057,938.97
839.020,938.50
839.982,952.23
840.944,926.30
841.906,977.77
842.868,953.73
843.830,941.53
844.792,909.20
845.753,927.17
846.715,931.47
847.679,957.87
848.640,940.50
849.601,942.60
850.562,948.67
851.523,925.20
852.484,924.87
853.445,930.00
854.406,930.40
855.367,957.57
856.327,939.73
857.288,906.53
858.248,937.97
859.210,956.93
860.170,939.80
861.130,949.17
862.090,937.03
863.050,961.30
864.010,951.53
864.969,916.60
865.929,921.13
866.888,897.20
867.848,914.33
868.807,938.80
869.766,909.30
870.727,918.60
871.686,906.73
872.645,874.07
873.604,917.20
874.562,925.67
875.521,907.00
876.479,886.60
877.437,922.07
878.396,881.00
879.354,923.90
880.312,927.60
881.270,951.47
882.229,941.07
883.187,918.87
884.145,915.93
885.102,919.90
886.059,928.77
887.017,927.77
887.974,918.50
888.931,921.50
889.888,895.97
890.845,935.30
891.802,911.90
892.758,910.37
893.717,892.67
894.673,934.37
895.630,901.97
896.586,904.53
897.542,924.37
898.498,920.10
899.454,918.20
900.410,864.37
901.366,901.63
902.321,881.47
903.277,897.27
904.232,903.50
905.189,920.60
906.145,888.33
907.100,892.43
908.055,892.80
909.010,896.90
909.965,889.40
910.919,918.37
911.874,941.40
912.828,903.10
913.783,869.40
914.737,898.43
915.693,889.93
916.648,869.63
917.602,882.37
918.555,922.57
919.509,863.07
920.463,852.37
921.417,873.13
922.370,917.30
923.324,875.23
924.277,917.57
925.230,906.00
926.183,867.63
927.138,919.70
928.091,871.10
929.044,885.63
929.996,882.23
930.949,873.53
931.902,880.63
932.854,909.53
933.806,866.73
934.758,910.80
935.711,864.07
936.663,907.83
937.614,915.67
938.568,915.23
939.520,895.97
940.471,852.70
941.423,899.27
942.374,888.33
943.326,902.70
944.277,910.03
945.228,868.73
946.179,911.47
947.130,899.80
948.080,863.10
949.031,860.13
949.984,860.97
950.934,842.07
951.884,852.83
952.835,925.53
953.785,916.97
954.735,856.23
955.685,901.43
956.635,867.17
957.585,883.30
958.534,852.77
959.484,915.70
960.433,894.87
961.383,868.57
962.334,857.00
963.283,890.57
964.232,874.47
965.181,873.40
966.130,898.63
967.079,896.17
968.027,867.03
968.976,891.43
969.924,880.57
970.873,881.10
971.821,860.93
972.769,895.83
973.719,857.93
974.667,877.13
975.615,896.33
976.562,872.40
977.510,872.17
978.458,873.23
979.405,857.90
980.352,921.33
981.300,887.53
982.247,894.60
983.194,911.83
984.141,870.47
985.088,897.63
986.036,913.57
986.983,858.10
987.930,894.23
988.876,899.23
989.822,916.87
990.769,899.40
991.715,882.53
992.661,860.57
993.607,886.17
994.553,902.37
995.498,873.23
996.444,896.87
997.389,935.57
998.337,868.97
999.282,891.53
1000.227,864.17
1001.173,876.27
1002.118,899.37
1003.062,911.87
1004.007,911.60
1004.952,905.17
1005.897,892.20
1006.841,887.30
1007.786,904.50
1008.730,900.77
1009.674,861.40
1010.618,898.47
1011.564,903.27
1012.508,916.57
1013.452,872.53
1014.396,864.33
1015.339,873.37
1016.283,894.03
1017.226,913.37
1018.170,891.00
1019.113,893.67
1020.056,875.37
1020.999,892.50
1021.942,906.97
1022.885,881.17
1023.828,881.33
1024.770,864.77
1025.715,899.87
1026.657,886.40
1027.600,886.83
1028.542,915.30
1029.484,881.73
1030.426,896.53
1031.368,881.60
1032.310,871.63
1033.251,911.60
1034.193,925.07
1035.135,898.10
1036.076,914.97
1037.017,889.80
1037.959,918.23
1038.900,898.67
1039.843,885.17
1040.784,913.60
1041.725,890.07
1042.665,902.83
1043.606,896.17
1044.547,918.77
1045.487,901.27
1046.427,922.00
1047.368,925.17
1048.308,904.90
1049.248,926.73
1050.188,911.63
1051.128,924.40
1052.067,876.43
1053.007,922.57
1053.947,932.80
1054.886,895.77
1055.827,917.20
1056.766,894.80
1057.706,909.70
1058.645,917.43
1059.584,933.83
1060.522,884.37
1061.461,891.47
1062.400,922.57
1063.338,909.27
1064.277,898.33
1065.215,918.23
1066.154,908.30
1067.092,881.77
1068.030,901.40
1068.968,894.63
1069.906,925.50
1070.843,912.63
1071.781,906.33
1072.720,942.63
1073.658,955.20
1074.595,915.40
1075.533,970.27
1076.470,914.57
1077.407,943.33
1078.344,891.43
1079.281,913.37
1080.217,914.20
1081.154,915.20
1082.091,934.00
1083.027,914.03
1083.964,891.90
1084.900,927.07
1085.836,927.80
1086.772,932.90
1087.708,951.87
1088.644,919.10
1089.580,936.07
1090.515,956.17
1091.451,932.23
1092.388,969.37
1093.324,927.47
1094.259,920.00
1095.194,939.17
1096.129,926.23
1097.064,917.13
1097.999,896.03
1098.934,923.50
1099.869,919.83
1100.803,941.97
1101.738,931.73
1102.672,946.47
1103.607,961.43
1104.541,956.33
1105.475,923.47
1106.409,943.33
1107.343,931.43
1108.277,891.60
1109.210,952.40
1110.144,928.67
1111.078,940.53
1112.011,943.30
1112.944,945.53
1113.878,862.03
1114.811,940.47
1115.744,940.50
1116.678,941.83
1117.611,939.47
1118.544,962.00
1119.477,947.07
1120.409,915.07
1121.342,925.97
1122.274,920.30
1123.206,899.63
1124.138,941.07
1125.070,940.23
1126.002,894.50
1126.934,907.23
1127.866,913.50
1128.798,951.10
1129.729,919.23
1130.661,904.53
1131.592,935.70
1132.523,924.63
1133.454,917.47
1134.385,914.70
1135.317,922.27
1136.247,873.47
1137.178,890.07
1138.109,898.60
1139.039,889.83
1139.970,920.63
1140.900,929.33
1141.831,916.17
1142.761,934.23
1143.691,941.53
1144.621,908.93
1145.551,920.20
1146.480,896.50
1147.410,918.80
1148.340,913.83
1149.269,954.53
1150.199,888.83
1151.128,918.07
1152.057,930.03
1152.979,922.67
1153.898,914.27
1154.819,899.67
1155.739,910.37
1156.658,942.80
1157.579,857.43
1158.498,941.23
1159.419,899.93
1160.338,914.63
1161.256,925.17
1162.177,911.90
1163.095,933.47
1164.016,896.70
1164.934,905.00
1165.852,923.70
1166.772,952.70
1167.690,904.00
1168.610,916.83
1169.528,940.87
1170.446,929.73
1171.365,921.40
1172.283,931.73
1173.202,915.10
1174.120,914.73
1175.037,901.30
1175.956,941.63
1176.873,937.87
1177.792,909.97
1178.709,914.20
1179.626,964.60
1180.544,957.13
1181.461,951.63
1182.379,925.53
1183.296,941.03
1184.212,943.33
1185.130,918.77
1186.046,962.83
1186.962,954.77
1187.880,952.63
1188.796,902.93
1189.714,944.00
1190.629,954.63
1191.545,930.10
1192.462,931.33
1193.378,969.03
1194.295,949.57
1195.210,965.80
1196.125,950.00
1197.042,985.17
1197.957,954.37
1198.872,920.57
1199.788,947.83
1200.703,927.20
1201.619,952.23
1202.534,951.37
1203.448,972.80
1204.364,984.47
1205.278,911.70
1206.192,972.03
1207.108,975.73
1208.022,940.20
1208.938,965.80
1209.851,986.43
1210.765,969.03
1211.680,974.33
1212.594,986.50
1213.507,976.13
1214.422,979.37
1215.335,985.57
1216.248,982.37
1217.163,985.07
1218.076,965.23
1218.990,978.97
1219.903,958.10
1220.816,994.60
1221.730,966.00
1222.642,1010.80
1223.554,1018.80
1224.469,1018.23
1225.380,989.77
1226.292,987.60
1227.206,1025.30
1228.118,997.00
1229.032,976.30
1229.943,984.10
1230.855,1013.40
1231.768,1027.10
1232.679,1035.67
1233.590,1000.17
1234.503,1016.10
1235.414,1017.37
1236.325,994.83
1237.238,1022.33
1238.149,1038.87
1239.059,985.53
1239.972,1012.40
1240.882,1022.97
1241.793,992.30
1242.705,1050.83
1243.615,1038.97
1244.525,1039.30
1245.437,1037.57
1246.347,1020.97
1247.259,1019.80
1248.168,1061.27
1249.078,1043.57
1249.989,1023.83
1250.899,997.20
1251.808,1039.27
1252.719,1008.93
1253.628,1019.07
1254.537,1050.83
1255.448,1018.80
1256.357,1062.57
1257.266,1041.40
1258.176,1051.90
1259.085,1022.67
1259.993,1080.13
1260.904,1053.50
1261.812,1050.20
1262.720,1063.60
1263.630,1047.47
1264.538,1009.50
1265.446,1059.70
1266.356,1029.97
1267.263,1060.13
1268.171,1029.20
1269.080,1075.67
1269.988,1032.80
1270.895,1051.13
1271.804,1036.70
1272.711,1033.50
1273.619,1066.80
1274.527,1048.17
1275.434,1032.50
1276.341,1053.53
1277.248,1029.80
1278.156,1008.70
1279.063,1032.43
1279.969,1038.80
1280.877,1052.27
1281.783,1065.37
1282.690,1029.53
1283.598,1023.97
1284.503,1040.10
1285.409,1051.13
1286.317,1069.57
1287.223,1044.67
1288.128,1068.63
1289.036,1006.13
1289.941,1014.20
1290.846,988.03
1291.751,1035.40
1292.658,1047.07
1293.563,994.70
1294.468,991.17
1295.375,1004.77
1296.280,1023.70
1297.184,1048.07
1298.091,1010.40
1298.995,983.83
1299.900,1007.40
1300.806,1004.30
1301.710,1030.73
1302.614,997.33
1303.518,971.63
1304.424,1003.57
1305.327,969.53
1306.231,1039.13
1307.137,972.73
1308.040,982.87
1308.943,1024.63
1309.847,978.53
1310.752,968.97
1311.655,997.30
1312.558,919.47
1313.463,978.00
1314.366,979.03
1315.269,966.40
1316.171,964.10
1317.076,947.53
1317.978,926.03
1318.881,951.93
1319.785,941.40
1320.687,944.03
1321.589,934.10
1322.491,921.80
1323.395,917.53
1324.297,911.57
1325.198,904.00
1326.102,963.37
1327.004,925.13
1327.905,914.87
1328.806,939.50
1329.709,923.00
1330.611,887.47
1331.512,893.87
1332.413,932.53
1333.316,910.30
1334.216,914.10
1335.117,886.80
1336.020,894.43
1336.920,913.53
1337.821,895.67
1338.721,856.87
1339.623,917.47
1340.523,899.37
1341.423,890.80
1342.323,887.73
1343.225,886.07
1344.125,857.83
1345.025,865.67
1345.924,869.80
1346.826,863.40
1347.725,882.60
1348.624,875.03
1349.524,832.13
1350.425,888.13
1351.324,892.00
1352.223,841.47
1353.121,882.93
1354.022,874.53
1354.921,842.80
1355.819,863.90
1356.718,846.97
1357.618,816.87
1358.516,837.27
1359.415,844.23
1360.313,861.13
1361.213,846.07
1362.111,875.97
1363.008,853.50
1363.906,827.07
1364.806,836.17
1365.703,833.37
1366.601,824.17
1367.498,823.23
1368.397,792.03
1369.295,827.70
1370.192,814.30
1371.089,826.93
1371.987,818.57
1372.884,780.17
1373.781,829.27
1374.678,820.23
1375.574,815.57
1376.473,820.73
1377.369,784.57
1378.265,791.20
1379.161,788.43
1380.059,801.77
1380.955,808.20
1381.851,786.47
1382.747,782.97
1383.643,761.87
1384.540,758.37
1385.436,800.60
1386.331,784.60
1387.227,803.67
1388.124,779.23
1389.019,822.97
1389.914,782.23
1390.809,768.13
1391.704,761.80
1392.601,805.13
1393.495,766.93
1394.390,786.90
1395.285,782.70
1396.179,787.73
1397.075,798.93
1397.969,793.13
1398.864,779.00
1399.758,766.77
1400.652,753.20
1401.547,768.30
1402.441,764.93
1403.335,783.07
1404.229,770.10
1405.122,809.90
1406.017,750.73
1406.911,786.07
1407.804,723.23
1408.697,746.53
1409.590,749.00
1410.485,795.40
1411.378,748.63
1412.271,750.10
1413.163,769.60
1414.056,716.63
1414.949,706.30
1415.843,752.53
1416.735,752.20
1417.627,723.40
1418.520,747.00
1419.412,715.27
1420.306,728.27
1421.197,780.00
1422.089,711.17
1422.981,725.47
1423.873,748.37
1424.764,776.83
1425.657,708.93
1426.549,729.13
1427.440,733.80
1428.331,731.47
1429.222,770.07
1430.113,747.50
1431.006,720.93
1431.897,708.07
1432.787,677.57
1433.678,715.03
1434.568,731.90
1435.459,747.97
1436.351,697.60
1437.241,727.40
1438.131,715.23
1439.021,752.53
1439.911,724.13
1440.801,721.70
1441.693,723.60
1442.583,721.33
1443.472,732.97
1444.362,691.63
1445.251,699.93
1446.140,721.00
1447.030,741.60
1447.921,746.60
1448.810,730.13
1449.699,725.13
1450.588,721.93
1451.476,736.93
1452.365,722.63
1453.254,754.93
1454.144,698.07
1455.032,695.67
1455.921,717.43
1456.809,696.90
1457.697,662.70
1458.585,722.23
1459.473,693.63
1460.361,724.13
1461.251,683.43
1462.138,684.30
1463.026,697.70
1463.913,719.43
1464.801,679.10
1465.688,699.67
1466.575,720.53
1467.463,719.63
1468.351,747.87
1469.238,690.33
1470.125,698.63
1471.012,722.40
1471.899,700.67
1472.785,713.50
1473.672,670.93
1474.558,682.57
1475.446,717.50
1476.333,682.87
1477.219,696.57
1478.105,705.07
1478.991,720.50
1479.877,727.07
1480.762,715.37
1481.648,689.20
1482.534,679.80
1483.419,723.07
1484.307,666.57
1485.192,681.97
1486.077,684.50
1486.962,707.87
1487.847,679.03
1488.732,678.10
1489.617,653.57
1490.502,683.97
1491.387,685.43
1492.271,688.33
1493.156,667.50
1494.042,687.03
1494.927,670.23
1495.811,660.43
1496.695,713.20
1497.579,679.73
1498.463,711.37
1499.347,729.43
1500.231,682.53
1501.114,672.60
1501.998,663.57
1502.881,670.23
1503.765,653.67
1504.648,707.70
1505.533,686.97
1506.417,707.43
1507.300,702.53
1508.183,703.40
1509.066,689.03
1509.948,694.10
1510.831,656.77
1511.714,642.00
1512.596,677.73
1513.479,695.47
1514.361,694.93
1515.243,687.77
1516.125,684.17
1517.008,668.70
1517.890,660.13
1518.771,680.70
1519.655,670.77
1520.537,682.10
1521.419,698.67
1522.300,657.63
1523.182,646.10
1524.063,691.63
1524.944,675.93
1525.825,692.03
1526.707,681.87
1527.588,677.23
1528.468,664.53
1529.349,692.80
1530.230,692.03
1531.111,705.63
1531.991,652.77
1532.872,661.93
1533.752,671.97
1534.632,683.50
1535.513,690.27
1536.393,675.03
1537.273,667.87
1538.153,669.23
1539.032,633.73
1539.912,684.07
1540.792,687.87
1541.672,688.37
1542.551,624.10
1543.430,643.13
1544.310,632.00
1545.189,678.47
1546.068,678.70
1546.947,661.00
1547.826,648.23
1548.705,671.37
1549.584,613.43
1550.462,642.77
1551.341,693.23
1552.219,634.33
1553.098,671.27
1553.976,616.27
1554.854,606.73
1555.733,636.57
1556.611,675.77
1557.489,662.93
1558.367,684.00
1559.244,679.17
1560.122,611.03
1561.000,679.07
1561.877,633.77
1562.755,670.70
1563.632,670.50
1564.509,644.27
1565.386,688.10
1566.264,651.03
1567.141,651.80
1568.017,692.93
1568.894,668.23
1569.771,624.63
1570.648,649.57
1571.524,675.93
1572.401,638.93
1573.277,682.73
1574.153,660.60
1575.029,637.13
1575.906,630.20
1576.781,666.00
1577.657,634.50
1578.533,631.77
1579.409,678.40
1580.285,654.23
1581.160,661.07
1582.036,658.63
1582.911,655.23
1583.786,631.63
1584.662,644.60
1585.537,623.53
1586.412,673.57
1587.287,629.77
1588.160,671.37
1589.035,648.97
1589.909,655.63
1590.784,661.53
1591.658,651.33
1592.533,671.87
1593.407,633.73
1594.281,649.73
1595.155,644.20
1596.029,629.73
1596.903,651.60
1597.777,633.40
1598.651,640.27
1599.525,653.70
1600.398,649.97
1601.272,636.73
1602.144,646.60
1603.017,641.03
1603.890,672.17
1604.763,656.63
1605.636,673.07
1606.509,640.57
1607.382,639.10
1608.255,658.63
1609.128,649.67
1610.000,668.73
1610.873,625.67
1611.746,652.70
1612.616,653.53
1613.488,644.20
1614.361,618.63
1615.233,612.27
1616.105,645.20
1616.977,640.30
1617.849,632.33
1618.720,649.67
1619.592,639.10
1620.464,650.47
1621.333,677.30
1622.205,615.67
1623.076,707.53
1623.947,629.43
1624.818,628.17
1625.689,611.90
1626.560,611.40
1627.431,692.17
1628.302,672.73
1629.171,678.90
1630.042,655.00
1630.912,658.00
1631.782,641.30
1632.653,647.27
1633.523,672.37
1634.393,629.17
1635.263,665.73
1636.131,680.33
1637.001,677.30
1637.871,639.80
1638.741,653.30
1639.611,665.63
1640.480,651.20
1641.350,633.33
1642.219,658.37
1643.087,640.97
1643.956,656.87
1644.825,663.83
1645.694,642.20
1646.563,663.57
1647.432,647.20
1648.299,614.07
1649.167,621.73
1650.036,625.53
1650.904,637.03
1651.773,634.13
1652.641,636.47
1653.509,666.13
1654.376,635.67
1655.244,657.10
1656.112,629.43
1656.980,615.00
1657.847,629.23
1658.715,644.47
1659.581,629.80
1660.448,636.33
1661.316,642.17
1662.183,635.07
1663.051,643.47
1663.918,613.00
1664.783,605.63
1665.650,630.07
1666.517,650.97
1667.384,630.63
1668.251,630.17
1669.115,641.97
1669.982,639.97
1670.849,624.37
1671.715,609.23
1672.581,640.27
1673.446,637.10
1674.312,640.37
1675.178,621.40
1676.044,594.23
1676.910,636.53
1677.774,634.43
1678.639,630.63
1679.505,638.17
1680.370,598.17
1681.236,651.70
1682.099,638.03
1682.965,652.60
1683.830,643.03
1684.695,629.83
1685.560,599.47
1686.423,657.93
1687.288,625.37
1688.153,640.43
1689.017,671.10
1689.880,631.33
1690.745,627.87
1691.609,634.47
1692.473,640.30
1693.338,634.70
1694.200,624.00
1695.064,605.00
1695.928,617.60
1696.792,619.40
1697.654,637.17
1698.517,609.80
1699.381,662.30
1700.245,646.13
1701.106,626.17
1701.969,606.93
1702.833,665.30
1703.696,656.00
1704.557,626.00
1705.420,608.07
1706.283,630.03
1707.146,659.20
1708.007,662.80
1708.870,630.60
1709.732,639.63
1710.595,617.50
1711.455,648.67
1712.318,634.10
1713.180,609.23
1714.040,637.57
1714.902,634.87
1715.764,635.30
1716.626,601.90
1717.486,620.33
1718.348,620.63
1719.209,653.80
1720.071,626.73
1720.930,650.27
1721.792,651.67
1722.653,594.23
1723.512,637.07
1724.374,683.77
1725.234,641.90
1726.095,628.33
1726.954,653.63
1727.815,630.53
1728.676,630.40
1729.535,609.10
1730.395,621.53
1731.256,608.90
1732.114,622.60
1732.974,629.80
1733.834,635.93
1734.693,622.03
1735.553,625.63
1736.413,635.47
1737.272,613.40
1738.130,617.00
1738.990,622.47
1739.849,617.37
1740.707,649.47
1741.566,651.80
1742.426,598.30
1743.283,642.33
1744.142,628.03
1745.001,654.90
1745.858,624.43
1746.717,626.40
1747.576,621.03
1748.433,670.00
1749.292,672.53
1750.150,652.63
1751.007,624.50
1751.865,646.87
1752.723,642.67
1753.579,579.57
1754.438,620.47
1755.296,619.80
1756.152,642.67
1757.010,637.10
1757.865,648.40
1758.723,633.27
1759.581,629.63
1760.436,659.20
1761.294,620.17
1762.151,615.23
1763.006,620.60
1763.864,648.40
1764.721,646.57
1765.576,616.43
1766.433,628.83
1767.288,640.40
1768.144,633.17
1769.001,656.33
1769.856,637.53
1770.712,566.30
1771.568,626.77
1772.423,609.10
1773.279,606.50
1774.133,628.30
1774.989,610.67
1775.845,619.63
1776.699,640.37
1777.555,593.80
1778.409,628.60
1779.265,657.57
1780.120,635.40
1780.974,638.50
1781.829,649.37
1782.682,616.10
1783.538,617.47
1784.393,654.10
1785.246,617.17
1786.101,624.77
1786.954,625.60
1787.808,650.00
1788.661,637.23
1789.516,627.37
1790.370,621.53
1791.223,625.97
1792.077,646.47
1792.930,667.03
1793.784,661.87
1794.636,648.03
1795.490,605.07
1796.344,659.07
1797.196,636.07
1798.049,677.90
1798.901,628.80
1799.755,627.13
1800.606,660.93
1801.460,617.73
1802.311,619.43
1803.165,633.30
1804.018,619.90
1804.869,615.43
1805.722,621.87
1806.573,642.27
1807.426,625.13
1808.276,652.07
1809.129,649.33
1809.980,645.90
1810.832,623.77
1811.683,635.80
1812.535,625.20
1813.385,631.97
1814.237,676.30
1815.089,630.20
1815.940,657.67
1816.791,628.37
1817.641,593.27
1818.493,632.60
1819.343,656.80
1820.194,586.60
1821.044,658.67
1821.895,679.07
1822.745,627.80
1823.596,651.50
1824.445,642.90
1825.296,639.37
1826.145,601.07
1826.996,643.63
1827.845,646.97
1828.695,633.00
1829.544,631.23
1830.395,633.70
1831.243,653.77
1832.094,622.93
1832.942,658.23
1833.792,676.77
1834.640,619.23
1835.490,631.33
1836.338,667.90
1837.186,635.37
1838.036,683.43
1838.884,657.23
1839.733,628.83
1840.581,649.50
1841.430,629.57
1842.278,649.97
1843.127,648.23
1843.974,624.50
1844.823,616.27
1845.671,629.33
1846.519,603.27
1847.366,627.13
1848.213,628.90
1849.062,634.83
1849.909,642.13
1850.757,629.47
1851.604,658.07
1852.452,658.63
1853.298,652.33
1854.146,635.97
1854.993,648.93
1855.839,657.57
1856.687,633.70
1857.532,642.17
1858.380,611.87
1859.226,600.67
1860.073,615.07
1860.919,610.63
1861.765,651.17
1862.612,613.90
1863.457,608.27
1864.304,667.13
1865.150,648.20
1865.995,622.13
1866.842,639.13
1867.686,629.40
1868.533,653.67
1869.378,628.50
1870.223,612.43
1871.069,625.93
1871.914,638.03
1872.760,606.90
1873.604,656.03
1874.448,626.23
1875.294,632.53
1876.139,629.77
1876.984,650.00
1877.828,638.70
1878.672,638.60
1879.518,632.07
1880.361,661.50
1881.205,619.33
1882.050,644.77
1882.894,645.80
1883.739,641.97
1884.582,658.97
1885.425,643.33
1886.270,658.23
1887.113,607.50
1887.956,642.33
1888.801,676.10
1889.644,654.57
1890.486,643.97
1891.331,678.87
1892.173,660.23
1893.017,661.73
1893.860,656.57
1894.702,662.20
1895.546,632.63
1896.388,617.57
1897.230,614.23
1898.074,633.30
1898.916,648.87
1899.757,634.57
1900.601,595.77
1901.443,625.03
1902.284,641.77
1903.125,613.80
1903.969,667.97
1904.810,611.67
1905.651,652.50
1906.494,648.50
1907.335,644.63
1908.176,628.33
1909.018,635.63
1909.859,610.87
1910.700,619.37
1911.542,626.93
1912.383,629.00
1913.223,659.67
1914.064,644.60
1914.906,666.97
1915.746,626.87
1916.586,632.63
1917.428,645.53
1918.268,626.77
1919.107,611.40
1919.947,626.60
1920.789,616.73
1921.628,638.97
1922.468,644.30
1923.309,651.23
1924.148,654.50
1924.988,646.80
1925.827,621.23
1926.667,630.40
1927.507,648.30
1928.345,640.20
1929.184,648.47
1930.025,647.00
1930.864,653.47
1931.702,648.43
1932.541,658.07
1933.381,630.60
1934.219,666.37
1935.057,676.80
1935.896,632.77
1936.735,615.03
1937.573,597.83
1938.411,664.37
1939.249,648.33
1940.089,664.37
1940.927,659.10
1941.764,617.87
1942.602,630.53
1943.439,634.07
1944.278,674.57
1945.115,654.97
1945.953,649.67
1946.790,648.33
1947.628,621.57
1948.465,632.83
1949.302,597.67
1950.139,632.57
1950.976,668.77
1951.814,622.73
1952.651,652.93
1953.487,635.23
1954.323,664.60
1955.160,642.23
1955.998,673.23
1956.834,610.37
1957.670,640.67
1958.506,658.73
1959.342,633.93
1960.177,657.87
1961.015,631.37
1961.850,656.70
1962.686,622.07
1963.521,677.50
1964.357,681.43
1965.192,660.10
1966.029,671.33
1966.864,644.37
1967.699,656.37
1968.534,634.50
1969.369,676.53
1970.204,644.97
1971.040,657.00
1971.875,636.17
1972.709,661.30
1973.544,646.40
1974.378,651.40
1975.212,653.90
1976.047,654.83
1976.882,653.30
1977.716,678.40
1978.550,656.97
1979.384,643.97
1980.218,611.07
1981.052,624.43
1981.885,671.60
1982.719,668.37
1983.554,663.70
1984.388,695.30
1985.221,690.40
1986.054,672.13
1986.887,685.57
1987.720,619.90
1988.553,657.63
1989.386,638.73
1990.219,639.17
1991.053,657.73
1991.886,671.20
1992.719,661.87
1993.551,661.23
1994.383,681.33
1995.216,700.47
1996.048,654.80
1996.880,651.23
1997.712,657.30
1998.544,646.40
1999.376,664.67
2000.208,670.67
2000.208,670.67

Max Intensity Wave.,220.959
Max Intensity Data,5143.30
Min Intensity Wave.,146.591
Min Intensity Data,314.20
FWHM Wave.,409.366
FWHM Value,0.90
Pressure Wave.,686.750
Pressure Value [GPa],-19.47794
G/D Ratio,0.68101
G/D Gband Wave.,1623.111
G/D Gband Intensity,707.67
G/D Dband Wave.,1306.243
G/D Dband Intensity,1039.14

<< BACKGROUND SPECTRUM >>
Wave[dcm-1],No283
146.591,2239.00
147.626,2115.00
148.664,2027.00
149.699,2474.00
150.737,2195.00
151.772,2346.00
152.809,2346.00
153.846,2279.00
154.881,2392.00
155.918,1951.00
156.953,2252.00
157.989,2537.00
159.026,2418.00
160.060,2608.00
161.096,2826.00
162.130,2461.00
163.167,2583.00
164.200,2428.00
165.236,2641.00
166.272,2689.00
167.305,2258.00
168.341,2547.00
169.374,2761.00
170.409,2730.00
171.445,2711.00
172.477,2493.00
173.512,2362.00
174.545,2655.00
175.580,2844.00
176.614,3002.00
177.647,2814.00
178.681,2993.00
179.713,3338.00
180.747,2785.00
181.781,2705.00
182.813,2953.00
183.847,3079.00
184.878,2708.00
185.912,2970.00
186.945,3118.00
187.976,3014.00
189.010,2670.00
190.043,2817.00
191.073,2884.00
192.106,2712.00
193.137,3136.00
194.170,2548.00
195.202,2878.00
196.232,2661.00
197.265,2952.00
198.297,3040.00
199.327,2716.00
200.359,2908.00
201.388,3279.00
202.420,2877.00
203.452,3069.00
204.481,2669.00
205.512,3276.00
206.544,3007.00
207.573,2991.00
208.604,3402.00
209.635,3475.00
210.663,2912.00
211.694,2963.00
212.725,2830.00
213.753,2769.00
214.783,3382.00
215.813,3200.00
216.841,2974.00
217.871,3137.00
218.899,2879.00
219.929,3061.00
220.959,2836.00
221.986,3141.00
223.016,2742.00
224.045,3123.00
225.072,3074.00
226.101,3137.00
227.130,3183.00
228.157,2772.00
229.185,2311.00
230.214,3173.00
231.241,2815.00
232.269,2451.00
233.297,2661.00
234.323,3202.00
235.351,2775.00
236.379,3086.00
237.407,2738.00
238.433,2974.00
239.460,3064.00
240.488,3059.00
241.513,3153.00
242.540,3121.00
243.568,3161.00
244.592,3173.00
245.619,3187.00
246.646,2870.00
247.671,2887.00
248.697,2766.00
249.724,2986.00
250.748,2950.00
251.774,2944.00
252.801,3274.00
253.827,3073.00
254.850,3040.00
255.876,2656.00
256.902,3129.00
257.925,2956.00
258.951,2746.00
259.976,2764.00
260.999,3064.00
262.024,2743.00
263.049,3613.00
264.074,3053.00
265.097,2992.00
266.122,3053.00
267.146,3047.00
268.168,3214.00
269.193,2811.00
270.217,3185.00
271.241,2694.00
272.263,2862.00
273.287,3141.00
274.311,2755.00
275.332,3259.00
276.356,2868.00
277.379,3060.00
278.402,3114.00
279.424,2910.00
280.447,2875.00
281.470,2717.00
282.492,3052.00
283.513,2908.00
284.536,3136.00
285.558,3115.00
286.581,3095.00
287.601,2840.00
288.623,2793.00
289.645,3101.00
290.665,3103.00
291.687,3099.00
292.709,3121.00
293.730,3366.00
294.750,2855.00
295.771,2739.00
296.792,3019.00
297.813,2874.00
298.832,3017.00
299.853,2719.00
300.874,2918.00
301.895,2910.00
302.913,2988.00
303.934,3247.00
304.954,2987.00
305.975,3144.00
306.993,2709.00
308.013,3124.00
309.033,2971.00
310.052,2882.00
311.072,2844.00
312.090,3015.00
313.109,3237.00
314.129,3382.00
315.148,3021.00
316.165,3009.00
317.184,3210.00
318.203,2707.00
319.222,2732.00
320.238,3102.00
321.257,2775.00
322.275,2668.00
323.294,2931.00
324.312,3101.00
325.328,3232.00
326.346,3266.00
327.364,3212.00
328.382,3127.00
329.397,3050.00
330.415,3228.00
331.432,3164.00
332.450,3220.00
333.467,3435.00
334.482,2580.00
335.499,3305.00
336.516,2848.00
337.533,2568.00
338.547,2795.00
339.564,2841.00
340.580,3046.00
341.597,2913.00
342.613,3396.00
343.627,2946.00
344.643,3002.00
345.659,3085.00
346.675,2998.00
347.690,2825.00
348.704,3089.00
349.719,2884.00
350.735,2718.00
351.750,3148.00
352.765,2975.00
353.778,2962.00
354.793,3165.00
355.808,2844.00
356.822,3177.00
357.837,2638.00
358.851,3256.00
359.864,2902.00
360.878,2688.00
361.892,2935.00
362.906,3149.00
363.920,2568.00
364.932,3069.00
365.945,3068.00
366.959,3014.00
367.972,2914.00
368.986,2701.00
369.999,3331.00
371.010,2820.00
372.023,3328.00
373.036,2945.00
374.049,3310.00
375.061,3047.00
376.072,2972.00
377.084,2837.00
378.097,2727.00
379.109,3133.00
380.121,3003.00
381.133,2660.00
382.143,3111.00
383.155,2718.00
384.166,2899.00
385.178,3114.00
386.189,3225.00
387.201,2683.00
388.212,2896.00
389.221,2870.00
390.232,2993.00
391.243,2927.00
392.254,3011.00
393.264,2840.00
394.275,3205.00
395.283,3123.00
396.294,3579.00
397.304,3462.00
398.314,3069.00
399.324,3006.00
400.334,2634.00
401.344,3130.00
402.351,2652.00
403.361,3154.00
404.370,2940.00
405.380,2908.00
406.389,3337.00
407.398,3136.00
408.407,3053.00
409.414,3117.00
410.423,3305.00
411.431,2763.00
412.440,2621.00
413.448,3266.00
414.457,2834.00
415.465,2807.00
416.471,2870.00
417.479,2994.00
418.487,2772.00
419.495,3304.00
420.503,3090.00
421.510,2596.00
422.518,3129.00
423.525,3180.00
424.530,3389.00
425.537,2872.00
426.544,3237.00
427.551,2858.00
428.558,3569.00
429.565,3366.00
430.571,2861.00
431.578,2871.00
432.582,2825.00
433.588,2923.00
434.595,2625.00
435.601,3279.00
436.607,3199.00
437.612,2751.00
438.618,3306.00
439.624,2930.00
440.627,2947.00
441.633,3111.00
442.638,3523.00
443.643,3064.00
444.648,3000.00
445.653,3182.00
446.658,2879.00
447.663,2986.00
448.667,2829.00
449.672,2905.00
450.674,2957.00
451.678,2699.00
452.682,2860.00
453.687,2799.00
454.690,3574.00
455.694,3250.00
456.698,2563.00
457.702,2640.00
458.705,2802.00
459.709,2785.00
460.710,2880.00
461.713,3010.00
462.716,3065.00
463.719,3001.00
464.722,3139.00
465.725,2965.00
466.727,2817.00
467.730,2999.00
468.732,2750.00
469.735,3266.00
470.737,2906.00
471.737,2826.00
472.739,2855.00
473.741,2760.00
474.742,3040.00
475.744,3065.00
476.746,2988.00
477.747,2943.00
478.748,3149.00
479.750,2937.00
480.751,2986.00
481.752,3665.00
482.753,3078.00
483.751,3527.00
484.752,2587.00
485.753,2953.00
486.753,2866.00
487.753,2961.00
488.754,3391.00
489.754,2718.00
490.754,3267.00
491.754,3145.00
492.754,2642.00
493.753,2998.00
494.753,2896.00
495.752,3315.00
496.752,2999.00
497.749,2960.00
498.748,2828.00
499.747,3368.00
500.746,3062.00
501.745,2791.00
502.744,2716.00
503.742,3268.00
504.741,2933.00
505.739,2445.00
506.737,2886.00
507.735,3068.00
508.734,3317.00
509.732,3118.00
510.729,3338.00
511.727,2856.00
512.725,2924.00
513.720,2790.00
514.718,3237.00
515.715,2688.00
516.712,2644.00
517.709,2976.00
518.706,2865.00
519.703,2999.00
520.700,3196.00
521.696,3305.00
522.693,2924.00
523.689,2847.00
524.686,3118.00
525.682,2789.00
526.678,3471.00
527.674,2957.00
528.670,2574.00
529.666,3485.00
530.661,3431.00
531.657,3639.00
532.652,3166.00
533.648,2981.00
534.641,3190.00
535.636,3055.00
536.631,3054.00
537.626,3149.00
538.621,2754.00
539.616,2576.00
540.610,2490.00
541.605,2949.00
542.599,3039.00
543.593,2968.00
544.587,3881.00
545.581,2804.00
546.575,3050.00
547.569,3018.00
548.563,2660.00
549.557,2647.00
550.550,2776.00
551.543,2680.00
552.537,3137.00
553.530,2757.00
554.523,2754.00
555.516,3089.00
556.509,2937.00
557.502,2647.00
558.494,3179.00
559.487,2876.00
560.479,3183.00
561.472,3174.00
562.464,3138.00
563.456,3286.00
564.448,2929.00
565.440,2943.00
566.432,3400.00
567.423,2857.00
568.415,2860.00
569.404,3070.00
570.396,2790.00
571.387,3085.00
572.378,2995.00
573.369,3917.00
574.360,3661.00
575.351,2948.00
576.341,2850.00
577.332,2867.00
578.323,2666.00
579.313,2855.00
580.303,3217.00
581.293,3104.00
582.283,2947.00
583.273,3137.00
584.263,2983.00
585.253,3031.00
586.243,3112.00
587.232,2658.00
588.222,2942.00
589.211,3166.00
590.200,3094.00
591.189,2929.00
592.178,2924.00
593.167,3421.00
594.156,3216.00
595.145,2861.00
596.133,3423.00
597.122,3092.00
598.110,3143.00
599.098,3065.00
600.086,2999.00
601.074,3166.00
602.062,2829.00
603.050,2734.00
604.038,3114.00
605.025,2739.00
606.013,3177.00
607.000,3394.00
607.987,3001.00
608.975,3049.00
609.962,2786.00
610.949,3102.00
611.936,3228.00
612.922,3155.00
613.909,2675.00
614.895,3329.00
615.882,2805.00
616.868,2972.00
617.854,2715.00
618.841,3010.00
619.826,3090.00
620.812,2967.00
621.798,2761.00
622.784,3170.00
623.769,3069.00
624.755,2693.00
625.740,3015.00
626.725,2695.00
627.711,2828.00
628.698,3014.00
629.683,2759.00
630.667,3178.00
631.652,2699.00
632.637,2941.00
633.621,3104.00
634.606,2878.00
635.590,3120.00
636.574,2911.00
637.558,3066.00
638.542,3044.00
639.526,2825.00
640.510,2644.00
641.493,3027.00
642.477,2989.00
643.460,2709.00
644.444,3250.00
645.427,3229.00
646.410,2647.00
647.393,2963.00
648.376,3019.00
649.359,2917.00
650.341,3079.00
651.324,3059.00
652.307,3042.00
653.289,2946.00
654.271,2835.00
655.253,2875.00
656.235,3102.00
657.217,3237.00
658.199,2588.00
659.181,2727.00
660.163,2994.00
661.144,2800.00
662.126,2858.00
663.107,2789.00
664.088,6210.00
665.069,3233.00
666.050,2817.00
667.033,2716.00
668.014,3039.00
668.995,2572.00
669.975,2994.00
670.956,2971.00
671.936,3140.00
672.916,2966.00
673.896,3105.00
674.876,2888.00
675.856,2886.00
676.836,2756.00
677.816,2277.00
678.795,2818.00
679.775,2668.00
680.754,3020.00
681.734,3136.00
682.713,3127.00
683.692,2764.00
684.671,2653.00
685.650,2796.00
686.629,2833.00
687.607,2759.00
688.586,2785.00
689.564,2863.00
690.543,3241.00
691.523,2374.00
692.501,2803.00
693.479,2934.00
694.457,2783.00
695.435,2851.00
696.413,2641.00
697.390,2486.00
698.368,2697.00
699.345,3086.00
700.322,2931.00
701.300,3082.00
702.277,2996.00
703.254,3194.00
704.231,2521.00
705.207,2919.00
706.184,2757.00
707.161,2601.00
708.137,2836.00
709.113,2811.00
710.090,2798.00
711.068,2522.00
712.044,2575.00
713.020,2892.00
713.996,2590.00
714.971,2797.00
715.947,2817.00
716.922,2830.00
717.898,2740.00
718.873,2869.00
719.848,2722.00
720.823,2706.00
721.798,2932.00
722.773,2712.00
723.748,2519.00
724.723,3012.00
725.697,2813.00
726.672,2772.00
727.646,2505.00
728.622,2923.00
729.596,2568.00
730.570,2731.00
731.544,3029.00
732.518,3243.00
733.492,2803.00
734.466,2860.00
735.439,3018.00
736.413,3075.00
737.386,2459.00
738.359,2415.00
739.332,2513.00
740.305,2857.00
741.278,3282.00
742.251,2890.00
743.224,2687.00
744.196,2527.00
745.171,3095.00
746.143,3016.00
747.115,2776.00
748.087,2679.00
749.059,3079.00
750.031,2886.00
751.003,3684.00
751.975,3237.00
752.947,2682.00
753.918,3095.00
754.890,2561.00
755.861,2744.00
756.832,2999.00
757.803,2833.00
758.774,2851.00
759.747,2594.00
760.718,3177.00
761.689,2759.00
762.659,2634.00
763.630,3163.00
764.600,2545.00
765.570,3015.00
766.540,3082.00
767.510,2925.00
768.480,3047.00
769.450,2698.00
770.420,2830.00
771.390,2656.00
772.359,2722.00
773.329,2666.00
774.300,2493.00
775.269,2725.00
776.238,2952.00
777.207,3120.00
778.176,2533.00
779.145,2766.00
780.114,2675.00
781.083,2585.00
782.051,2784.00
783.019,2707.00
783.988,3080.00
784.956,2866.00
785.924,2967.00
786.894,2861.00
787.862,2710.00
788.830,3129.00
789.797,2613.00
790.765,2583.00
791.732,2771.00
792.700,2629.00
793.667,2566.00
794.634,2738.00
795.601,2694.00
796.568,2791.00
797.535,2779.00
798.502,3412.00
799.468,2921.00
800.437,2388.00
801.403,2643.00
802.370,3203.00
803.336,3045.00
804.302,2847.00
805.268,2437.00
806.234,2562.00
807.200,2743.00
808.166,2750.00
809.131,2563.00
810.097,2971.00
811.062,3648.00
812.027,3026.00
812.994,2601.00
813.960,2614.00
814.925,2926.00
815.889,2493.00
816.854,3000.00
817.819,2615.00
818.783,2736.00
819.748,3145.00
820.712,2731.00
821.677,2652.00
822.641,2706.00
823.605,2713.00
824.571,3103.00
825.534,2698.00
826.498,2685.00
827.462,2825.00
828.425,2642.00
829.389,3039.00
830.352,2804.00
831.315,2882.00
832.279,2478.00
833.242,2748.00
834.204,2670.00
835.167,2625.00
836.132,3049.00
837.095,2528.00
838.057,2716.00
839.020,2832.00
839.982,2838.00
840.944,2695.00
841.906,2596.00
842.868,2945.00
843.830,2541.00
844.792,3068.00
845.753,2678.00
846.715,2444.00
847.679,2574.00
848.640,2622.00
849.601,2737.00
850.562,3216.00
851.523,2704.00
852.484,2476.00
853.445,2988.00
854.406,2707.00
855.367,2693.00
856.327,3025.00
857.288,2524.00
858.248,2676.00
859.210,2671.00
860.170,2514.00
861.130,2975.00
862.090,2404.00
863.050,2585.00
864.010,2654.00
864.969,2900.00
865.929,2594.00
866.888,2540.00
867.848,2830.00
868.807,2633.00
869.766,2865.00
870.727,2717.00
871.686,2988.00
872.645,3036.00
873.604,3279.00
874.562,2751.00
875.521,2803.00
876.479,3372.00
877.437,2572.00
878.396,2615.00
879.354,3166.00
880.312,2590.00
881.270,2620.00
882.229,3073.00
883.187,2606.00
884.145,2665.00
885.102,2929.00
886.059,2813.00
887.017,2871.00
887.974,2932.00
888.931,3046.00
889.888,2526.00
890.845,2407.00
891.802,2347.00
892.758,2636.00
893.717,2441.00
894.673,2537.00
895.630,2623.00
896.586,2902.00
897.542,2649.00
898.498,2503.00
899.454,2842.00
900.410,2710.00
901.366,2672.00
902.321,2634.00
903.277,2695.00
904.232,2729.00
905.189,2461.00
906.145,2669.00
907.100,2232.00
908.055,2715.00
909.010,2911.00
909.965,2346.00
910.919,2779.00
911.874,2528.00
912.828,2763.00
913.783,2790.00
914.737,2340.00
915.693,2759.00
916.648,2933.00
917.602,2962.00
918.555,2741.00
919.509,2869.00
920.463,2775.00
921.417,2767.00
922.370,2549.00
923.324,2698.00
924.277,2630.00
925.230,2738.00
926.183,2419.00
927.138,2654.00
928.091,2952.00
929.044,2813.00
929.996,2648.00
930.949,2659.00
931.902,2825.00
932.854,2824.00
933.806,2598.00
934.758,2941.00
935.711,2999.00
936.663,2758.00
937.614,2756.00
938.568,2712.00
939.520,2382.00
940.471,2738.00
941.423,2761.00
942.374,2880.00
943.326,2740.00
944.277,2573.00
945.228,2848.00
946.179,2682.00
947.130,3004.00
948.080,2685.00
949.031,2591.00
949.984,2700.00
950.934,2740.00
951.884,2500.00
952.835,2658.00
953.785,2715.00
954.735,2640.00
955.685,2332.00
956.635,2644.00
957.585,2629.00
958.534,2662.00
959.484,2716.00
960.433,2600.00
961.383,2477.00
962.334,2983.00
963.283,2765.00
964.232,2860.00
965.181,2725.00
966.130,2766.00
967.079,2607.00
968.027,2731.00
968.976,2725.00
969.924,2614.00
970.873,2804.00
971.821,2759.00
972.769,2910.00
973.719,2871.00
974.667,2488.00
975.615,2705.00
976.562,2726.00
977.510,2412.00
978.458,2610.00
979.405,2845.00
980.352,2739.00
981.300,2960.00
982.247,2780.00
983.194,2504.00
984.141,2643.00
985.088,2710.00
986.036,2744.00
986.983,3033.00
987.930,3105.00
988.876,2354.00
989.822,2916.00
990.769,2537.00
991.715,2610.00
992.661,2454.00
993.607,2784.00
994.553,3253.00
995.498,2606.00
996.444,2277.00
997.389,2741.00
998.337,2533.00
999.282,2847.00
1000.227,2676.00
1001.173,2726.00
1002.118,2434.00
1003.062,2874.00
1004.007,2662.00
1004.952,2965.00
1005.897,2929.00
1006.841,2693.00
1007.786,2453.00
1008.730,2420.00
1009.674,3186.00
1010.618,2643.00
1011.564,2506.00
1012.508,2367.00
1013.452,2956.00
1014.396,2748.00
1015.339,2630.00
1016.283,2693.00
1017.226,2727.00
1018.170,2712.00
1019.113,2884.00
1020.056,2737.00
1020.999,2714.00
1021.942,2586.00
1022.885,2881.00
1023.828,3009.00
1024.770,2527.00
1025.715,2736.00
1026.657,2696.00
1027.600,2754.00
1028.542,2898.00
1029.484,2754.00
1030.426,2852.00
1031.368,2776.00
1032.310,2597.00
1033.251,2521.00
1034.193,2672.00
1035.135,2492.00
1036.076,2617.00
1037.017,2539.00
1037.959,2811.00
1038.900,2788.00
1039.843,2821.00
1040.784,2743.00
1041.725,2811.00
1042.665,2626.00
1043.606,2773.00
1044.547,2746.00
1045.487,2371.00
1046.427,2659.00
1047.368,2748.00
1048.308,2243.00
1049.248,2488.00
1050.188,2687.00
1051.128,2578.00
1052.067,2685.00
1053.007,2378.00
1053.947,2373.00
1054.886,2598.00
1055.827,2480.00
1056.766,2911.00
1057.706,2457.00
1058.645,2667.00
1059.584,2737.00
1060.522,2989.00
1061.461,2467.00
1062.400,2470.00
1063.338,2647.00
1064.277,2527.00
1065.215,2518.00
1066.154,2414.00
1067.092,2617.00
1068.030,2639.00
1068.968,2886.00
1069.906,2993.00
1070.843,2972.00
1071.781,2750.00
1072.720,2786.00
1073.658,2796.00
1074.595,2607.00
1075.533,2524.00
1076.470,2597.00
1077.407,2953.00
1078.344,2789.00
1079.281,2814.00
1080.217,2329.00
1081.154,2683.00
1082.091,2726.00
1083.027,2463.00
1083.964,2949.00
1084.900,2558.00
1085.836,2614.00
1086.772,2881.00
1087.708,2434.00
1088.644,2831.00
1089.580,2680.00
1090.515,2728.00
1091.451,2603.00
1092.388,2685.00
1093.324,2450.00
1094.259,3240.00
1095.194,2756.00
1096.129,2623.00
1097.064,2583.00
1097.999,2860.00
1098.934,2548.00
1099.869,2573.00
1100.803,2702.00
1101.738,2710.00
1102.672,2380.00
1103.607,2768.00
1104.541,2526.00
1105.475,2553.00
1106.409,2412.00
1107.343,2616.00
1108.277,2476.00
1109.210,2689.00
1110.144,2674.00
1111.078,2661.00
1112.011,2445.00
1112.944,2757.00
1113.878,2794.00
1114.811,2169.00
1115.744,2575.00
1116.678,2295.00
1117.611,2558.00
1118.544,2576.00
1119.477,2719.00
1120.409,2566.00
1121.342,3119.00
1122.274,2748.00
1123.206,4240.00
1124.138,2658.00
1125.070,2953.00
1126.002,2863.00
1126.934,2301.00
1127.866,2584.00
1128.798,2301.00
1129.729,2378.00
1130.661,2667.00
1131.592,2550.00
1132.523,2736.00
1133.454,2770.00
1134.385,2304.00
1135.317,2650.00
1136.247,2624.00
1137.178,2889.00
1138.109,2392.00
1139.039,3036.00
1139.970,2825.00
1140.900,2565.00
1141.831,2339.00
1142.761,2217.00
1143.691,2744.00
1144.621,2655.00
1145.551,2698.00
1146.480,2707.00
1147.410,2842.00
1148.340,2304.00
1149.269,2335.00
1150.199,2608.00
1151.128,3039.00
1152.057,2429.00
1152.979,2569.00
1153.898,2635.00
1154.819,2764.00
1155.739,2642.00
1156.658,2530.00
1157.579,2735.00
1158.498,2615.00
1159.419,2205.00
1160.338,2697.00
1161.256,2700.00
1162.177,2514.00
1163.095,2607.00
1164.016,2738.00
1164.934,2918.00
1165.852,2821.00
1166.772,2597.00
1167.690,2670.00
1168.610,2704.00
1169.528,2633.00
1170.446,2199.00
1171.365,2571.00
1172.283,2505.00
1173.202,2640.00
1174.120,2695.00
1175.037,2523.00
1175.956,2446.00
1176.873,2507.00
1177.792,2556.00
1178.709,3127.00
1179.626,2506.00
1180.544,2832.00
1181.461,2495.00
1182.379,2728.00
1183.296,2626.00
1184.212,2268.00
1185.130,2509.00
1186.046,2946.00
1186.962,2629.00
1187.880,2892.00
1188.796,2712.00
1189.714,2423.00
1190.629,2753.00
1191.545,2707.00
1192.462,2581.00
1193.378,2597.00
1194.295,2339.00
1195.210,2635.00
1196.125,2774.00
1197.042,2679.00
1197.957,2639.00
1198.872,2539.00
1199.788,2547.00
1200.703,2980.00
1201.619,2655.00
1202.534,2506.00
1203.448,2683.00
1204.364,2535.00
1205.278,2345.00
1206.192,2658.00
1207.108,3124.00
1208.022,3019.00
1208.938,2483.00
1209.851,2754.00
1210.765,2868.00
1211.680,2524.00
1212.594,2402.00
1213.507,2570.00
1214.422,3016.00
1215.335,2740.00
1216.248,2560.00
1217.163,2648.00
1218.076,3236.00
1218.990,2753.00
1219.903,2416.00
1220.816,2448.00
1221.730,2617.00
1222.642,2492.00
1223.554,2523.00
1224.469,2677.00
1225.380,2573.00
1226.292,2299.00
1227.206,2741.00
1228.118,2947.00
1229.032,2278.00
1229.943,2522.00
1230.855,2571.00
1231.768,2354.00
1232.679,2687.00
1233.590,2604.00
1234.503,2841.00
1235.414,2486.00
1236.325,2521.00
1237.238,2682.00
1238.149,2713.00
1239.059,2478.00
1239.972,2813.00
1240.882,2434.00
1241.793,2784.00
1242.705,2954.00
1243.615,2569.00
1244.525,2698.00
1245.437,2193.00
1246.347,2697.00
1247.259,2788.00
1248.168,3031.00
1249.078,2885.00
1249.989,2906.00
1250.899,2479.00
1251.808,2492.00
1252.719,2603.00
1253.628,2511.00
1254.537,2993.00
1255.448,2475.00
1256.357,2444.00
1257.266,2627.00
1258.176,2358.00
1259.085,2386.00
1259.993,2414.00
1260.904,2456.00
1261.812,2447.00
1262.720,3204.00
1263.630,2789.00
1264.538,2504.00
1265.446,2713.00
1266.356,2643.00
1267.263,2877.00
1268.171,2447.00
1269.080,2669.00
1269.988,2822.00
1270.895,2535.00
1271.804,2603.00
1272.711,2819.00
1273.619,2767.00
1274.527,2436.00
1275.434,2759.00
1276.341,2419.00
1277.248,2678.00
1278.156,2943.00
1279.063,2504.00
1279.969,2726.00
1280.877,3510.00
1281.783,2817.00
1282.690,2703.00
1283.598,2597.00
1284.503,2485.00
1285.409,2448.00
1286.317,2959.00
1287.223,3002.00
1288.128,2650.00
1289.036,2539.00
1289.941,2584.00
1290.846,2678.00
1291.751,2457.00
1292.658,2521.00
1293.563,3086.00
1294.468,2673.00
1295.375,2793.00
1296.280,2866.00
1297.184,3302.00
1298.091,2725.00
1298.995,2806.00
1299.900,3003.00
1300.806,2533.00
1301.710,2373.00
1302.614,2214.00
1303.518,2900.00
1304.424,2571.00
1305.327,2846.00
1306.231,2574.00
1307.137,2793.00
1308.040,2697.00
1308.943,2618.00
1309.847,2844.00
1310.752,2832.00
1311.655,2278.00
1312.558,2475.00
1313.463,2557.00
1314.366,2504.00
1315.269,2689.00
1316.171,2604.00
1317.076,2538.00
1317.978,2451.00
1318.881,2245.00
1319.785,2495.00
1320.687,2501.00
1321.589,2264.00
1322.491,2487.00
1323.395,2735.00
1324.297,3210.00
1325.198,2778.00
1326.102,2412.00
1327.004,2454.00
1327.905,3035.00
1328.806,2597.00
1329.709,2684.00
1330.611,2589.00
1331.512,2460.00
1332.413,3059.00
1333.316,2674.00
1334.216,2801.00
1335.117,2379.00
1336.020,2672.00
1336.920,2622.00
1337.821,2509.00
1338.721,2923.00
1339.623,2671.00
1340.523,2585.00
1341.423,2493.00
1342.323,2895.00
1343.225,2707.00
1344.125,2486.00
1345.025,2527.00
1345.924,2307.00
1346.826,2975.00
1347.725,3026.00
1348.624,2856.00
1349.524,2526.00
1350.425,2558.00
1351.324,2690.00
1352.223,2813.00
1353.121,2584.00
1354.022,2801.00
1354.921,3029.00
1355.819,2733.00
1356.718,2675.00
1357.618,2409.00
1358.516,2750.00
1359.415,3002.00
1360.313,2699.00
1361.213,2566.00
1362.111,2858.00
1363.008,3221.00
1363.906,2604.00
1364.806,2634.00
1365.703,2705.00
1366.601,2457.00
1367.498,2450.00
1368.397,2837.00
1369.295,2677.00
1370.192,2463.00
1371.089,2702.00
1371.987,2608.00
1372.884,2902.00
1373.781,2403.00
1374.678,2614.00
1375.574,2445.00
1376.473,2733.00
1377.369,2856.00
1378.265,2479.00
1379.161,2593.00
1380.059,2346.00
1380.955,2754.00
1381.851,2404.00
1382.747,2530.00
1383.643,2591.00
1384.540,2465.00
1385.436,2512.00
1386.331,2700.00
1387.227,2760.00
1388.124,2738.00
1389.019,2402.00
1389.914,2593.00
1390.809,2288.00
1391.704,3052.00
1392.601,2513.00
1393.495,2921.00
1394.390,2779.00
1395.285,2864.00
1396.179,2681.00
1397.075,2562.00
1397.969,2670.00
1398.864,2299.00
1399.758,2577.00
1400.652,2662.00
1401.547,2453.00
1402.441,2404.00
1403.335,2939.00
1404.229,2654.00
1405.122,2665.00
1406.017,2627.00
1406.911,2748.00
1407.804,3058.00
1408.697,2612.00
1409.590,2463.00
1410.485,2767.00
1411.378,2685.00
1412.271,2341.00
1413.163,2676.00
1414.056,2806.00
1414.949,3043.00
1415.843,2666.00
1416.735,2598.00
1417.627,2664.00
1418.520,2608.00
1419.412,2879.00
1420.306,2809.00
1421.197,2872.00
1422.089,2865.00
1422.981,3096.00
1423.873,2798.00
1424.764,2706.00
1425.657,2688.00
1426.549,2783.00
1427.440,2836.00
1428.331,2544.00
1429.222,2300.00
1430.113,2665.00
1431.006,2827.00
1431.897,2568.00
1432.787,2701.00
1433.678,2573.00
1434.568,2450.00
1435.459,2846.00
1436.351,2840.00
1437.241,2774.00
1438.131,2803.00
1439.021,2373.00
1439.911,2609.00
1440.801,2692.00
1441.693,2861.00
1442.583,2655.00
1443.472,2615.00
1444.362,2783.00
1445.251,2612.00
1446.140,2562.00
1447.030,2802.00
1447.921,2811.00
1448.810,2458.00
1449.699,2985.00
1450.588,2668.00
1451.476,2521.00
1452.365,2731.00
1453.254,2500.00
1454.144,2534.00
1455.032,2797.00
1455.921,2362.00
1456.809,2939.00
1457.697,2488.00
1458.585,2573.00
1459.473,2586.00
1460.361,2464.00
1461.251,2735.00
1462.138,2736.00
1463.026,2611.00
1463.913,2853.00
1464.801,2572.00
1465.688,2723.00
1466.575,2641.00
1467.463,3075.00
1468.351,2462.00
1469.238,2624.00
1470.125,2259.00
1471.012,2675.00
1471.899,2722.00
1472.785,2452.00
1473.672,2669.00
1474.558,2878.00
1475.446,2759.00
1476.333,2808.00
1477.219,2456.00
1478.105,2598.00
1478.991,2576.00
1479.877,2903.00
1480.762,2612.00
1481.648,2513.00
1482.534,2780.00
1483.419,2660.00
1484.307,2778.00
1485.192,2616.00
1486.077,2494.00
1486.962,2493.00
1487.847,2404.00
1488.732,2496.00
1489.617,2677.00
1490.502,2913.00
1491.387,2775.00
1492.271,2477.00
1493.156,2501.00
1494.042,2446.00
1494.927,2842.00
1495.811,2563.00
1496.695,2747.00
1497.579,2918.00
1498.463,2612.00
1499.347,2648.00
1500.231,2679.00
1501.114,2719.00
1501.998,2916.00
1502.881,2684.00
1503.765,2957.00
1504.648,3011.00
1505.533,2755.00
1506.417,2624.00
1507.300,2580.00
1508.183,2686.00
1509.066,2126.00
1509.948,2871.00
1510.831,3009.00
1511.714,2472.00
1512.596,2773.00
1513.479,2853.00
1514.361,2830.00
1515.243,2651.00
1516.125,2804.00
1517.008,2907.00
1517.890,2611.00
1518.771,2668.00
1519.655,2862.00
1520.537,2592.00
1521.419,2459.00
1522.300,2698.00
1523.182,2800.00
1524.063,2756.00
1524.944,2917.00
1525.825,2818.00
1526.707,2460.00
1527.588,2425.00
1528.468,2721.00
1529.349,2295.00
1530.230,2540.00
1531.111,2792.00
1531.991,2711.00
1532.872,2366.00
1533.752,2603.00
1534.632,2489.00
1535.513,2492.00
1536.393,2786.00
1537.273,2933.00
1538.153,3271.00
1539.032,2430.00
1539.912,2609.00
1540.792,2632.00
1541.672,2607.00
1542.551,2790.00
1543.430,3248.00
1544.310,2702.00
1545.189,2521.00
1546.068,3051.00
1546.947,2764.00
1547.826,2972.00
1548.705,2640.00
1549.584,2914.00
1550.462,2622.00
1551.341,2776.00
1552.219,2737.00
1553.098,2785.00
1553.976,2908.00
1554.854,3108.00
1555.733,2865.00
1556.611,2566.00
1557.489,2443.00
1558.367,2632.00
1559.244,2788.00
1560.122,2675.00
1561.000,2697.00
1561.877,2962.00
1562.755,2516.00
1563.632,2605.00
1564.509,2923.00
1565.386,2971.00
1566.264,2416.00
1567.141,2301.00
1568.017,2759.00
1568.894,2631.00
1569.771,2730.00
1570.648,2768.00
1571.524,2642.00
1572.401,2427.00
1573.277,2419.00
1574.153,2680.00
1575.029,2533.00
1575.906,3380.00
1576.781,2799.00
1577.657,2619.00
1578.533,2905.00
1579.409,2279.00
1580.285,2624.00
1581.160,3054.00
1582.036,2803.00
1582.911,2474.00
1583.786,3015.00
1584.662,2468.00
1585.537,2648.00
1586.412,2671.00
1587.287,2512.00
1588.160,2811.00
1589.035,2321.00
1589.909,2672.00
1590.784,2619.00
1591.658,2456.00
1592.533,2687.00
1593.407,2686.00
1594.281,2552.00
1595.155,3051.00
1596.029,2589.00
1596.903,2598.00
1597.777,2584.00
1598.651,2901.00
1599.525,2358.00
1600.398,2674.00
1601.272,2629.00
1602.144,3181.00
1603.017,2603.00
1603.890,2873.00
1604.763,2748.00
1605.636,2783.00
1606.509,2374.00
1607.382,2495.00
1608.255,2719.00
1609.128,2869.00
1610.000,2595.00
1610.873,2377.00
1611.746,2550.00
1612.616,2583.00
1613.488,2250.00
1614.361,2678.00
1615.233,2642.00
1616.105,2865.00
1616.977,2574.00
1617.849,2508.00
1618.720,2956.00
1619.592,2977.00
1620.464,2738.00
1621.333,3065.00
1622.205,2680.00
1623.076,2576.00
1623.947,2651.00
1624.818,2900.00
1625.689,2802.00
1626.560,2600.00
1627.431,2660.00
1628.302,3007.00
1629.171,2760.00
1630.042,2964.00
1630.912,3285.00
1631.782,3228.00
1632.653,2470.00
1633.523,2788.00
1634.393,2896.00
1635.263,2511.00
1636.131,2597.00
1637.001,2545.00
1637.871,2293.00
1638.741,2292.00
1639.611,2394.00
1640.480,2766.00
1641.350,2530.00
1642.219,2483.00
1643.087,2176.00
1643.956,3061.00
1644.825,2880.00
1645.694,2856.00
1646.563,2798.00
1647.432,2693.00
1648.299,2703.00
1649.167,2809.00
1650.036,2489.00
1650.904,2796.00
1651.773,2882.00
1652.641,2687.00
1653.509,2827.00
1654.376,2535.00
1655.244,2688.00
1656.112,2712.00
1656.980,2695.00
1657.847,2538.00
1658.715,2814.00
1659.581,2577.00
1660.448,2881.00
1661.316,2187.00
1662.183,2688.00
1663.051,2704.00
1663.918,2711.00
1664.783,2711.00
1665.650,2754.00
1666.517,2812.00
1667.384,2692.00
1668.251,2707.00
1669.115,2870.00
1669.982,2628.00
1670.849,2945.00
1671.715,2656.00
1672.581,2807.00
1673.446,2772.00
1674.312,2676.00
1675.178,3071.00
1676.044,2784.00
1676.910,2739.00
1677.774,2708.00
1678.639,2332.00
1679.505,2650.00
1680.370,2829.00
1681.236,3286.00
1682.099,2600.00
1682.965,2665.00
1683.830,2269.00
1684.695,2491.00
1685.560,2633.00
1686.423,2785.00
1687.288,2802.00
1688.153,2702.00
1689.017,2562.00
1689.880,2746.00
1690.745,2811.00
1691.609,2517.00
1692.473,2804.00
1693.338,2880.00
1694.200,2941.00
1695.064,2695.00
1695.928,2587.00
1696.792,2685.00
1697.654,3164.00
1698.517,2719.00
1699.381,2398.00
1700.245,2323.00
1701.106,2966.00
1701.969,2596.00
1702.833,2774.00
1703.696,2557.00
1704.557,2638.00
1705.420,2556.00
1706.283,2693.00
1707.146,2784.00
1708.007,2450.00
1708.870,2468.00
1709.732,2349.00
1710.595,2571.00
1711.455,2417.00
1712.318,2577.00
1713.180,2953.00
1714.040,2698.00
1714.902,2830.00
1715.764,2671.00
1716.626,2486.00
1717.486,2634.00
1718.348,2933.00
1719.209,4877.00
1720.071,2338.00
1720.930,2392.00
1721.792,2497.00
1722.653,2567.00
1723.512,2555.00
1724.374,2572.00
1725.234,2709.00
1726.095,2690.00
1726.954,2643.00
1727.815,2803.00
1728.676,2657.00
1729.535,2910.00
1730.395,2652.00
1731.256,2603.00
1732.114,2722.00
1732.974,2158.00
1733.834,3013.00
1734.693,2848.00
1735.553,2703.00
1736.413,3072.00
1737.272,2576.00
1738.130,2618.00
1738.990,2757.00
1739.849,2582.00
1740.707,3624.00
1741.566,2688.00
1742.426,2749.00
1743.283,3042.00
1744.142,2564.00
1745.001,2325.00
1745.858,2849.00
1746.717,2734.00
1747.576,2780.00
1748.433,2785.00
1749.292,3198.00
1750.150,3262.00
1751.007,2872.00
1751.865,2861.00
1752.723,2678.00
1753.579,2645.00
1754.438,2892.00
1755.296,2900.00
1756.152,2242.00
1757.010,2360.00
1757.865,2847.00
1758.723,2337.00
1759.581,2985.00
1760.436,2609.00
1761.294,3044.00
1762.151,2670.00
1763.006,2606.00
1763.864,2306.00
1764.721,2843.00
1765.576,2713.00
1766.433,2820.00
1767.288,2577.00
1768.144,2724.00
1769.001,2607.00
1769.856,2747.00
1770.712,2961.00
1771.568,2466.00
1772.423,2596.00
1773.279,2607.00
1774.133,2571.00
1774.989,3078.00
1775.845,3064.00
1776.699,2908.00
1777.555,2699.00
1778.409,3207.00
1779.265,2612.00
1780.120,2625.00
1780.974,2657.00
1781.829,2274.00
1782.682,2738.00
1783.538,2508.00
1784.393,2703.00
1785.246,2579.00
1786.101,2784.00
1786.954,2805.00
1787.808,2868.00
1788.661,2394.00
1789.516,2598.00
1790.370,2628.00
1791.223,2866.00
1792.077,2660.00
1792.930,2729.00
1793.784,2521.00
1794.636,2680.00
1795.490,2665.00
1796.344,2668.00
1797.196,2659.00
1798.049,2806.00
1798.901,2572.00
1799.755,2903.00
1800.606,2449.00
1801.460,3214.00
1802.311,2981.00
1803.165,3076.00
1804.018,3035.00
1804.869,2774.00
1805.722,3140.00
1806.573,2707.00
1807.426,2513.00
1808.276,2650.00
1809.129,2568.00
1809.980,2860.00
1810.832,2971.00
1811.683,2599.00
1812.535,3013.00
1813.385,2624.00
1814.237,2913.00
1815.089,2719.00
1815.940,2927.00
1816.791,2635.00
1817.641,2580.00
1818.493,2835.00
1819.343,2730.00
1820.194,2607.00
1821.044,2755.00
1821.895,2848.00
1822.745,2422.00
1823.596,2549.00
1824.445,3067.00
1825.296,2782.00
1826.145,2680.00
1826.996,2860.00
1827.845,2710.00
1828.695,2742.00
1829.544,2669.00
1830.395,2729.00
1831.243,2585.00
1832.094,2429.00
1832.942,3261.00
1833.792,2763.00
1834.640,2754.00
1835.490,2691.00
1836.338,2711.00
1837.186,2570.00
1838.036,2499.00
1838.884,2648.00
1839.733,3010.00
1840.581,2854.00
1841.430,2808.00
1842.278,3002.00
1843.127,2561.00
1843.974,2381.00
1844.823,3124.00
1845.671,2837.00
1846.519,2724.00
1847.366,2755.00
1848.213,2346.00
1849.062,2509.00
1849.909,2414.00
1850.757,3320.00
1851.604,2775.00
1852.452,2584.00
1853.298,2846.00
1854.146,2733.00
1854.993,2720.00
1855.839,3159.00
1856.687,2817.00
1857.532,2800.00
1858.380,2718.00
1859.226,2777.00
1860.073,2823.00
1860.919,2551.00
1861.765,2564.00
1862.612,2940.00
1863.457,2922.00
1864.304,2622.00
1865.150,2794.00
1865.995,2677.00
1866.842,2796.00
1867.686,2929.00
1868.533,2749.00
1869.378,2753.00
1870.223,2743.00
1871.069,2596.00
1871.914,2698.00
1872.760,2703.00
1873.604,2467.00
1874.448,2855.00
1875.294,2869.00
1876.139,2572.00
1876.984,2799.00
1877.828,2359.00
1878.672,2215.00
1879.518,2578.00
1880.361,2857.00
1881.205,2863.00
1882.050,2498.00
1882.894,3170.00
1883.739,2556.00
1884.582,2451.00
1885.425,2519.00
1886.270,2917.00
1887.113,2489.00
1887.956,2788.00
1888.801,2707.00
1889.644,2495.00
1890.486,2294.00
1891.331,2587.00
1892.173,2720.00
1893.017,2735.00
1893.860,2947.00
1894.702,2960.00
1895.546,2715.00
1896.388,3393.00
1897.230,3071.00
1898.074,2603.00
1898.916,2481.00
1899.757,2531.00
1900.601,3394.00
1901.443,2983.00
1902.284,2975.00
1903.125,3183.00
1903.969,2858.00
1904.810,2960.00
1905.651,2771.00
1906.494,3002.00
1907.335,3126.00
1908.176,2837.00
1909.018,2785.00
1909.859,2690.00
1910.700,2585.00
1911.542,3240.00
1912.383,2782.00
1913.223,2322.00
1914.064,2820.00
1914.906,2926.00
1915.746,3041.00
1916.586,3168.00
1917.428,2676.00
1918.268,2749.00
1919.107,2628.00
1919.947,2490.00
1920.789,2645.00
1921.628,2937.00
1922.468,2690.00
1923.309,2537.00
1924.148,2993.00
1924.988,2775.00
1925.827,2694.00
1926.667,2605.00
1927.507,2750.00
1928.345,2535.00
1929.184,2847.00
1930.025,2528.00
1930.864,2938.00
1931.702,3009.00
1932.541,2595.00
1933.381,2839.00
1934.219,2840.00
1935.057,2940.00
1935.896,2430.00
1936.735,2690.00
1937.573,2663.00
1938.411,2497.00
1939.249,2868.00
1940.089,2572.00
1940.927,2932.00
1941.764,3006.00
1942.602,2638.00
1943.439,2605.00
1944.278,2644.00
1945.115,2620.00
1945.953,2449.00
1946.790,2781.00
1947.628,3070.00
1948.465,2824.00
1949.302,2889.00
1950.139,2854.00
1950.976,2555.00
1951.814,2884.00
1952.651,2764.00
1953.487,2523.00
1954.323,2932.00
1955.160,2695.00
1955.998,3028.00
1956.834,2729.00
1957.670,2786.00
1958.506,2920.00
1959.342,2815.00
1960.177,2737.00
1961.015,2867.00
1961.850,2740.00
1962.686,2780.00
1963.521,2730.00
1964.357,2950.00
1965.192,2483.00
1966.029,2829.00
1966.864,2640.00
1967.699,2925.00
1968.534,2764.00
1969.369,2955.00
1970.204,2679.00
1971.040,2741.00
1971.875,2667.00
1972.709,2736.00
1973.544,2566.00
1974.378,2603.00
1975.212,2799.00
1976.047,2594.00
1976.882,2584.00
1977.716,3065.00
1978.550,2419.00
1979.384,2679.00
1980.218,2709.00
1981.052,2673.00
1981.885,2719.00
1982.719,2698.00
1983.554,2854.00
1984.388,2962.00
1985.221,2755.00
1986.054,2946.00
1986.887,2732.00
1987.720,2596.00
1988.553,2996.00
1989.386,2807.00
1990.219,2864.00
1991.053,3012.00
1991.886,2577.00
1992.719,2896.00
1993.551,2243.00
1994.383,2832.00
1995.216,2600.00
1996.048,2455.00
1996.880,2877.00
1997.712,2599.00
1998.544,2733.00
1999.376,2777.00
2000.208,2979.00
