RamanScope Measure Spectrum Data V3.72

<< MEASURE CONDITION >>
Exposure Type,Aver
Exposure Time [sec],15
Exposure Count,30
Measure Time,2023/07/12 11:45:01
Data Name,""
Data Comment,""
Rayleigh Wave[nm],532.0

<< SAMPLE SPECTRUM >>
Wave[dcm-1],No11
146.591,896.93
147.626,1058.90
148.664,1229.87
149.699,1396.13
150.737,1528.03
151.772,1724.60
152.809,1820.13
153.846,1990.67
154.881,2092.27
155.918,2173.60
156.953,2295.70
157.989,2347.10
159.026,2386.83
160.060,2457.10
161.096,2521.40
162.130,2559.03
163.167,2579.33
164.200,2650.87
165.236,2664.43
166.272,2743.17
167.305,2796.63
168.341,2779.93
169.374,2817.73
170.409,2895.87
171.445,2929.27
172.477,2963.60
173.512,2965.63
174.545,3024.80
175.580,3023.80
176.614,3010.87
177.647,3057.93
178.681,3033.40
179.713,3026.40
180.747,3026.27
181.781,3020.40
182.813,3055.63
183.847,3045.43
184.878,3061.10
185.912,3069.87
186.945,3095.57
187.976,3131.27
189.010,3193.93
190.043,3129.17
191.073,3198.30
192.106,3268.70
193.137,3288.27
194.170,3327.17
195.202,3356.83
196.232,3407.07
197.265,3447.30
198.297,3486.57
199.327,3601.50
200.359,3600.77
201.388,3684.17
202.420,3766.23
203.452,3862.70
204.481,3968.97
205.512,4005.57
206.544,4130.17
207.573,4246.10
208.604,4433.87
209.635,4579.33
210.663,4685.80
211.694,4925.73
212.725,5073.57
213.753,5225.20
214.783,5342.53
215.813,5473.00
216.841,5480.77
217.871,5511.90
218.899,5466.60
219.929,5484.40
220.959,5311.67
221.986,5203.20
223.016,5031.30
224.045,4949.10
225.072,4753.50
226.101,4610.87
227.130,4505.40
228.157,4408.33
229.185,4360.03
230.214,4210.50
231.241,4121.43
232.269,4050.47
233.297,4038.07
234.323,4004.63
235.351,3984.33
236.379,3923.47
237.407,3946.77
238.433,3927.30
239.460,3958.73
240.488,3970.10
241.513,3973.30
242.540,4065.90
243.568,4087.80
244.592,4082.97
245.619,4114.50
246.646,4074.33
247.671,4054.10
248.697,4049.13
249.724,4036.17
250.748,4021.53
251.774,3981.67
252.801,3991.37
253.827,4017.07
254.850,4061.37
255.876,4012.07
256.902,4061.17
257.925,4111.57
258.951,4137.47
259.976,4147.73
260.999,4187.50
262.024,4208.60
263.049,4293.97
264.074,4314.00
265.097,4387.33
266.122,4437.93
267.146,4486.17
268.168,4532.97
269.193,4578.07
270.217,4652.13
271.241,4722.27
272.263,4732.13
273.287,4732.63
274.311,4806.80
275.332,4893.90
276.356,4865.43
277.379,4841.87
278.402,4817.20
279.424,4786.97
280.447,4711.83
281.470,4693.73
282.492,4606.00
283.513,4553.20
284.536,4466.53
285.558,4456.87
286.581,4347.10
287.601,4226.27
288.623,4172.70
289.645,4169.57
290.665,4091.53
291.687,4062.90
292.709,3978.53
293.730,3904.77
294.750,3859.77
295.771,3817.47
296.792,3754.77
297.813,3686.17
298.832,3643.90
299.853,3605.17
300.874,3540.27
301.895,3496.40
302.913,3450.77
303.934,3356.47
304.954,3394.37
305.975,3146.13
306.993,3333.20
308.013,3276.03
309.033,3335.00
310.052,3224.80
311.072,3238.50
312.090,3243.23
313.109,3161.27
314.129,3143.27
315.148,3165.67
316.165,3173.73
317.184,3131.23
318.203,3111.47
319.222,3078.50
320.238,3093.00
321.257,3108.47
322.275,3104.33
323.294,3033.03
324.312,2970.63
325.328,2973.83
326.346,3026.90
327.364,3026.83
328.382,3003.27
329.397,2922.83
330.415,2990.87
331.432,2998.00
332.450,2936.17
333.467,2972.30
334.482,2968.67
335.499,2898.03
336.516,2958.07
337.533,2927.43
338.547,2898.83
339.564,2954.73
340.580,2926.97
341.597,2931.37
342.613,2843.43
343.627,2911.83
344.643,2900.13
345.659,2886.63
346.675,2854.17
347.690,2895.60
348.704,2872.27
349.719,2833.80
350.735,2896.10
351.750,2863.43
352.765,2883.37
353.778,2849.77
354.793,2860.33
355.808,2882.30
356.822,2873.57
357.837,2902.10
358.851,2828.07
359.864,2900.50
360.878,2922.40
361.892,2933.07
362.906,2908.73
363.920,2894.90
364.932,2921.73
365.945,2898.03
366.959,2978.93
367.972,2955.63
368.986,2923.00
369.999,2905.53
371.010,2973.07
372.023,2987.23
373.036,2993.60
374.049,3009.47
375.061,3039.83
376.072,3015.17
377.084,3006.90
378.097,3064.93
379.109,3113.00
380.121,3061.70
381.133,3039.90
382.143,3070.03
383.155,3040.67
384.166,3088.83
385.178,3028.27
386.189,3009.47
387.201,3068.97
388.212,3098.20
389.221,3072.70
390.232,3037.83
391.243,3043.17
392.254,3010.30
393.264,3035.07
394.275,3030.10
395.283,2960.50
396.294,2969.47
397.304,2983.07
398.314,2994.17
399.324,2952.73
400.334,2954.17
401.344,2918.40
402.351,2949.63
403.361,2907.90
404.370,2906.47
405.380,2908.80
406.389,2843.47
407.398,2847.90
408.407,2806.73
409.414,2862.17
410.423,2748.50
411.431,2778.40
412.440,2820.73
413.448,2797.43
414.457,2816.83
415.465,2765.30
416.471,2764.87
417.479,2739.00
418.487,2719.37
419.495,2741.23
420.503,2741.50
421.510,2730.90
422.518,2705.03
423.525,2741.80
424.530,2700.83
425.537,2720.20
426.544,2619.60
427.551,2688.60
428.558,2686.37
429.565,2655.73
430.571,2703.13
431.578,2691.63
432.582,2654.70
433.588,2696.20
434.595,2647.20
435.601,2684.13
436.607,2629.27
437.612,2655.53
438.618,2660.97
439.624,2657.43
440.627,2669.97
441.633,2673.97
442.638,2608.90
443.643,2659.20
444.648,2678.60
445.653,2680.53
446.658,2676.77
447.663,2652.37
448.667,2671.13
449.672,2686.13
450.674,2697.37
451.678,2717.87
452.682,2666.93
453.687,2721.93
454.690,2660.87
455.694,2670.93
456.698,2707.70
457.702,2684.63
458.705,2734.87
459.709,2686.57
460.710,2771.70
461.713,2720.80
462.716,2723.57
463.719,2695.00
464.722,2731.70
465.725,2677.33
466.727,2790.70
467.730,2769.40
468.732,2759.40
469.735,2750.23
470.737,2725.20
471.737,2718.10
472.739,2759.80
473.741,2774.67
474.742,2783.17
475.744,2746.90
476.746,2793.13
477.747,2759.03
478.748,2745.37
479.750,2727.00
480.751,2759.23
481.752,2765.67
482.753,2770.83
483.751,2705.10
484.752,2764.97
485.753,2755.73
486.753,2789.70
487.753,2746.07
488.754,2780.20
489.754,2765.13
490.754,2766.87
491.754,2755.23
492.754,2757.80
493.753,2731.87
494.753,2747.13
495.752,2783.47
496.752,2708.63
497.749,2715.07
498.748,2725.87
499.747,2670.13
500.746,2726.77
501.745,2713.13
502.744,2692.10
503.742,2652.73
504.741,2648.73
505.739,2691.53
506.737,2702.20
507.735,2639.30
508.734,2674.50
509.732,2651.57
510.729,2618.37
511.727,2654.40
512.725,2612.37
513.720,2647.23
514.718,2619.93
515.715,2593.63
516.712,2636.60
517.709,2616.60
518.706,2617.83
519.703,2574.07
520.700,2596.20
521.696,2616.93
522.693,2647.67
523.689,2624.80
524.686,2632.47
525.682,2643.90
526.678,2622.53
527.674,2625.90
528.670,2657.43
529.666,2642.27
530.661,2646.70
531.657,2528.83
532.652,2632.17
533.648,2671.27
534.641,2642.07
535.636,2626.47
536.631,2667.07
537.626,2679.17
538.621,2676.37
539.616,2673.20
540.610,2702.87
541.605,2669.43
542.599,2750.40
543.593,2665.70
544.587,2678.83
545.581,2665.87
546.575,2675.83
547.569,2681.30
548.563,2716.47
549.557,2716.70
550.550,2713.73
551.543,2680.67
552.537,2670.80
553.530,2663.77
554.523,2742.60
555.516,2650.03
556.509,2653.67
557.502,2651.70
558.494,2651.57
559.487,2716.67
560.479,2725.37
561.472,2717.43
562.464,2691.43
563.456,2668.13
564.448,2659.63
565.440,2698.63
566.432,2688.63
567.423,2727.50
568.415,2701.80
569.404,2717.40
570.396,2737.63
571.387,2702.90
572.378,2746.97
573.369,2754.97
574.360,2777.73
575.351,2805.43
576.341,2769.97
577.332,2766.67
578.323,2724.00
579.313,2787.90
580.303,2783.23
581.293,2722.40
582.283,2775.53
583.273,2739.73
584.263,2824.80
585.253,2850.70
586.243,2789.03
587.232,2801.50
588.222,2768.77
589.211,2782.27
590.200,2805.00
591.189,2759.33
592.178,2782.37
593.167,2791.27
594.156,2804.27
595.145,2798.73
596.133,2860.83
597.122,2814.50
598.110,2842.83
599.098,2817.30
600.086,2829.67
601.074,2806.80
602.062,2792.23
603.050,2789.00
604.038,2752.43
605.025,2817.07
606.013,2775.33
607.000,2808.10
607.987,2792.13
608.975,2735.33
609.962,2767.20
610.949,2792.30
611.936,2757.03
612.922,2700.30
613.909,2748.63
614.895,2630.70
615.882,2694.37
616.868,2674.53
617.854,2631.10
618.841,2628.77
619.826,2626.60
620.812,2579.07
621.798,2572.47
622.784,2559.17
623.769,2487.17
624.755,2501.47
625.740,2504.83
626.725,2483.93
627.711,2475.73
628.698,2429.80
629.683,2477.53
630.667,2384.00
631.652,2398.63
632.637,2434.80
633.621,2398.20
634.606,2341.10
635.590,2354.43
636.574,2312.97
637.558,2343.93
638.542,2262.80
639.526,2314.80
640.510,2268.83
641.493,2288.73
642.477,2249.70
643.460,2307.67
644.444,2253.40
645.427,2264.10
646.410,2246.73
647.393,2213.10
648.376,2190.13
649.359,2198.87
650.341,2158.80
651.324,2170.40
652.307,2177.07
653.289,2168.00
654.271,2168.20
655.253,2154.73
656.235,2108.10
657.217,2127.87
658.199,2124.73
659.181,2115.67
660.163,2110.10
661.144,2092.50
662.126,2070.07
663.107,2108.43
664.088,2070.10
665.069,2083.70
666.050,2050.23
667.033,2030.87
668.014,2015.63
668.995,2061.63
669.975,2058.43
670.956,2019.83
671.936,2003.00
672.916,1994.30
673.896,2025.37
674.876,1954.13
675.856,1929.57
676.836,1964.50
677.816,1915.33
678.795,1931.97
679.775,1878.17
680.754,1909.17
681.734,1925.30
682.713,1836.17
683.692,1878.37
684.671,1858.93
685.650,1853.33
686.629,1858.70
687.607,1829.70
688.586,1791.30
689.564,1806.13
690.543,1753.60
691.523,1770.10
692.501,1776.63
693.479,1778.90
694.457,1782.93
695.435,1733.47
696.413,1726.63
697.390,1729.50
698.368,1726.30
699.345,1715.03
700.322,1688.60
701.300,1732.93
702.277,1749.23
703.254,1703.43
704.231,1693.83
705.207,1659.07
706.184,1695.80
707.161,1683.27
708.137,1666.17
709.113,1644.40
710.090,1678.07
711.068,1673.87
712.044,1604.57
713.020,1586.37
713.996,1628.73
714.971,1621.70
715.947,1582.93
716.922,1601.83
717.898,1578.27
718.873,1583.93
719.848,1555.50
720.823,1587.77
721.798,1530.97
722.773,1588.93
723.748,1543.87
724.723,1551.43
725.697,1541.20
726.672,1563.37
727.646,1502.33
728.622,1509.10
729.596,1548.43
730.570,1523.73
731.544,1546.57
732.518,1539.53
733.492,1514.53
734.466,1519.83
735.439,1512.93
736.413,1514.17
737.386,1523.27
738.359,1504.13
739.332,1474.67
740.305,1502.40
741.278,1493.77
742.251,1475.33
743.224,1503.73
744.196,1493.53
745.171,1472.23
746.143,1464.43
747.115,1488.73
748.087,1454.37
749.059,1451.47
750.031,1436.00
751.003,1455.93
751.975,1477.40
752.947,1404.77
753.918,1419.70
754.890,1401.47
755.861,1452.80
756.832,1386.50
757.803,1421.60
758.774,1465.43
759.747,1434.77
760.718,1397.17
761.689,1421.10
762.659,1377.17
763.630,1399.63
764.600,1414.50
765.570,1402.20
766.540,1424.37
767.510,1412.83
768.480,1379.53
769.450,1346.60
770.420,1403.27
771.390,1412.60
772.359,1359.03
773.329,1365.67
774.300,1379.87
775.269,1316.10
776.238,1385.80
777.207,1345.30
778.176,1352.80
779.145,1338.40
780.114,1346.10
781.083,1335.70
782.051,1303.80
783.019,1342.67
783.988,1334.67
784.956,1317.17
785.924,1277.37
786.894,1337.03
787.862,1325.27
788.830,1287.73
789.797,1317.57
790.765,1296.83
791.732,1307.50
792.700,1300.10
793.667,1279.50
794.634,1297.77
795.601,1319.23
796.568,1277.27
797.535,1271.57
798.502,1253.30
799.468,1259.97
800.437,1263.17
801.403,1223.33
802.370,1275.03
803.336,1216.70
804.302,1268.90
805.268,1261.73
806.234,1271.77
807.200,1264.50
808.166,1275.40
809.131,1264.40
810.097,1274.33
811.062,1206.77
812.027,1237.33
812.994,1221.60
813.960,1222.07
814.925,1214.83
815.889,1218.97
816.854,1239.70
817.819,1213.20
818.783,1210.73
819.748,1202.93
820.712,1213.47
821.677,1238.03
822.641,1174.63
823.605,1249.90
824.571,1245.07
825.534,1205.97
826.498,1233.73
827.462,1191.43
828.425,1182.07
829.389,1184.80
830.352,1207.07
831.315,1198.83
832.279,1184.27
833.242,1215.73
834.204,1181.30
835.167,1220.37
836.132,1192.93
837.095,1164.70
838.057,1137.63
839.020,1167.03
839.982,1208.20
840.944,1180.20
841.906,1191.50
842.868,1135.07
843.830,1185.53
844.792,1185.23
845.753,1175.43
846.715,1191.30
847.679,1178.60
848.640,1171.23
849.601,1175.40
850.562,1215.67
851.523,1184.20
852.484,1185.60
853.445,1142.00
854.406,1203.47
855.367,1150.17
856.327,1194.47
857.288,1164.80
858.248,1141.27
859.210,1187.57
860.170,1145.33
861.130,1130.63
862.090,1192.20
863.050,1214.90
864.010,1168.43
864.969,1173.53
865.929,1215.33
866.888,1174.70
867.848,1176.07
868.807,1156.23
869.766,1173.73
870.727,1164.30
871.686,1192.83
872.645,1166.83
873.604,1167.70
874.562,1154.30
875.521,1164.37
876.479,1160.37
877.437,1129.63
878.396,1147.37
879.354,1174.20
880.312,1160.57
881.270,1187.17
882.229,1102.53
883.187,1099.80
884.145,1158.83
885.102,1145.30
886.059,1140.93
887.017,1163.13
887.974,1186.13
888.931,1156.47
889.888,1137.93
890.845,1180.97
891.802,1167.93
892.758,1168.30
893.717,1168.97
894.673,1160.03
895.630,1175.07
896.586,1182.13
897.542,1143.60
898.498,1190.70
899.454,1177.97
900.410,1168.50
901.366,1180.80
902.321,1190.73
903.277,1165.90
904.232,1138.97
905.189,1193.50
906.145,1179.83
907.100,1197.37
908.055,1185.33
909.010,1168.00
909.965,1182.77
910.919,1228.27
911.874,1165.53
912.828,1173.90
913.783,1214.47
914.737,1197.50
915.693,1196.97
916.648,1149.63
917.602,1190.87
918.555,1202.80
919.509,1206.50
920.463,1193.33
921.417,1204.13
922.370,1202.47
923.324,1186.10
924.277,1169.30
925.230,1205.13
926.183,1207.63
927.138,1205.07
928.091,1187.83
929.044,1191.20
929.996,1205.37
930.949,1203.27
931.902,1201.40
932.854,1178.43
933.806,1226.90
934.758,1200.73
935.711,1167.57
936.663,1203.47
937.614,1207.87
938.568,1189.13
939.520,1192.97
940.471,1217.50
941.423,1219.93
942.374,1213.43
943.326,1187.00
944.277,1207.53
945.228,1160.30
946.179,1210.13
947.130,1180.70
948.080,1206.53
949.031,1163.73
949.984,1225.00
950.934,1191.40
951.884,1198.30
952.835,1207.73
953.785,1218.63
954.735,1187.77
955.685,1170.07
956.635,1161.60
957.585,1194.40
958.534,1233.73
959.484,1150.23
960.433,1178.07
961.383,1160.67
962.334,1153.57
963.283,1167.50
964.232,1206.23
965.181,1184.37
966.130,1202.33
967.079,1190.03
968.027,1208.77
968.976,1192.37
969.924,1187.37
970.873,1160.13
971.821,1165.30
972.769,1160.17
973.719,1195.33
974.667,1176.43
975.615,1168.13
976.562,1192.00
977.510,1166.00
978.458,1204.63
979.405,1175.00
980.352,1208.13
981.300,1181.37
982.247,1189.60
983.194,1145.03
984.141,1185.23
985.088,1203.40
986.036,1183.27
986.983,1191.00
987.930,1202.70
988.876,1192.43
989.822,1176.27
990.769,1215.40
991.715,1154.80
992.661,1174.43
993.607,1191.57
994.553,1153.67
995.498,1195.53
996.444,1120.93
997.389,1175.13
998.337,1153.03
999.282,1169.40
1000.227,1216.07
1001.173,1169.17
1002.118,1198.97
1003.062,1185.13
1004.007,1200.83
1004.952,1179.13
1005.897,1135.87
1006.841,1179.47
1007.786,1194.57
1008.730,1200.20
1009.674,1177.00
1010.618,1214.23
1011.564,1189.23
1012.508,1191.17
1013.452,1184.97
1014.396,1210.17
1015.339,1191.10
1016.283,1205.47
1017.226,1223.60
1018.170,1218.70
1019.113,1204.40
1020.056,1186.07
1020.999,1194.30
1021.942,1184.37
1022.885,1154.73
1023.828,1174.63
1024.770,1223.60
1025.715,1222.57
1026.657,1209.63
1027.600,1209.70
1028.542,1232.30
1029.484,1184.97
1030.426,1194.63
1031.368,1227.47
1032.310,1210.10
1033.251,1175.97
1034.193,1247.57
1035.135,1229.07
1036.076,1237.13
1037.017,1229.33
1037.959,1227.97
1038.900,1206.77
1039.843,1231.47
1040.784,1237.57
1041.725,1263.67
1042.665,1264.40
1043.606,1233.77
1044.547,1225.57
1045.487,1255.70
1046.427,1291.03
1047.368,1253.60
1048.308,1250.23
1049.248,1257.87
1050.188,1265.90
1051.128,1273.87
1052.067,1305.90
1053.007,1287.47
1053.947,1281.97
1054.886,1296.30
1055.827,1298.03
1056.766,1307.00
1057.706,1288.27
1058.645,1296.77
1059.584,1302.20
1060.522,1322.80
1061.461,1302.27
1062.400,1310.70
1063.338,1314.13
1064.277,1320.10
1065.215,1306.97
1066.154,1343.33
1067.092,1350.07
1068.030,1326.07
1068.968,1363.50
1069.906,1305.23
1070.843,1348.27
1071.781,1370.27
1072.720,1345.10
1073.658,1359.70
1074.595,1391.13
1075.533,1347.73
1076.470,1341.77
1077.407,1388.97
1078.344,1375.23
1079.281,1375.00
1080.217,1327.77
1081.154,1386.63
1082.091,1378.17
1083.027,1402.83
1083.964,1353.97
1084.900,1378.57
1085.836,1393.47
1086.772,1406.30
1087.708,1387.33
1088.644,1432.77
1089.580,1400.70
1090.515,1379.27
1091.451,1367.10
1092.388,1342.40
1093.324,1363.83
1094.259,1361.83
1095.194,1383.67
1096.129,1378.87
1097.064,1349.53
1097.999,1376.80
1098.934,1350.47
1099.869,1385.17
1100.803,1306.83
1101.738,1338.50
1102.672,1284.83
1103.607,1354.40
1104.541,1328.20
1105.475,1357.53
1106.409,1312.37
1107.343,1286.50
1108.277,1323.10
1109.210,1292.17
1110.144,1299.47
1111.078,1254.77
1112.011,1241.53
1112.944,1262.50
1113.878,1277.43
1114.811,1266.63
1115.744,1241.90
1116.678,1241.87
1117.611,1248.80
1118.544,1190.83
1119.477,1252.00
1120.409,1198.07
1121.342,1222.37
1122.274,1154.60
1123.206,1187.70
1124.138,1221.87
1125.070,1188.90
1126.002,1181.60
1126.934,1216.73
1127.866,1153.23
1128.798,1160.40
1129.729,1176.30
1130.661,1176.27
1131.592,1145.17
1132.523,1133.53
1133.454,1172.07
1134.385,1139.73
1135.317,1130.00
1136.247,1118.50
1137.178,1110.97
1138.109,1117.17
1139.039,1109.27
1139.970,1128.97
1140.900,1111.83
1141.831,1091.77
1142.761,1124.37
1143.691,1013.63
1144.621,1076.80
1145.551,1112.63
1146.480,1049.93
1147.410,1136.07
1148.340,1069.47
1149.269,1048.93
1150.199,1065.00
1151.128,1034.97
1152.057,1104.07
1152.979,1051.43
1153.898,1062.77
1154.819,1086.63
1155.739,1050.30
1156.658,1071.83
1157.579,1041.97
1158.498,1032.57
1159.419,1051.13
1160.338,1063.47
1161.256,1020.53
1162.177,1039.20
1163.095,1060.83
1164.016,1036.77
1164.934,1023.97
1165.852,971.00
1166.772,1047.40
1167.690,1037.50
1168.610,1001.37
1169.528,1018.60
1170.446,1021.10
1171.365,971.43
1172.283,1022.80
1173.202,1001.50
1174.120,1031.27
1175.037,996.87
1175.956,1024.87
1176.873,986.57
1177.792,968.77
1178.709,983.97
1179.626,1038.93
1180.544,1019.13
1181.461,998.93
1182.379,967.13
1183.296,1054.07
1184.212,973.73
1185.130,968.67
1186.046,976.30
1186.962,1012.17
1187.880,971.90
1188.796,1002.77
1189.714,983.23
1190.629,1010.53
1191.545,961.87
1192.462,952.57
1193.378,953.70
1194.295,980.57
1195.210,1016.63
1196.125,972.60
1197.042,984.23
1197.957,979.77
1198.872,1003.07
1199.788,956.27
1200.703,1019.80
1201.619,958.77
1202.534,997.67
1203.448,978.07
1204.364,974.77
1205.278,1002.47
1206.192,949.53
1207.108,989.43
1208.022,1002.53
1208.938,971.70
1209.851,1009.67
1210.765,966.77
1211.680,974.47
1212.594,992.50
1213.507,988.90
1214.422,1009.27
1215.335,1046.20
1216.248,1024.33
1217.163,982.17
1218.076,1011.77
1218.990,1029.33
1219.903,997.73
1220.816,985.87
1221.730,997.20
1222.642,995.80
1223.554,996.47
1224.469,991.57
1225.380,990.07
1226.292,1025.07
1227.206,967.40
1228.118,990.87
1229.032,999.67
1229.943,997.63
1230.855,1009.00
1231.768,1015.23
1232.679,988.37
1233.590,1018.03
1234.503,1002.23
1235.414,993.40
1236.325,1013.27
1237.238,1000.57
1238.149,987.13
1239.059,1000.07
1239.972,973.00
1240.882,995.10
1241.793,1016.93
1242.705,1066.27
1243.615,1011.17
1244.525,1041.80
1245.437,1021.40
1246.347,1060.23
1247.259,1012.97
1248.168,999.87
1249.078,1007.17
1249.989,1061.50
1250.899,992.13
1251.808,1013.43
1252.719,1017.87
1253.628,1013.27
1254.537,1019.33
1255.448,1054.10
1256.357,1020.90
1257.266,989.97
1258.176,1017.70
1259.085,1038.63
1259.993,1021.80
1260.904,1070.30
1261.812,1023.63
1262.720,1037.33
1263.630,1024.27
1264.538,1000.37
1265.446,1037.33
1266.356,1082.63
1267.263,1059.03
1268.171,997.00
1269.080,1004.60
1269.988,1041.67
1270.895,1069.93
1271.804,1059.30
1272.711,1032.23
1273.619,1006.40
1274.527,1044.80
1275.434,1015.23
1276.341,1025.87
1277.248,1031.73
1278.156,1027.00
1279.063,1030.97
1279.969,986.03
1280.877,1035.77
1281.783,988.33
1282.690,989.43
1283.598,1033.07
1284.503,1030.63
1285.409,1025.50
1286.317,1000.47
1287.223,996.53
1288.128,1010.17
1289.036,1020.57
1289.941,1028.23
1290.846,973.43
1291.751,999.23
1292.658,1044.37
1293.563,1019.57
1294.468,1000.47
1295.375,999.60
1296.280,1013.57
1297.184,936.20
1298.091,988.50
1298.995,987.17
1299.900,965.33
1300.806,951.10
1301.710,973.93
1302.614,983.17
1303.518,952.00
1304.424,983.60
1305.327,955.33
1306.231,972.60
1307.137,941.70
1308.040,951.43
1308.943,963.47
1309.847,983.70
1310.752,953.60
1311.655,971.17
1312.558,939.13
1313.463,929.43
1314.366,965.80
1315.269,918.90
1316.171,907.60
1317.076,873.80
1317.978,912.37
1318.881,908.90
1319.785,911.53
1320.687,856.07
1321.589,940.47
1322.491,868.87
1323.395,879.30
1324.297,897.00
1325.198,902.43
1326.102,940.50
1327.004,873.93
1327.905,891.50
1328.806,928.17
1329.709,894.03
1330.611,893.13
1331.512,900.23
1332.413,855.93
1333.316,858.20
1334.216,907.47
1335.117,873.60
1336.020,852.10
1336.920,881.27
1337.821,869.03
1338.721,865.70
1339.623,850.93
1340.523,817.80
1341.423,847.47
1342.323,869.87
1343.225,818.33
1344.125,812.47
1345.025,828.33
1345.924,836.23
1346.826,857.60
1347.725,817.23
1348.624,830.87
1349.524,822.00
1350.425,810.00
1351.324,786.37
1352.223,790.10
1353.121,816.67
1354.022,810.47
1354.921,823.90
1355.819,796.40
1356.718,776.67
1357.618,830.10
1358.516,787.97
1359.415,790.53
1360.313,820.87
1361.213,783.53
1362.111,758.47
1363.008,783.47
1363.906,838.40
1364.806,759.33
1365.703,824.33
1366.601,775.80
1367.498,771.93
1368.397,790.63
1369.295,781.80
1370.192,782.37
1371.089,763.30
1371.987,764.27
1372.884,757.57
1373.781,758.53
1374.678,749.50
1375.574,756.63
1376.473,729.00
1377.369,747.27
1378.265,723.23
1379.161,742.60
1380.059,727.57
1380.955,765.27
1381.851,704.40
1382.747,732.57
1383.643,761.27
1384.540,712.67
1385.436,721.30
1386.331,760.93
1387.227,738.93
1388.124,722.43
1389.019,719.53
1389.914,712.73
1390.809,713.00
1391.704,719.07
1392.601,722.37
1393.495,712.90
1394.390,712.20
1395.285,697.60
1396.179,724.30
1397.075,720.50
1397.969,716.43
1398.864,720.10
1399.758,696.50
1400.652,710.53
1401.547,669.10
1402.441,719.60
1403.335,672.47
1404.229,671.90
1405.122,719.77
1406.017,678.93
1406.911,693.97
1407.804,706.80
1408.697,692.13
1409.590,696.10
1410.485,692.10
1411.378,684.67
1412.271,712.37
1413.163,722.50
1414.056,703.47
1414.949,700.33
1415.843,667.47
1416.735,653.53
1417.627,700.60
1418.520,689.23
1419.412,650.03
1420.306,676.30
1421.197,696.33
1422.089,670.93
1422.981,674.63
1423.873,665.63
1424.764,688.40
1425.657,663.90
1426.549,647.60
1427.440,643.90
1428.331,688.83
1429.222,655.57
1430.113,644.17
1431.006,628.10
1431.897,654.60
1432.787,656.80
1433.678,680.97
1434.568,661.70
1435.459,626.23
1436.351,628.37
1437.241,620.57
1438.131,653.97
1439.021,640.63
1439.911,647.10
1440.801,622.00
1441.693,667.53
1442.583,678.67
1443.472,675.00
1444.362,678.73
1445.251,641.77
1446.140,627.83
1447.030,628.47
1447.921,667.87
1448.810,633.03
1449.699,603.70
1450.588,654.30
1451.476,611.00
1452.365,640.40
1453.254,616.47
1454.144,657.27
1455.032,641.20
1455.921,606.10
1456.809,617.43
1457.697,647.77
1458.585,592.20
1459.473,659.93
1460.361,622.27
1461.251,629.43
1462.138,663.03
1463.026,624.93
1463.913,620.37
1464.801,593.17
1465.688,608.13
1466.575,635.70
1467.463,636.27
1468.351,629.23
1469.238,617.50
1470.125,612.33
1471.012,615.53
1471.899,639.73
1472.785,593.63
1473.672,630.47
1474.558,624.20
1475.446,603.37
1476.333,606.27
1477.219,628.27
1478.105,648.67
1478.991,600.17
1479.877,601.10
1480.762,610.73
1481.648,572.63
1482.534,609.23
1483.419,624.23
1484.307,580.33
1485.192,598.90
1486.077,588.73
1486.962,610.30
1487.847,601.03
1488.732,564.30
1489.617,578.83
1490.502,595.07
1491.387,595.27
1492.271,595.50
1493.156,552.67
1494.042,540.07
1494.927,589.20
1495.811,572.93
1496.695,604.67
1497.579,567.03
1498.463,567.80
1499.347,564.27
1500.231,540.37
1501.114,580.23
1501.998,585.37
1502.881,592.03
1503.765,584.27
1504.648,588.00
1505.533,551.53
1506.417,536.53
1507.300,556.37
1508.183,598.20
1509.066,600.37
1509.948,541.80
1510.831,580.23
1511.714,529.40
1512.596,582.40
1513.479,596.03
1514.361,561.63
1515.243,594.07
1516.125,570.30
1517.008,580.50
1517.890,568.00
1518.771,581.37
1519.655,525.67
1520.537,567.00
1521.419,560.63
1522.300,593.10
1523.182,551.30
1524.063,541.27
1524.944,553.73
1525.825,571.83
1526.707,557.53
1527.588,536.53
1528.468,554.50
1529.349,566.90
1530.230,532.80
1531.111,522.33
1531.991,553.17
1532.872,546.10
1533.752,541.80
1534.632,541.23
1535.513,520.67
1536.393,561.10
1537.273,544.37
1538.153,579.03
1539.032,548.73
1539.912,544.17
1540.792,540.80
1541.672,564.93
1542.551,511.57
1543.430,501.17
1544.310,548.83
1545.189,519.13
1546.068,560.10
1546.947,562.23
1547.826,551.77
1548.705,509.90
1549.584,512.10
1550.462,548.27
1551.341,547.00
1552.219,547.03
1553.098,565.80
1553.976,474.77
1554.854,551.13
1555.733,568.27
1556.611,530.60
1557.489,531.67
1558.367,542.97
1559.244,535.57
1560.122,503.90
1561.000,500.90
1561.877,494.53
1562.755,528.10
1563.632,510.30
1564.509,522.37
1565.386,494.07
1566.264,532.80
1567.141,519.83
1568.017,507.03
1568.894,533.90
1569.771,518.73
1570.648,538.53
1571.524,518.07
1572.401,533.33
1573.277,505.13
1574.153,501.23
1575.029,504.60
1575.906,528.90
1576.781,475.03
1577.657,501.33
1578.533,496.03
1579.409,486.77
1580.285,533.17
1581.160,544.60
1582.036,490.40
1582.911,527.27
1583.786,512.33
1584.662,519.70
1585.537,506.43
1586.412,500.37
1587.287,483.70
1588.160,486.77
1589.035,509.07
1589.909,501.13
1590.784,475.47
1591.658,498.60
1592.533,508.73
1593.407,537.13
1594.281,493.00
1595.155,503.33
1596.029,477.37
1596.903,521.13
1597.777,488.57
1598.651,492.73
1599.525,479.47
1600.398,511.27
1601.272,480.70
1602.144,478.63
1603.017,460.53
1603.890,538.83
1604.763,483.77
1605.636,484.07
1606.509,517.80
1607.382,474.87
1608.255,436.03
1609.128,481.70
1610.000,472.77
1610.873,542.63
1611.746,487.63
1612.616,462.57
1613.488,552.17
1614.361,510.43
1615.233,459.30
1616.105,493.97
1616.977,476.97
1617.849,518.67
1618.720,487.97
1619.592,469.40
1620.464,459.47
1621.333,453.83
1622.205,464.33
1623.076,496.37
1623.947,484.47
1624.818,458.47
1625.689,484.93
1626.560,465.50
1627.431,506.53
1628.302,496.40
1629.171,457.83
1630.042,513.43
1630.912,478.10
1631.782,466.20
1632.653,486.53
1633.523,481.53
1634.393,493.23
1635.263,488.77
1636.131,459.97
1637.001,478.47
1637.871,468.40
1638.741,504.40
1639.611,446.80
1640.480,483.63
1641.350,500.67
1642.219,491.80
1643.087,485.53
1643.956,475.00
1644.825,499.30
1645.694,474.00
1646.563,500.87
1647.432,463.03
1648.299,452.50
1649.167,481.20
1650.036,473.23
1650.904,481.40
1651.773,485.37
1652.641,471.67
1653.509,440.40
1654.376,492.30
1655.244,490.73
1656.112,435.83
1656.980,498.60
1657.847,458.90
1658.715,477.57
1659.581,451.53
1660.448,510.57
1661.316,464.10
1662.183,474.70
1663.051,511.17
1663.918,486.57
1664.783,471.90
1665.650,479.77
1666.517,445.93
1667.384,470.77
1668.251,483.63
1669.115,471.43
1669.982,455.67
1670.849,445.17
1671.715,433.47
1672.581,446.47
1673.446,453.93
1674.312,461.13
1675.178,497.93
1676.044,479.57
1676.910,424.80
1677.774,485.57
1678.639,421.10
1679.505,426.90
1680.370,425.73
1681.236,476.43
1682.099,437.20
1682.965,418.70
1683.830,448.60
1684.695,451.10
1685.560,447.80
1686.423,416.10
1687.288,451.47
1688.153,432.40
1689.017,472.87
1689.880,464.43
1690.745,455.97
1691.609,479.53
1692.473,475.00
1693.338,471.83
1694.200,440.47
1695.064,435.67
1695.928,445.50
1696.792,420.00
1697.654,480.23
1698.517,476.63
1699.381,429.43
1700.245,469.87
1701.106,442.87
1701.969,434.50
1702.833,462.90
1703.696,465.27
1704.557,442.73
1705.420,418.70
1706.283,448.03
1707.146,460.47
1708.007,447.33
1708.870,446.70
1709.732,448.33
1710.595,454.40
1711.455,438.73
1712.318,451.63
1713.180,423.33
1714.040,465.07
1714.902,487.60
1715.764,464.27
1716.626,449.47
1717.486,452.23
1718.348,401.60
1719.209,464.90
1720.071,404.47
1720.930,453.37
1721.792,430.37
1722.653,491.47
1723.512,455.93
1724.374,426.00
1725.234,476.67
1726.095,416.80
1726.954,459.43
1727.815,466.70
1728.676,445.67
1729.535,412.10
1730.395,457.00
1731.256,446.47
1732.114,470.83
1732.974,433.47
1733.834,427.57
1734.693,462.97
1735.553,441.73
1736.413,422.43
1737.272,393.17
1738.130,426.87
1738.990,405.53
1739.849,428.90
1740.707,393.57
1741.566,453.27
1742.426,465.07
1743.283,464.33
1744.142,427.07
1745.001,449.00
1745.858,457.13
1746.717,436.07
1747.576,419.07
1748.433,482.90
1749.292,392.17
1750.150,442.20
1751.007,439.53
1751.865,453.70
1752.723,407.47
1753.579,438.43
1754.438,418.97
1755.296,388.30
1756.152,381.20
1757.010,440.57
1757.865,414.67
1758.723,421.43
1759.581,426.50
1760.436,425.20
1761.294,433.27
1762.151,409.93
1763.006,437.33
1763.864,430.27
1764.721,427.60
1765.576,408.40
1766.433,425.07
1767.288,375.53
1768.144,438.93
1769.001,462.53
1769.856,421.43
1770.712,372.83
1771.568,422.33
1772.423,414.50
1773.279,420.27
1774.133,426.07
1774.989,444.93
1775.845,428.03
1776.699,434.70
1777.555,423.27
1778.409,408.27
1779.265,399.50
1780.120,460.50
1780.974,406.23
1781.829,446.17
1782.682,407.83
1783.538,415.37
1784.393,434.37
1785.246,422.57
1786.101,420.70
1786.954,420.03
1787.808,480.37
1788.661,405.23
1789.516,426.37
1790.370,381.37
1791.223,445.60
1792.077,399.13
1792.930,419.10
1793.784,413.03
1794.636,399.93
1795.490,409.10
1796.344,446.23
1797.196,463.03
1798.049,369.67
1798.901,430.57
1799.755,392.97
1800.606,434.23
1801.460,437.93
1802.311,421.13
1803.165,395.33
1804.018,413.30
1804.869,385.37
1805.722,389.23
1806.573,400.53
1807.426,417.00
1808.276,421.87
1809.129,434.43
1809.980,408.43
1810.832,431.90
1811.683,419.20
1812.535,454.10
1813.385,411.63
1814.237,415.10
1815.089,404.80
1815.940,413.43
1816.791,395.80
1817.641,401.03
1818.493,415.47
1819.343,383.13
1820.194,392.27
1821.044,456.63
1821.895,375.90
1822.745,404.00
1823.596,377.90
1824.445,420.17
1825.296,408.57
1826.145,399.80
1826.996,449.73
1827.845,452.70
1828.695,384.33
1829.544,418.60
1830.395,417.00
1831.243,417.77
1832.094,428.57
1832.942,425.87
1833.792,430.27
1834.640,402.27
1835.490,428.23
1836.338,399.87
1837.186,414.70
1838.036,401.63
1838.884,370.83
1839.733,418.10
1840.581,418.03
1841.430,385.03
1842.278,339.87
1843.127,402.20
1843.974,434.50
1844.823,410.37
1845.671,379.50
1846.519,413.13
1847.366,430.83
1848.213,386.57
1849.062,393.30
1849.909,407.03
1850.757,404.97
1851.604,385.70
1852.452,465.13
1853.298,383.60
1854.146,393.83
1854.993,385.87
1855.839,434.67
1856.687,424.67
1857.532,418.53
1858.380,399.90
1859.226,387.83
1860.073,427.63
1860.919,466.73
1861.765,413.80
1862.612,435.80
1863.457,396.13
1864.304,387.53
1865.150,389.03
1865.995,424.97
1866.842,417.57
1867.686,433.83
1868.533,408.87
1869.378,395.47
1870.223,371.73
1871.069,401.43
1871.914,406.63
1872.760,423.23
1873.604,381.03
1874.448,405.57
1875.294,393.53
1876.139,408.83
1876.984,434.23
1877.828,417.20
1878.672,406.03
1879.518,388.07
1880.361,367.23
1881.205,371.20
1882.050,390.93
1882.894,375.03
1883.739,439.60
1884.582,392.33
1885.425,356.90
1886.270,395.50
1887.113,382.17
1887.956,398.47
1888.801,372.93
1889.644,411.03
1890.486,388.20
1891.331,423.53
1892.173,392.67
1893.017,376.97
1893.860,417.90
1894.702,357.90
1895.546,426.00
1896.388,415.97
1897.230,402.67
1898.074,379.90
1898.916,351.37
1899.757,401.57
1900.601,389.57
1901.443,375.13
1902.284,387.17
1903.125,369.83
1903.969,419.23
1904.810,389.37
1905.651,400.97
1906.494,411.47
1907.335,406.47
1908.176,411.80
1909.018,371.00
1909.859,364.60
1910.700,398.57
1911.542,407.47
1912.383,356.07
1913.223,384.57
1914.064,363.50
1914.906,372.70
1915.746,411.53
1916.586,396.03
1917.428,409.47
1918.268,379.47
1919.107,387.20
1919.947,396.97
1920.789,383.63
1921.628,333.90
1922.468,389.90
1923.309,399.93
1924.148,403.13
1924.988,367.33
1925.827,372.50
1926.667,387.97
1927.507,410.07
1928.345,384.30
1929.184,379.10
1930.025,371.53
1930.864,398.63
1931.702,417.67
1932.541,389.53
1933.381,404.03
1934.219,351.43
1935.057,384.37
1935.896,391.53
1936.735,357.37
1937.573,341.73
1938.411,412.20
1939.249,368.83
1940.089,365.07
1940.927,366.43
1941.764,380.47
1942.602,380.97
1943.439,382.93
1944.278,382.13
1945.115,394.17
1945.953,369.67
1946.790,364.90
1947.628,409.60
1948.465,400.47
1949.302,426.13
1950.139,362.90
1950.976,376.73
1951.814,388.90
1952.651,379.83
1953.487,356.40
1954.323,382.80
1955.160,381.60
1955.998,375.97
1956.834,348.33
1957.670,415.70
1958.506,407.83
1959.342,368.13
1960.177,308.60
1961.015,399.57
1961.850,416.10
1962.686,371.53
1963.521,366.33
1964.357,426.90
1965.192,402.60
1966.029,370.23
1966.864,350.90
1967.699,360.97
1968.534,400.83
1969.369,361.30
1970.204,369.77
1971.040,355.20
1971.875,329.10
1972.709,387.80
1973.544,384.03
1974.378,367.50
1975.212,392.33
1976.047,378.43
1976.882,360.67
1977.716,354.73
1978.550,368.80
1979.384,368.90
1980.218,394.20
1981.052,362.93
1981.885,356.87
1982.719,346.43
1983.554,367.00
1984.388,378.80
1985.221,396.67
1986.054,366.13
1986.887,390.97
1987.720,367.57
1988.553,350.50
1989.386,384.60
1990.219,326.53
1991.053,357.00
1991.886,385.73
1992.719,342.43
1993.551,354.80
1994.383,389.03
1995.216,380.27
1996.048,422.13
1996.880,406.87
1997.712,376.27
1998.544,356.53
1999.376,376.00
2000.208,371.57
2001.040,367.07
2001.873,361.53
2002.705,341.90
2003.536,414.50
2004.367,355.60
2005.199,330.50
2006.030,380.83
2006.861,389.13
2007.692,387.40
2008.523,362.00
2009.354,369.57
2010.185,383.07
2011.016,353.93
2011.846,335.70
2012.677,338.00
2013.507,381.17
2014.338,377.57
2015.168,380.57
2015.999,357.90
2016.829,381.30
2017.659,340.50
2018.489,366.50
2019.319,394.17
2020.149,385.70
2020.980,389.33
2021.810,367.10
2022.639,399.23
2023.469,330.23
2024.298,374.67
2025.128,373.43
2025.957,372.27
2026.786,361.03
2027.615,367.83
2028.444,352.27
2029.273,355.57
2030.102,373.73
2030.931,385.80
2031.758,379.03
2032.586,405.97
2033.415,362.07
2034.243,392.67
2035.072,405.60
2035.900,414.70
2036.728,391.90
2037.556,386.57
2038.385,397.13
2039.213,364.07
2040.040,368.27
2040.868,362.30
2041.696,356.40
2042.524,394.37
2043.351,366.33
2044.179,356.03
2045.006,374.90
2045.006,374.90

Max Intensity Wave.,217.871
Max Intensity Data,5511.90
Min Intensity Wave.,1960.177
Min Intensity Data,308.60
FWHM Wave.,385.565
FWHM Value,29.83
Pressure Wave.,684.671
Pressure Value [GPa],-24.91530
G/D Ratio,0.57852
G/D Gband Wave.,1555.568
G/D Gband Intensity,569.23
G/D Dband Wave.,1309.759
G/D Dband Intensity,983.94

<< BACKGROUND SPECTRUM >>
Wave[dcm-1],No11
146.591,2418.00
147.626,2239.00
148.664,2182.00
149.699,2702.00
150.737,2448.00
151.772,2549.00
152.809,2591.00
153.846,2448.00
154.881,2565.00
155.918,2104.00
156.953,2414.00
157.989,2787.00
159.026,2656.00
160.060,2831.00
161.096,3076.00
162.130,2689.00
163.167,2778.00
164.200,2617.00
165.236,2851.00
166.272,2873.00
167.305,2419.00
168.341,2761.00
169.374,3015.00
170.409,3003.00
171.445,2934.00
172.477,2722.00
173.512,2595.00
174.545,2867.00
175.580,3083.00
176.614,3296.00
177.647,3009.00
178.681,3287.00
179.713,3607.00
180.747,3047.00
181.781,2940.00
182.813,3218.00
183.847,3347.00
184.878,2943.00
185.912,3214.00
186.945,3400.00
187.976,3321.00
189.010,2887.00
190.043,3110.00
191.073,3161.00
192.106,2909.00
193.137,3434.00
194.170,2747.00
195.202,3125.00
196.232,2882.00
197.265,3226.00
198.297,3336.00
199.327,2942.00
200.359,3182.00
201.388,3592.00
202.420,3137.00
203.452,3344.00
204.481,2844.00
205.512,3609.00
206.544,3340.00
207.573,3331.00
208.604,3668.00
209.635,3800.00
210.663,3223.00
211.694,3173.00
212.725,3055.00
213.753,3025.00
214.783,3645.00
215.813,3470.00
216.841,3251.00
217.871,3435.00
218.899,3183.00
219.929,3343.00
220.959,3109.00
221.986,3390.00
223.016,2986.00
224.045,3378.00
225.072,3375.00
226.101,3475.00
227.130,3509.00
228.157,3065.00
229.185,2484.00
230.214,3446.00
231.241,3055.00
232.269,2671.00
233.297,2894.00
234.323,3508.00
235.351,3008.00
236.379,3370.00
237.407,2970.00
238.433,3184.00
239.460,3360.00
240.488,3368.00
241.513,3497.00
242.540,3332.00
243.568,3472.00
244.592,3501.00
245.619,3448.00
246.646,3174.00
247.671,3196.00
248.697,3037.00
249.724,3255.00
250.748,3248.00
251.774,3245.00
252.801,3581.00
253.827,3366.00
254.850,3302.00
255.876,2920.00
256.902,3398.00
257.925,3190.00
258.951,2937.00
259.976,3005.00
260.999,3349.00
262.024,3044.00
263.049,3912.00
264.074,3370.00
265.097,3263.00
266.122,3331.00
267.146,3264.00
268.168,3472.00
269.193,3116.00
270.217,3474.00
271.241,2899.00
272.263,3125.00
273.287,3453.00
274.311,3009.00
275.332,3533.00
276.356,3086.00
277.379,3331.00
278.402,3395.00
279.424,3183.00
280.447,3158.00
281.470,2928.00
282.492,3326.00
283.513,3127.00
284.536,3446.00
285.558,3392.00
286.581,3377.00
287.601,3109.00
288.623,3055.00
289.645,3312.00
290.665,3389.00
291.687,3359.00
292.709,3355.00
293.730,3694.00
294.750,3124.00
295.771,2986.00
296.792,3318.00
297.813,3158.00
298.832,3304.00
299.853,2960.00
300.874,3264.00
301.895,3209.00
302.913,3228.00
303.934,3608.00
304.954,3305.00
305.975,4609.00
306.993,2971.00
308.013,3392.00
309.033,3193.00
310.052,3198.00
311.072,3115.00
312.090,3259.00
313.109,3556.00
314.129,3695.00
315.148,3240.00
316.165,3298.00
317.184,3495.00
318.203,2960.00
319.222,2979.00
320.238,3376.00
321.257,3013.00
322.275,2862.00
323.294,3225.00
324.312,3442.00
325.328,3561.00
326.346,3546.00
327.364,3472.00
328.382,3406.00
329.397,3421.00
330.415,3482.00
331.432,3452.00
332.450,3541.00
333.467,3709.00
334.482,2738.00
335.499,3656.00
336.516,3097.00
337.533,2774.00
338.547,3079.00
339.564,3041.00
340.580,3337.00
341.597,3182.00
342.613,3801.00
343.627,3206.00
344.643,3234.00
345.659,3354.00
346.675,3256.00
347.690,3123.00
348.704,3348.00
349.719,3133.00
350.735,2941.00
351.750,3457.00
352.765,3234.00
353.778,3252.00
354.793,3419.00
355.808,3055.00
356.822,3459.00
357.837,2845.00
358.851,3569.00
359.864,3166.00
360.878,2926.00
361.892,3159.00
362.906,3423.00
363.920,2810.00
364.932,3325.00
365.945,3345.00
366.959,3195.00
367.972,3175.00
368.986,2932.00
369.999,3690.00
371.010,3054.00
372.023,3623.00
373.036,3190.00
374.049,3645.00
375.061,3297.00
376.072,3224.00
377.084,3127.00
378.097,2896.00
379.109,3403.00
380.121,3223.00
381.133,2900.00
382.143,3403.00
383.155,2957.00
384.166,3106.00
385.178,3386.00
386.189,3508.00
387.201,2922.00
388.212,3126.00
389.221,3145.00
390.232,3276.00
391.243,3156.00
392.254,3301.00
393.264,3056.00
394.275,3467.00
395.283,3460.00
396.294,3917.00
397.304,3751.00
398.314,3345.00
399.324,3279.00
400.334,2845.00
401.344,3402.00
402.351,2827.00
403.361,3458.00
404.370,3194.00
405.380,3099.00
406.389,3605.00
407.398,3354.00
408.407,3365.00
409.414,3396.00
410.423,3631.00
411.431,3002.00
412.440,2853.00
413.448,3602.00
414.457,3052.00
415.465,3026.00
416.471,3089.00
417.479,3254.00
418.487,3045.00
419.495,3561.00
420.503,3337.00
421.510,2803.00
422.518,3393.00
423.525,3407.00
424.530,3687.00
425.537,3107.00
426.544,3558.00
427.551,3075.00
428.558,3866.00
429.565,3759.00
430.571,3083.00
431.578,3108.00
432.582,3110.00
433.588,3165.00
434.595,2847.00
435.601,3562.00
436.607,3524.00
437.612,2993.00
438.618,3595.00
439.624,3191.00
440.627,3188.00
441.633,3341.00
442.638,3942.00
443.643,3366.00
444.648,3267.00
445.653,3432.00
446.658,3118.00
447.663,3277.00
448.667,3104.00
449.672,3126.00
450.674,3193.00
451.678,2897.00
452.682,3106.00
453.687,3032.00
454.690,3945.00
455.694,3562.00
456.698,2755.00
457.702,2876.00
458.705,2976.00
459.709,3039.00
460.710,3053.00
461.713,3275.00
462.716,3281.00
463.719,3257.00
464.722,3415.00
465.725,3242.00
466.727,3011.00
467.730,3242.00
468.732,2963.00
469.735,3543.00
470.737,3169.00
471.737,3142.00
472.739,3105.00
473.741,2994.00
474.742,3267.00
475.744,3355.00
476.746,3236.00
477.747,3174.00
478.748,3412.00
479.750,3178.00
480.751,3231.00
481.752,4044.00
482.753,3317.00
483.751,3876.00
484.752,2820.00
485.753,3211.00
486.753,3060.00
487.753,3226.00
488.754,3673.00
489.754,2880.00
490.754,3551.00
491.754,3369.00
492.754,2905.00
493.753,3251.00
494.753,3133.00
495.752,3547.00
496.752,3302.00
497.749,3243.00
498.748,3086.00
499.747,3690.00
500.746,3327.00
501.745,2985.00
502.744,3007.00
503.742,3624.00
504.741,3192.00
505.739,2643.00
506.737,3099.00
507.735,3434.00
508.734,3620.00
509.732,3392.00
510.729,3630.00
511.727,3115.00
512.725,3161.00
513.720,2972.00
514.718,3508.00
515.715,2893.00
516.712,2810.00
517.709,3222.00
518.706,3105.00
519.703,3292.00
520.700,3446.00
521.696,3616.00
522.693,3120.00
523.689,3071.00
524.686,3385.00
525.682,2984.00
526.678,3741.00
527.674,3157.00
528.670,2779.00
529.666,3778.00
530.661,3729.00
531.657,3859.00
532.652,3443.00
533.648,3250.00
534.641,3492.00
535.636,3326.00
536.631,3350.00
537.626,3402.00
538.621,2965.00
539.616,2797.00
540.610,2676.00
541.605,3244.00
542.599,3228.00
543.593,3246.00
544.587,4227.00
545.581,3077.00
546.575,3273.00
547.569,3276.00
548.563,2897.00
549.557,2843.00
550.550,2951.00
551.543,2955.00
552.537,3401.00
553.530,3007.00
554.523,2938.00
555.516,3387.00
556.509,3195.00
557.502,2866.00
558.494,3466.00
559.487,3112.00
560.479,3395.00
561.472,3451.00
562.464,3373.00
563.456,3561.00
564.448,3193.00
565.440,3238.00
566.432,3662.00
567.423,3098.00
568.415,3115.00
569.404,3354.00
570.396,3012.00
571.387,3381.00
572.378,3233.00
573.369,4246.00
574.360,3957.00
575.351,3157.00
576.341,3038.00
577.332,3075.00
578.323,2925.00
579.313,3067.00
580.303,3495.00
581.293,3405.00
582.283,3206.00
583.273,3410.00
584.263,3210.00
585.253,3290.00
586.243,3406.00
587.232,2828.00
588.222,3188.00
589.211,3432.00
590.200,3281.00
591.189,3229.00
592.178,3209.00
593.167,3685.00
594.156,3524.00
595.145,3126.00
596.133,3679.00
597.122,3350.00
598.110,3411.00
599.098,3285.00
600.086,3216.00
601.074,3438.00
602.062,3073.00
603.050,2950.00
604.038,3394.00
605.025,2993.00
606.013,3460.00
607.000,3623.00
607.987,3240.00
608.975,3325.00
609.962,2974.00
610.949,3361.00
611.936,3490.00
612.922,3425.00
613.909,2846.00
614.895,3668.00
615.882,3051.00
616.868,3224.00
617.854,2986.00
618.841,3240.00
619.826,3321.00
620.812,3234.00
621.798,3001.00
622.784,3429.00
623.769,3364.00
624.755,2922.00
625.740,3300.00
626.725,2930.00
627.711,3063.00
628.698,3317.00
629.683,2968.00
630.667,3448.00
631.652,2969.00
632.637,3135.00
633.621,3382.00
634.606,3156.00
635.590,3345.00
636.574,3191.00
637.558,3302.00
638.542,3316.00
639.526,3032.00
640.510,2822.00
641.493,3267.00
642.477,3245.00
643.460,2853.00
644.444,3477.00
645.427,3468.00
646.410,2831.00
647.393,3195.00
648.376,3315.00
649.359,3110.00
650.341,3348.00
651.324,3326.00
652.307,3258.00
653.289,3146.00
654.271,3061.00
655.253,3101.00
656.235,3376.00
657.217,3513.00
658.199,2812.00
659.181,2951.00
660.163,3223.00
661.144,3088.00
662.126,3118.00
663.107,2980.00
664.088,5083.00
665.069,3479.00
666.050,3040.00
667.033,2937.00
668.014,3305.00
668.995,2750.00
669.975,3194.00
670.956,3217.00
671.936,3390.00
672.916,3178.00
673.896,3316.00
674.876,3149.00
675.856,3095.00
676.836,2921.00
677.816,2496.00
678.795,3033.00
679.775,2919.00
680.754,3247.00
681.734,3347.00
682.713,3420.00
683.692,2959.00
684.671,2815.00
685.650,2935.00
686.629,3026.00
687.607,2940.00
688.586,2987.00
689.564,3058.00
690.543,3535.00
691.523,2541.00
692.501,3020.00
693.479,3130.00
694.457,2964.00
695.435,3086.00
696.413,2859.00
697.390,2689.00
698.368,2865.00
699.345,3325.00
700.322,3173.00
701.300,3259.00
702.277,3210.00
703.254,3475.00
704.231,2727.00
705.207,3198.00
706.184,2947.00
707.161,2836.00
708.137,3022.00
709.113,3007.00
710.090,2968.00
711.068,2747.00
712.044,2808.00
713.020,3116.00
713.996,2782.00
714.971,3008.00
715.947,3066.00
716.922,3009.00
717.898,2945.00
718.873,3101.00
719.848,2944.00
720.823,2873.00
721.798,3235.00
722.773,2926.00
723.748,2715.00
724.723,3237.00
725.697,3058.00
726.672,2942.00
727.646,2729.00
728.622,3238.00
729.596,2787.00
730.570,2949.00
731.544,3285.00
732.518,3506.00
733.492,3045.00
734.466,3074.00
735.439,3206.00
736.413,3338.00
737.386,2609.00
738.359,2583.00
739.332,2717.00
740.305,3044.00
741.278,3561.00
742.251,3151.00
743.224,2898.00
744.196,2726.00
745.171,3373.00
746.143,3258.00
747.115,2943.00
748.087,2921.00
749.059,3328.00
750.031,3138.00
751.003,3956.00
751.975,3474.00
752.947,2931.00
753.918,3336.00
754.890,2780.00
755.861,2941.00
756.832,3305.00
757.803,3030.00
758.774,3004.00
759.747,2768.00
760.718,3463.00
761.689,2910.00
762.659,2812.00
763.630,3381.00
764.600,2717.00
765.570,3274.00
766.540,3321.00
767.510,3120.00
768.480,3255.00
769.450,2943.00
770.420,3005.00
771.390,2795.00
772.359,2977.00
773.329,2846.00
774.300,2662.00
775.269,2990.00
776.238,3199.00
777.207,3414.00
778.176,2681.00
779.145,2996.00
780.114,2864.00
781.083,2739.00
782.051,2969.00
783.019,2863.00
783.988,3304.00
784.956,3049.00
785.924,3226.00
786.894,3079.00
787.862,2887.00
788.830,3384.00
789.797,2794.00
790.765,2769.00
791.732,2939.00
792.700,2842.00
793.667,2781.00
794.634,2945.00
795.601,2914.00
796.568,2979.00
797.535,3048.00
798.502,3707.00
799.468,3130.00
800.437,2572.00
801.403,2886.00
802.370,3508.00
803.336,3239.00
804.302,3065.00
805.268,2596.00
806.234,2705.00
807.200,2905.00
808.166,2943.00
809.131,2735.00
810.097,3176.00
811.062,3951.00
812.027,3219.00
812.994,2783.00
813.960,2810.00
814.925,3177.00
815.889,2695.00
816.854,3223.00
817.819,2827.00
818.783,2921.00
819.748,3334.00
820.712,2931.00
821.677,2782.00
822.641,2930.00
823.605,2870.00
824.571,3349.00
825.534,2943.00
826.498,2833.00
827.462,3013.00
828.425,2821.00
829.389,3286.00
830.352,2995.00
831.315,3111.00
832.279,2690.00
833.242,2935.00
834.204,2852.00
835.167,2790.00
836.132,3271.00
837.095,2708.00
838.057,2919.00
839.020,3029.00
839.982,3028.00
840.944,2867.00
841.906,2817.00
842.868,3214.00
843.830,2702.00
844.792,3265.00
845.753,2867.00
846.715,2599.00
847.679,2768.00
848.640,2797.00
849.601,2943.00
850.562,3446.00
851.523,2879.00
852.484,2645.00
853.445,3223.00
854.406,2867.00
855.367,2921.00
856.327,3242.00
857.288,2671.00
858.248,2898.00
859.210,2863.00
860.170,2711.00
861.130,3257.00
862.090,2555.00
863.050,2745.00
864.010,2862.00
864.969,3091.00
865.929,2727.00
866.888,2691.00
867.848,3022.00
868.807,2829.00
869.766,3043.00
870.727,2922.00
871.686,3174.00
872.645,3201.00
873.604,3526.00
874.562,2963.00
875.521,2993.00
876.479,3604.00
877.437,2803.00
878.396,2789.00
879.354,3366.00
880.312,2794.00
881.270,2825.00
882.229,3391.00
883.187,2858.00
884.145,2865.00
885.102,3157.00
886.059,3038.00
887.017,3119.00
887.974,3144.00
888.931,3294.00
889.888,2711.00
890.845,2588.00
891.802,2495.00
892.758,2837.00
893.717,2600.00
894.673,2754.00
895.630,2804.00
896.586,3086.00
897.542,2895.00
898.498,2680.00
899.454,3044.00
900.410,2872.00
901.366,2836.00
902.321,2782.00
903.277,2889.00
904.232,2977.00
905.189,2640.00
906.145,2825.00
907.100,2344.00
908.055,2890.00
909.010,3151.00
909.965,2497.00
910.919,2954.00
911.874,2760.00
912.828,2968.00
913.783,2938.00
914.737,2499.00
915.693,2948.00
916.648,3128.00
917.602,3152.00
918.555,2965.00
919.509,3027.00
920.463,2949.00
921.417,2945.00
922.370,2716.00
923.324,2870.00
924.277,2874.00
925.230,2939.00
926.183,2559.00
927.138,2868.00
928.091,3153.00
929.044,3020.00
929.996,2834.00
930.949,2834.00
931.902,3029.00
932.854,3042.00
933.806,2744.00
934.758,3180.00
935.711,3237.00
936.663,2955.00
937.614,2997.00
938.568,2949.00
939.520,2564.00
940.471,2886.00
941.423,2962.00
942.374,3086.00
943.326,2958.00
944.277,2764.00
945.228,3080.00
946.179,2869.00
947.130,3261.00
948.080,2829.00
949.031,2765.00
949.984,2837.00
950.934,2898.00
951.884,2639.00
952.835,2886.00
953.785,2923.00
954.735,2786.00
955.685,2532.00
956.635,2818.00
957.585,2809.00
958.534,2767.00
959.484,2960.00
960.433,2781.00
961.383,2649.00
962.334,3186.00
963.283,2970.00
964.232,3028.00
965.181,2895.00
966.130,2963.00
967.079,2789.00
968.027,2888.00
968.976,2896.00
969.924,2779.00
970.873,3010.00
971.821,2934.00
972.769,3153.00
973.719,3032.00
974.667,2647.00
975.615,2909.00
976.562,2897.00
977.510,2603.00
978.458,2764.00
979.405,3026.00
980.352,2918.00
981.300,3178.00
982.247,2974.00
983.194,2741.00
984.141,2792.00
985.088,2884.00
986.036,2948.00
986.983,3201.00
987.930,3323.00
988.876,2504.00
989.822,3165.00
990.769,2685.00
991.715,2803.00
992.661,2594.00
993.607,2981.00
994.553,3526.00
995.498,2743.00
996.444,2487.00
997.389,2961.00
998.337,2727.00
999.282,3069.00
1000.227,2799.00
1001.173,2875.00
1002.118,2586.00
1003.062,3094.00
1004.007,2842.00
1004.952,3203.00
1005.897,3195.00
1006.841,2888.00
1007.786,2604.00
1008.730,2572.00
1009.674,3395.00
1010.618,2802.00
1011.564,2664.00
1012.508,2528.00
1013.452,3136.00
1014.396,2890.00
1015.339,2792.00
1016.283,2849.00
1017.226,2896.00
1018.170,2865.00
1019.113,3073.00
1020.056,2928.00
1020.999,2899.00
1021.942,2769.00
1022.885,3090.00
1023.828,3227.00
1024.770,2649.00
1025.715,2927.00
1026.657,2866.00
1027.600,2932.00
1028.542,3099.00
1029.484,2962.00
1030.426,3067.00
1031.368,2968.00
1032.310,2749.00
1033.251,2743.00
1034.193,2857.00
1035.135,2646.00
1036.076,2792.00
1037.017,2710.00
1037.959,3027.00
1038.900,2975.00
1039.843,2984.00
1040.784,2936.00
1041.725,2965.00
1042.665,2774.00
1043.606,2959.00
1044.547,2949.00
1045.487,2520.00
1046.427,2822.00
1047.368,2969.00
1048.308,2394.00
1049.248,2686.00
1050.188,2892.00
1051.128,2785.00
1052.067,2826.00
1053.007,2549.00
1053.947,2541.00
1054.886,2725.00
1055.827,2651.00
1056.766,3145.00
1057.706,2627.00
1058.645,2830.00
1059.584,2938.00
1060.522,3170.00
1061.461,2618.00
1062.400,2646.00
1063.338,2817.00
1064.277,2677.00
1065.215,2696.00
1066.154,2536.00
1067.092,2741.00
1068.030,2826.00
1068.968,3027.00
1069.906,3264.00
1070.843,3136.00
1071.781,2902.00
1072.720,3013.00
1073.658,3007.00
1074.595,2752.00
1075.533,2732.00
1076.470,2777.00
1077.407,3162.00
1078.344,2942.00
1079.281,2985.00
1080.217,2484.00
1081.154,2822.00
1082.091,2912.00
1083.027,2589.00
1083.964,3159.00
1084.900,2725.00
1085.836,2768.00
1086.772,3045.00
1087.708,2611.00
1088.644,2971.00
1089.580,2842.00
1090.515,2917.00
1091.451,2774.00
1092.388,2926.00
1093.324,2610.00
1094.259,3469.00
1095.194,2911.00
1096.129,2760.00
1097.064,2749.00
1097.999,2968.00
1098.934,2691.00
1099.869,2663.00
1100.803,2921.00
1101.738,2874.00
1102.672,2593.00
1103.607,2978.00
1104.541,2715.00
1105.475,2666.00
1106.409,2576.00
1107.343,2787.00
1108.277,2572.00
1109.210,2871.00
1110.144,2833.00
1111.078,2868.00
1112.011,2631.00
1112.944,2944.00
1113.878,2890.00
1114.811,2310.00
1115.744,2749.00
1116.678,2463.00
1117.611,2732.00
1118.544,2797.00
1119.477,2904.00
1120.409,2738.00
1121.342,3342.00
1122.274,2976.00
1123.206,3262.00
1124.138,2828.00
1125.070,3173.00
1126.002,3040.00
1126.934,2401.00
1127.866,2745.00
1128.798,2469.00
1129.729,2526.00
1130.661,2813.00
1131.592,2742.00
1132.523,2934.00
1133.454,2911.00
1134.385,2425.00
1135.317,2826.00
1136.247,2764.00
1137.178,3056.00
1138.109,2519.00
1139.039,3210.00
1139.970,2996.00
1140.900,2740.00
1141.831,2520.00
1142.761,2363.00
1143.691,3529.00
1144.621,2841.00
1145.551,2852.00
1146.480,2908.00
1147.410,2990.00
1148.340,2454.00
1149.269,2551.00
1150.199,2768.00
1151.128,3284.00
1152.057,2565.00
1152.979,2765.00
1153.898,2778.00
1154.819,2880.00
1155.739,2812.00
1156.658,2698.00
1157.579,2862.00
1158.498,2829.00
1159.419,2305.00
1160.338,2837.00
1161.256,2897.00
1162.177,2656.00
1163.095,2766.00
1164.016,2874.00
1164.934,3095.00
1165.852,3058.00
1166.772,2768.00
1167.690,2805.00
1168.610,2889.00
1169.528,2819.00
1170.446,2328.00
1171.365,2752.00
1172.283,2671.00
1173.202,2803.00
1174.120,2823.00
1175.037,2657.00
1175.956,2597.00
1176.873,2674.00
1177.792,2726.00
1178.709,3330.00
1179.626,2643.00
1180.544,3015.00
1181.461,2668.00
1182.379,2925.00
1183.296,2741.00
1184.212,2430.00
1185.130,2666.00
1186.046,3176.00
1186.962,2771.00
1187.880,3122.00
1188.796,2841.00
1189.714,2596.00
1190.629,2924.00
1191.545,2891.00
1192.462,2768.00
1193.378,2799.00
1194.295,2496.00
1195.210,2792.00
1196.125,2967.00
1197.042,2888.00
1197.957,2806.00
1198.872,2653.00
1199.788,2721.00
1200.703,3115.00
1201.619,2844.00
1202.534,2653.00
1203.448,2907.00
1204.364,2755.00
1205.278,2427.00
1206.192,2881.00
1207.108,3334.00
1208.022,3166.00
1208.938,2646.00
1209.851,2946.00
1210.765,3055.00
1211.680,2700.00
1212.594,2557.00
1213.507,2740.00
1214.422,3204.00
1215.335,2874.00
1216.248,2700.00
1217.163,2815.00
1218.076,3421.00
1218.990,2888.00
1219.903,2572.00
1220.816,2624.00
1221.730,2758.00
1222.642,2666.00
1223.554,2708.00
1224.469,2889.00
1225.380,2748.00
1226.292,2404.00
1227.206,2957.00
1228.118,3156.00
1229.032,2406.00
1229.943,2656.00
1230.855,2737.00
1231.768,2523.00
1232.679,2925.00
1233.590,2757.00
1234.503,3036.00
1235.414,2659.00
1236.325,2650.00
1237.238,2895.00
1238.149,2922.00
1239.059,2613.00
1239.972,3031.00
1240.882,2612.00
1241.793,2942.00
1242.705,3124.00
1243.615,2759.00
1244.525,2863.00
1245.437,2333.00
1246.347,2816.00
1247.259,2993.00
1248.168,3278.00
1249.078,3075.00
1249.989,3051.00
1250.899,2617.00
1251.808,2670.00
1252.719,2732.00
1253.628,2663.00
1254.537,3210.00
1255.448,2594.00
1256.357,2625.00
1257.266,2849.00
1258.176,2518.00
1259.085,2476.00
1259.993,2605.00
1260.904,2583.00
1261.812,2614.00
1262.720,3353.00
1263.630,3000.00
1264.538,2647.00
1265.446,2906.00
1266.356,2716.00
1267.263,3071.00
1268.171,2620.00
1269.080,2899.00
1269.988,2973.00
1270.895,2669.00
1271.804,2731.00
1272.711,2993.00
1273.619,2987.00
1274.527,2586.00
1275.434,2930.00
1276.341,2583.00
1277.248,2831.00
1278.156,3107.00
1279.063,2645.00
1279.969,2945.00
1280.877,3734.00
1281.783,3038.00
1282.690,2899.00
1283.598,2750.00
1284.503,2627.00
1285.409,2601.00
1286.317,3193.00
1287.223,3247.00
1288.128,2860.00
1289.036,2674.00
1289.941,2707.00
1290.846,2835.00
1291.751,2594.00
1292.658,2673.00
1293.563,3253.00
1294.468,2814.00
1295.375,2967.00
1296.280,3041.00
1297.184,3611.00
1298.091,2894.00
1298.995,2973.00
1299.900,3223.00
1300.806,2714.00
1301.710,2531.00
1302.614,2337.00
1303.518,3083.00
1304.424,2726.00
1305.327,3009.00
1306.231,2778.00
1307.137,2974.00
1308.040,2875.00
1308.943,2824.00
1309.847,3002.00
1310.752,2996.00
1311.655,2417.00
1312.558,2566.00
1313.463,2740.00
1314.366,2644.00
1315.269,2856.00
1316.171,2790.00
1317.076,2733.00
1317.978,2600.00
1318.881,2388.00
1319.785,2645.00
1320.687,2709.00
1321.589,2346.00
1322.491,2649.00
1323.395,2912.00
1324.297,3410.00
1325.198,2939.00
1326.102,2552.00
1327.004,2627.00
1327.905,3221.00
1328.806,2725.00
1329.709,2874.00
1330.611,2713.00
1331.512,2598.00
1332.413,3295.00
1333.316,2878.00
1334.216,2952.00
1335.117,2530.00
1336.020,2849.00
1336.920,2795.00
1337.821,2637.00
1338.721,3072.00
1339.623,2869.00
1340.523,2790.00
1341.423,2659.00
1342.323,3067.00
1343.225,2920.00
1344.125,2642.00
1345.025,2681.00
1345.924,2431.00
1346.826,3155.00
1347.725,3261.00
1348.624,3040.00
1349.524,2655.00
1350.425,2771.00
1351.324,2930.00
1352.223,3018.00
1353.121,2773.00
1354.022,3019.00
1354.921,3210.00
1355.819,2928.00
1356.718,2880.00
1357.618,2507.00
1358.516,2938.00
1359.415,3228.00
1360.313,2877.00
1361.213,2769.00
1362.111,3146.00
1363.008,3516.00
1363.906,2737.00
1364.806,2838.00
1365.703,2863.00
1366.601,2612.00
1367.498,2640.00
1368.397,2979.00
1369.295,2844.00
1370.192,2602.00
1371.089,2904.00
1371.987,2788.00
1372.884,3106.00
1373.781,2585.00
1374.678,2825.00
1375.574,2632.00
1376.473,2961.00
1377.369,3048.00
1378.265,2659.00
1379.161,2770.00
1380.059,2492.00
1380.955,2902.00
1381.851,2601.00
1382.747,2682.00
1383.643,2712.00
1384.540,2608.00
1385.436,2709.00
1386.331,2842.00
1387.227,2965.00
1388.124,2929.00
1389.019,2597.00
1389.914,2794.00
1390.809,2425.00
1391.704,3250.00
1392.601,2703.00
1393.495,3118.00
1394.390,2985.00
1395.285,3078.00
1396.179,2880.00
1397.075,2767.00
1397.969,2853.00
1398.864,2466.00
1399.758,2768.00
1400.652,2829.00
1401.547,2639.00
1402.441,2551.00
1403.335,3216.00
1404.229,2869.00
1405.122,2862.00
1406.017,2803.00
1406.911,2962.00
1407.804,3236.00
1408.697,2798.00
1409.590,2612.00
1410.485,2982.00
1411.378,2884.00
1412.271,2457.00
1413.163,2844.00
1414.056,2961.00
1414.949,3209.00
1415.843,2869.00
1416.735,2795.00
1417.627,2808.00
1418.520,2770.00
1419.412,3083.00
1420.306,2982.00
1421.197,3095.00
1422.089,3048.00
1422.981,3308.00
1423.873,3003.00
1424.764,2916.00
1425.657,2859.00
1426.549,2981.00
1427.440,3057.00
1428.331,2691.00
1429.222,2496.00
1430.113,2886.00
1431.006,3046.00
1431.897,2715.00
1432.787,2831.00
1433.678,2721.00
1434.568,2613.00
1435.459,3088.00
1436.351,3043.00
1437.241,2999.00
1438.131,2982.00
1439.021,2563.00
1439.911,2788.00
1440.801,2915.00
1441.693,3043.00
1442.583,2825.00
1443.472,2791.00
1444.362,2920.00
1445.251,2762.00
1446.140,2747.00
1447.030,3039.00
1447.921,3010.00
1448.810,2633.00
1449.699,3249.00
1450.588,2842.00
1451.476,2750.00
1452.365,2944.00
1453.254,2735.00
1454.144,2674.00
1455.032,2956.00
1455.921,2565.00
1456.809,3152.00
1457.697,2587.00
1458.585,2793.00
1459.473,2740.00
1460.361,2638.00
1461.251,2909.00
1462.138,2871.00
1463.026,2786.00
1463.913,3073.00
1464.801,2753.00
1465.688,2938.00
1466.575,2842.00
1467.463,3296.00
1468.351,2654.00
1469.238,2790.00
1470.125,2405.00
1471.012,2884.00
1471.899,2892.00
1472.785,2648.00
1473.672,2809.00
1474.558,3047.00
1475.446,2992.00
1476.333,3004.00
1477.219,2600.00
1478.105,2750.00
1478.991,2783.00
1479.877,3148.00
1480.762,2808.00
1481.648,2696.00
1482.534,2969.00
1483.419,2878.00
1484.307,2964.00
1485.192,2804.00
1486.077,2672.00
1486.962,2666.00
1487.847,2549.00
1488.732,2677.00
1489.617,2849.00
1490.502,3116.00
1491.387,2968.00
1492.271,2631.00
1493.156,2687.00
1494.042,2663.00
1494.927,3048.00
1495.811,2721.00
1496.695,2955.00
1497.579,3163.00
1498.463,2838.00
1499.347,2900.00
1500.231,2886.00
1501.114,2894.00
1501.998,3111.00
1502.881,2853.00
1503.765,3133.00
1504.648,3257.00
1505.533,2968.00
1506.417,2882.00
1507.300,2802.00
1508.183,2887.00
1509.066,2259.00
1509.948,3120.00
1510.831,3209.00
1511.714,2653.00
1512.596,2967.00
1513.479,3078.00
1514.361,3057.00
1515.243,2835.00
1516.125,3006.00
1517.008,3106.00
1517.890,2789.00
1518.771,2854.00
1519.655,3086.00
1520.537,2776.00
1521.419,2653.00
1522.300,2851.00
1523.182,2989.00
1524.063,3009.00
1524.944,3153.00
1525.825,3035.00
1526.707,2639.00
1527.588,2618.00
1528.468,2926.00
1529.349,2458.00
1530.230,2778.00
1531.111,3050.00
1531.991,2893.00
1532.872,2528.00
1533.752,2820.00
1534.632,2697.00
1535.513,2721.00
1536.393,2994.00
1537.273,3173.00
1538.153,3504.00
1539.032,2563.00
1539.912,2823.00
1540.792,2849.00
1541.672,2850.00
1542.551,2988.00
1543.430,3511.00
1544.310,2866.00
1545.189,2750.00
1546.068,3273.00
1546.947,2928.00
1547.826,3170.00
1548.705,2857.00
1549.584,3109.00
1550.462,2787.00
1551.341,3004.00
1552.219,2900.00
1553.098,2978.00
1553.976,3134.00
1554.854,3271.00
1555.733,3029.00
1556.611,2772.00
1557.489,2645.00
1558.367,2836.00
1559.244,3010.00
1560.122,2854.00
1561.000,2952.00
1561.877,3194.00
1562.755,2708.00
1563.632,2821.00
1564.509,3121.00
1565.386,3284.00
1566.264,2584.00
1567.141,2448.00
1568.017,3022.00
1568.894,2831.00
1569.771,2901.00
1570.648,2956.00
1571.524,2873.00
1572.401,2573.00
1573.277,2615.00
1574.153,2918.00
1575.029,2712.00
1575.906,3638.00
1576.781,3074.00
1577.657,2802.00
1578.533,3129.00
1579.409,2488.00
1580.285,2781.00
1581.160,3272.00
1582.036,3057.00
1582.911,2638.00
1583.786,3221.00
1584.662,2622.00
1585.537,2816.00
1586.412,2899.00
1587.287,2693.00
1588.160,3075.00
1589.035,2468.00
1589.909,2888.00
1590.784,2843.00
1591.658,2642.00
1592.533,2903.00
1593.407,2837.00
1594.281,2748.00
1595.155,3291.00
1596.029,2796.00
1596.903,2775.00
1597.777,2786.00
1598.651,3137.00
1599.525,2554.00
1600.398,2880.00
1601.272,2826.00
1602.144,3468.00
1603.017,2847.00
1603.890,3076.00
1604.763,2957.00
1605.636,3021.00
1606.509,2513.00
1607.382,2686.00
1608.255,2989.00
1609.128,3099.00
1610.000,2838.00
1610.873,2486.00
1611.746,2756.00
1612.616,2810.00
1613.488,2351.00
1614.361,2840.00
1615.233,2836.00
1616.105,3092.00
1616.977,2772.00
1617.849,2655.00
1618.720,3204.00
1619.592,3209.00
1620.464,2977.00
1621.333,3401.00
1622.205,2874.00
1623.076,2828.00
1623.947,2854.00
1624.818,3150.00
1625.689,2995.00
1626.560,2780.00
1627.431,2888.00
1628.302,3285.00
1629.171,3021.00
1630.042,3170.00
1630.912,3577.00
1631.782,3488.00
1632.653,2643.00
1633.523,3042.00
1634.393,3105.00
1635.263,2715.00
1636.131,2877.00
1637.001,2778.00
1637.871,2468.00
1638.741,2450.00
1639.611,2618.00
1640.480,2983.00
1641.350,2692.00
1642.219,2668.00
1643.087,2309.00
1643.956,3325.00
1644.825,3103.00
1645.694,3100.00
1646.563,3008.00
1647.432,2907.00
1648.299,2903.00
1649.167,3003.00
1650.036,2673.00
1650.904,2997.00
1651.773,3090.00
1652.641,2875.00
1653.509,3090.00
1654.376,2702.00
1655.244,2886.00
1656.112,2952.00
1656.980,2858.00
1657.847,2728.00
1658.715,3053.00
1659.581,2773.00
1660.448,3085.00
1661.316,2344.00
1662.183,2905.00
1663.051,2866.00
1663.918,2883.00
1664.783,2883.00
1665.650,2948.00
1666.517,3071.00
1667.384,2888.00
1668.251,2887.00
1669.115,3107.00
1669.982,2836.00
1670.849,3183.00
1671.715,2881.00
1672.581,3034.00
1673.446,3010.00
1674.312,2901.00
1675.178,3287.00
1676.044,2951.00
1676.910,2992.00
1677.774,2896.00
1678.639,2542.00
1679.505,2891.00
1680.370,3062.00
1681.236,3540.00
1682.099,2841.00
1682.965,2937.00
1683.830,2454.00
1684.695,2680.00
1685.560,2805.00
1686.423,3054.00
1687.288,3015.00
1688.153,2961.00
1689.017,2789.00
1689.880,2947.00
1690.745,3041.00
1691.609,2674.00
1692.473,3027.00
1693.338,3091.00
1694.200,3179.00
1695.064,2902.00
1695.928,2777.00
1696.792,2911.00
1697.654,3390.00
1698.517,2894.00
1699.381,2628.00
1700.245,2483.00
1701.106,3218.00
1701.969,2781.00
1702.833,3024.00
1703.696,2760.00
1704.557,2855.00
1705.420,2761.00
1706.283,2907.00
1707.146,3017.00
1708.007,2660.00
1708.870,2655.00
1709.732,2527.00
1710.595,2758.00
1711.455,2619.00
1712.318,2789.00
1713.180,3187.00
1714.040,2907.00
1714.902,3029.00
1715.764,2875.00
1716.626,2642.00
1717.486,2851.00
1718.348,3203.00
1719.209,4527.00
1720.071,2554.00
1720.930,2600.00
1721.792,2719.00
1722.653,2663.00
1723.512,2758.00
1724.374,2836.00
1725.234,2912.00
1726.095,2922.00
1726.954,2854.00
1727.815,2988.00
1728.676,2868.00
1729.535,3141.00
1730.395,2832.00
1731.256,2768.00
1732.114,2912.00
1732.974,2324.00
1733.834,3286.00
1734.693,3032.00
1735.553,2904.00
1736.413,3344.00
1737.272,2804.00
1738.130,2817.00
1738.990,2992.00
1739.849,2772.00
1740.707,4005.00
1741.566,2905.00
1742.426,2903.00
1743.283,3293.00
1744.142,2769.00
1745.001,2514.00
1745.858,3054.00
1746.717,2966.00
1747.576,3007.00
1748.433,3003.00
1749.292,3573.00
1750.150,3552.00
1751.007,3093.00
1751.865,3094.00
1752.723,2927.00
1753.579,2790.00
1754.438,3141.00
1755.296,3154.00
1756.152,2473.00
1757.010,2530.00
1757.865,3121.00
1758.723,2522.00
1759.581,3232.00
1760.436,2870.00
1761.294,3269.00
1762.151,2898.00
1763.006,2796.00
1763.864,2513.00
1764.721,3104.00
1765.576,2958.00
1766.433,3056.00
1767.288,2825.00
1768.144,2951.00
1769.001,2800.00
1769.856,2993.00
1770.712,3169.00
1771.568,2667.00
1772.423,2795.00
1773.279,2800.00
1774.133,2783.00
1774.989,3302.00
1775.845,3298.00
1776.699,3138.00
1777.555,2872.00
1778.409,3479.00
1779.265,2856.00
1780.120,2801.00
1780.974,2888.00
1781.829,2437.00
1782.682,2963.00
1783.538,2705.00
1784.393,2922.00
1785.246,2769.00
1786.101,2994.00
1786.954,3031.00
1787.808,3050.00
1788.661,2600.00
1789.516,2787.00
1790.370,2853.00
1791.223,3078.00
1792.077,2909.00
1792.930,2993.00
1793.784,2762.00
1794.636,2926.00
1795.490,2869.00
1796.344,2899.00
1797.196,2835.00
1798.049,3100.00
1798.901,2756.00
1799.755,3163.00
1800.606,2655.00
1801.460,3442.00
1802.311,3228.00
1803.165,3357.00
1804.018,3278.00
1804.869,3006.00
1805.722,3416.00
1806.573,2960.00
1807.426,2703.00
1808.276,2872.00
1809.129,2765.00
1809.980,3120.00
1810.832,3196.00
1811.683,2815.00
1812.535,3213.00
1813.385,2822.00
1814.237,3189.00
1815.089,2952.00
1815.940,3203.00
1816.791,2851.00
1817.641,2764.00
1818.493,3055.00
1819.343,3004.00
1820.194,2779.00
1821.044,2971.00
1821.895,3168.00
1822.745,2606.00
1823.596,2808.00
1824.445,3334.00
1825.296,3023.00
1826.145,2861.00
1826.996,3073.00
1827.845,2904.00
1828.695,2989.00
1829.544,2882.00
1830.395,2934.00
1831.243,2802.00
1832.094,2613.00
1832.942,3526.00
1833.792,3016.00
1834.640,2984.00
1835.490,2892.00
1836.338,2983.00
1837.186,2784.00
1838.036,2752.00
1838.884,2928.00
1839.733,3240.00
1840.581,3103.00
1841.430,3052.00
1842.278,3340.00
1843.127,2788.00
1843.974,2541.00
1844.823,3347.00
1845.671,3109.00
1846.519,2905.00
1847.366,2953.00
1848.213,2531.00
1849.062,2726.00
1849.909,2619.00
1850.757,3610.00
1851.604,3043.00
1852.452,2758.00
1853.298,3132.00
1854.146,2974.00
1854.993,2953.00
1855.839,3427.00
1856.687,3009.00
1857.532,3025.00
1858.380,2920.00
1859.226,2994.00
1860.073,3022.00
1860.919,2659.00
1861.765,2778.00
1862.612,3133.00
1863.457,3160.00
1864.304,2877.00
1865.150,3051.00
1865.995,2856.00
1866.842,3019.00
1867.686,3133.00
1868.533,2986.00
1869.378,2979.00
1870.223,2952.00
1871.069,2810.00
1871.914,2938.00
1872.760,2872.00
1873.604,2703.00
1874.448,3053.00
1875.294,3105.00
1876.139,2761.00
1876.984,3005.00
1877.828,2531.00
1878.672,2379.00
1879.518,2794.00
1880.361,3138.00
1881.205,3110.00
1882.050,2706.00
1882.894,3483.00
1883.739,2728.00
1884.582,2657.00
1885.425,2757.00
1886.270,3192.00
1887.113,2646.00
1887.956,3017.00
1888.801,2998.00
1889.644,2707.00
1890.486,2489.00
1891.331,2797.00
1892.173,2962.00
1893.017,3008.00
1893.860,3194.00
1894.702,3266.00
1895.546,2898.00
1896.388,3644.00
1897.230,3300.00
1898.074,2816.00
1898.916,2728.00
1899.757,2724.00
1900.601,3641.00
1901.443,3253.00
1902.284,3245.00
1903.125,3460.00
1903.969,3109.00
1904.810,3186.00
1905.651,3014.00
1906.494,3251.00
1907.335,3389.00
1908.176,3035.00
1909.018,3041.00
1909.859,2908.00
1910.700,2771.00
1911.542,3487.00
1912.383,3038.00
1913.223,2518.00
1914.064,3104.00
1914.906,3223.00
1915.746,3267.00
1916.586,3429.00
1917.428,2892.00
1918.268,2976.00
1919.107,2814.00
1919.947,2655.00
1920.789,2859.00
1921.628,3244.00
1922.468,2921.00
1923.309,2753.00
1924.148,3259.00
1924.988,3035.00
1925.827,2924.00
1926.667,2806.00
1927.507,2955.00
1928.345,2754.00
1929.184,3118.00
1930.025,2749.00
1930.864,3197.00
1931.702,3234.00
1932.541,2825.00
1933.381,3060.00
1934.219,3135.00
1935.057,3246.00
1935.896,2608.00
1936.735,2915.00
1937.573,2864.00
1938.411,2687.00
1939.249,3132.00
1940.089,2825.00
1940.927,3223.00
1941.764,3248.00
1942.602,2854.00
1943.439,2813.00
1944.278,2898.00
1945.115,2850.00
1945.953,2673.00
1946.790,3033.00
1947.628,3295.00
1948.465,3041.00
1949.302,3052.00
1950.139,3098.00
1950.976,2803.00
1951.814,3110.00
1952.651,2999.00
1953.487,2737.00
1954.323,3221.00
1955.160,2915.00
1955.998,3336.00
1956.834,2954.00
1957.670,2979.00
1958.506,3155.00
1959.342,3062.00
1960.177,3056.00
1961.015,3061.00
1961.850,2950.00
1962.686,3003.00
1963.521,3004.00
1964.357,3200.00
1965.192,2702.00
1966.029,3113.00
1966.864,2874.00
1967.699,3204.00
1968.534,2957.00
1969.369,3256.00
1970.204,2907.00
1971.040,3000.00
1971.875,2912.00
1972.709,2978.00
1973.544,2764.00
1974.378,2842.00
1975.212,3052.00
1976.047,2840.00
1976.882,2817.00
1977.716,3389.00
1978.550,2624.00
1979.384,2889.00
1980.218,2880.00
1981.052,2879.00
1981.885,2999.00
1982.719,2989.00
1983.554,3123.00
1984.388,3284.00
1985.221,3002.00
1986.054,3230.00
1986.887,2978.00
1987.720,2783.00
1988.553,3309.00
1989.386,3044.00
1990.219,3136.00
1991.053,3301.00
1991.886,2795.00
1992.719,3199.00
1993.551,2464.00
1994.383,3092.00
1995.216,2854.00
1996.048,2595.00
1996.880,3099.00
1997.712,2812.00
1998.544,2957.00
1999.376,3032.00
2000.208,3262.00
2001.040,3438.00
2001.873,2768.00
2002.705,2794.00
2003.536,2972.00
2004.367,3012.00
2005.199,3037.00
2006.030,2813.00
2006.861,2725.00
2007.692,2956.00
2008.523,2813.00
2009.354,3007.00
2010.185,2727.00
2011.016,3122.00
2011.846,3213.00
2012.677,2927.00
2013.507,3322.00
2014.338,3194.00
2015.168,2876.00
2015.999,3523.00
2016.829,2874.00
2017.659,3232.00
2018.489,3524.00
2019.319,2740.00
2020.149,3139.00
2020.980,2973.00
2021.810,2745.00
2022.639,2808.00
2023.469,2880.00
2024.298,2622.00
2025.128,2539.00
2025.957,2554.00
2026.786,2368.00
2027.615,2581.00
2028.444,2801.00
2029.273,3006.00
2030.102,2553.00
2030.931,2781.00
2031.758,3091.00
2032.586,2695.00
2033.415,2813.00
2034.243,2366.00
2035.072,2134.00
2035.900,2646.00
2036.728,2478.00
2037.556,2527.00
2038.385,2537.00
2039.213,2361.00
2040.040,2348.00
2040.868,2309.00
2041.696,2383.00
2042.524,2362.00
2043.351,2606.00
2044.179,2404.00
2045.006,2139.00
