RamanScope Measure Spectrum Data V3.72

<< MEASURE CONDITION >>
Exposure Type,Aver
Exposure Time [sec],15
Exposure Count,30
Measure Time,2023/07/04 11:56:42
Data Name,""
Data Comment,""
Rayleigh Wave[nm],532.0

<< SAMPLE SPECTRUM >>
Wave[dcm-1],No226
146.591,702.37
147.626,882.60
148.664,1077.53
149.699,1220.70
150.737,1453.57
151.772,1643.33
152.809,1864.97
153.846,2120.63
154.881,2283.73
155.918,2477.87
156.953,2615.17
157.989,2788.10
159.026,2900.57
160.060,2988.40
161.096,3111.87
162.130,3171.33
163.167,3219.07
164.200,3295.27
165.236,3377.53
166.272,3402.97
167.305,3437.57
168.341,3504.57
169.374,3566.33
170.409,3641.87
171.445,3710.70
172.477,3766.97
173.512,3834.07
174.545,3915.17
175.580,3942.20
176.614,3956.37
177.647,4052.97
178.681,4041.03
179.713,4083.80
180.747,4065.10
181.781,4018.57
182.813,4039.03
183.847,3966.47
184.878,3950.87
185.912,3962.97
186.945,3977.80
187.976,3958.40
189.010,3977.83
190.043,3980.73
191.073,4007.67
192.106,4020.87
193.137,4035.50
194.170,4112.43
195.202,4163.00
196.232,4213.37
197.265,4233.07
198.297,4336.57
199.327,4378.97
200.359,4431.77
201.388,4542.50
202.420,4575.07
203.452,4657.93
204.481,4712.07
205.512,4901.33
206.544,5005.30
207.573,5088.37
208.604,5191.23
209.635,5391.43
210.663,5564.50
211.694,5740.07
212.725,5887.30
213.753,6079.23
214.783,6301.70
215.813,6469.50
216.841,6650.03
217.871,6764.43
218.899,6776.00
219.929,6881.27
220.959,6869.17
221.986,6753.03
223.016,6670.33
224.045,6550.73
225.072,6389.13
226.101,6306.83
227.130,6102.10
228.157,5948.67
229.185,5814.10
230.214,5666.37
231.241,5604.20
232.269,5493.27
233.297,5400.13
234.323,5315.83
235.351,5281.70
236.379,5278.10
237.407,5239.37
238.433,5197.80
239.460,5192.67
240.488,5247.87
241.513,5258.17
242.540,5288.50
243.568,5332.57
244.592,5362.17
245.619,5352.50
246.646,5473.13
247.671,5462.33
248.697,5456.57
249.724,5414.87
250.748,5405.40
251.774,5376.67
252.801,5318.10
253.827,5330.27
254.850,5286.83
255.876,5342.13
256.902,5344.87
257.925,5358.97
258.951,5377.67
259.976,5432.37
260.999,5469.73
262.024,5465.50
263.049,5547.60
264.074,5574.87
265.097,5604.37
266.122,5712.87
267.146,5735.77
268.168,5794.87
269.193,5863.57
270.217,5965.27
271.241,5969.90
272.263,6092.50
273.287,6163.60
274.311,6189.00
275.332,6224.30
276.356,6257.27
277.379,6361.00
278.402,6350.80
279.424,6339.73
280.447,6258.17
281.470,6252.87
282.492,6175.87
283.513,6122.60
284.536,6069.07
285.558,5970.03
286.581,5895.27
287.601,5771.43
288.623,5730.70
289.645,5577.40
290.665,5491.87
291.687,5465.03
292.709,5367.90
293.730,5258.93
294.750,5174.20
295.771,5087.83
296.792,5023.10
297.813,4979.90
298.832,4879.50
299.853,4811.83
300.874,4757.20
301.895,4696.63
302.913,4648.23
303.934,4586.00
304.954,4532.83
305.975,4878.13
306.993,4442.53
308.013,4398.10
309.033,4393.60
310.052,4320.07
311.072,4260.93
312.090,4236.73
313.109,4283.10
314.129,4143.37
315.148,4162.20
316.165,4107.83
317.184,4086.40
318.203,4045.50
319.222,4096.23
320.238,4014.20
321.257,3978.07
322.275,3972.73
323.294,3976.03
324.312,3969.83
325.328,3917.10
326.346,3895.57
327.364,3903.20
328.382,3947.07
329.397,3924.43
330.415,3874.30
331.432,3848.27
332.450,3870.30
333.467,3854.53
334.482,3840.47
335.499,3829.70
336.516,3796.00
337.533,3838.13
338.547,3825.67
339.564,3810.90
340.580,3763.67
341.597,3766.63
342.613,3784.97
343.627,3758.17
344.643,3764.13
345.659,3767.90
346.675,3770.17
347.690,3736.13
348.704,3794.33
349.719,3731.13
350.735,3761.03
351.750,3700.30
352.765,3728.20
353.778,3711.50
354.793,3744.13
355.808,3696.57
356.822,3703.43
357.837,3710.03
358.851,3713.03
359.864,3718.43
360.878,3727.13
361.892,3730.90
362.906,3745.43
363.920,3712.67
364.932,3762.40
365.945,3764.83
366.959,3740.23
367.972,3748.70
368.986,3807.20
369.999,3775.10
371.010,3753.60
372.023,3837.17
373.036,3768.43
374.049,3839.07
375.061,3849.77
376.072,3880.53
377.084,3873.50
378.097,3900.10
379.109,3858.57
380.121,3896.83
381.133,3894.20
382.143,3947.07
383.155,3896.00
384.166,3903.10
385.178,3906.57
386.189,3902.87
387.201,3910.20
388.212,3902.67
389.221,3905.80
390.232,3904.00
391.243,3893.70
392.254,3896.50
393.264,3827.37
394.275,3809.50
395.283,3839.60
396.294,3737.83
397.304,3789.67
398.314,3769.57
399.324,3757.57
400.334,3749.97
401.344,3719.97
402.351,3667.40
403.361,3654.13
404.370,3628.27
405.380,3689.23
406.389,3603.33
407.398,3632.73
408.407,3555.17
409.414,3517.97
410.423,3546.83
411.431,3515.57
412.440,3494.43
413.448,3497.50
414.457,3439.70
415.465,3460.10
416.471,3429.53
417.479,3431.93
418.487,3404.40
419.495,3392.97
420.503,3374.13
421.510,3408.57
422.518,3355.57
423.525,3351.97
424.530,3331.33
425.537,3321.87
426.544,3359.00
427.551,3345.73
428.558,3329.87
429.565,3317.40
430.571,3280.77
431.578,3273.07
432.582,3290.80
433.588,3294.40
434.595,3248.90
435.601,3342.10
436.607,3283.57
437.612,3258.67
438.618,3277.13
439.624,3272.93
440.627,3252.10
441.633,3229.67
442.638,3269.20
443.643,3241.03
444.648,3248.50
445.653,3257.67
446.658,3283.33
447.663,3281.20
448.667,3286.77
449.672,3271.00
450.674,3214.27
451.678,3321.30
452.682,3291.33
453.687,3295.27
454.690,3308.63
455.694,3307.57
456.698,3294.47
457.702,3291.83
458.705,3356.37
459.709,3314.50
460.710,3294.33
461.713,3328.47
462.716,3311.57
463.719,3295.33
464.722,3303.00
465.725,3318.33
466.727,3306.27
467.730,3294.67
468.732,3335.70
469.735,3350.03
470.737,3363.13
471.737,3334.83
472.739,3382.97
473.741,3328.43
474.742,3326.97
475.744,3317.70
476.746,3350.93
477.747,3363.57
478.748,3372.90
479.750,3362.03
480.751,3359.27
481.752,3370.70
482.753,3368.87
483.751,3361.17
484.752,3387.80
485.753,3370.60
486.753,3360.10
487.753,3373.77
488.754,3391.93
489.754,3355.37
490.754,3334.43
491.754,3356.27
492.754,3385.77
493.753,3356.87
494.753,3360.57
495.752,3400.77
496.752,3361.03
497.749,3400.27
498.748,3368.20
499.747,3341.13
500.746,3408.50
501.745,3317.80
502.744,3333.03
503.742,3294.73
504.741,3321.03
505.739,3311.30
506.737,3291.90
507.735,3283.30
508.734,3254.60
509.732,3250.43
510.729,3293.50
511.727,3255.23
512.725,3231.93
513.720,3241.77
514.718,3251.07
515.715,3190.97
516.712,3245.10
517.709,3211.63
518.706,3204.90
519.703,3209.00
520.700,3230.13
521.696,3162.27
522.693,3163.00
523.689,3199.27
524.686,3187.13
525.682,3230.63
526.678,3158.80
527.674,3194.63
528.670,3191.43
529.666,3209.90
530.661,3262.87
531.657,3132.47
532.652,3223.00
533.648,3201.40
534.641,3230.90
535.636,3228.90
536.631,3223.10
537.626,3258.30
538.621,3249.40
539.616,3234.17
540.610,3249.13
541.605,3217.43
542.599,3231.93
543.593,3230.70
544.587,3250.90
545.581,3280.93
546.575,3254.63
547.569,3289.23
548.563,3200.00
549.557,3229.30
550.550,3217.20
551.543,3250.33
552.537,3226.73
553.530,3237.23
554.523,3261.63
555.516,3313.87
556.509,3260.83
557.502,3279.83
558.494,3259.00
559.487,3280.33
560.479,3257.33
561.472,3296.50
562.464,3316.70
563.456,3273.80
564.448,3321.67
565.440,3305.70
566.432,3344.23
567.423,3336.07
568.415,3334.73
569.404,3346.00
570.396,3363.40
571.387,3418.50
572.378,3346.97
573.369,3409.40
574.360,3377.73
575.351,3452.83
576.341,3426.53
577.332,3461.93
578.323,3451.07
579.313,3449.37
580.303,3433.67
581.293,3467.03
582.283,3480.87
583.273,3500.53
584.263,3472.90
585.253,3481.53
586.243,3490.10
587.232,3517.53
588.222,3544.47
589.211,3524.10
590.200,3559.17
591.189,3566.90
592.178,3529.50
593.167,3586.97
594.156,3561.43
595.145,3559.97
596.133,3553.33
597.122,3558.87
598.110,3611.03
599.098,3608.00
600.086,3579.97
601.074,3562.43
602.062,3590.20
603.050,3578.03
604.038,3564.47
605.025,3612.20
606.013,3576.13
607.000,3539.40
607.987,3571.67
608.975,3558.70
609.962,3550.87
610.949,3542.23
611.936,3474.63
612.922,3508.27
613.909,3485.13
614.895,3464.47
615.882,3454.03
616.868,3412.83
617.854,3436.17
618.841,3387.00
619.826,3364.93
620.812,3340.77
621.798,3364.00
622.784,3333.77
623.769,3307.03
624.755,3318.43
625.740,3237.53
626.725,3222.63
627.711,3215.93
628.698,3236.60
629.683,3188.10
630.667,3214.33
631.652,3145.13
632.637,3141.03
633.621,3108.83
634.606,3112.27
635.590,3062.20
636.574,3073.87
637.558,3005.93
638.542,3030.93
639.526,2982.93
640.510,2979.63
641.493,2936.23
642.477,2963.83
643.460,2987.10
644.444,2951.50
645.427,2929.60
646.410,2897.70
647.393,2889.47
648.376,2886.03
649.359,2878.53
650.341,2883.80
651.324,2900.80
652.307,2823.73
653.289,2818.87
654.271,2830.90
655.253,2838.00
656.235,2773.13
657.217,2801.93
658.199,2751.43
659.181,2822.33
660.163,2793.33
661.144,2796.83
662.126,2753.67
663.107,2731.80
664.088,2730.50
665.069,2748.37
666.050,2772.43
667.033,2748.87
668.014,2716.27
668.995,2715.80
669.975,2712.47
670.956,2746.83
671.936,2707.80
672.916,2667.77
673.896,2653.43
674.876,2636.87
675.856,2643.90
676.836,2610.30
677.816,2563.93
678.795,2546.87
679.775,2543.03
680.754,2542.33
681.734,2532.73
682.713,2492.80
683.692,2510.60
684.671,2462.40
685.650,2437.17
686.629,2450.27
687.607,2417.00
688.586,2417.67
689.564,2392.77
690.543,2405.70
691.523,2379.60
692.501,2379.43
693.479,2345.90
694.457,2358.00
695.435,2321.27
696.413,2356.83
697.390,2319.57
698.368,2311.77
699.345,2291.63
700.322,2275.07
701.300,2314.27
702.277,2268.23
703.254,2254.00
704.231,2252.77
705.207,2234.37
706.184,2253.93
707.161,2250.17
708.137,2228.23
709.113,2228.80
710.090,2182.47
711.068,2198.43
712.044,2213.80
713.020,2160.80
713.996,2200.07
714.971,2152.77
715.947,2170.60
716.922,2164.63
717.898,2148.07
718.873,2140.73
719.848,2088.70
720.823,2072.57
721.798,2126.70
722.773,2127.13
723.748,2084.67
724.723,2140.90
725.697,2129.27
726.672,2136.77
727.646,2108.50
728.622,2126.03
729.596,2080.47
730.570,2073.43
731.544,2078.07
732.518,2058.70
733.492,2075.43
734.466,2014.13
735.439,2068.20
736.413,2061.63
737.386,2047.67
738.359,2047.13
739.332,2035.53
740.305,2048.33
741.278,2016.10
742.251,2014.60
743.224,2059.60
744.196,1982.00
745.171,2022.03
746.143,1949.63
747.115,1997.07
748.087,2006.03
749.059,1990.60
750.031,1987.67
751.003,2000.67
751.975,1964.10
752.947,1932.63
753.918,1954.40
754.890,1972.80
755.861,1938.43
756.832,1910.57
757.803,1944.90
758.774,1917.43
759.747,1903.90
760.718,1878.20
761.689,1921.70
762.659,1889.17
763.630,1922.47
764.600,1893.50
765.570,1910.53
766.540,1875.73
767.510,1879.50
768.480,1827.40
769.450,1871.37
770.420,1871.13
771.390,1908.53
772.359,1861.00
773.329,1851.27
774.300,1847.87
775.269,1854.73
776.238,1863.23
777.207,1894.83
778.176,1832.87
779.145,1843.23
780.114,1847.13
781.083,1838.90
782.051,1820.73
783.019,1811.97
783.988,1828.20
784.956,1840.13
785.924,1802.27
786.894,1786.50
787.862,1780.20
788.830,1760.17
789.797,1800.57
790.765,1759.00
791.732,1784.40
792.700,1755.10
793.667,1759.57
794.634,1756.93
795.601,1771.17
796.568,1789.70
797.535,1738.40
798.502,1708.03
799.468,1685.30
800.437,1717.63
801.403,1712.00
802.370,1739.97
803.336,1675.93
804.302,1651.87
805.268,1709.07
806.234,1715.87
807.200,1741.43
808.166,1697.80
809.131,1643.40
810.097,1701.37
811.062,1662.57
812.027,1681.93
812.994,1709.40
813.960,1714.27
814.925,1694.67
815.889,1684.27
816.854,1654.03
817.819,1655.43
818.783,1674.87
819.748,1648.47
820.712,1637.73
821.677,1642.87
822.641,1635.03
823.605,1645.43
824.571,1648.77
825.534,1629.37
826.498,1646.40
827.462,1711.03
828.425,1661.70
829.389,1615.73
830.352,1628.30
831.315,1604.93
832.279,1654.13
833.242,1645.83
834.204,1641.63
835.167,1630.77
836.132,1589.77
837.095,1630.97
838.057,1651.37
839.020,1618.90
839.982,1605.83
840.944,1591.80
841.906,1608.87
842.868,1619.37
843.830,1605.33
844.792,1627.07
845.753,1555.50
846.715,1601.90
847.679,1606.83
848.640,1625.47
849.601,1605.13
850.562,1633.23
851.523,1592.23
852.484,1602.63
853.445,1636.63
854.406,1576.07
855.367,1582.83
856.327,1610.97
857.288,1561.37
858.248,1607.60
859.210,1569.87
860.170,1529.20
861.130,1555.77
862.090,1481.03
863.050,1532.97
864.010,1528.00
864.969,1547.57
865.929,1542.70
866.888,1506.43
867.848,1572.70
868.807,1542.10
869.766,1540.87
870.727,1548.40
871.686,1530.93
872.645,1535.20
873.604,1518.13
874.562,1545.10
875.521,1514.97
876.479,1497.90
877.437,1536.80
878.396,1536.23
879.354,1493.27
880.312,1504.83
881.270,1517.53
882.229,1536.40
883.187,1502.57
884.145,1503.00
885.102,1518.77
886.059,1547.13
887.017,1529.17
887.974,1483.43
888.931,1532.90
889.888,1496.20
890.845,1491.00
891.802,1529.27
892.758,1491.97
893.717,1501.13
894.673,1521.00
895.630,1504.90
896.586,1524.73
897.542,1500.40
898.498,1479.13
899.454,1511.23
900.410,1490.70
901.366,1500.73
902.321,1534.80
903.277,1472.70
904.232,1459.17
905.189,1510.67
906.145,1516.50
907.100,1494.00
908.055,1517.13
909.010,1513.47
909.965,1472.60
910.919,1507.90
911.874,1520.57
912.828,1494.37
913.783,1483.57
914.737,1499.83
915.693,1503.17
916.648,1539.73
917.602,1533.97
918.555,1491.10
919.509,1469.70
920.463,1515.70
921.417,1504.63
922.370,1514.30
923.324,1520.00
924.277,1513.33
925.230,1484.30
926.183,1493.07
927.138,1508.03
928.091,1515.73
929.044,1510.53
929.996,1491.73
930.949,1481.67
931.902,1483.73
932.854,1529.60
933.806,1501.20
934.758,1553.37
935.711,1518.30
936.663,1509.50
937.614,1527.53
938.568,1513.73
939.520,1490.13
940.471,1531.47
941.423,1508.17
942.374,1512.23
943.326,1551.97
944.277,1516.27
945.228,1500.87
946.179,1526.13
947.130,1552.33
948.080,1500.93
949.031,1556.30
949.984,1534.07
950.934,1485.90
951.884,1481.23
952.835,1564.33
953.785,1491.77
954.735,1510.17
955.685,1514.00
956.635,1459.17
957.585,1477.57
958.534,1450.37
959.484,1461.67
960.433,1453.33
961.383,1514.23
962.334,1462.47
963.283,1517.80
964.232,1502.90
965.181,1497.03
966.130,1479.23
967.079,1502.53
968.027,1486.70
968.976,1505.30
969.924,1485.27
970.873,1473.43
971.821,1507.70
972.769,1481.23
973.719,1508.43
974.667,1534.13
975.615,1521.20
976.562,1507.90
977.510,1491.83
978.458,1498.30
979.405,1527.77
980.352,1498.00
981.300,1515.93
982.247,1483.00
983.194,1516.53
984.141,1485.73
985.088,1507.77
986.036,1546.40
986.983,1487.60
987.930,1489.60
988.876,1494.43
989.822,1451.03
990.769,1517.73
991.715,1548.53
992.661,1497.93
993.607,1487.33
994.553,1481.83
995.498,1485.50
996.444,1487.37
997.389,1500.07
998.337,1488.77
999.282,1496.83
1000.227,1513.50
1001.173,1497.00
1002.118,1486.53
1003.062,1494.53
1004.007,1485.67
1004.952,1474.87
1005.897,1506.80
1006.841,1494.33
1007.786,1468.73
1008.730,1523.77
1009.674,1527.40
1010.618,1466.47
1011.564,1531.17
1012.508,1493.10
1013.452,1439.77
1014.396,1500.77
1015.339,1495.63
1016.283,1497.17
1017.226,1498.50
1018.170,1503.53
1019.113,1512.67
1020.056,1477.80
1020.999,1524.33
1021.942,1505.17
1022.885,1527.97
1023.828,1471.23
1024.770,1528.57
1025.715,1483.23
1026.657,1491.30
1027.600,1471.97
1028.542,1489.43
1029.484,1477.63
1030.426,1506.97
1031.368,1489.83
1032.310,1514.80
1033.251,1464.30
1034.193,1492.37
1035.135,1496.57
1036.076,1487.60
1037.017,1491.73
1037.959,1518.00
1038.900,1500.77
1039.843,1546.97
1040.784,1543.57
1041.725,1476.57
1042.665,1527.90
1043.606,1536.57
1044.547,1521.23
1045.487,1520.53
1046.427,1550.00
1047.368,1547.07
1048.308,1491.10
1049.248,1562.57
1050.188,1527.70
1051.128,1513.07
1052.067,1497.93
1053.007,1537.27
1053.947,1567.77
1054.886,1533.57
1055.827,1572.00
1056.766,1538.60
1057.706,1536.73
1058.645,1572.83
1059.584,1539.40
1060.522,1559.27
1061.461,1536.77
1062.400,1603.97
1063.338,1586.57
1064.277,1597.60
1065.215,1542.07
1066.154,1585.20
1067.092,1546.17
1068.030,1611.50
1068.968,1618.20
1069.906,1619.30
1070.843,1595.03
1071.781,1549.63
1072.720,1612.20
1073.658,1579.33
1074.595,1587.77
1075.533,1583.20
1076.470,1620.47
1077.407,1608.47
1078.344,1592.70
1079.281,1584.27
1080.217,1654.80
1081.154,1642.83
1082.091,1616.83
1083.027,1612.60
1083.964,1647.57
1084.900,1646.53
1085.836,1581.70
1086.772,1583.13
1087.708,1624.20
1088.644,1576.70
1089.580,1604.80
1090.515,1580.90
1091.451,1645.80
1092.388,1588.93
1093.324,1603.73
1094.259,1618.03
1095.194,1648.83
1096.129,1584.47
1097.064,1566.90
1097.999,1621.00
1098.934,1643.07
1099.869,1584.23
1100.803,1594.07
1101.738,1602.90
1102.672,1596.03
1103.607,1568.33
1104.541,1595.20
1105.475,1591.87
1106.409,1604.40
1107.343,1561.37
1108.277,1532.53
1109.210,1574.43
1110.144,1548.30
1111.078,1547.60
1112.011,1571.93
1112.944,1516.77
1113.878,1564.63
1114.811,1540.93
1115.744,1559.83
1116.678,1563.83
1117.611,1553.23
1118.544,1499.73
1119.477,1531.50
1120.409,1499.67
1121.342,1523.67
1122.274,1480.63
1123.206,359.97
1124.138,1541.27
1125.070,1491.80
1126.002,1499.73
1126.934,1477.33
1127.866,1494.47
1128.798,1452.20
1129.729,1468.80
1130.661,1462.57
1131.592,1501.73
1132.523,1467.70
1133.454,1471.87
1134.385,1454.80
1135.317,1434.43
1136.247,1444.30
1137.178,1503.57
1138.109,1451.77
1139.039,1453.47
1139.970,1458.20
1140.900,1449.00
1141.831,1451.53
1142.761,1401.83
1143.691,1286.60
1144.621,1441.60
1145.551,1409.13
1146.480,1398.23
1147.410,1447.47
1148.340,1442.40
1149.269,1433.57
1150.199,1389.87
1151.128,1392.93
1152.057,1426.83
1152.979,1431.33
1153.898,1379.43
1154.819,1407.77
1155.739,1409.23
1156.658,1403.43
1157.579,1391.43
1158.498,1388.67
1159.419,1429.53
1160.338,1387.87
1161.256,1384.23
1162.177,1384.13
1163.095,1412.67
1164.016,1348.03
1164.934,1436.00
1165.852,1393.43
1166.772,1389.43
1167.690,1392.80
1168.610,1378.37
1169.528,1369.00
1170.446,1375.93
1171.365,1419.03
1172.283,1402.17
1173.202,1402.00
1174.120,1349.03
1175.037,1376.20
1175.956,1391.47
1176.873,1396.40
1177.792,1347.37
1178.709,1409.43
1179.626,1393.50
1180.544,1399.00
1181.461,1407.77
1182.379,1373.37
1183.296,1399.60
1184.212,1360.73
1185.130,1343.23
1186.046,1348.87
1186.962,1346.90
1187.880,1358.77
1188.796,1336.30
1189.714,1366.33
1190.629,1362.37
1191.545,1403.27
1192.462,1371.33
1193.378,1381.57
1194.295,1378.97
1195.210,1396.30
1196.125,1386.03
1197.042,1345.00
1197.957,1387.10
1198.872,1343.17
1199.788,1352.27
1200.703,1377.13
1201.619,1366.80
1202.534,1413.43
1203.448,1355.67
1204.364,1391.37
1205.278,1353.33
1206.192,1393.00
1207.108,1390.10
1208.022,1361.30
1208.938,1374.53
1209.851,1359.47
1210.765,1403.80
1211.680,1369.77
1212.594,1393.07
1213.507,1386.37
1214.422,1375.63
1215.335,1381.53
1216.248,1353.73
1217.163,1434.60
1218.076,1400.70
1218.990,1388.70
1219.903,1390.53
1220.816,1381.47
1221.730,1395.87
1222.642,1404.40
1223.554,1396.40
1224.469,1422.53
1225.380,1394.37
1226.292,1435.33
1227.206,1393.50
1228.118,1403.43
1229.032,1414.60
1229.943,1396.47
1230.855,1380.53
1231.768,1397.53
1232.679,1369.47
1233.590,1408.60
1234.503,1425.10
1235.414,1394.67
1236.325,1438.30
1237.238,1384.53
1238.149,1399.27
1239.059,1423.10
1239.972,1454.67
1240.882,1394.63
1241.793,1415.00
1242.705,1371.60
1243.615,1459.50
1244.525,1416.73
1245.437,1405.13
1246.347,1439.37
1247.259,1423.60
1248.168,1422.03
1249.078,1439.43
1249.989,1456.57
1250.899,1428.33
1251.808,1423.50
1252.719,1461.03
1253.628,1450.67
1254.537,1406.97
1255.448,1431.43
1256.357,1447.53
1257.266,1438.47
1258.176,1440.23
1259.085,1415.37
1259.993,1423.67
1260.904,1477.10
1261.812,1408.13
1262.720,1443.73
1263.630,1447.47
1264.538,1434.13
1265.446,1460.80
1266.356,1447.97
1267.263,1452.93
1268.171,1455.07
1269.080,1427.73
1269.988,1449.33
1270.895,1422.97
1271.804,1478.03
1272.711,1438.23
1273.619,1453.37
1274.527,1409.00
1275.434,1450.73
1276.341,1436.50
1277.248,1407.43
1278.156,1442.63
1279.063,1441.90
1279.969,1462.43
1280.877,1396.20
1281.783,1416.87
1282.690,1426.37
1283.598,1391.70
1284.503,1375.53
1285.409,1459.30
1286.317,1409.63
1287.223,1448.80
1288.128,1457.17
1289.036,1439.80
1289.941,1423.73
1290.846,1386.03
1291.751,1426.47
1292.658,1413.93
1293.563,1362.60
1294.468,1372.50
1295.375,1404.70
1296.280,1408.03
1297.184,1374.17
1298.091,1383.77
1298.995,1381.13
1299.900,1404.53
1300.806,1399.87
1301.710,1384.70
1302.614,1358.30
1303.518,1368.07
1304.424,1345.57
1305.327,1375.60
1306.231,1401.57
1307.137,1357.83
1308.040,1344.77
1308.943,1353.60
1309.847,1361.37
1310.752,1365.60
1311.655,1331.60
1312.558,1332.30
1313.463,1320.37
1314.366,1302.73
1315.269,1311.57
1316.171,1284.70
1317.076,1309.23
1317.978,1323.93
1318.881,1296.33
1319.785,1297.93
1320.687,1281.50
1321.589,1253.47
1322.491,1289.53
1323.395,1287.70
1324.297,1312.17
1325.198,1274.70
1326.102,1290.43
1327.004,1315.07
1327.905,1271.97
1328.806,1261.27
1329.709,1283.50
1330.611,1265.53
1331.512,1254.47
1332.413,1251.47
1333.316,1250.40
1334.216,1261.33
1335.117,1232.23
1336.020,1210.57
1336.920,1260.00
1337.821,1241.33
1338.721,1247.73
1339.623,1204.10
1340.523,1230.27
1341.423,1202.33
1342.323,1228.70
1343.225,1192.23
1344.125,1185.73
1345.025,1183.43
1345.924,1197.53
1346.826,1222.03
1347.725,1171.40
1348.624,1192.70
1349.524,1196.50
1350.425,1196.50
1351.324,1187.70
1352.223,1177.53
1353.121,1173.77
1354.022,1143.83
1354.921,1215.53
1355.819,1134.83
1356.718,1137.37
1357.618,1147.17
1358.516,1166.40
1359.415,1126.97
1360.313,1162.23
1361.213,1137.87
1362.111,1127.93
1363.008,1092.97
1363.906,1131.33
1364.806,1135.10
1365.703,1152.20
1366.601,1140.60
1367.498,1123.73
1368.397,1106.40
1369.295,1144.23
1370.192,1155.53
1371.089,1155.23
1371.987,1100.47
1372.884,1111.43
1373.781,1110.40
1374.678,1098.20
1375.574,1066.93
1376.473,1109.77
1377.369,1109.33
1378.265,1079.37
1379.161,1094.33
1380.059,1072.90
1380.955,1069.10
1381.851,1107.03
1382.747,1070.93
1383.643,1033.30
1384.540,1096.10
1385.436,1070.83
1386.331,1054.57
1387.227,1049.40
1388.124,1067.50
1389.019,1068.77
1389.914,1062.60
1390.809,1032.43
1391.704,1066.80
1392.601,1068.40
1393.495,1095.80
1394.390,1075.67
1395.285,1065.10
1396.179,1056.20
1397.075,1063.40
1397.969,1038.57
1398.864,1052.03
1399.758,1025.00
1400.652,1071.93
1401.547,1015.97
1402.441,1024.43
1403.335,1054.83
1404.229,1025.07
1405.122,1010.30
1406.017,1009.67
1406.911,1039.90
1407.804,1056.40
1408.697,1030.77
1409.590,1002.30
1410.485,998.57
1411.378,998.07
1412.271,1005.43
1413.163,1049.27
1414.056,1006.40
1414.949,989.90
1415.843,996.67
1416.735,1017.80
1417.627,995.27
1418.520,1044.80
1419.412,1016.40
1420.306,1048.03
1421.197,1026.10
1422.089,1018.47
1422.981,1004.43
1423.873,986.73
1424.764,1006.83
1425.657,1005.20
1426.549,999.33
1427.440,970.73
1428.331,994.60
1429.222,986.10
1430.113,952.27
1431.006,977.23
1431.897,1003.93
1432.787,1034.63
1433.678,963.97
1434.568,990.10
1435.459,1002.43
1436.351,949.70
1437.241,963.27
1438.131,975.37
1439.021,992.57
1439.911,1004.53
1440.801,972.03
1441.693,978.30
1442.583,940.37
1443.472,971.67
1444.362,996.03
1445.251,977.13
1446.140,940.93
1447.030,956.07
1447.921,960.87
1448.810,952.53
1449.699,974.73
1450.588,957.40
1451.476,932.17
1452.365,958.13
1453.254,953.37
1454.144,960.10
1455.032,958.83
1455.921,934.13
1456.809,943.13
1457.697,930.40
1458.585,942.97
1459.473,960.20
1460.361,908.17
1461.251,933.40
1462.138,955.00
1463.026,923.60
1463.913,940.30
1464.801,895.70
1465.688,940.00
1466.575,963.53
1467.463,933.03
1468.351,935.07
1469.238,911.00
1470.125,936.97
1471.012,937.87
1471.899,913.67
1472.785,910.37
1473.672,879.03
1474.558,898.93
1475.446,891.53
1476.333,925.27
1477.219,905.43
1478.105,894.67
1478.991,912.27
1479.877,893.90
1480.762,918.50
1481.648,859.07
1482.534,910.53
1483.419,899.77
1484.307,877.87
1485.192,886.93
1486.077,952.07
1486.962,905.97
1487.847,897.53
1488.732,895.80
1489.617,879.40
1490.502,899.60
1491.387,899.00
1492.271,904.90
1493.156,868.53
1494.042,864.00
1494.927,870.40
1495.811,867.23
1496.695,879.80
1497.579,851.73
1498.463,874.70
1499.347,852.23
1500.231,872.00
1501.114,907.63
1501.998,899.87
1502.881,875.50
1503.765,853.23
1504.648,878.33
1505.533,871.40
1506.417,859.43
1507.300,874.60
1508.183,866.60
1509.066,829.00
1509.948,841.27
1510.831,863.47
1511.714,863.07
1512.596,902.87
1513.479,870.87
1514.361,878.17
1515.243,835.67
1516.125,890.40
1517.008,813.50
1517.890,855.17
1518.771,841.07
1519.655,868.63
1520.537,842.40
1521.419,813.57
1522.300,831.77
1523.182,845.30
1524.063,846.83
1524.944,868.20
1525.825,851.13
1526.707,834.17
1527.588,846.60
1528.468,830.23
1529.349,843.10
1530.230,843.13
1531.111,840.50
1531.991,845.37
1532.872,846.27
1533.752,836.57
1534.632,823.50
1535.513,829.33
1536.393,814.13
1537.273,772.50
1538.153,805.67
1539.032,807.97
1539.912,823.27
1540.792,853.13
1541.672,839.60
1542.551,819.20
1543.430,848.03
1544.310,816.70
1545.189,818.50
1546.068,817.20
1546.947,813.70
1547.826,814.37
1548.705,829.23
1549.584,827.43
1550.462,838.87
1551.341,802.53
1552.219,784.10
1553.098,840.77
1553.976,802.23
1554.854,811.10
1555.733,840.60
1556.611,823.20
1557.489,826.50
1558.367,826.87
1559.244,805.77
1560.122,849.30
1561.000,816.50
1561.877,836.63
1562.755,802.50
1563.632,802.57
1564.509,832.97
1565.386,799.80
1566.264,796.40
1567.141,801.00
1568.017,802.60
1568.894,781.17
1569.771,808.37
1570.648,798.83
1571.524,803.20
1572.401,776.77
1573.277,795.63
1574.153,765.70
1575.029,789.60
1575.906,778.60
1576.781,804.07
1577.657,833.73
1578.533,790.13
1579.409,798.23
1580.285,815.13
1581.160,789.97
1582.036,810.53
1582.911,804.37
1583.786,791.20
1584.662,768.77
1585.537,794.93
1586.412,798.43
1587.287,745.17
1588.160,779.40
1589.035,774.83
1589.909,775.90
1590.784,774.63
1591.658,769.00
1592.533,791.33
1593.407,807.57
1594.281,819.23
1595.155,777.43
1596.029,787.60
1596.903,767.83
1597.777,780.57
1598.651,766.53
1599.525,779.83
1600.398,738.70
1601.272,772.70
1602.144,765.23
1603.017,771.73
1603.890,747.23
1604.763,774.80
1605.636,776.80
1606.509,736.53
1607.382,762.00
1608.255,765.17
1609.128,761.43
1610.000,776.47
1610.873,791.87
1611.746,790.13
1612.616,794.23
1613.488,757.13
1614.361,778.73
1615.233,786.67
1616.105,752.30
1616.977,746.43
1617.849,793.20
1618.720,753.00
1619.592,769.07
1620.464,761.80
1621.333,797.90
1622.205,797.37
1623.076,763.97
1623.947,750.07
1624.818,746.43
1625.689,768.27
1626.560,783.93
1627.431,734.03
1628.302,767.73
1629.171,774.80
1630.042,769.27
1630.912,1057.10
1631.782,730.53
1632.653,759.73
1633.523,754.10
1634.393,747.77
1635.263,755.73
1636.131,742.57
1637.001,760.70
1637.871,756.43
1638.741,746.73
1639.611,773.23
1640.480,748.50
1641.350,741.67
1642.219,744.43
1643.087,742.47
1643.956,760.23
1644.825,759.00
1645.694,775.00
1646.563,797.80
1647.432,762.47
1648.299,727.73
1649.167,738.50
1650.036,759.20
1650.904,715.27
1651.773,731.63
1652.641,775.57
1653.509,732.60
1654.376,731.23
1655.244,736.27
1656.112,715.43
1656.980,746.63
1657.847,756.90
1658.715,752.67
1659.581,684.40
1660.448,734.97
1661.316,751.63
1662.183,714.50
1663.051,751.43
1663.918,745.13
1664.783,682.57
1665.650,739.07
1666.517,725.53
1667.384,711.43
1668.251,711.33
1669.115,712.87
1669.982,723.83
1670.849,713.83
1671.715,743.67
1672.581,731.83
1673.446,717.47
1674.312,733.37
1675.178,719.57
1676.044,730.63
1676.910,709.77
1677.774,723.27
1678.639,693.40
1679.505,753.20
1680.370,762.27
1681.236,736.60
1682.099,717.70
1682.965,719.97
1683.830,729.63
1684.695,702.93
1685.560,713.23
1686.423,753.20
1687.288,719.47
1688.153,746.77
1689.017,718.10
1689.880,677.60
1690.745,742.17
1691.609,710.73
1692.473,703.43
1693.338,717.70
1694.200,707.23
1695.064,689.17
1695.928,697.33
1696.792,692.27
1697.654,754.07
1698.517,714.83
1699.381,708.87
1700.245,682.93
1701.106,724.97
1701.969,737.00
1702.833,709.27
1703.696,708.60
1704.557,718.03
1705.420,710.23
1706.283,703.60
1707.146,718.33
1708.007,705.37
1708.870,701.93
1709.732,691.70
1710.595,727.93
1711.455,707.07
1712.318,670.20
1713.180,676.07
1714.040,695.90
1714.902,687.97
1715.764,715.50
1716.626,728.33
1717.486,686.30
1718.348,725.30
1719.209,673.73
1720.071,700.00
1720.930,732.37
1721.792,695.00
1722.653,693.77
1723.512,680.70
1724.374,710.80
1725.234,716.37
1726.095,674.73
1726.954,718.17
1727.815,738.83
1728.676,747.40
1729.535,696.27
1730.395,675.63
1731.256,677.83
1732.114,732.33
1732.974,689.90
1733.834,652.30
1734.693,702.53
1735.553,674.73
1736.413,682.53
1737.272,703.57
1738.130,666.47
1738.990,678.97
1739.849,698.80
1740.707,654.87
1741.566,688.03
1742.426,658.50
1743.283,705.87
1744.142,720.27
1745.001,699.93
1745.858,701.33
1746.717,664.97
1747.576,683.20
1748.433,657.23
1749.292,691.93
1750.150,746.87
1751.007,695.97
1751.865,685.57
1752.723,692.83
1753.579,672.57
1754.438,705.00
1755.296,659.20
1756.152,685.03
1757.010,700.07
1757.865,691.60
1758.723,684.20
1759.581,695.07
1760.436,714.43
1761.294,673.13
1762.151,667.07
1763.006,698.93
1763.864,682.37
1764.721,690.00
1765.576,699.80
1766.433,701.30
1767.288,679.53
1768.144,719.97
1769.001,704.97
1769.856,677.37
1770.712,657.77
1771.568,683.10
1772.423,698.00
1773.279,669.87
1774.133,699.67
1774.989,668.30
1775.845,734.13
1776.699,710.40
1777.555,688.93
1778.409,690.60
1779.265,671.07
1780.120,658.80
1780.974,684.53
1781.829,658.97
1782.682,707.07
1783.538,667.93
1784.393,704.83
1785.246,657.70
1786.101,644.67
1786.954,701.50
1787.808,738.20
1788.661,664.47
1789.516,713.33
1790.370,663.03
1791.223,673.97
1792.077,670.77
1792.930,669.53
1793.784,672.77
1794.636,725.30
1795.490,678.87
1796.344,680.20
1797.196,675.90
1798.049,682.67
1798.901,623.73
1799.755,675.97
1800.606,658.80
1801.460,695.07
1802.311,697.50
1803.165,679.50
1804.018,682.07
1804.869,675.97
1805.722,667.27
1806.573,673.70
1807.426,677.57
1808.276,633.97
1809.129,659.70
1809.980,685.17
1810.832,692.23
1811.683,678.80
1812.535,637.13
1813.385,657.87
1814.237,667.33
1815.089,681.70
1815.940,662.70
1816.791,669.53
1817.641,660.37
1818.493,678.07
1819.343,684.13
1820.194,703.83
1821.044,675.83
1821.895,668.53
1822.745,692.10
1823.596,683.07
1824.445,679.77
1825.296,675.17
1826.145,664.37
1826.996,673.57
1827.845,645.20
1828.695,661.87
1829.544,640.80
1830.395,698.57
1831.243,656.37
1832.094,665.83
1832.942,646.63
1833.792,633.43
1834.640,657.23
1835.490,664.23
1836.338,682.73
1837.186,676.47
1838.036,659.90
1838.884,666.57
1839.733,666.80
1840.581,633.30
1841.430,629.80
1842.278,683.77
1843.127,668.43
1843.974,685.37
1844.823,647.77
1845.671,649.00
1846.519,672.00
1847.366,662.87
1848.213,657.77
1849.062,684.80
1849.909,662.13
1850.757,663.10
1851.604,672.57
1852.452,662.57
1853.298,638.40
1854.146,649.13
1854.993,668.27
1855.839,672.57
1856.687,668.30
1857.532,656.00
1858.380,686.10
1859.226,677.27
1860.073,650.17
1860.919,678.23
1861.765,627.30
1862.612,643.77
1863.457,671.00
1864.304,672.13
1865.150,668.93
1865.995,691.03
1866.842,660.47
1867.686,663.67
1868.533,654.63
1869.378,626.70
1870.223,663.13
1871.069,659.83
1871.914,675.07
1872.760,695.23
1873.604,627.07
1874.448,673.53
1875.294,670.43
1876.139,641.13
1876.984,635.50
1877.828,658.33
1878.672,669.67
1879.518,623.27
1880.361,644.87
1881.205,634.23
1882.050,654.23
1882.894,619.37
1883.739,648.13
1884.582,670.17
1885.425,647.83
1886.270,652.07
1887.113,638.40
1887.956,643.43
1888.801,644.27
1889.644,634.90
1890.486,655.87
1891.331,634.33
1892.173,621.93
1893.017,677.13
1893.860,652.70
1894.702,647.33
1895.546,702.80
1896.388,630.60
1897.230,648.13
1898.074,658.03
1898.916,630.33
1899.757,639.93
1900.601,653.17
1901.443,639.73
1902.284,639.97
1903.125,658.13
1903.969,669.17
1904.810,586.70
1905.651,661.57
1906.494,661.27
1907.335,663.30
1908.176,661.30
1909.018,632.17
1909.859,633.50
1910.700,643.20
1911.542,621.03
1912.383,637.83
1913.223,669.13
1914.064,667.30
1914.906,640.47
1915.746,648.87
1916.586,649.83
1917.428,613.00
1918.268,657.13
1919.107,661.93
1919.947,640.47
1920.789,642.27
1921.628,643.17
1922.468,643.47
1923.309,631.23
1924.148,654.57
1924.988,657.90
1925.827,623.67
1926.667,618.60
1927.507,632.03
1928.345,645.17
1929.184,650.97
1930.025,648.80
1930.864,619.93
1931.702,636.37
1932.541,636.77
1933.381,633.30
1934.219,617.70
1935.057,626.00
1935.896,593.23
1936.735,659.97
1937.573,643.57
1938.411,650.23
1939.249,594.30
1940.089,653.77
1940.927,641.97
1941.764,667.90
1942.602,631.27
1943.439,590.17
1944.278,614.80
1945.115,657.43
1945.953,640.67
1946.790,594.67
1947.628,629.37
1948.465,614.77
1949.302,642.10
1950.139,667.60
1950.976,582.03
1951.814,655.70
1952.651,597.43
1953.487,608.60
1954.323,622.13
1955.160,612.80
1955.998,661.73
1956.834,654.83
1957.670,675.23
1958.506,637.50
1959.342,646.67
1960.177,629.73
1961.015,677.93
1961.850,658.50
1962.686,666.17
1963.521,620.27
1964.357,634.53
1965.192,597.43
1966.029,609.10
1966.864,645.47
1967.699,647.03
1968.534,680.27
1969.369,679.70
1970.204,622.60
1971.040,655.07
1971.875,630.73
1972.709,611.50
1973.544,630.10
1974.378,635.73
1975.212,657.43
1976.047,625.37
1976.882,629.40
1977.716,639.07
1978.550,606.60
1979.384,652.10
1980.218,606.13
1981.052,643.80
1981.885,635.83
1982.719,607.77
1983.554,658.23
1984.388,609.70
1985.221,674.03
1986.054,635.73
1986.887,651.60
1987.720,639.30
1988.553,611.17
1989.386,600.27
1990.219,637.13
1991.053,615.30
1991.886,608.53
1992.719,614.67
1993.551,616.80
1994.383,626.23
1995.216,610.13
1996.048,589.90
1996.880,613.13
1997.712,611.67
1998.544,615.17
1999.376,667.47
2000.208,618.70
2000.208,618.70

Max Intensity Wave.,219.929
Max Intensity Data,6881.27
Min Intensity Wave.,1123.206
Min Intensity Data,359.97
FWHM Wave.,382.590
FWHM Value,36.33
Pressure Wave.,684.671
Pressure Value [GPa],-24.91530
G/D Ratio,0.75415
G/D Gband Wave.,1630.885
G/D Gband Intensity,1057.41
G/D Dband Wave.,1306.117
G/D Dband Intensity,1402.12

<< BACKGROUND SPECTRUM >>
Wave[dcm-1],No226
146.591,2262.00
147.626,2087.00
148.664,2018.00
149.699,2527.00
150.737,2233.00
151.772,2409.00
152.809,2387.00
153.846,2245.00
154.881,2362.00
155.918,1954.00
156.953,2275.00
157.989,2563.00
159.026,2439.00
160.060,2640.00
161.096,2820.00
162.130,2467.00
163.167,2554.00
164.200,2434.00
165.236,2605.00
166.272,2648.00
167.305,2270.00
168.341,2521.00
169.374,2740.00
170.409,2750.00
171.445,2688.00
172.477,2493.00
173.512,2354.00
174.545,2613.00
175.580,2837.00
176.614,3048.00
177.647,2755.00
178.681,3017.00
179.713,3298.00
180.747,2790.00
181.781,2712.00
182.813,2926.00
183.847,3062.00
184.878,2716.00
185.912,2945.00
186.945,3097.00
187.976,3028.00
189.010,2692.00
190.043,2832.00
191.073,2914.00
192.106,2747.00
193.137,3181.00
194.170,2536.00
195.202,2888.00
196.232,2680.00
197.265,3003.00
198.297,3022.00
199.327,2737.00
200.359,2933.00
201.388,3264.00
202.420,2886.00
203.452,3077.00
204.481,2698.00
205.512,3235.00
206.544,3012.00
207.573,3029.00
208.604,3374.00
209.635,3469.00
210.663,2922.00
211.694,2952.00
212.725,2839.00
213.753,2789.00
214.783,3351.00
215.813,3220.00
216.841,2968.00
217.871,3107.00
218.899,2906.00
219.929,3103.00
220.959,2888.00
221.986,3177.00
223.016,2755.00
224.045,3113.00
225.072,3103.00
226.101,3121.00
227.130,3198.00
228.157,2790.00
229.185,2307.00
230.214,3171.00
231.241,2794.00
232.269,2440.00
233.297,2657.00
234.323,3203.00
235.351,2798.00
236.379,3056.00
237.407,2756.00
238.433,2922.00
239.460,3090.00
240.488,3064.00
241.513,3181.00
242.540,3089.00
243.568,3152.00
244.592,3200.00
245.619,3217.00
246.646,2883.00
247.671,2934.00
248.697,2785.00
249.724,2997.00
250.748,2974.00
251.774,2983.00
252.801,3296.00
253.827,3095.00
254.850,3075.00
255.876,2640.00
256.902,3106.00
257.925,2968.00
258.951,2722.00
259.976,2730.00
260.999,3045.00
262.024,2805.00
263.049,3605.00
264.074,3076.00
265.097,3004.00
266.122,3010.00
267.146,3038.00
268.168,3214.00
269.193,2841.00
270.217,3157.00
271.241,2728.00
272.263,2857.00
273.287,3152.00
274.311,2770.00
275.332,3279.00
276.356,2865.00
277.379,3042.00
278.402,3100.00
279.424,2897.00
280.447,2886.00
281.470,2667.00
282.492,3072.00
283.513,2889.00
284.536,3102.00
285.558,3097.00
286.581,3071.00
287.601,2820.00
288.623,2759.00
289.645,3056.00
290.665,3115.00
291.687,3074.00
292.709,3081.00
293.730,3382.00
294.750,2896.00
295.771,2751.00
296.792,3053.00
297.813,2906.00
298.832,3060.00
299.853,2756.00
300.874,2958.00
301.895,2942.00
302.913,2949.00
303.934,3237.00
304.954,3008.00
305.975,3152.00
306.993,2713.00
308.013,3095.00
309.033,2978.00
310.052,2900.00
311.072,2885.00
312.090,3026.00
313.109,3187.00
314.129,3429.00
315.148,2973.00
316.165,3035.00
317.184,3228.00
318.203,2759.00
319.222,2718.00
320.238,3131.00
321.257,2819.00
322.275,2708.00
323.294,2950.00
324.312,3120.00
325.328,3259.00
326.346,3299.00
327.364,3201.00
328.382,3117.00
329.397,3077.00
330.415,3206.00
331.432,3202.00
332.450,3211.00
333.467,3430.00
334.482,2579.00
335.499,3308.00
336.516,2876.00
337.533,2530.00
338.547,2804.00
339.564,2838.00
340.580,3108.00
341.597,2944.00
342.613,3369.00
343.627,2976.00
344.643,3001.00
345.659,3077.00
346.675,2944.00
347.690,2866.00
348.704,3012.00
349.719,2883.00
350.735,2710.00
351.750,3180.00
352.765,2993.00
353.778,2980.00
354.793,3126.00
355.808,2844.00
356.822,3185.00
357.837,2634.00
358.851,3237.00
359.864,2969.00
360.878,2745.00
361.892,2934.00
362.906,3136.00
363.920,2602.00
364.932,3079.00
365.945,3063.00
366.959,2989.00
367.972,2917.00
368.986,2676.00
369.999,3363.00
371.010,2875.00
372.023,3291.00
373.036,2958.00
374.049,3344.00
375.061,3075.00
376.072,2963.00
377.084,2851.00
378.097,2677.00
379.109,3192.00
380.121,2986.00
381.133,2686.00
382.143,3078.00
383.155,2699.00
384.166,2864.00
385.178,3084.00
386.189,3185.00
387.201,2705.00
388.212,2891.00
389.221,2900.00
390.232,2997.00
391.243,2891.00
392.254,2990.00
393.264,2839.00
394.275,3224.00
395.283,3146.00
396.294,3647.00
397.304,3448.00
398.314,3067.00
399.324,3004.00
400.334,2632.00
401.344,3127.00
402.351,2668.00
403.361,3202.00
404.370,2956.00
405.380,2849.00
406.389,3331.00
407.398,3069.00
408.407,3085.00
409.414,3164.00
410.423,3290.00
411.431,2763.00
412.440,2682.00
413.448,3302.00
414.457,2864.00
415.465,2776.00
416.471,2890.00
417.479,2993.00
418.487,2800.00
419.495,3297.00
420.503,3104.00
421.510,2600.00
422.518,3158.00
423.525,3172.00
424.530,3399.00
425.537,2889.00
426.544,3196.00
427.551,2836.00
428.558,3552.00
429.565,3387.00
430.571,2890.00
431.578,2924.00
432.582,2881.00
433.588,2936.00
434.595,2655.00
435.601,3224.00
436.607,3228.00
437.612,2770.00
438.618,3329.00
439.624,2915.00
440.627,2929.00
441.633,3140.00
442.638,3577.00
443.643,3110.00
444.648,2998.00
445.653,3166.00
446.658,2861.00
447.663,3007.00
448.667,2857.00
449.672,2901.00
450.674,3005.00
451.678,2670.00
452.682,2862.00
453.687,2818.00
454.690,3558.00
455.694,3231.00
456.698,2553.00
457.702,2660.00
458.705,2724.00
459.709,2785.00
460.710,2843.00
461.713,2991.00
462.716,3068.00
463.719,3017.00
464.722,3171.00
465.725,2946.00
466.727,2834.00
467.730,3061.00
468.732,2759.00
469.735,3243.00
470.737,2852.00
471.737,2861.00
472.739,2843.00
473.741,2826.00
474.742,3091.00
475.744,3105.00
476.746,3019.00
477.747,2942.00
478.748,3148.00
479.750,2922.00
480.751,2982.00
481.752,3670.00
482.753,3069.00
483.751,3529.00
484.752,2604.00
485.753,2945.00
486.753,2869.00
487.753,2971.00
488.754,3383.00
489.754,2721.00
490.754,3318.00
491.754,3110.00
492.754,2667.00
493.753,3014.00
494.753,2914.00
495.752,3288.00
496.752,3020.00
497.749,2914.00
498.748,2841.00
499.747,3388.00
500.746,3012.00
501.745,2765.00
502.744,2729.00
503.742,3323.00
504.741,2936.00
505.739,2476.00
506.737,2902.00
507.735,3106.00
508.734,3382.00
509.732,3161.00
510.729,3292.00
511.727,2864.00
512.725,2897.00
513.720,2776.00
514.718,3222.00
515.715,2704.00
516.712,2577.00
517.709,2966.00
518.706,2865.00
519.703,3028.00
520.700,3161.00
521.696,3346.00
522.693,2905.00
523.689,2815.00
524.686,3149.00
525.682,2758.00
526.678,3489.00
527.674,2887.00
528.670,2578.00
529.666,3474.00
530.661,3412.00
531.657,3675.00
532.652,3119.00
533.648,2997.00
534.641,3185.00
535.636,3020.00
536.631,3102.00
537.626,3107.00
538.621,2715.00
539.616,2587.00
540.610,2484.00
541.605,3017.00
542.599,3054.00
543.593,2974.00
544.587,3866.00
545.581,2800.00
546.575,3035.00
547.569,2972.00
548.563,2700.00
549.557,2653.00
550.550,2793.00
551.543,2726.00
552.537,3161.00
553.530,2772.00
554.523,2771.00
555.516,3050.00
556.509,2956.00
557.502,2623.00
558.494,3172.00
559.487,2886.00
560.479,3192.00
561.472,3221.00
562.464,3106.00
563.456,3296.00
564.448,2901.00
565.440,2985.00
566.432,3354.00
567.423,2872.00
568.415,2892.00
569.404,3087.00
570.396,2791.00
571.387,3068.00
572.378,3052.00
573.369,3924.00
574.360,3666.00
575.351,2902.00
576.341,2849.00
577.332,2840.00
578.323,2689.00
579.313,2877.00
580.303,3261.00
581.293,3138.00
582.283,3001.00
583.273,3106.00
584.263,3011.00
585.253,3090.00
586.243,3164.00
587.232,2666.00
588.222,2941.00
589.211,3174.00
590.200,3036.00
591.189,2904.00
592.178,2977.00
593.167,3383.00
594.156,3256.00
595.145,2881.00
596.133,3436.00
597.122,3131.00
598.110,3150.00
599.098,3025.00
600.086,2982.00
601.074,3160.00
602.062,2810.00
603.050,2740.00
604.038,3122.00
605.025,2744.00
606.013,3173.00
607.000,3376.00
607.987,3009.00
608.975,3045.00
609.962,2749.00
610.949,3082.00
611.936,3252.00
612.922,3143.00
613.909,2723.00
614.895,3351.00
615.882,2828.00
616.868,2993.00
617.854,2703.00
618.841,3019.00
619.826,3095.00
620.812,2980.00
621.798,2751.00
622.784,3138.00
623.769,3078.00
624.755,2658.00
625.740,3045.00
626.725,2707.00
627.711,2837.00
628.698,3040.00
629.683,2796.00
630.667,3099.00
631.652,2739.00
632.637,2926.00
633.621,3145.00
634.606,2893.00
635.590,3099.00
636.574,2902.00
637.558,3073.00
638.542,3023.00
639.526,2850.00
640.510,2646.00
641.493,3069.00
642.477,2950.00
643.460,2638.00
644.444,3213.00
645.427,3233.00
646.410,2670.00
647.393,2952.00
648.376,3036.00
649.359,2887.00
650.341,3054.00
651.324,3020.00
652.307,3025.00
653.289,2937.00
654.271,2863.00
655.253,2869.00
656.235,3133.00
657.217,3218.00
658.199,2647.00
659.181,2703.00
660.163,2986.00
661.144,2838.00
662.126,2893.00
663.107,2782.00
664.088,6183.00
665.069,3216.00
666.050,2776.00
667.033,2694.00
668.014,3025.00
668.995,2554.00
669.975,2968.00
670.956,2932.00
671.936,3101.00
672.916,2935.00
673.896,3068.00
674.876,2912.00
675.856,2844.00
676.836,2734.00
677.816,2318.00
678.795,2808.00
679.775,2676.00
680.754,3024.00
681.734,3149.00
682.713,3160.00
683.692,2752.00
684.671,2632.00
685.650,2757.00
686.629,2854.00
687.607,2761.00
688.586,2753.00
689.564,2837.00
690.543,3234.00
691.523,2380.00
692.501,2803.00
693.479,2939.00
694.457,2767.00
695.435,2852.00
696.413,2645.00
697.390,2511.00
698.368,2667.00
699.345,3082.00
700.322,2928.00
701.300,3026.00
702.277,3051.00
703.254,3263.00
704.231,2561.00
705.207,2960.00
706.184,2745.00
707.161,2654.00
708.137,2827.00
709.113,2794.00
710.090,2808.00
711.068,2586.00
712.044,2596.00
713.020,2918.00
713.996,2600.00
714.971,2805.00
715.947,2829.00
716.922,2804.00
717.898,2753.00
718.873,2885.00
719.848,2751.00
720.823,2735.00
721.798,2973.00
722.773,2759.00
723.748,2570.00
724.723,2978.00
725.697,2798.00
726.672,2710.00
727.646,2494.00
728.622,2952.00
729.596,2601.00
730.570,2732.00
731.544,3057.00
732.518,3265.00
733.492,2809.00
734.466,2918.00
735.439,2972.00
736.413,3082.00
737.386,2439.00
738.359,2411.00
739.332,2540.00
740.305,2821.00
741.278,3296.00
742.251,2906.00
743.224,2695.00
744.196,2584.00
745.171,3110.00
746.143,3045.00
747.115,2768.00
748.087,2687.00
749.059,3072.00
750.031,2889.00
751.003,3630.00
751.975,3237.00
752.947,2718.00
753.918,3076.00
754.890,2558.00
755.861,2776.00
756.832,3038.00
757.803,2812.00
758.774,2845.00
759.747,2629.00
760.718,3233.00
761.689,2717.00
762.659,2597.00
763.630,3114.00
764.600,2563.00
765.570,3034.00
766.540,3131.00
767.510,2927.00
768.480,3073.00
769.450,2710.00
770.420,2821.00
771.390,2606.00
772.359,2746.00
773.329,2654.00
774.300,2512.00
775.269,2735.00
776.238,2952.00
777.207,3089.00
778.176,2484.00
779.145,2761.00
780.114,2654.00
781.083,2549.00
782.051,2738.00
783.019,2668.00
783.988,3055.00
784.956,2820.00
785.924,2970.00
786.894,2865.00
787.862,2697.00
788.830,3150.00
789.797,2608.00
790.765,2621.00
791.732,2754.00
792.700,2662.00
793.667,2592.00
794.634,2740.00
795.601,2731.00
796.568,2757.00
797.535,2837.00
798.502,3456.00
799.468,2937.00
800.437,2394.00
801.403,2662.00
802.370,3242.00
803.336,3020.00
804.302,2923.00
805.268,2444.00
806.234,2557.00
807.200,2704.00
808.166,2780.00
809.131,2614.00
810.097,2961.00
811.062,3666.00
812.027,3012.00
812.994,2596.00
813.960,2577.00
814.925,2914.00
815.889,2513.00
816.854,3032.00
817.819,2661.00
818.783,2710.00
819.748,3088.00
820.712,2755.00
821.677,2688.00
822.641,2723.00
823.605,2717.00
824.571,3129.00
825.534,2738.00
826.498,2688.00
827.462,2750.00
828.425,2606.00
829.389,3075.00
830.352,2824.00
831.315,2921.00
832.279,2488.00
833.242,2745.00
834.204,2639.00
835.167,2645.00
836.132,3078.00
837.095,2504.00
838.057,2675.00
839.020,2815.00
839.982,2858.00
840.944,2696.00
841.906,2629.00
842.868,2939.00
843.830,2547.00
844.792,3025.00
845.753,2708.00
846.715,2427.00
847.679,2587.00
848.640,2582.00
849.601,2734.00
850.562,3188.00
851.523,2683.00
852.484,2451.00
853.445,2932.00
854.406,2708.00
855.367,2701.00
856.327,2995.00
857.288,2510.00
858.248,2645.00
859.210,2689.00
860.170,2559.00
861.130,3002.00
862.090,2489.00
863.050,2639.00
864.010,2699.00
864.969,2902.00
865.929,2585.00
866.888,2559.00
867.848,2790.00
868.807,2655.00
869.766,2848.00
870.727,2718.00
871.686,2975.00
872.645,2989.00
873.604,3291.00
874.562,2748.00
875.521,2813.00
876.479,3371.00
877.437,2567.00
878.396,2574.00
879.354,3213.00
880.312,2615.00
881.270,2683.00
882.229,3079.00
883.187,2625.00
884.145,2675.00
885.102,2934.00
886.059,2799.00
887.017,2883.00
887.974,2974.00
888.931,3030.00
889.888,2533.00
890.845,2458.00
891.802,2339.00
892.758,2649.00
893.717,2437.00
894.673,2550.00
895.630,2641.00
896.586,2887.00
897.542,2682.00
898.498,2542.00
899.454,2849.00
900.410,2682.00
901.366,2678.00
902.321,2588.00
903.277,2716.00
904.232,2778.00
905.189,2472.00
906.145,2648.00
907.100,2240.00
908.055,2696.00
909.010,2905.00
909.965,2368.00
910.919,2784.00
911.874,2552.00
912.828,2761.00
913.783,2786.00
914.737,2357.00
915.693,2749.00
916.648,2880.00
917.602,2919.00
918.555,2796.00
919.509,2874.00
920.463,2731.00
921.417,2757.00
922.370,2567.00
923.324,2657.00
924.277,2656.00
925.230,2782.00
926.183,2426.00
927.138,2683.00
928.091,2939.00
929.044,2813.00
929.996,2668.00
930.949,2676.00
931.902,2862.00
932.854,2826.00
933.806,2595.00
934.758,2917.00
935.711,2981.00
936.663,2777.00
937.614,2780.00
938.568,2743.00
939.520,2419.00
940.471,2683.00
941.423,2791.00
942.374,2884.00
943.326,2726.00
944.277,2607.00
945.228,2854.00
946.179,2698.00
947.130,2977.00
948.080,2677.00
949.031,2527.00
949.984,2652.00
950.934,2717.00
951.884,2503.00
952.835,2658.00
953.785,2778.00
954.735,2620.00
955.685,2351.00
956.635,2671.00
957.585,2652.00
958.534,2693.00
959.484,2793.00
960.433,2654.00
961.383,2462.00
962.334,2985.00
963.283,2762.00
964.232,2850.00
965.181,2713.00
966.130,2809.00
967.079,2611.00
968.027,2725.00
968.976,2732.00
969.924,2634.00
970.873,2827.00
971.821,2730.00
972.769,2930.00
973.719,2832.00
974.667,2460.00
975.615,2690.00
976.562,2705.00
977.510,2413.00
978.458,2609.00
979.405,2801.00
980.352,2781.00
981.300,2954.00
982.247,2811.00
983.194,2511.00
984.141,2647.00
985.088,2718.00
986.036,2733.00
986.983,3018.00
987.930,3123.00
988.876,2371.00
989.822,2992.00
990.769,2543.00
991.715,2569.00
992.661,2439.00
993.607,2790.00
994.553,3277.00
995.498,2622.00
996.444,2303.00
997.389,2770.00
998.337,2529.00
999.282,2866.00
1000.227,2644.00
1001.173,2719.00
1002.118,2464.00
1003.062,2902.00
1004.007,2685.00
1004.952,2997.00
1005.897,2922.00
1006.841,2701.00
1007.786,2493.00
1008.730,2403.00
1009.674,3135.00
1010.618,2680.00
1011.564,2507.00
1012.508,2411.00
1013.452,2995.00
1014.396,2723.00
1015.339,2609.00
1016.283,2691.00
1017.226,2746.00
1018.170,2699.00
1019.113,2874.00
1020.056,2746.00
1020.999,2682.00
1021.942,2596.00
1022.885,2831.00
1023.828,3025.00
1024.770,2472.00
1025.715,2764.00
1026.657,2696.00
1027.600,2786.00
1028.542,2938.00
1029.484,2769.00
1030.426,2852.00
1031.368,2776.00
1032.310,2561.00
1033.251,2576.00
1034.193,2711.00
1035.135,2505.00
1036.076,2648.00
1037.017,2559.00
1037.959,2825.00
1038.900,2798.00
1039.843,2771.00
1040.784,2724.00
1041.725,2842.00
1042.665,2622.00
1043.606,2757.00
1044.547,2751.00
1045.487,2381.00
1046.427,2661.00
1047.368,2753.00
1048.308,2290.00
1049.248,2490.00
1050.188,2710.00
1051.128,2631.00
1052.067,2691.00
1053.007,2420.00
1053.947,2380.00
1054.886,2588.00
1055.827,2458.00
1056.766,2903.00
1057.706,2464.00
1058.645,2656.00
1059.584,2764.00
1060.522,2972.00
1061.461,2478.00
1062.400,2429.00
1063.338,2628.00
1064.277,2493.00
1065.215,2548.00
1066.154,2401.00
1067.092,2623.00
1068.030,2600.00
1068.968,2839.00
1069.906,2973.00
1070.843,2950.00
1071.781,2786.00
1072.720,2780.00
1073.658,2835.00
1074.595,2618.00
1075.533,2588.00
1076.470,2576.00
1077.407,2977.00
1078.344,2779.00
1079.281,2833.00
1080.217,2281.00
1081.154,2644.00
1082.091,2722.00
1083.027,2454.00
1083.964,2879.00
1084.900,2527.00
1085.836,2640.00
1086.772,2908.00
1087.708,2461.00
1088.644,2855.00
1089.580,2698.00
1090.515,2785.00
1091.451,2588.00
1092.388,2734.00
1093.324,2463.00
1094.259,3233.00
1095.194,2727.00
1096.129,2644.00
1097.064,2613.00
1097.999,2802.00
1098.934,2507.00
1099.869,2574.00
1100.803,2720.00
1101.738,2711.00
1102.672,2392.00
1103.607,2826.00
1104.541,2544.00
1105.475,2529.00
1106.409,2415.00
1107.343,2624.00
1108.277,2481.00
1109.210,2716.00
1110.144,2687.00
1111.078,2691.00
1112.011,2440.00
1112.944,2810.00
1113.878,2721.00
1114.811,2187.00
1115.744,2555.00
1116.678,2289.00
1117.611,2557.00
1118.544,2627.00
1119.477,2734.00
1120.409,2571.00
1121.342,3110.00
1122.274,2774.00
1123.206,4230.00
1124.138,2649.00
1125.070,2978.00
1126.002,2833.00
1126.934,2312.00
1127.866,2557.00
1128.798,2359.00
1129.729,2400.00
1130.661,2662.00
1131.592,2537.00
1132.523,2739.00
1133.454,2754.00
1134.385,2313.00
1135.317,2672.00
1136.247,2583.00
1137.178,2811.00
1138.109,2372.00
1139.039,3011.00
1139.970,2805.00
1140.900,2558.00
1141.831,2323.00
1142.761,2260.00
1143.691,3298.00
1144.621,2638.00
1145.551,2717.00
1146.480,2719.00
1147.410,2820.00
1148.340,2288.00
1149.269,2369.00
1150.199,2619.00
1151.128,3054.00
1152.057,2421.00
1152.979,2548.00
1153.898,2655.00
1154.819,2739.00
1155.739,2632.00
1156.658,2554.00
1157.579,2669.00
1158.498,2643.00
1159.419,2170.00
1160.338,2709.00
1161.256,2708.00
1162.177,2494.00
1163.095,2595.00
1164.016,2761.00
1164.934,2846.00
1165.852,2824.00
1166.772,2612.00
1167.690,2643.00
1168.610,2710.00
1169.528,2656.00
1170.446,2216.00
1171.365,2525.00
1172.283,2486.00
1173.202,2608.00
1174.120,2700.00
1175.037,2508.00
1175.956,2451.00
1176.873,2488.00
1177.792,2560.00
1178.709,3076.00
1179.626,2513.00
1180.544,2834.00
1181.461,2484.00
1182.379,2724.00
1183.296,2596.00
1184.212,2287.00
1185.130,2517.00
1186.046,2984.00
1186.962,2657.00
1187.880,2912.00
1188.796,2703.00
1189.714,2430.00
1190.629,2780.00
1191.545,2662.00
1192.462,2565.00
1193.378,2599.00
1194.295,2336.00
1195.210,2616.00
1196.125,2776.00
1197.042,2739.00
1197.957,2615.00
1198.872,2536.00
1199.788,2560.00
1200.703,2948.00
1201.619,2659.00
1202.534,2458.00
1203.448,2713.00
1204.364,2540.00
1205.278,2321.00
1206.192,2666.00
1207.108,3120.00
1208.022,3007.00
1208.938,2477.00
1209.851,2782.00
1210.765,2840.00
1211.680,2541.00
1212.594,2411.00
1213.507,2567.00
1214.422,3020.00
1215.335,2753.00
1216.248,2595.00
1217.163,2607.00
1218.076,3214.00
1218.990,2748.00
1219.903,2399.00
1220.816,2470.00
1221.730,2603.00
1222.642,2496.00
1223.554,2541.00
1224.469,2679.00
1225.380,2573.00
1226.292,2271.00
1227.206,2764.00
1228.118,2943.00
1229.032,2246.00
1229.943,2527.00
1230.855,2603.00
1231.768,2384.00
1232.679,2750.00
1233.590,2616.00
1234.503,2834.00
1235.414,2506.00
1236.325,2480.00
1237.238,2717.00
1238.149,2760.00
1239.059,2456.00
1239.972,2777.00
1240.882,2469.00
1241.793,2759.00
1242.705,3041.00
1243.615,2548.00
1244.525,2735.00
1245.437,2230.00
1246.347,2674.00
1247.259,2779.00
1248.168,3072.00
1249.078,2878.00
1249.989,2884.00
1250.899,2456.00
1251.808,2511.00
1252.719,2552.00
1253.628,2476.00
1254.537,3036.00
1255.448,2473.00
1256.357,2459.00
1257.266,2629.00
1258.176,2372.00
1259.085,2372.00
1259.993,2467.00
1260.904,2451.00
1261.812,2483.00
1262.720,3233.00
1263.630,2789.00
1264.538,2483.00
1265.446,2719.00
1266.356,2614.00
1267.263,2879.00
1268.171,2418.00
1269.080,2711.00
1269.988,2803.00
1270.895,2565.00
1271.804,2554.00
1272.711,2804.00
1273.619,2770.00
1274.527,2478.00
1275.434,2735.00
1276.341,2433.00
1277.248,2681.00
1278.156,2905.00
1279.063,2493.00
1279.969,2699.00
1280.877,3550.00
1281.783,2850.00
1282.690,2687.00
1283.598,2630.00
1284.503,2526.00
1285.409,2429.00
1286.317,3004.00
1287.223,2986.00
1288.128,2649.00
1289.036,2501.00
1289.941,2554.00
1290.846,2672.00
1291.751,2445.00
1292.658,2530.00
1293.563,3102.00
1294.468,2668.00
1295.375,2777.00
1296.280,2851.00
1297.184,3353.00
1298.091,2733.00
1298.995,2789.00
1299.900,2975.00
1300.806,2515.00
1301.710,2379.00
1302.614,2223.00
1303.518,2874.00
1304.424,2594.00
1305.327,2803.00
1306.231,2571.00
1307.137,2779.00
1308.040,2693.00
1308.943,2656.00
1309.847,2830.00
1310.752,2787.00
1311.655,2298.00
1312.558,2419.00
1313.463,2576.00
1314.366,2540.00
1315.269,2678.00
1316.171,2645.00
1317.076,2515.00
1317.978,2408.00
1318.881,2249.00
1319.785,2489.00
1320.687,2518.00
1321.589,2291.00
1322.491,2461.00
1323.395,2710.00
1324.297,3163.00
1325.198,2761.00
1326.102,2427.00
1327.004,2418.00
1327.905,3009.00
1328.806,2611.00
1329.709,2678.00
1330.611,2559.00
1331.512,2444.00
1332.413,3075.00
1333.316,2679.00
1334.216,2789.00
1335.117,2379.00
1336.020,2688.00
1336.920,2606.00
1337.821,2510.00
1338.721,2866.00
1339.623,2706.00
1340.523,2585.00
1341.423,2508.00
1342.323,2880.00
1343.225,2728.00
1344.125,2480.00
1345.025,2522.00
1345.924,2313.00
1346.826,2924.00
1347.725,3052.00
1348.624,2857.00
1349.524,2485.00
1350.425,2582.00
1351.324,2701.00
1352.223,2796.00
1353.121,2614.00
1354.022,2850.00
1354.921,2972.00
1355.819,2778.00
1356.718,2692.00
1357.618,2392.00
1358.516,2733.00
1359.415,3033.00
1360.313,2705.00
1361.213,2588.00
1362.111,2916.00
1363.008,3295.00
1363.906,2611.00
1364.806,2647.00
1365.703,2684.00
1366.601,2448.00
1367.498,2450.00
1368.397,2830.00
1369.295,2663.00
1370.192,2425.00
1371.089,2680.00
1371.987,2633.00
1372.884,2868.00
1373.781,2422.00
1374.678,2638.00
1375.574,2497.00
1376.473,2735.00
1377.369,2833.00
1378.265,2480.00
1379.161,2584.00
1380.059,2370.00
1380.955,2758.00
1381.851,2386.00
1382.747,2536.00
1383.643,2605.00
1384.540,2417.00
1385.436,2524.00
1386.331,2713.00
1387.227,2801.00
1388.124,2743.00
1389.019,2434.00
1389.914,2604.00
1390.809,2306.00
1391.704,3034.00
1392.601,2526.00
1393.495,2877.00
1394.390,2764.00
1395.285,2869.00
1396.179,2692.00
1397.075,2573.00
1397.969,2691.00
1398.864,2316.00
1399.758,2603.00
1400.652,2616.00
1401.547,2483.00
1402.441,2426.00
1403.335,2937.00
1404.229,2678.00
1405.122,2729.00
1406.017,2631.00
1406.911,2760.00
1407.804,3002.00
1408.697,2597.00
1409.590,2482.00
1410.485,2830.00
1411.378,2708.00
1412.271,2353.00
1413.163,2667.00
1414.056,2785.00
1414.949,3024.00
1415.843,2685.00
1416.735,2590.00
1417.627,2658.00
1418.520,2574.00
1419.412,2856.00
1420.306,2754.00
1421.197,2885.00
1422.089,2836.00
1422.981,3073.00
1423.873,2825.00
1424.764,2733.00
1425.657,2655.00
1426.549,2768.00
1427.440,2847.00
1428.331,2539.00
1429.222,2335.00
1430.113,2710.00
1431.006,2817.00
1431.897,2522.00
1432.787,2603.00
1433.678,2586.00
1434.568,2456.00
1435.459,2835.00
1436.351,2828.00
1437.241,2795.00
1438.131,2789.00
1439.021,2381.00
1439.911,2586.00
1440.801,2688.00
1441.693,2850.00
1442.583,2667.00
1443.472,2630.00
1444.362,2729.00
1445.251,2581.00
1446.140,2580.00
1447.030,2819.00
1447.921,2833.00
1448.810,2487.00
1449.699,2979.00
1450.588,2673.00
1451.476,2579.00
1452.365,2738.00
1453.254,2543.00
1454.144,2518.00
1455.032,2762.00
1455.921,2382.00
1456.809,2929.00
1457.697,2458.00
1458.585,2577.00
1459.473,2569.00
1460.361,2512.00
1461.251,2727.00
1462.138,2700.00
1463.026,2615.00
1463.913,2858.00
1464.801,2592.00
1465.688,2718.00
1466.575,2628.00
1467.463,3074.00
1468.351,2505.00
1469.238,2628.00
1470.125,2232.00
1471.012,2673.00
1471.899,2728.00
1472.785,2478.00
1473.672,2685.00
1474.558,2881.00
1475.446,2810.00
1476.333,2788.00
1477.219,2464.00
1478.105,2635.00
1478.991,2598.00
1479.877,2941.00
1480.762,2625.00
1481.648,2560.00
1482.534,2770.00
1483.419,2701.00
1484.307,2783.00
1485.192,2618.00
1486.077,2440.00
1486.962,2500.00
1487.847,2395.00
1488.732,2491.00
1489.617,2669.00
1490.502,2893.00
1491.387,2768.00
1492.271,2462.00
1493.156,2511.00
1494.042,2475.00
1494.927,2847.00
1495.811,2553.00
1496.695,2781.00
1497.579,2950.00
1498.463,2650.00
1499.347,2718.00
1500.231,2682.00
1501.114,2671.00
1501.998,2876.00
1502.881,2680.00
1503.765,2952.00
1504.648,3021.00
1505.533,2754.00
1506.417,2660.00
1507.300,2600.00
1508.183,2717.00
1509.066,2183.00
1509.948,2900.00
1510.831,2981.00
1511.714,2445.00
1512.596,2738.00
1513.479,2862.00
1514.361,2836.00
1515.243,2690.00
1516.125,2778.00
1517.008,2932.00
1517.890,2604.00
1518.771,2684.00
1519.655,2861.00
1520.537,2609.00
1521.419,2521.00
1522.300,2700.00
1523.182,2789.00
1524.063,2766.00
1524.944,2907.00
1525.825,2830.00
1526.707,2480.00
1527.588,2438.00
1528.468,2725.00
1529.349,2319.00
1530.230,2568.00
1531.111,2821.00
1531.991,2684.00
1532.872,2354.00
1533.752,2619.00
1534.632,2517.00
1535.513,2531.00
1536.393,2816.00
1537.273,2992.00
1538.153,3302.00
1539.032,2419.00
1539.912,2631.00
1540.792,2637.00
1541.672,2633.00
1542.551,2769.00
1543.430,3215.00
1544.310,2686.00
1545.189,2551.00
1546.068,3062.00
1546.947,2778.00
1547.826,2970.00
1548.705,2637.00
1549.584,2867.00
1550.462,2600.00
1551.341,2821.00
1552.219,2740.00
1553.098,2770.00
1553.976,2874.00
1554.854,3053.00
1555.733,2834.00
1556.611,2568.00
1557.489,2441.00
1558.367,2649.00
1559.244,2823.00
1560.122,2596.00
1561.000,2717.00
1561.877,2919.00
1562.755,2542.00
1563.632,2631.00
1564.509,2893.00
1565.386,3010.00
1566.264,2414.00
1567.141,2297.00
1568.017,2799.00
1568.894,2667.00
1569.771,2696.00
1570.648,2769.00
1571.524,2675.00
1572.401,2439.00
1573.277,2435.00
1574.153,2732.00
1575.029,2522.00
1575.906,3382.00
1576.781,2810.00
1577.657,2563.00
1578.533,2897.00
1579.409,2300.00
1580.285,2609.00
1581.160,3069.00
1582.036,2799.00
1582.911,2463.00
1583.786,2985.00
1584.662,2486.00
1585.537,2615.00
1586.412,2683.00
1587.287,2527.00
1588.160,2834.00
1589.035,2321.00
1589.909,2699.00
1590.784,2638.00
1591.658,2482.00
1592.533,2697.00
1593.407,2646.00
1594.281,2526.00
1595.155,3057.00
1596.029,2573.00
1596.903,2619.00
1597.777,2580.00
1598.651,2912.00
1599.525,2367.00
1600.398,2730.00
1601.272,2635.00
1602.144,3185.00
1603.017,2604.00
1603.890,2919.00
1604.763,2753.00
1605.636,2810.00
1606.509,2406.00
1607.382,2497.00
1608.255,2738.00
1609.128,2886.00
1610.000,2620.00
1610.873,2336.00
1611.746,2542.00
1612.616,2573.00
1613.488,2253.00
1614.361,2648.00
1615.233,2584.00
1616.105,2888.00
1616.977,2590.00
1617.849,2462.00
1618.720,2980.00
1619.592,2957.00
1620.464,2757.00
1621.333,3068.00
1622.205,2628.00
1623.076,2637.00
1623.947,2654.00
1624.818,2903.00
1625.689,2773.00
1626.560,2544.00
1627.431,2730.00
1628.302,3024.00
1629.171,2778.00
1630.042,2951.00
1630.912,3253.00
1631.782,3253.00
1632.653,2468.00
1633.523,2812.00
1634.393,2899.00
1635.263,2530.00
1636.131,2639.00
1637.001,2576.00
1637.871,2293.00
1638.741,2314.00
1639.611,2385.00
1640.480,2782.00
1641.350,2540.00
1642.219,2511.00
1643.087,2173.00
1643.956,3075.00
1644.825,2893.00
1645.694,2832.00
1646.563,2775.00
1647.432,2679.00
1648.299,2703.00
1649.167,2794.00
1650.036,2456.00
1650.904,2814.00
1651.773,2886.00
1652.641,2658.00
1653.509,2872.00
1654.376,2537.00
1655.244,2705.00
1656.112,2736.00
1656.980,2672.00
1657.847,2509.00
1658.715,2819.00
1659.581,2618.00
1660.448,2880.00
1661.316,2165.00
1662.183,2727.00
1663.051,2695.00
1663.918,2681.00
1664.783,2733.00
1665.650,2739.00
1666.517,2835.00
1667.384,2702.00
1668.251,2723.00
1669.115,2887.00
1669.982,2634.00
1670.849,2942.00
1671.715,2616.00
1672.581,2795.00
1673.446,2775.00
1674.312,2677.00
1675.178,3052.00
1676.044,2745.00
1676.910,2763.00
1677.774,2711.00
1678.639,2358.00
1679.505,2633.00
1680.370,2755.00
1681.236,3287.00
1682.099,2610.00
1682.965,2689.00
1683.830,2267.00
1684.695,2510.00
1685.560,2591.00
1686.423,2777.00
1687.288,2786.00
1688.153,2691.00
1689.017,2600.00
1689.880,2790.00
1690.745,2791.00
1691.609,2525.00
1692.473,2827.00
1693.338,2884.00
1694.200,2933.00
1695.064,2695.00
1695.928,2598.00
1696.792,2694.00
1697.654,3117.00
1698.517,2694.00
1699.381,2422.00
1700.245,2356.00
1701.106,2940.00
1701.969,2538.00
1702.833,2804.00
1703.696,2573.00
1704.557,2628.00
1705.420,2528.00
1706.283,2696.00
1707.146,2800.00
1708.007,2486.00
1708.870,2477.00
1709.732,2376.00
1710.595,2533.00
1711.455,2428.00
1712.318,2620.00
1713.180,2963.00
1714.040,2724.00
1714.902,2855.00
1715.764,2665.00
1716.626,2444.00
1717.486,2642.00
1718.348,2900.00
1719.209,4914.00
1720.071,2339.00
1720.930,2393.00
1721.792,2521.00
1722.653,2532.00
1723.512,2580.00
1724.374,2610.00
1725.234,2706.00
1726.095,2711.00
1726.954,2645.00
1727.815,2757.00
1728.676,2616.00
1729.535,2888.00
1730.395,2667.00
1731.256,2603.00
1732.114,2694.00
1732.974,2168.00
1733.834,3072.00
1734.693,2830.00
1735.553,2711.00
1736.413,3092.00
1737.272,2552.00
1738.130,2636.00
1738.990,2777.00
1739.849,2571.00
1740.707,3681.00
1741.566,2717.00
1742.426,2749.00
1743.283,3051.00
1744.142,2542.00
1745.001,2342.00
1745.858,2834.00
1746.717,2759.00
1747.576,2778.00
1748.433,2852.00
1749.292,3237.00
1750.150,3225.00
1751.007,2863.00
1751.865,2877.00
1752.723,2701.00
1753.579,2610.00
1754.438,2878.00
1755.296,2918.00
1756.152,2251.00
1757.010,2346.00
1757.865,2861.00
1758.723,2344.00
1759.581,2981.00
1760.436,2619.00
1761.294,3044.00
1762.151,2679.00
1763.006,2577.00
1763.864,2334.00
1764.721,2863.00
1765.576,2684.00
1766.433,2815.00
1767.288,2586.00
1768.144,2692.00
1769.001,2614.00
1769.856,2765.00
1770.712,2918.00
1771.568,2468.00
1772.423,2557.00
1773.279,2600.00
1774.133,2558.00
1774.989,3076.00
1775.845,3009.00
1776.699,2891.00
1777.555,2648.00
1778.409,3204.00
1779.265,2649.00
1780.120,2651.00
1780.974,2662.00
1781.829,2313.00
1782.682,2704.00
1783.538,2502.00
1784.393,2699.00
1785.246,2593.00
1786.101,2818.00
1786.954,2788.00
1787.808,2837.00
1788.661,2415.00
1789.516,2567.00
1790.370,2636.00
1791.223,2869.00
1792.077,2682.00
1792.930,2775.00
1793.784,2555.00
1794.636,2653.00
1795.490,2638.00
1796.344,2696.00
1797.196,2667.00
1798.049,2838.00
1798.901,2619.00
1799.755,2892.00
1800.606,2492.00
1801.460,3179.00
1802.311,2949.00
1803.165,3070.00
1804.018,3016.00
1804.869,2756.00
1805.722,3142.00
1806.573,2718.00
1807.426,2501.00
1808.276,2709.00
1809.129,2600.00
1809.980,2857.00
1810.832,2953.00
1811.683,2591.00
1812.535,3039.00
1813.385,2616.00
1814.237,2963.00
1815.089,2703.00
1815.940,2958.00
1816.791,2630.00
1817.641,2556.00
1818.493,2818.00
1819.343,2743.00
1820.194,2520.00
1821.044,2781.00
1821.895,2896.00
1822.745,2388.00
1823.596,2559.00
1824.445,3061.00
1825.296,2779.00
1826.145,2660.00
1826.996,2876.00
1827.845,2754.00
1828.695,2750.00
1829.544,2694.00
1830.395,2697.00
1831.243,2604.00
1832.094,2432.00
1832.942,3309.00
1833.792,2840.00
1834.640,2759.00
1835.490,2693.00
1836.338,2736.00
1837.186,2574.00
1838.036,2556.00
1838.884,2671.00
1839.733,2999.00
1840.581,2888.00
1841.430,2840.00
1842.278,2993.00
1843.127,2575.00
1843.974,2355.00
1844.823,3125.00
1845.671,2845.00
1846.519,2683.00
1847.366,2750.00
1848.213,2334.00
1849.062,2490.00
1849.909,2419.00
1850.757,3311.00
1851.604,2780.00
1852.452,2612.00
1853.298,2884.00
1854.146,2750.00
1854.993,2727.00
1855.839,3160.00
1856.687,2804.00
1857.532,2812.00
1858.380,2673.00
1859.226,2735.00
1860.073,2816.00
1860.919,2501.00
1861.765,2608.00
1862.612,2939.00
1863.457,2891.00
1864.304,2628.00
1865.150,2791.00
1865.995,2637.00
1866.842,2798.00
1867.686,2919.00
1868.533,2768.00
1869.378,2779.00
1870.223,2706.00
1871.069,2576.00
1871.914,2683.00
1872.760,2641.00
1873.604,2511.00
1874.448,2832.00
1875.294,2860.00
1876.139,2579.00
1876.984,2823.00
1877.828,2351.00
1878.672,2192.00
1879.518,2601.00
1880.361,2883.00
1881.205,2863.00
1882.050,2503.00
1882.894,3212.00
1883.739,2579.00
1884.582,2443.00
1885.425,2527.00
1886.270,2943.00
1887.113,2473.00
1887.956,2798.00
1888.801,2751.00
1889.644,2522.00
1890.486,2294.00
1891.331,2638.00
1892.173,2769.00
1893.017,2734.00
1893.860,2964.00
1894.702,2985.00
1895.546,2661.00
1896.388,3391.00
1897.230,3041.00
1898.074,2593.00
1898.916,2499.00
1899.757,2538.00
1900.601,3351.00
1901.443,2971.00
1902.284,2986.00
1903.125,3147.00
1903.969,2872.00
1904.810,2982.00
1905.651,2771.00
1906.494,2996.00
1907.335,3118.00
1908.176,2801.00
1909.018,2801.00
1909.859,2678.00
1910.700,2572.00
1911.542,3240.00
1912.383,2787.00
1913.223,2322.00
1914.064,2805.00
1914.906,2960.00
1915.746,3028.00
1916.586,3151.00
1917.428,2720.00
1918.268,2722.00
1919.107,2577.00
1919.947,2484.00
1920.789,2631.00
1921.628,2937.00
1922.468,2696.00
1923.309,2566.00
1924.148,2989.00
1924.988,2767.00
1925.827,2699.00
1926.667,2609.00
1927.507,2756.00
1928.345,2526.00
1929.184,2847.00
1930.025,2522.00
1930.864,2959.00
1931.702,3012.00
1932.541,2613.00
1933.381,2839.00
1934.219,2885.00
1935.057,3007.00
1935.896,2464.00
1936.735,2642.00
1937.573,2611.00
1938.411,2499.00
1939.249,2907.00
1940.089,2581.00
1940.927,2952.00
1941.764,2959.00
1942.602,2627.00
1943.439,2647.00
1944.278,2698.00
1945.115,2605.00
1945.953,2455.00
1946.790,2826.00
1947.628,3059.00
1948.465,2836.00
1949.302,2847.00
1950.139,2823.00
1950.976,2633.00
1951.814,2847.00
1952.651,2816.00
1953.487,2551.00
1954.323,2979.00
1955.160,2714.00
1955.998,3039.00
1956.834,2676.00
1957.670,2743.00
1958.506,2931.00
1959.342,2796.00
1960.177,2763.00
1961.015,2805.00
1961.850,2735.00
1962.686,2731.00
1963.521,2765.00
1964.357,2979.00
1965.192,2530.00
1966.029,2871.00
1966.864,2623.00
1967.699,2923.00
1968.534,2691.00
1969.369,2936.00
1970.204,2691.00
1971.040,2723.00
1971.875,2662.00
1972.709,2767.00
1973.544,2560.00
1974.378,2598.00
1975.212,2787.00
1976.047,2617.00
1976.882,2590.00
1977.716,3088.00
1978.550,2453.00
1979.384,2654.00
1980.218,2695.00
1981.052,2637.00
1981.885,2740.00
1982.719,2735.00
1983.554,2845.00
1984.388,3038.00
1985.221,2751.00
1986.054,2964.00
1986.887,2746.00
1987.720,2563.00
1988.553,3040.00
1989.386,2830.00
1990.219,2840.00
1991.053,3036.00
1991.886,2618.00
1992.719,2921.00
1993.551,2264.00
1994.383,2869.00
1995.216,2660.00
1996.048,2488.00
1996.880,2911.00
1997.712,2621.00
1998.544,2743.00
1999.376,2745.00
2000.208,3008.00
