RamanScope Measure Spectrum Data V3.72

<< MEASURE CONDITION >>
Exposure Type,Aver
Exposure Time [sec],15
Exposure Count,4
Measure Time,2023/07/15 15:40:21
Data Name,""
Data Comment,""
Rayleigh Wave[nm],532.0

<< SAMPLE SPECTRUM >>
Wave[dcm-1],No148
146.591,1055.25
147.626,1217.75
148.664,1404.75
149.699,1664.75
150.737,1835.00
151.772,2023.25
152.809,2244.50
153.846,2391.50
154.881,2587.75
155.918,2727.25
156.953,2831.75
157.989,2899.25
159.026,3020.75
160.060,3107.00
161.096,3116.00
162.130,3191.25
163.167,3234.75
164.200,3310.75
165.236,3328.50
166.272,3398.75
167.305,3459.25
168.341,3506.75
169.374,3523.00
170.409,3613.50
171.445,3714.00
172.477,3799.75
173.512,3833.25
174.545,3871.75
175.580,3884.00
176.614,3962.25
177.647,3927.50
178.681,3946.50
179.713,3966.75
180.747,3901.25
181.781,3870.75
182.813,3829.50
183.847,3821.50
184.878,3873.50
185.912,3788.50
186.945,3843.00
187.976,3797.25
189.010,3856.75
190.043,3833.75
191.073,3868.25
192.106,3888.50
193.137,3921.00
194.170,4005.00
195.202,4076.00
196.232,4074.00
197.265,4102.00
198.297,4158.75
199.327,4279.75
200.359,4285.25
201.388,4327.75
202.420,4397.50
203.452,4475.75
204.481,4559.25
205.512,4689.25
206.544,4735.00
207.573,4798.50
208.604,4922.25
209.635,5016.50
210.663,5124.00
211.694,5181.25
212.725,5278.50
213.753,5404.25
214.783,5426.50
215.813,5473.25
216.841,5529.00
217.871,5433.50
218.899,5408.75
219.929,5420.50
220.959,5278.00
221.986,5225.75
223.016,5212.50
224.045,5079.75
225.072,5062.50
226.101,4952.25
227.130,4855.00
228.157,4850.50
229.185,4747.00
230.214,4772.25
231.241,4712.25
232.269,4667.50
233.297,4655.25
234.323,4647.50
235.351,4660.00
236.379,4676.25
237.407,4667.25
238.433,4689.00
239.460,4709.00
240.488,4797.75
241.513,4765.25
242.540,4881.00
243.568,4960.25
244.592,4927.50
245.619,4918.00
246.646,4906.75
247.671,4893.25
248.697,4871.00
249.724,4814.50
250.748,4800.75
251.774,4808.75
252.801,4835.00
253.827,4857.75
254.850,4852.75
255.876,4852.75
256.902,4849.00
257.925,4845.75
258.951,4877.50
259.976,4948.00
260.999,4962.25
262.024,4958.75
263.049,5026.25
264.074,5018.75
265.097,5076.75
266.122,5093.00
267.146,5175.00
268.168,5155.75
269.193,5160.25
270.217,5252.00
271.241,5259.25
272.263,5286.00
273.287,5280.25
274.311,5356.25
275.332,5333.50
276.356,5297.00
277.379,5317.50
278.402,5320.00
279.424,5254.25
280.447,5206.25
281.470,5158.75
282.492,5104.75
283.513,5004.50
284.536,4945.25
285.558,4931.25
286.581,4866.25
287.601,4765.00
288.623,4741.50
289.645,4683.50
290.665,4630.25
291.687,4602.50
292.709,4576.50
293.730,4447.00
294.750,4460.75
295.771,4440.00
296.792,4367.75
297.813,4321.25
298.832,4221.75
299.853,4207.00
300.874,4189.75
301.895,4155.25
302.913,4104.00
303.934,4087.25
304.954,3955.50
305.975,4043.25
306.993,4030.00
308.013,3934.75
309.033,3965.25
310.052,3888.75
311.072,3870.00
312.090,3849.50
313.109,3797.75
314.129,3757.00
315.148,3775.00
316.165,3728.50
317.184,3742.50
318.203,3747.00
319.222,3700.50
320.238,3665.75
321.257,3706.00
322.275,3748.75
323.294,3716.50
324.312,3676.25
325.328,3655.75
326.346,3613.25
327.364,3659.00
328.382,3634.25
329.397,3575.00
330.415,3605.50
331.432,3615.00
332.450,3598.00
333.467,3524.75
334.482,3582.25
335.499,3600.25
336.516,3601.25
337.533,3574.25
338.547,3504.00
339.564,3532.25
340.580,3578.75
341.597,3578.00
342.613,3518.75
343.627,3528.75
344.643,3542.00
345.659,3504.00
346.675,3508.25
347.690,3535.25
348.704,3464.00
349.719,3496.00
350.735,3437.00
351.750,3526.75
352.765,3503.00
353.778,3535.75
354.793,3454.75
355.808,3513.50
356.822,3476.75
357.837,3522.25
358.851,3547.75
359.864,3448.50
360.878,3539.50
361.892,3508.00
362.906,3528.75
363.920,3506.00
364.932,3464.75
365.945,3470.50
366.959,3494.50
367.972,3448.50
368.986,3514.25
369.999,3506.50
371.010,3494.50
372.023,3531.50
373.036,3526.75
374.049,3543.00
375.061,3572.50
376.072,3525.25
377.084,3603.75
378.097,3582.00
379.109,3590.50
380.121,3639.50
381.133,3530.00
382.143,3596.75
383.155,3570.25
384.166,3562.25
385.178,3544.25
386.189,3531.75
387.201,3592.75
388.212,3579.00
389.221,3561.75
390.232,3522.00
391.243,3555.00
392.254,3578.25
393.264,3499.50
394.275,3527.25
395.283,3471.75
396.294,3521.50
397.304,3427.75
398.314,3497.50
399.324,3430.00
400.334,3465.25
401.344,3403.25
402.351,3420.25
403.361,3390.75
404.370,3447.25
405.380,3406.25
406.389,3341.75
407.398,3388.50
408.407,3353.50
409.414,3379.00
410.423,3407.75
411.431,3336.75
412.440,3341.75
413.448,3292.25
414.457,3349.50
415.465,3320.25
416.471,3295.25
417.479,3222.75
418.487,3257.75
419.495,3318.50
420.503,3267.00
421.510,3322.25
422.518,3197.25
423.525,3259.00
424.530,3226.25
425.537,3260.50
426.544,3255.75
427.551,3217.00
428.558,3257.75
429.565,3229.00
430.571,3239.75
431.578,3184.00
432.582,3232.50
433.588,3247.75
434.595,3208.00
435.601,3225.75
436.607,3209.50
437.612,3239.25
438.618,3200.50
439.624,3177.00
440.627,3231.00
441.633,3202.75
442.638,3163.75
443.643,3154.75
444.648,3193.75
445.653,3214.75
446.658,3223.00
447.663,3137.00
448.667,3205.25
449.672,3198.75
450.674,3209.50
451.678,3257.00
452.682,3219.25
453.687,3202.25
454.690,3206.00
455.694,3260.50
456.698,3246.25
457.702,3235.50
458.705,3212.25
459.709,3250.75
460.710,3187.75
461.713,3275.75
462.716,3235.50
463.719,3239.25
464.722,3238.75
465.725,3265.50
466.727,3267.00
467.730,3240.00
468.732,3189.25
469.735,3252.25
470.737,3232.75
471.737,3284.75
472.739,3269.25
473.741,3268.00
474.742,3260.50
475.744,3301.75
476.746,3289.00
477.747,3273.25
478.748,3255.50
479.750,3236.50
480.751,3279.75
481.752,3285.25
482.753,3252.00
483.751,3298.50
484.752,3267.50
485.753,3278.25
486.753,3304.75
487.753,3278.00
488.754,3271.50
489.754,3252.50
490.754,3184.50
491.754,3218.50
492.754,3319.50
493.753,3300.75
494.753,3250.75
495.752,3261.25
496.752,3240.50
497.749,3219.50
498.748,3240.75
499.747,3213.00
500.746,3194.25
501.745,3215.75
502.744,3257.75
503.742,3216.25
504.741,3227.25
505.739,3184.00
506.737,3173.50
507.735,3153.75
508.734,3166.00
509.732,3161.00
510.729,3156.50
511.727,3163.75
512.725,3164.00
513.720,3118.00
514.718,3122.25
515.715,3162.50
516.712,3040.50
517.709,3143.75
518.706,3065.75
519.703,3086.75
520.700,3057.00
521.696,3066.25
522.693,3130.25
523.689,3147.25
524.686,3054.75
525.682,3090.50
526.678,3082.00
527.674,3076.50
528.670,3108.75
529.666,3074.25
530.661,3093.50
531.657,3156.75
532.652,3076.50
533.648,3105.00
534.641,3117.75
535.636,3135.50
536.631,3122.25
537.626,3162.75
538.621,3147.50
539.616,3131.50
540.610,3108.25
541.605,3089.00
542.599,3111.75
543.593,3123.50
544.587,3057.25
545.581,3099.25
546.575,3112.75
547.569,3119.00
548.563,3101.50
549.557,3105.50
550.550,3089.00
551.543,3113.50
552.537,3123.00
553.530,3080.25
554.523,3111.75
555.516,3118.50
556.509,3143.50
557.502,3114.25
558.494,3129.00
559.487,3088.25
560.479,3116.75
561.472,3117.75
562.464,3114.50
563.456,3118.75
564.448,3081.75
565.440,3139.75
566.432,3073.75
567.423,3117.50
568.415,3142.25
569.404,3189.00
570.396,3175.25
571.387,3150.50
572.378,3143.00
573.369,3177.75
574.360,3200.00
575.351,3197.00
576.341,3223.25
577.332,3198.00
578.323,3198.25
579.313,3232.50
580.303,3263.50
581.293,3267.75
582.283,3213.25
583.273,3227.00
584.263,3228.50
585.253,3178.00
586.243,3290.25
587.232,3243.00
588.222,3280.25
589.211,3235.50
590.200,3288.75
591.189,3270.00
592.178,3287.50
593.167,3318.00
594.156,3306.50
595.145,3246.25
596.133,3292.50
597.122,3277.50
598.110,3277.50
599.098,3278.50
600.086,3316.00
601.074,3278.75
602.062,3292.50
603.050,3295.25
604.038,3242.75
605.025,3270.00
606.013,3288.00
607.000,3231.50
607.987,3239.00
608.975,3276.00
609.962,3219.50
610.949,3216.25
611.936,3220.50
612.922,3146.25
613.909,3210.75
614.895,3132.25
615.882,3170.75
616.868,3153.25
617.854,3054.75
618.841,3062.75
619.826,3037.00
620.812,3039.75
621.798,3083.25
622.784,3009.00
623.769,2980.25
624.755,2971.25
625.740,2926.75
626.725,2912.25
627.711,2979.00
628.698,2812.00
629.683,2894.75
630.667,2835.00
631.652,2898.00
632.637,2821.75
633.621,2858.50
634.606,2764.00
635.590,2799.50
636.574,2790.50
637.558,2770.25
638.542,2742.25
639.526,2747.25
640.510,2702.50
641.493,2681.50
642.477,2701.00
643.460,2734.75
644.444,2665.00
645.427,2656.75
646.410,2684.50
647.393,2649.00
648.376,2636.00
649.359,2669.25
650.341,2613.75
651.324,2584.25
652.307,2561.25
653.289,2652.75
654.271,2597.00
655.253,2557.25
656.235,2553.75
657.217,2541.75
658.199,2591.75
659.181,2591.75
660.163,2534.75
661.144,2467.75
662.126,2529.00
663.107,2572.00
664.088,2563.00
665.069,2544.00
666.050,2527.00
667.033,2476.50
668.014,2472.75
668.995,2487.50
669.975,2508.25
670.956,2471.25
671.936,2418.50
672.916,2431.25
673.896,2427.50
674.876,2403.25
675.856,2417.00
676.836,2391.25
677.816,2372.50
678.795,2400.00
679.775,2327.00
680.754,2337.25
681.734,2337.25
682.713,2329.75
683.692,2308.50
684.671,2274.50
685.650,2297.00
686.629,2253.50
687.607,2249.00
688.586,2211.50
689.564,2214.50
690.543,2198.50
691.523,2188.50
692.501,2184.75
693.479,2153.50
694.457,2180.75
695.435,2174.00
696.413,2144.50
697.390,2140.50
698.368,2138.50
699.345,2130.25
700.322,2116.50
701.300,2143.75
702.277,2114.75
703.254,2149.50
704.231,2115.25
705.207,2081.00
706.184,2064.75
707.161,2034.00
708.137,2006.50
709.113,2032.75
710.090,2080.50
711.068,2078.00
712.044,2030.75
713.020,2063.00
713.996,2018.00
714.971,2068.75
715.947,1987.50
716.922,1998.25
717.898,2009.25
718.873,1995.75
719.848,1995.75
720.823,1969.75
721.798,1995.25
722.773,1971.25
723.748,1959.00
724.723,1967.75
725.697,1998.00
726.672,1952.25
727.646,1958.75
728.622,1942.25
729.596,1913.75
730.570,1973.50
731.544,1915.75
732.518,1918.75
733.492,1957.25
734.466,1962.25
735.439,1915.75
736.413,1924.50
737.386,1920.75
738.359,1917.25
739.332,1897.25
740.305,1866.75
741.278,1878.00
742.251,1921.00
743.224,1857.50
744.196,1886.75
745.171,1878.25
746.143,1849.25
747.115,1846.50
748.087,1866.25
749.059,1807.00
750.031,1862.50
751.003,1831.00
751.975,1903.25
752.947,1843.25
753.918,1814.75
754.890,1804.75
755.861,1829.50
756.832,1821.00
757.803,1820.50
758.774,1793.25
759.747,1822.25
760.718,1768.00
761.689,1793.50
762.659,1772.50
763.630,1773.25
764.600,1768.25
765.570,1741.50
766.540,1758.25
767.510,1741.25
768.480,1724.75
769.450,1753.00
770.420,1749.50
771.390,1718.75
772.359,1690.25
773.329,1735.50
774.300,1735.75
775.269,1747.75
776.238,1701.75
777.207,1714.00
778.176,1673.50
779.145,1686.00
780.114,1693.50
781.083,1675.50
782.051,1651.50
783.019,1648.25
783.988,1694.25
784.956,1680.50
785.924,1627.75
786.894,1644.25
787.862,1672.25
788.830,1662.50
789.797,1633.25
790.765,1613.00
791.732,1600.75
792.700,1606.50
793.667,1641.50
794.634,1661.75
795.601,1636.25
796.568,1635.25
797.535,1601.25
798.502,1592.00
799.468,1645.00
800.437,1629.00
801.403,1639.00
802.370,1582.00
803.336,1595.50
804.302,1577.50
805.268,1606.50
806.234,1597.50
807.200,1556.75
808.166,1552.25
809.131,1599.50
810.097,1536.00
811.062,1588.50
812.027,1593.75
812.994,1545.50
813.960,1568.75
814.925,1552.25
815.889,1576.25
816.854,1529.25
817.819,1537.75
818.783,1558.00
819.748,1528.00
820.712,1539.00
821.677,1545.75
822.641,1556.00
823.605,1529.50
824.571,1553.25
825.534,1520.50
826.498,1574.00
827.462,1565.75
828.425,1474.50
829.389,1544.00
830.352,1525.25
831.315,1549.75
832.279,1526.25
833.242,1514.25
834.204,1549.75
835.167,1504.25
836.132,1556.00
837.095,1508.25
838.057,1480.00
839.020,1526.25
839.982,1499.00
840.944,1513.75
841.906,1548.00
842.868,1483.50
843.830,1493.75
844.792,1513.00
845.753,1447.75
846.715,1459.25
847.679,1489.50
848.640,1447.00
849.601,1517.25
850.562,1471.00
851.523,1515.75
852.484,1473.25
853.445,1473.50
854.406,1474.00
855.367,1472.00
856.327,1478.25
857.288,1476.75
858.248,1430.25
859.210,1432.50
860.170,1435.75
861.130,1489.50
862.090,1460.00
863.050,1482.50
864.010,1433.50
864.969,1461.75
865.929,1444.50
866.888,1489.50
867.848,1447.50
868.807,1522.50
869.766,1482.75
870.727,1463.75
871.686,1468.50
872.645,1434.75
873.604,1470.50
874.562,1426.00
875.521,1467.50
876.479,1441.75
877.437,1450.00
878.396,1503.50
879.354,1450.25
880.312,1475.75
881.270,1448.25
882.229,1458.50
883.187,1447.75
884.145,1509.00
885.102,1456.00
886.059,1422.25
887.017,1438.50
887.974,1488.50
888.931,1449.50
889.888,1490.00
890.845,1409.00
891.802,1482.00
892.758,1447.50
893.717,1493.75
894.673,1419.25
895.630,1440.50
896.586,1468.50
897.542,1438.75
898.498,1472.50
899.454,1459.00
900.410,1478.00
901.366,1457.50
902.321,1455.50
903.277,1453.25
904.232,1498.75
905.189,1462.75
906.145,1489.25
907.100,1477.00
908.055,1425.25
909.010,1485.25
909.965,1492.25
910.919,1476.25
911.874,1458.25
912.828,1452.75
913.783,1449.25
914.737,1507.75
915.693,1506.25
916.648,1497.25
917.602,1443.00
918.555,1469.00
919.509,1481.75
920.463,1410.00
921.417,1441.75
922.370,1468.25
923.324,1429.50
924.277,1495.75
925.230,1465.25
926.183,1492.00
927.138,1490.00
928.091,1467.50
929.044,1439.75
929.996,1452.75
930.949,1451.50
931.902,1464.50
932.854,1483.00
933.806,1480.25
934.758,1526.25
935.711,1490.75
936.663,1490.00
937.614,1428.50
938.568,1485.00
939.520,1478.75
940.471,1491.75
941.423,1468.50
942.374,1476.75
943.326,1526.00
944.277,1477.00
945.228,1506.50
946.179,1508.25
947.130,1434.50
948.080,1460.75
949.031,1477.50
949.984,1477.50
950.934,1467.25
951.884,1483.00
952.835,1455.75
953.785,1442.00
954.735,1460.50
955.685,1448.75
956.635,1457.00
957.585,1414.75
958.534,1474.00
959.484,1424.75
960.433,1429.25
961.383,1412.50
962.334,1435.75
963.283,1443.50
964.232,1415.75
965.181,1439.25
966.130,1425.75
967.079,1422.75
968.027,1429.75
968.976,1441.75
969.924,1393.00
970.873,1396.75
971.821,1419.00
972.769,1382.00
973.719,1375.75
974.667,1410.75
975.615,1430.00
976.562,1416.50
977.510,1433.25
978.458,1390.00
979.405,1376.25
980.352,1429.25
981.300,1386.75
982.247,1358.75
983.194,1372.50
984.141,1373.00
985.088,1408.75
986.036,1411.25
986.983,1429.00
987.930,1423.50
988.876,1385.50
989.822,1341.25
990.769,1405.75
991.715,1382.75
992.661,1414.50
993.607,1373.25
994.553,1359.00
995.498,1406.00
996.444,1384.75
997.389,1386.75
998.337,1403.25
999.282,1366.75
1000.227,1310.75
1001.173,1389.00
1002.118,1381.75
1003.062,1420.00
1004.007,1392.25
1004.952,1391.50
1005.897,1363.25
1006.841,1415.25
1007.786,1404.50
1008.730,1398.50
1009.674,1368.50
1010.618,1387.00
1011.564,1392.00
1012.508,1348.50
1013.452,1380.75
1014.396,1306.25
1015.339,1417.75
1016.283,1389.75
1017.226,1307.00
1018.170,1381.25
1019.113,1380.25
1020.056,1368.75
1020.999,1391.00
1021.942,1348.50
1022.885,1364.00
1023.828,1313.75
1024.770,1335.50
1025.715,1359.25
1026.657,1336.75
1027.600,1346.25
1028.542,1353.25
1029.484,1350.50
1030.426,1423.00
1031.368,1339.25
1032.310,1368.00
1033.251,1358.00
1034.193,1376.25
1035.135,1387.50
1036.076,1389.00
1037.017,1375.50
1037.959,1398.75
1038.900,1360.75
1039.843,1358.25
1040.784,1415.75
1041.725,1375.50
1042.665,1398.00
1043.606,1383.00
1044.547,1382.50
1045.487,1366.00
1046.427,1365.50
1047.368,1430.75
1048.308,1378.50
1049.248,1333.25
1050.188,1418.50
1051.128,1397.25
1052.067,1429.00
1053.007,1436.50
1053.947,1395.75
1054.886,1377.75
1055.827,1404.00
1056.766,1406.25
1057.706,1401.00
1058.645,1451.00
1059.584,1419.25
1060.522,1391.50
1061.461,1374.25
1062.400,1390.00
1063.338,1420.25
1064.277,1433.00
1065.215,1393.50
1066.154,1417.75
1067.092,1382.50
1068.030,1419.00
1068.968,1396.25
1069.906,1484.00
1070.843,1422.25
1071.781,1432.75
1072.720,1400.25
1073.658,1413.75
1074.595,1415.50
1075.533,1455.25
1076.470,1423.75
1077.407,1457.75
1078.344,1451.00
1079.281,1439.25
1080.217,1399.00
1081.154,1439.00
1082.091,1447.25
1083.027,1436.25
1083.964,1429.50
1084.900,1443.50
1085.836,1423.75
1086.772,1416.25
1087.708,1447.00
1088.644,1423.75
1089.580,1445.50
1090.515,1438.50
1091.451,1385.75
1092.388,1401.25
1093.324,1436.50
1094.259,1423.50
1095.194,1375.50
1096.129,1414.75
1097.064,1395.25
1097.999,1423.00
1098.934,1363.50
1099.869,1428.50
1100.803,1392.75
1101.738,1361.00
1102.672,1393.25
1103.607,1385.25
1104.541,1414.50
1105.475,1416.50
1106.409,1369.50
1107.343,1393.00
1108.277,1373.00
1109.210,1383.75
1110.144,1348.75
1111.078,1381.50
1112.011,1325.50
1112.944,1300.25
1113.878,1349.00
1114.811,1374.25
1115.744,1364.50
1116.678,1337.50
1117.611,1330.75
1118.544,1366.50
1119.477,1310.75
1120.409,1380.50
1121.342,1333.50
1122.274,1282.75
1123.206,1282.50
1124.138,1277.25
1125.070,1327.75
1126.002,1303.25
1126.934,1360.50
1127.866,1302.75
1128.798,1267.25
1129.729,1290.00
1130.661,1262.75
1131.592,1269.75
1132.523,1298.75
1133.454,1309.00
1134.385,1264.75
1135.317,1292.25
1136.247,1279.75
1137.178,1304.25
1138.109,1269.00
1139.039,1239.75
1139.970,1271.25
1140.900,1241.75
1141.831,1235.25
1142.761,1262.50
1143.691,1222.25
1144.621,1254.75
1145.551,1266.75
1146.480,1253.75
1147.410,1237.50
1148.340,1253.00
1149.269,1204.00
1150.199,1235.00
1151.128,1216.75
1152.057,1210.75
1152.979,1246.50
1153.898,1137.00
1154.819,1213.00
1155.739,1166.25
1156.658,1257.00
1157.579,1196.75
1158.498,1195.00
1159.419,1205.25
1160.338,1198.00
1161.256,1187.00
1162.177,1219.50
1163.095,1215.75
1164.016,1178.75
1164.934,1185.75
1165.852,1192.25
1166.772,1179.50
1167.690,1183.00
1168.610,1188.00
1169.528,1217.75
1170.446,1226.50
1171.365,1191.00
1172.283,1188.25
1173.202,1186.50
1174.120,1190.25
1175.037,1145.00
1175.956,1158.50
1176.873,1157.25
1177.792,1154.00
1178.709,1221.25
1179.626,1203.25
1180.544,1199.25
1181.461,1156.25
1182.379,1153.50
1183.296,1197.75
1184.212,1138.25
1185.130,1184.00
1186.046,1155.50
1186.962,1163.50
1187.880,1156.25
1188.796,1173.25
1189.714,1153.50
1190.629,1145.25
1191.545,1160.75
1192.462,1145.75
1193.378,1143.75
1194.295,1192.25
1195.210,1172.00
1196.125,1175.75
1197.042,1114.00
1197.957,1165.00
1198.872,1145.75
1199.788,1131.25
1200.703,1186.00
1201.619,1153.00
1202.534,1164.50
1203.448,1137.25
1204.364,1146.75
1205.278,1151.50
1206.192,1181.50
1207.108,1118.00
1208.022,1142.00
1208.938,1136.00
1209.851,1180.50
1210.765,1170.25
1211.680,1141.25
1212.594,1131.50
1213.507,1143.50
1214.422,1106.50
1215.335,1160.75
1216.248,1113.75
1217.163,1140.75
1218.076,1131.75
1218.990,1176.50
1219.903,1179.25
1220.816,1140.25
1221.730,1139.25
1222.642,1169.00
1223.554,1160.25
1224.469,1135.75
1225.380,1202.50
1226.292,1177.50
1227.206,1154.50
1228.118,1152.00
1229.032,1171.00
1229.943,1138.50
1230.855,1167.50
1231.768,1185.00
1232.679,1100.50
1233.590,1175.25
1234.503,1188.25
1235.414,1179.50
1236.325,1162.75
1237.238,1170.75
1238.149,1119.75
1239.059,1174.00
1239.972,1094.50
1240.882,1133.50
1241.793,1184.50
1242.705,1215.75
1243.615,1152.25
1244.525,1147.25
1245.437,1159.25
1246.347,1185.50
1247.259,1159.50
1248.168,1167.25
1249.078,1141.00
1249.989,1168.00
1250.899,1159.25
1251.808,1176.50
1252.719,1167.50
1253.628,1199.25
1254.537,1172.50
1255.448,1209.00
1256.357,1181.50
1257.266,1187.25
1258.176,1201.00
1259.085,1134.25
1259.993,1146.00
1260.904,1163.25
1261.812,1147.75
1262.720,1168.50
1263.630,1210.25
1264.538,1175.75
1265.446,1196.75
1266.356,1189.00
1267.263,1148.50
1268.171,1150.00
1269.080,1122.00
1269.988,1122.00
1270.895,1151.75
1271.804,1127.50
1272.711,1177.00
1273.619,1152.50
1274.527,1170.00
1275.434,1168.50
1276.341,1163.25
1277.248,1160.50
1278.156,1185.50
1279.063,1166.75
1279.969,1181.75
1280.877,1162.00
1281.783,1100.00
1282.690,1148.25
1283.598,1137.25
1284.503,1139.25
1285.409,1180.75
1286.317,1124.50
1287.223,1137.50
1288.128,1151.00
1289.036,1173.00
1289.941,1138.00
1290.846,1103.50
1291.751,1134.00
1292.658,1154.00
1293.563,1119.75
1294.468,1190.50
1295.375,1160.00
1296.280,1148.75
1297.184,1122.50
1298.091,1138.50
1298.995,1113.00
1299.900,1136.00
1300.806,1152.00
1301.710,1142.25
1302.614,1120.75
1303.518,1123.50
1304.424,1148.75
1305.327,1108.00
1306.231,1124.25
1307.137,1131.00
1308.040,1085.25
1308.943,1067.75
1309.847,1075.50
1310.752,1101.25
1311.655,1117.25
1312.558,1094.50
1313.463,1108.25
1314.366,1076.75
1315.269,1111.50
1316.171,1036.50
1317.076,1084.25
1317.978,1054.50
1318.881,1070.25
1319.785,1021.25
1320.687,1041.00
1321.589,1057.75
1322.491,1078.25
1323.395,1067.00
1324.297,1090.00
1325.198,1061.50
1326.102,1056.00
1327.004,1097.25
1327.905,1047.50
1328.806,1052.25
1329.709,1098.25
1330.611,1068.75
1331.512,1019.50
1332.413,1012.75
1333.316,1048.00
1334.216,1050.75
1335.117,1020.75
1336.020,1043.75
1336.920,1035.50
1337.821,1035.75
1338.721,999.25
1339.623,1033.25
1340.523,1013.25
1341.423,1015.50
1342.323,999.00
1343.225,1031.75
1344.125,1035.75
1345.025,991.25
1345.924,1014.75
1346.826,1036.25
1347.725,1032.25
1348.624,1022.75
1349.524,1026.50
1350.425,1013.75
1351.324,1047.00
1352.223,981.25
1353.121,992.50
1354.022,984.50
1354.921,1006.00
1355.819,970.50
1356.718,992.25
1357.618,989.25
1358.516,986.25
1359.415,990.25
1360.313,919.50
1361.213,998.00
1362.111,1036.00
1363.008,950.75
1363.906,976.00
1364.806,957.50
1365.703,983.50
1366.601,987.25
1367.498,952.75
1368.397,983.25
1369.295,972.50
1370.192,961.00
1371.089,946.00
1371.987,998.00
1372.884,936.25
1373.781,935.50
1374.678,910.75
1375.574,967.25
1376.473,960.50
1377.369,933.75
1378.265,955.75
1379.161,1006.75
1380.059,927.00
1380.955,975.50
1381.851,952.00
1382.747,924.00
1383.643,952.50
1384.540,941.50
1385.436,925.25
1386.331,942.50
1387.227,888.00
1388.124,911.75
1389.019,942.25
1389.914,944.75
1390.809,932.50
1391.704,917.75
1392.601,929.25
1393.495,922.00
1394.390,919.25
1395.285,924.50
1396.179,930.00
1397.075,928.50
1397.969,910.25
1398.864,897.50
1399.758,899.25
1400.652,912.50
1401.547,916.75
1402.441,922.75
1403.335,945.50
1404.229,905.25
1405.122,920.25
1406.017,918.00
1406.911,874.25
1407.804,916.00
1408.697,882.00
1409.590,923.25
1410.485,882.75
1411.378,932.75
1412.271,899.50
1413.163,944.25
1414.056,933.50
1414.949,912.75
1415.843,902.75
1416.735,869.25
1417.627,888.25
1418.520,912.25
1419.412,919.75
1420.306,878.00
1421.197,930.25
1422.089,863.00
1422.981,894.00
1423.873,827.50
1424.764,844.75
1425.657,882.50
1426.549,874.75
1427.440,846.50
1428.331,870.50
1429.222,897.00
1430.113,860.50
1431.006,889.00
1431.897,880.75
1432.787,880.75
1433.678,837.25
1434.568,882.75
1435.459,878.50
1436.351,853.25
1437.241,844.00
1438.131,841.75
1439.021,858.00
1439.911,848.75
1440.801,891.50
1441.693,880.75
1442.583,876.75
1443.472,833.75
1444.362,851.75
1445.251,851.25
1446.140,857.25
1447.030,845.00
1447.921,870.25
1448.810,859.00
1449.699,844.00
1450.588,826.25
1451.476,837.50
1452.365,834.00
1453.254,842.75
1454.144,854.25
1455.032,852.75
1455.921,872.50
1456.809,881.00
1457.697,822.75
1458.585,817.75
1459.473,818.00
1460.361,800.00
1461.251,817.25
1462.138,803.75
1463.026,810.50
1463.913,845.50
1464.801,836.00
1465.688,850.25
1466.575,833.75
1467.463,837.25
1468.351,851.00
1469.238,820.25
1470.125,827.50
1471.012,815.00
1471.899,792.25
1472.785,826.25
1473.672,809.00
1474.558,811.25
1475.446,843.50
1476.333,811.25
1477.219,813.00
1478.105,845.00
1478.991,786.75
1479.877,800.75
1480.762,823.75
1481.648,790.75
1482.534,790.75
1483.419,777.00
1484.307,859.50
1485.192,802.25
1486.077,798.00
1486.962,798.50
1487.847,782.50
1488.732,773.25
1489.617,826.25
1490.502,790.50
1491.387,815.00
1492.271,783.25
1493.156,799.00
1494.042,821.25
1494.927,767.50
1495.811,792.00
1496.695,782.00
1497.579,786.50
1498.463,776.25
1499.347,815.00
1500.231,771.50
1501.114,836.00
1501.998,757.25
1502.881,788.25
1503.765,780.25
1504.648,776.00
1505.533,785.25
1506.417,788.25
1507.300,797.75
1508.183,782.25
1509.066,768.25
1509.948,732.75
1510.831,728.00
1511.714,800.00
1512.596,787.75
1513.479,749.00
1514.361,781.25
1515.243,765.25
1516.125,731.75
1517.008,752.25
1517.890,793.25
1518.771,778.25
1519.655,760.75
1520.537,778.00
1521.419,737.75
1522.300,779.25
1523.182,801.00
1524.063,747.00
1524.944,753.00
1525.825,758.75
1526.707,798.00
1527.588,791.25
1528.468,718.50
1529.349,765.75
1530.230,734.00
1531.111,741.75
1531.991,711.50
1532.872,759.50
1533.752,705.25
1534.632,754.75
1535.513,712.00
1536.393,725.50
1537.273,767.50
1538.153,724.25
1539.032,742.75
1539.912,712.75
1540.792,776.00
1541.672,758.50
1542.551,755.25
1543.430,781.75
1544.310,724.75
1545.189,716.25
1546.068,715.25
1546.947,745.75
1547.826,760.00
1548.705,748.25
1549.584,716.50
1550.462,727.00
1551.341,724.50
1552.219,766.50
1553.098,707.25
1553.976,703.00
1554.854,698.50
1555.733,768.00
1556.611,728.25
1557.489,738.00
1558.367,705.50
1559.244,715.75
1560.122,720.75
1561.000,688.25
1561.877,727.50
1562.755,719.75
1563.632,731.75
1564.509,716.75
1565.386,715.00
1566.264,738.00
1567.141,739.00
1568.017,747.75
1568.894,674.75
1569.771,740.00
1570.648,727.50
1571.524,765.25
1572.401,707.00
1573.277,725.00
1574.153,741.75
1575.029,694.75
1575.906,704.00
1576.781,756.25
1577.657,710.75
1578.533,728.25
1579.409,732.75
1580.285,738.25
1581.160,735.50
1582.036,700.50
1582.911,697.50
1583.786,676.00
1584.662,680.75
1585.537,659.75
1586.412,731.75
1587.287,703.75
1588.160,719.75
1589.035,685.75
1589.909,709.00
1590.784,728.50
1591.658,719.75
1592.533,732.50
1593.407,732.25
1594.281,726.75
1595.155,697.50
1596.029,712.00
1596.903,696.50
1597.777,707.50
1598.651,710.25
1599.525,678.75
1600.398,721.25
1601.272,724.50
1602.144,698.00
1603.017,695.75
1603.890,686.00
1604.763,732.50
1605.636,688.25
1606.509,690.25
1607.382,724.25
1608.255,685.50
1609.128,724.50
1610.000,669.50
1610.873,711.75
1611.746,720.00
1612.616,718.00
1613.488,665.50
1614.361,700.50
1615.233,681.75
1616.105,711.25
1616.977,718.50
1617.849,677.25
1618.720,711.75
1619.592,701.00
1620.464,699.00
1621.333,758.50
1622.205,677.25
1623.076,676.00
1623.947,688.50
1624.818,678.50
1625.689,714.50
1626.560,688.00
1627.431,674.25
1628.302,684.25
1629.171,707.25
1630.042,733.25
1630.912,701.25
1631.782,694.75
1632.653,686.00
1633.523,677.25
1634.393,711.25
1635.263,657.50
1636.131,687.75
1637.001,676.50
1637.871,655.75
1638.741,723.75
1639.611,710.25
1640.480,701.00
1641.350,658.75
1642.219,692.75
1643.087,674.00
1643.956,640.00
1644.825,687.25
1645.694,666.00
1646.563,674.50
1647.432,678.25
1648.299,718.50
1649.167,730.25
1650.036,695.50
1650.904,629.75
1651.773,688.00
1652.641,683.75
1653.509,661.00
1654.376,673.00
1655.244,677.50
1656.112,684.25
1656.980,730.50
1657.847,629.25
1658.715,677.25
1659.581,669.75
1660.448,652.00
1661.316,681.00
1662.183,673.75
1663.051,694.25
1663.918,634.75
1664.783,692.25
1665.650,670.75
1666.517,619.00
1667.384,675.25
1668.251,674.75
1669.115,659.25
1669.982,690.75
1670.849,639.50
1671.715,639.75
1672.581,643.50
1673.446,647.50
1674.312,666.00
1675.178,666.50
1676.044,654.50
1676.910,627.50
1677.774,670.25
1678.639,672.00
1679.505,647.75
1680.370,621.50
1681.236,666.75
1682.099,646.75
1682.965,662.50
1683.830,660.00
1684.695,655.50
1685.560,618.25
1686.423,664.75
1687.288,658.75
1688.153,675.75
1689.017,634.00
1689.880,660.00
1690.745,664.00
1691.609,666.25
1692.473,649.50
1693.338,637.25
1694.200,639.25
1695.064,640.00
1695.928,651.25
1696.792,636.25
1697.654,689.50
1698.517,655.75
1699.381,650.00
1700.245,673.50
1701.106,613.50
1701.969,684.50
1702.833,672.75
1703.696,639.75
1704.557,622.00
1705.420,632.75
1706.283,625.25
1707.146,671.25
1708.007,651.00
1708.870,627.50
1709.732,617.00
1710.595,652.00
1711.455,683.00
1712.318,617.50
1713.180,693.25
1714.040,631.50
1714.902,649.25
1715.764,674.50
1716.626,665.50
1717.486,656.00
1718.348,587.75
1719.209,631.00
1720.071,596.25
1720.930,607.75
1721.792,635.50
1722.653,654.25
1723.512,655.25
1724.374,637.75
1725.234,619.50
1726.095,624.25
1726.954,635.50
1727.815,624.75
1728.676,621.50
1729.535,640.50
1730.395,648.25
1731.256,632.50
1732.114,631.50
1732.974,639.25
1733.834,646.50
1734.693,629.75
1735.553,606.75
1736.413,686.25
1737.272,644.75
1738.130,669.25
1738.990,650.75
1739.849,627.00
1740.707,633.75
1741.566,606.00
1742.426,647.75
1743.283,636.25
1744.142,643.75
1745.001,606.50
1745.858,645.50
1746.717,651.25
1747.576,650.75
1748.433,611.00
1749.292,637.50
1750.150,597.75
1751.007,663.50
1751.865,583.75
1752.723,650.25
1753.579,578.00
1754.438,649.00
1755.296,620.75
1756.152,661.75
1757.010,607.75
1757.865,645.50
1758.723,636.50
1759.581,627.00
1760.436,592.25
1761.294,625.00
1762.151,660.75
1763.006,644.75
1763.864,639.25
1764.721,608.00
1765.576,650.00
1766.433,611.75
1767.288,649.00
1768.144,632.25
1769.001,616.50
1769.856,603.50
1770.712,676.75
1771.568,671.75
1772.423,620.00
1773.279,620.00
1774.133,665.50
1774.989,624.00
1775.845,640.00
1776.699,620.75
1777.555,632.25
1778.409,627.75
1779.265,539.75
1780.120,583.75
1780.974,596.75
1781.829,625.00
1782.682,634.25
1783.538,614.50
1784.393,600.75
1785.246,624.00
1786.101,661.50
1786.954,607.75
1787.808,620.75
1788.661,626.00
1789.516,647.50
1790.370,634.75
1791.223,632.00
1792.077,650.25
1792.930,605.00
1793.784,674.50
1794.636,690.25
1795.490,596.50
1796.344,601.00
1797.196,592.25
1798.049,576.75
1798.901,659.25
1799.755,613.50
1800.606,617.50
1801.460,617.00
1802.311,648.75
1803.165,677.00
1804.018,597.75
1804.869,593.75
1805.722,622.75
1806.573,623.75
1807.426,615.25
1808.276,649.00
1809.129,612.50
1809.980,608.25
1810.832,625.00
1811.683,633.75
1812.535,597.75
1813.385,640.75
1814.237,598.75
1815.089,669.75
1815.940,603.00
1816.791,593.25
1817.641,622.75
1818.493,638.75
1819.343,650.00
1820.194,586.00
1821.044,625.25
1821.895,627.50
1822.745,602.00
1823.596,629.50
1824.445,584.50
1825.296,631.75
1826.145,606.25
1826.996,601.25
1827.845,624.00
1828.695,599.50
1829.544,575.25
1830.395,612.50
1831.243,621.75
1832.094,625.75
1832.942,589.75
1833.792,606.50
1834.640,584.50
1835.490,650.50
1836.338,607.75
1837.186,604.50
1838.036,654.25
1838.884,584.50
1839.733,593.25
1840.581,566.75
1841.430,633.50
1842.278,623.00
1843.127,585.25
1843.974,565.00
1844.823,600.00
1845.671,621.25
1846.519,662.75
1847.366,578.25
1848.213,578.50
1849.062,622.75
1849.909,584.25
1850.757,646.75
1851.604,615.75
1852.452,584.50
1853.298,565.50
1854.146,610.00
1854.993,595.00
1855.839,644.00
1856.687,580.50
1857.532,585.25
1858.380,601.50
1859.226,607.75
1860.073,607.75
1860.919,572.75
1861.765,572.00
1862.612,596.75
1863.457,610.75
1864.304,600.25
1865.150,595.25
1865.995,539.25
1866.842,563.00
1867.686,601.00
1868.533,548.00
1869.378,579.50
1870.223,557.25
1871.069,575.75
1871.914,597.75
1872.760,598.50
1873.604,591.75
1874.448,653.75
1875.294,603.00
1876.139,593.75
1876.984,587.75
1877.828,585.00
1878.672,626.00
1879.518,598.25
1880.361,565.75
1881.205,583.25
1882.050,564.50
1882.894,588.25
1883.739,582.50
1884.582,601.25
1885.425,582.00
1886.270,574.75
1887.113,598.00
1887.956,599.50
1888.801,634.25
1889.644,610.50
1890.486,558.00
1891.331,577.50
1892.173,617.25
1893.017,579.25
1893.860,562.00
1894.702,590.50
1895.546,549.50
1896.388,575.00
1897.230,593.75
1898.074,615.75
1898.916,578.50
1899.757,565.75
1900.601,570.50
1901.443,560.25
1902.284,607.00
1903.125,576.50
1903.969,605.00
1904.810,563.50
1905.651,616.25
1906.494,535.50
1907.335,582.25
1908.176,629.25
1909.018,608.00
1909.859,591.50
1910.700,590.25
1911.542,592.00
1912.383,607.00
1913.223,612.50
1914.064,576.25
1914.906,599.00
1915.746,611.00
1916.586,612.75
1917.428,578.50
1918.268,610.25
1919.107,582.50
1919.947,595.00
1920.789,557.00
1921.628,611.50
1922.468,591.25
1923.309,615.50
1924.148,583.00
1924.988,577.25
1925.827,571.50
1926.667,560.25
1927.507,636.75
1928.345,587.75
1929.184,592.00
1930.025,600.25
1930.864,568.75
1931.702,579.75
1932.541,562.75
1933.381,567.25
1934.219,592.25
1935.057,597.00
1935.896,584.25
1936.735,612.75
1937.573,549.75
1938.411,599.75
1939.249,574.00
1940.089,616.75
1940.927,614.75
1941.764,586.00
1942.602,578.25
1943.439,571.00
1944.278,587.00
1945.115,598.25
1945.953,578.75
1946.790,605.00
1947.628,593.50
1948.465,579.50
1949.302,568.75
1950.139,584.00
1950.976,605.25
1951.814,570.50
1952.651,590.75
1953.487,589.50
1954.323,557.75
1955.160,560.50
1955.998,610.50
1956.834,529.00
1957.670,573.25
1958.506,534.25
1959.342,610.25
1960.177,557.75
1961.015,550.00
1961.850,584.00
1962.686,607.75
1963.521,533.75
1964.357,525.00
1965.192,576.75
1966.029,592.00
1966.864,577.25
1967.699,609.75
1968.534,598.50
1969.369,616.75
1970.204,578.00
1971.040,622.00
1971.875,545.00
1972.709,618.50
1973.544,609.25
1974.378,577.50
1975.212,564.25
1976.047,528.75
1976.882,556.00
1977.716,546.25
1978.550,545.50
1979.384,547.25
1980.218,635.00
1981.052,572.25
1981.885,574.75
1982.719,582.50
1983.554,582.00
1984.388,593.50
1985.221,552.00
1986.054,564.25
1986.887,576.50
1987.720,544.25
1988.553,590.50
1989.386,593.50
1990.219,584.50
1991.053,576.50
1991.886,595.00
1992.719,578.50
1993.551,562.50
1994.383,554.25
1995.216,573.00
1996.048,579.75
1996.880,587.50
1997.712,590.00
1998.544,587.00
1999.376,561.50
2000.208,568.25
2001.040,603.00
2001.873,546.75
2002.705,551.00
2003.536,564.50
2004.367,560.25
2005.199,565.50
2006.030,556.00
2006.861,567.50
2007.692,552.00
2008.523,590.75
2009.354,566.50
2010.185,586.50
2011.016,599.25
2011.846,561.50
2012.677,594.00
2013.507,550.75
2014.338,568.00
2015.168,557.25
2015.999,621.75
2016.829,590.25
2017.659,550.25
2018.489,541.75
2019.319,563.75
2020.149,615.25
2020.980,572.50
2021.810,596.25
2022.639,566.00
2023.469,565.50
2024.298,560.25
2025.128,577.25
2025.957,621.00
2026.786,527.75
2027.615,567.75
2028.444,604.00
2029.273,555.50
2030.102,541.75
2030.931,521.00
2031.758,603.25
2032.586,589.75
2033.415,551.50
2034.243,565.00
2035.072,605.25
2035.900,613.75
2036.728,593.25
2037.556,593.00
2038.385,587.50
2039.213,564.00
2040.040,605.75
2040.868,605.25
2041.696,586.50
2042.524,563.00
2043.351,596.75
2044.179,583.00
2045.006,574.75
2045.006,574.75

Max Intensity Wave.,216.841
Max Intensity Data,5529.00
Min Intensity Wave.,2030.931
Min Intensity Data,521.00
FWHM Wave.,400.269
FWHM Value,0.47
Pressure Wave.,685.494
Pressure Value [GPa],-22.77095
G/D Ratio,0.67981
G/D Gband Wave.,1543.270
G/D Gband Intensity,783.14
G/D Dband Wave.,1300.806
G/D Dband Intensity,1152.00

<< BACKGROUND SPECTRUM >>
Wave[dcm-1],No148
146.591,2304.00
147.626,2142.00
148.664,2094.00
149.699,2550.00
150.737,2317.00
151.772,2460.00
152.809,2440.00
153.846,2368.00
154.881,2452.00
155.918,1994.00
156.953,2336.00
157.989,2696.00
159.026,2508.00
160.060,2672.00
161.096,2924.00
162.130,2573.00
163.167,2644.00
164.200,2516.00
165.236,2740.00
166.272,2737.00
167.305,2315.00
168.341,2588.00
169.374,2897.00
170.409,2853.00
171.445,2803.00
172.477,2558.00
173.512,2440.00
174.545,2762.00
175.580,2955.00
176.614,3090.00
177.647,2901.00
178.681,3128.00
179.713,3401.00
180.747,2874.00
181.781,2769.00
182.813,3062.00
183.847,3165.00
184.878,2762.00
185.912,3069.00
186.945,3202.00
187.976,3156.00
189.010,2782.00
190.043,2933.00
191.073,2979.00
192.106,2804.00
193.137,3273.00
194.170,2600.00
195.202,2926.00
196.232,2759.00
197.265,3064.00
198.297,3151.00
199.327,2792.00
200.359,3013.00
201.388,3427.00
202.420,2965.00
203.452,3195.00
204.481,2736.00
205.512,3399.00
206.544,3154.00
207.573,3142.00
208.604,3466.00
209.635,3600.00
210.663,3023.00
211.694,3072.00
212.725,2901.00
213.753,2864.00
214.783,3461.00
215.813,3299.00
216.841,3032.00
217.871,3250.00
218.899,2997.00
219.929,3175.00
220.959,2971.00
221.986,3241.00
223.016,2780.00
224.045,3251.00
225.072,3166.00
226.101,3274.00
227.130,3323.00
228.157,2908.00
229.185,2434.00
230.214,3240.00
231.241,2876.00
232.269,2511.00
233.297,2765.00
234.323,3289.00
235.351,2884.00
236.379,3181.00
237.407,2826.00
238.433,3026.00
239.460,3182.00
240.488,3168.00
241.513,3290.00
242.540,3177.00
243.568,3241.00
244.592,3308.00
245.619,3301.00
246.646,2997.00
247.671,3006.00
248.697,2858.00
249.724,3133.00
250.748,3067.00
251.774,3071.00
252.801,3369.00
253.827,3160.00
254.850,3146.00
255.876,2766.00
256.902,3235.00
257.925,3066.00
258.951,2816.00
259.976,2833.00
260.999,3145.00
262.024,2862.00
263.049,3736.00
264.074,3184.00
265.097,3099.00
266.122,3163.00
267.146,3077.00
268.168,3309.00
269.193,2941.00
270.217,3314.00
271.241,2775.00
272.263,2935.00
273.287,3255.00
274.311,2830.00
275.332,3373.00
276.356,2947.00
277.379,3146.00
278.402,3191.00
279.424,2992.00
280.447,2951.00
281.470,2794.00
282.492,3156.00
283.513,2970.00
284.536,3225.00
285.558,3226.00
286.581,3192.00
287.601,2896.00
288.623,2849.00
289.645,3147.00
290.665,3172.00
291.687,3189.00
292.709,3145.00
293.730,3502.00
294.750,2967.00
295.771,2776.00
296.792,3154.00
297.813,2975.00
298.832,3132.00
299.853,2803.00
300.874,3057.00
301.895,3032.00
302.913,3030.00
303.934,3301.00
304.954,3147.00
305.975,3238.00
306.993,2788.00
308.013,3200.00
309.033,3027.00
310.052,3002.00
311.072,2957.00
312.090,3096.00
313.109,3377.00
314.129,3519.00
315.148,3088.00
316.165,3178.00
317.184,3333.00
318.203,2818.00
319.222,2843.00
320.238,3221.00
321.257,2893.00
322.275,2722.00
323.294,3025.00
324.312,3210.00
325.328,3334.00
326.346,3379.00
327.364,3301.00
328.382,3231.00
329.397,3209.00
330.415,3321.00
331.432,3282.00
332.450,3310.00
333.467,3554.00
334.482,2642.00
335.499,3419.00
336.516,2936.00
337.533,2625.00
338.547,2933.00
339.564,2904.00
340.580,3134.00
341.597,3028.00
342.613,3538.00
343.627,3047.00
344.643,3084.00
345.659,3196.00
346.675,3045.00
347.690,2925.00
348.704,3178.00
349.719,2924.00
350.735,2848.00
351.750,3250.00
352.765,3074.00
353.778,3020.00
354.793,3208.00
355.808,2852.00
356.822,3225.00
357.837,2689.00
358.851,3313.00
359.864,3052.00
360.878,2773.00
361.892,3010.00
362.906,3222.00
363.920,2659.00
364.932,3205.00
365.945,3147.00
366.959,3068.00
367.972,3052.00
368.986,2771.00
369.999,3443.00
371.010,2919.00
372.023,3409.00
373.036,3029.00
374.049,3458.00
375.061,3150.00
376.072,3074.00
377.084,2911.00
378.097,2715.00
379.109,3273.00
380.121,3020.00
381.133,2768.00
382.143,3203.00
383.155,2758.00
384.166,2966.00
385.178,3176.00
386.189,3280.00
387.201,2763.00
388.212,2997.00
389.221,2988.00
390.232,3105.00
391.243,2977.00
392.254,3067.00
393.264,2930.00
394.275,3297.00
395.283,3291.00
396.294,3694.00
397.304,3575.00
398.314,3181.00
399.324,3111.00
400.334,2686.00
401.344,3216.00
402.351,2711.00
403.361,3274.00
404.370,2986.00
405.380,2964.00
406.389,3441.00
407.398,3202.00
408.407,3169.00
409.414,3204.00
410.423,3357.00
411.431,2834.00
412.440,2716.00
413.448,3439.00
414.457,2921.00
415.465,2842.00
416.471,2929.00
417.479,3077.00
418.487,2867.00
419.495,3347.00
420.503,3177.00
421.510,2634.00
422.518,3239.00
423.525,3255.00
424.530,3498.00
425.537,2962.00
426.544,3292.00
427.551,2914.00
428.558,3631.00
429.565,3489.00
430.571,2941.00
431.578,2981.00
432.582,2944.00
433.588,3007.00
434.595,2670.00
435.601,3354.00
436.607,3314.00
437.612,2797.00
438.618,3422.00
439.624,3040.00
440.627,2996.00
441.633,3196.00
442.638,3726.00
443.643,3196.00
444.648,3088.00
445.653,3236.00
446.658,2941.00
447.663,3108.00
448.667,2960.00
449.672,2980.00
450.674,3041.00
451.678,2739.00
452.682,2925.00
453.687,2921.00
454.690,3689.00
455.694,3295.00
456.698,2595.00
457.702,2722.00
458.705,2855.00
459.709,2850.00
460.710,2967.00
461.713,3046.00
462.716,3116.00
463.719,3066.00
464.722,3273.00
465.725,3011.00
466.727,2893.00
467.730,3112.00
468.732,2884.00
469.735,3326.00
470.737,2999.00
471.737,2938.00
472.739,2965.00
473.741,2868.00
474.742,3133.00
475.744,3127.00
476.746,3068.00
477.747,3011.00
478.748,3221.00
479.750,3022.00
480.751,3087.00
481.752,3805.00
482.753,3135.00
483.751,3635.00
484.752,2668.00
485.753,3031.00
486.753,2918.00
487.753,3071.00
488.754,3470.00
489.754,2756.00
490.754,3435.00
491.754,3216.00
492.754,2711.00
493.753,3064.00
494.753,2989.00
495.752,3403.00
496.752,3125.00
497.749,3067.00
498.748,2916.00
499.747,3467.00
500.746,3171.00
501.745,2835.00
502.744,2795.00
503.742,3385.00
504.741,2978.00
505.739,2535.00
506.737,2987.00
507.735,3230.00
508.734,3443.00
509.732,3208.00
510.729,3402.00
511.727,2926.00
512.725,2952.00
513.720,2871.00
514.718,3305.00
515.715,2704.00
516.712,2716.00
517.709,3033.00
518.706,2987.00
519.703,3138.00
520.700,3265.00
521.696,3461.00
522.693,2946.00
523.689,2862.00
524.686,3261.00
525.682,2846.00
526.678,3558.00
527.674,3005.00
528.670,2644.00
529.666,3611.00
530.661,3529.00
531.657,3184.00
532.652,3242.00
533.648,3077.00
534.641,3283.00
535.636,3087.00
536.631,3152.00
537.626,3204.00
538.621,2791.00
539.616,2666.00
540.610,2587.00
541.605,3068.00
542.599,3144.00
543.593,3051.00
544.587,4013.00
545.581,2906.00
546.575,3093.00
547.569,3068.00
548.563,2783.00
549.557,2707.00
550.550,2817.00
551.543,2778.00
552.537,3221.00
553.530,2838.00
554.523,2842.00
555.516,3155.00
556.509,2969.00
557.502,2679.00
558.494,3233.00
559.487,2981.00
560.479,3243.00
561.472,3302.00
562.464,3194.00
563.456,3351.00
564.448,3055.00
565.440,3062.00
566.432,3488.00
567.423,2944.00
568.415,2946.00
569.404,3118.00
570.396,2849.00
571.387,3192.00
572.378,3109.00
573.369,4025.00
574.360,3736.00
575.351,3015.00
576.341,2892.00
577.332,2922.00
578.323,2754.00
579.313,2953.00
580.303,3262.00
581.293,3184.00
582.283,3041.00
583.273,3168.00
584.263,3086.00
585.253,3205.00
586.243,3217.00
587.232,2715.00
588.222,2989.00
589.211,3261.00
590.200,3138.00
591.189,3006.00
592.178,3030.00
593.167,3479.00
594.156,3327.00
595.145,2956.00
596.133,3544.00
597.122,3181.00
598.110,3294.00
599.098,3127.00
600.086,3057.00
601.074,3273.00
602.062,2890.00
603.050,2808.00
604.038,3203.00
605.025,2851.00
606.013,3247.00
607.000,3453.00
607.987,3084.00
608.975,3082.00
609.962,2835.00
610.949,3218.00
611.936,3314.00
612.922,3233.00
613.909,2732.00
614.895,3443.00
615.882,2864.00
616.868,3033.00
617.854,2839.00
618.841,3088.00
619.826,3166.00
620.812,3032.00
621.798,2822.00
622.784,3215.00
623.769,3136.00
624.755,2764.00
625.740,3125.00
626.725,2777.00
627.711,2883.00
628.698,3193.00
629.683,2845.00
630.667,3227.00
631.652,2755.00
632.637,3022.00
633.621,3190.00
634.606,3007.00
635.590,3155.00
636.574,2991.00
637.558,3149.00
638.542,3096.00
639.526,2879.00
640.510,2686.00
641.493,3118.00
642.477,3059.00
643.460,2705.00
644.444,3291.00
645.427,3332.00
646.410,2720.00
647.393,3027.00
648.376,3123.00
649.359,2919.00
650.341,3137.00
651.324,3161.00
652.307,3135.00
653.289,2971.00
654.271,2915.00
655.253,2967.00
656.235,3211.00
657.217,3306.00
658.199,2670.00
659.181,2779.00
660.163,3054.00
661.144,2986.00
662.126,2941.00
663.107,2821.00
664.088,4762.00
665.069,3300.00
666.050,2880.00
667.033,2782.00
668.014,3098.00
668.995,2616.00
669.975,3033.00
670.956,3049.00
671.936,3252.00
672.916,3017.00
673.896,3153.00
674.876,2978.00
675.856,2919.00
676.836,2801.00
677.816,2342.00
678.795,2835.00
679.775,2749.00
680.754,3082.00
681.734,3206.00
682.713,3184.00
683.692,2834.00
684.671,2691.00
685.650,2785.00
686.629,2916.00
687.607,2793.00
688.586,2828.00
689.564,2891.00
690.543,3318.00
691.523,2445.00
692.501,2878.00
693.479,2997.00
694.457,2831.00
695.435,2900.00
696.413,2734.00
697.390,2561.00
698.368,2730.00
699.345,3163.00
700.322,3001.00
701.300,3124.00
702.277,3110.00
703.254,3297.00
704.231,2618.00
705.207,3031.00
706.184,2868.00
707.161,2745.00
708.137,2946.00
709.113,2868.00
710.090,2823.00
711.068,2625.00
712.044,2682.00
713.020,2908.00
713.996,2649.00
714.971,2835.00
715.947,2922.00
716.922,2880.00
717.898,2785.00
718.873,2934.00
719.848,2779.00
720.823,2756.00
721.798,3044.00
722.773,2810.00
723.748,2548.00
724.723,3086.00
725.697,2885.00
726.672,2789.00
727.646,2540.00
728.622,3060.00
729.596,2681.00
730.570,2763.00
731.544,3126.00
732.518,3336.00
733.492,2864.00
734.466,2890.00
735.439,3050.00
736.413,3165.00
737.386,2493.00
738.359,2468.00
739.332,2593.00
740.305,2916.00
741.278,3387.00
742.251,2951.00
743.224,2773.00
744.196,2567.00
745.171,3188.00
746.143,3098.00
747.115,2818.00
748.087,2755.00
749.059,3183.00
750.031,2932.00
751.003,3741.00
751.975,3244.00
752.947,2739.00
753.918,3155.00
754.890,2624.00
755.861,2782.00
756.832,3060.00
757.803,2859.00
758.774,2875.00
759.747,2625.00
760.718,3265.00
761.689,2801.00
762.659,2646.00
763.630,3231.00
764.600,2590.00
765.570,3114.00
766.540,3159.00
767.510,2988.00
768.480,3114.00
769.450,2776.00
770.420,2869.00
771.390,2699.00
772.359,2812.00
773.329,2713.00
774.300,2548.00
775.269,2758.00
776.238,3038.00
777.207,3224.00
778.176,2558.00
779.145,2877.00
780.114,2745.00
781.083,2601.00
782.051,2805.00
783.019,2761.00
783.988,3119.00
784.956,2879.00
785.924,3071.00
786.894,2934.00
787.862,2735.00
788.830,3170.00
789.797,2699.00
790.765,2663.00
791.732,2841.00
792.700,2730.00
793.667,2636.00
794.634,2795.00
795.601,2782.00
796.568,2827.00
797.535,2893.00
798.502,3521.00
799.468,2950.00
800.437,2444.00
801.403,2678.00
802.370,3335.00
803.336,3034.00
804.302,2936.00
805.268,2473.00
806.234,2596.00
807.200,2790.00
808.166,2845.00
809.131,2600.00
810.097,3070.00
811.062,3720.00
812.027,3024.00
812.994,2647.00
813.960,2664.00
814.925,3004.00
815.889,2549.00
816.854,3089.00
817.819,2719.00
818.783,2757.00
819.748,3156.00
820.712,2787.00
821.677,2671.00
822.641,2754.00
823.605,2750.00
824.571,3180.00
825.534,2803.00
826.498,2670.00
827.462,2813.00
828.425,2696.00
829.389,3092.00
830.352,2854.00
831.315,2933.00
832.279,2534.00
833.242,2809.00
834.204,2648.00
835.167,2693.00
836.132,3054.00
837.095,2564.00
838.057,2726.00
839.020,2825.00
839.982,2890.00
840.944,2704.00
841.906,2649.00
842.868,2992.00
843.830,2587.00
844.792,3085.00
845.753,2764.00
846.715,2498.00
847.679,2628.00
848.640,2663.00
849.601,2770.00
850.562,3305.00
851.523,2737.00
852.484,2533.00
853.445,3054.00
854.406,2752.00
855.367,2763.00
856.327,3095.00
857.288,2542.00
858.248,2760.00
859.210,2761.00
860.170,2575.00
861.130,3031.00
862.090,2452.00
863.050,2621.00
864.010,2750.00
864.969,2927.00
865.929,2643.00
866.888,2537.00
867.848,2887.00
868.807,2661.00
869.766,2882.00
870.727,2754.00
871.686,3030.00
872.645,3074.00
873.604,3331.00
874.562,2828.00
875.521,2812.00
876.479,3417.00
877.437,2649.00
878.396,2583.00
879.354,3221.00
880.312,2625.00
881.270,2714.00
882.229,3138.00
883.187,2667.00
884.145,2678.00
885.102,2966.00
886.059,2880.00
887.017,2944.00
887.974,2983.00
888.931,3116.00
889.888,2524.00
890.845,2501.00
891.802,2344.00
892.758,2678.00
893.717,2464.00
894.673,2637.00
895.630,2671.00
896.586,2917.00
897.542,2741.00
898.498,2568.00
899.454,2902.00
900.410,2691.00
901.366,2690.00
902.321,3810.00
903.277,2709.00
904.232,2772.00
905.189,2523.00
906.145,2680.00
907.100,2228.00
908.055,2802.00
909.010,2941.00
909.965,2363.00
910.919,2841.00
911.874,2597.00
912.828,2812.00
913.783,2826.00
914.737,2359.00
915.693,2779.00
916.648,2903.00
917.602,3032.00
918.555,2821.00
919.509,2887.00
920.463,2838.00
921.417,2827.00
922.370,2584.00
923.324,2743.00
924.277,2695.00
925.230,2813.00
926.183,2430.00
927.138,2717.00
928.091,2986.00
929.044,2874.00
929.996,2714.00
930.949,2705.00
931.902,2875.00
932.854,2876.00
933.806,2625.00
934.758,2961.00
935.711,3010.00
936.663,2830.00
937.614,2856.00
938.568,2778.00
939.520,2422.00
940.471,2720.00
941.423,2825.00
942.374,2920.00
943.326,2748.00
944.277,2624.00
945.228,2844.00
946.179,2711.00
947.130,3104.00
948.080,2700.00
949.031,2593.00
949.984,2701.00
950.934,2726.00
951.884,2516.00
952.835,2744.00
953.785,2799.00
954.735,2622.00
955.685,2384.00
956.635,2660.00
957.585,2708.00
958.534,2662.00
959.484,2773.00
960.433,2657.00
961.383,2521.00
962.334,3008.00
963.283,2816.00
964.232,2906.00
965.181,2766.00
966.130,2823.00
967.079,2657.00
968.027,2761.00
968.976,2760.00
969.924,2673.00
970.873,2854.00
971.821,2771.00
972.769,2999.00
973.719,2924.00
974.667,2510.00
975.615,2744.00
976.562,2763.00
977.510,2442.00
978.458,2669.00
979.405,2888.00
980.352,2793.00
981.300,3018.00
982.247,2865.00
983.194,2583.00
984.141,2700.00
985.088,2771.00
986.036,2784.00
986.983,3059.00
987.930,3146.00
988.876,2405.00
989.822,3035.00
990.769,2572.00
991.715,2655.00
992.661,2472.00
993.607,2830.00
994.553,3370.00
995.498,2612.00
996.444,2322.00
997.389,2841.00
998.337,2545.00
999.282,2937.00
1000.227,2749.00
1001.173,2740.00
1002.118,2471.00
1003.062,2906.00
1004.007,2702.00
1004.952,3022.00
1005.897,2960.00
1006.841,2698.00
1007.786,2453.00
1008.730,2440.00
1009.674,3213.00
1010.618,2669.00
1011.564,2557.00
1012.508,2447.00
1013.452,2949.00
1014.396,2810.00
1015.339,2607.00
1016.283,2698.00
1017.226,2827.00
1018.170,2734.00
1019.113,2929.00
1020.056,2742.00
1020.999,2748.00
1021.942,2647.00
1022.885,2884.00
1023.828,3074.00
1024.770,2568.00
1025.715,2796.00
1026.657,2747.00
1027.600,2809.00
1028.542,2973.00
1029.484,2792.00
1030.426,2868.00
1031.368,2867.00
1032.310,2647.00
1033.251,2566.00
1034.193,2733.00
1035.135,2517.00
1036.076,2674.00
1037.017,2575.00
1037.959,2852.00
1038.900,2850.00
1039.843,2838.00
1040.784,2764.00
1041.725,2851.00
1042.665,2648.00
1043.606,2781.00
1044.547,2788.00
1045.487,2432.00
1046.427,2722.00
1047.368,2789.00
1048.308,2279.00
1049.248,2581.00
1050.188,2705.00
1051.128,2641.00
1052.067,2667.00
1053.007,2422.00
1053.947,2422.00
1054.886,2619.00
1055.827,2530.00
1056.766,2991.00
1057.706,2497.00
1058.645,2672.00
1059.584,2778.00
1060.522,3017.00
1061.461,2499.00
1062.400,2515.00
1063.338,2684.00
1064.277,2544.00
1065.215,2567.00
1066.154,2435.00
1067.092,2642.00
1068.030,2672.00
1068.968,2924.00
1069.906,3003.00
1070.843,2986.00
1071.781,2776.00
1072.720,2873.00
1073.658,2872.00
1074.595,2638.00
1075.533,2569.00
1076.470,2621.00
1077.407,3023.00
1078.344,2785.00
1079.281,2836.00
1080.217,2359.00
1081.154,2683.00
1082.091,2743.00
1083.027,2482.00
1083.964,2969.00
1084.900,2575.00
1085.836,2654.00
1086.772,2910.00
1087.708,2488.00
1088.644,2870.00
1089.580,2714.00
1090.515,2773.00
1091.451,2657.00
1092.388,2777.00
1093.324,2477.00
1094.259,3284.00
1095.194,2814.00
1096.129,2643.00
1097.064,2623.00
1097.999,2847.00
1098.934,2589.00
1099.869,2549.00
1100.803,2779.00
1101.738,2775.00
1102.672,2418.00
1103.607,2847.00
1104.541,2579.00
1105.475,2558.00
1106.409,2474.00
1107.343,2617.00
1108.277,2466.00
1109.210,2731.00
1110.144,2740.00
1111.078,2681.00
1112.011,2522.00
1112.944,2849.00
1113.878,2731.00
1114.811,2200.00
1115.744,2611.00
1116.678,2321.00
1117.611,2623.00
1118.544,2602.00
1119.477,2813.00
1120.409,2547.00
1121.342,3162.00
1122.274,2779.00
1123.206,4261.00
1124.138,2746.00
1125.070,3007.00
1126.002,2900.00
1126.934,2278.00
1127.866,2599.00
1128.798,2373.00
1129.729,2383.00
1130.661,2681.00
1131.592,2596.00
1132.523,2767.00
1133.454,2770.00
1134.385,2318.00
1135.317,2658.00
1136.247,2612.00
1137.178,2878.00
1138.109,2409.00
1139.039,3060.00
1139.970,2872.00
1140.900,2609.00
1141.831,2385.00
1142.761,2242.00
1143.691,2801.00
1144.621,2672.00
1145.551,2710.00
1146.480,2723.00
1147.410,2877.00
1148.340,2310.00
1149.269,2412.00
1150.199,2624.00
1151.128,3090.00
1152.057,2494.00
1152.979,2600.00
1153.898,2712.00
1154.819,2765.00
1155.739,2720.00
1156.658,2581.00
1157.579,2728.00
1158.498,2665.00
1159.419,2214.00
1160.338,2709.00
1161.256,2743.00
1162.177,2497.00
1163.095,2642.00
1164.016,2757.00
1164.934,2939.00
1165.852,2863.00
1166.772,2651.00
1167.690,2700.00
1168.610,2738.00
1169.528,2671.00
1170.446,2206.00
1171.365,2583.00
1172.283,2544.00
1173.202,2673.00
1174.120,2718.00
1175.037,2545.00
1175.956,2510.00
1176.873,2553.00
1177.792,2583.00
1178.709,3101.00
1179.626,2535.00
1180.544,2868.00
1181.461,2543.00
1182.379,2774.00
1183.296,2646.00
1184.212,2339.00
1185.130,2492.00
1186.046,3015.00
1186.962,2661.00
1187.880,2960.00
1188.796,2715.00
1189.714,2477.00
1190.629,2839.00
1191.545,2738.00
1192.462,2621.00
1193.378,2646.00
1194.295,2354.00
1195.210,2674.00
1196.125,2796.00
1197.042,2795.00
1197.957,2664.00
1198.872,2529.00
1199.788,2597.00
1200.703,2968.00
1201.619,2663.00
1202.534,2533.00
1203.448,2747.00
1204.364,2615.00
1205.278,2320.00
1206.192,2698.00
1207.108,3195.00
1208.022,3039.00
1208.938,2526.00
1209.851,2793.00
1210.765,2896.00
1211.680,2562.00
1212.594,2467.00
1213.507,2620.00
1214.422,3087.00
1215.335,2781.00
1216.248,2633.00
1217.163,2714.00
1218.076,3276.00
1218.990,2762.00
1219.903,2414.00
1220.816,2503.00
1221.730,2628.00
1222.642,2516.00
1223.554,2568.00
1224.469,2748.00
1225.380,2566.00
1226.292,2316.00
1227.206,2800.00
1228.118,2985.00
1229.032,2273.00
1229.943,2548.00
1230.855,2617.00
1231.768,2392.00
1232.679,2794.00
1233.590,2630.00
1234.503,2869.00
1235.414,2498.00
1236.325,2537.00
1237.238,2737.00
1238.149,2796.00
1239.059,2451.00
1239.972,2904.00
1240.882,2487.00
1241.793,2782.00
1242.705,2977.00
1243.615,2615.00
1244.525,2773.00
1245.437,2230.00
1246.347,2680.00
1247.259,2842.00
1248.168,3115.00
1249.078,2919.00
1249.989,2933.00
1250.899,2473.00
1251.808,2537.00
1252.719,2582.00
1253.628,2519.00
1254.537,3034.00
1255.448,2467.00
1256.357,2478.00
1257.266,2644.00
1258.176,2378.00
1259.085,2420.00
1259.993,2490.00
1260.904,2481.00
1261.812,2492.00
1262.720,3209.00
1263.630,2797.00
1264.538,2481.00
1265.446,2755.00
1266.356,2625.00
1267.263,2951.00
1268.171,2446.00
1269.080,2762.00
1269.988,2854.00
1270.895,2586.00
1271.804,2658.00
1272.711,2832.00
1273.619,2824.00
1274.527,2440.00
1275.434,2769.00
1276.341,2476.00
1277.248,2697.00
1278.156,2929.00
1279.063,2521.00
1279.969,2734.00
1280.877,3556.00
1281.783,2906.00
1282.690,2743.00
1283.598,2646.00
1284.503,2521.00
1285.409,2453.00
1286.317,3056.00
1287.223,3051.00
1288.128,2721.00
1289.036,2550.00
1289.941,2607.00
1290.846,2700.00
1291.751,2495.00
1292.658,2550.00
1293.563,3133.00
1294.468,2646.00
1295.375,2797.00
1296.280,2890.00
1297.184,3405.00
1298.091,2735.00
1298.995,2833.00
1299.900,3031.00
1300.806,2549.00
1301.710,2399.00
1302.614,2242.00
1303.518,2930.00
1304.424,2574.00
1305.327,2862.00
1306.231,2635.00
1307.137,2800.00
1308.040,2740.00
1308.943,2708.00
1309.847,2892.00
1310.752,2858.00
1311.655,2313.00
1312.558,2464.00
1313.463,2577.00
1314.366,2549.00
1315.269,2701.00
1316.171,2679.00
1317.076,2540.00
1317.978,2483.00
1318.881,2286.00
1319.785,2546.00
1320.687,2543.00
1321.589,2264.00
1322.491,2490.00
1323.395,2757.00
1324.297,3208.00
1325.198,2811.00
1326.102,2488.00
1327.004,2441.00
1327.905,3070.00
1328.806,2628.00
1329.709,2698.00
1330.611,2569.00
1331.512,2523.00
1332.413,3133.00
1333.316,2716.00
1334.216,2809.00
1335.117,2442.00
1336.020,2702.00
1336.920,2671.00
1337.821,2524.00
1338.721,2958.00
1339.623,2704.00
1340.523,2624.00
1341.423,2543.00
1342.323,2961.00
1343.225,2744.00
1344.125,2488.00
1345.025,2572.00
1345.924,2334.00
1346.826,2995.00
1347.725,3072.00
1348.624,2889.00
1349.524,2533.00
1350.425,2625.00
1351.324,2734.00
1352.223,2860.00
1353.121,2655.00
1354.022,2866.00
1354.921,3082.00
1355.819,2812.00
1356.718,2700.00
1357.618,2419.00
1358.516,2777.00
1359.415,3048.00
1360.313,2836.00
1361.213,2600.00
1362.111,2895.00
1363.008,3343.00
1363.906,2648.00
1364.806,2689.00
1365.703,2748.00
1366.601,2479.00
1367.498,2498.00
1368.397,2837.00
1369.295,2727.00
1370.192,2493.00
1371.089,2763.00
1371.987,2617.00
1372.884,2927.00
1373.781,2486.00
1374.678,2698.00
1375.574,2483.00
1376.473,2783.00
1377.369,2903.00
1378.265,2512.00
1379.161,2604.00
1380.059,2363.00
1380.955,2758.00
1381.851,2423.00
1382.747,2556.00
1383.643,2605.00
1384.540,2443.00
1385.436,2576.00
1386.331,2754.00
1387.227,2857.00
1388.124,2787.00
1389.019,2478.00
1389.914,2652.00
1390.809,2325.00
1391.704,3094.00
1392.601,2566.00
1393.495,2945.00
1394.390,2820.00
1395.285,2926.00
1396.179,2744.00
1397.075,2633.00
1397.969,2730.00
1398.864,2368.00
1399.758,2649.00
1400.652,2697.00
1401.547,2499.00
1402.441,2433.00
1403.335,3004.00
1404.229,2803.00
1405.122,2738.00
1406.017,2646.00
1406.911,2851.00
1407.804,3053.00
1408.697,2651.00
1409.590,2445.00
1410.485,2837.00
1411.378,2710.00
1412.271,2370.00
1413.163,2707.00
1414.056,2799.00
1414.949,3055.00
1415.843,2709.00
1416.735,2652.00
1417.627,2682.00
1418.520,2626.00
1419.412,2878.00
1420.306,2831.00
1421.197,2941.00
1422.089,2912.00
1422.981,3149.00
1423.873,2865.00
1424.764,2810.00
1425.657,2698.00
1426.549,2821.00
1427.440,2899.00
1428.331,2587.00
1429.222,2361.00
1430.113,2745.00
1431.006,2867.00
1431.897,2579.00
1432.787,2679.00
1433.678,2646.00
1434.568,2474.00
1435.459,2911.00
1436.351,2858.00
1437.241,2838.00
1438.131,2849.00
1439.021,2445.00
1439.911,2627.00
1440.801,2720.00
1441.693,2896.00
1442.583,2707.00
1443.472,2694.00
1444.362,2799.00
1445.251,2657.00
1446.140,2612.00
1447.030,2894.00
1447.921,2860.00
1448.810,2486.00
1449.699,3066.00
1450.588,2736.00
1451.476,2616.00
1452.365,2792.00
1453.254,2584.00
1454.144,2576.00
1455.032,2812.00
1455.921,2389.00
1456.809,2929.00
1457.697,2488.00
1458.585,2660.00
1459.473,2636.00
1460.361,2546.00
1461.251,2758.00
1462.138,2788.00
1463.026,2661.00
1463.913,2933.00
1464.801,2600.00
1465.688,2776.00
1466.575,2725.00
1467.463,3126.00
1468.351,2535.00
1469.238,2660.00
1470.125,2281.00
1471.012,2746.00
1471.899,2817.00
1472.785,2490.00
1473.672,2701.00
1474.558,2930.00
1475.446,2817.00
1476.333,2858.00
1477.219,2489.00
1478.105,2639.00
1478.991,2680.00
1479.877,3006.00
1480.762,2676.00
1481.648,2567.00
1482.534,2839.00
1483.419,2781.00
1484.307,2772.00
1485.192,2653.00
1486.077,2551.00
1486.962,2583.00
1487.847,2442.00
1488.732,2565.00
1489.617,2682.00
1490.502,2958.00
1491.387,2806.00
1492.271,2536.00
1493.156,2539.00
1494.042,2468.00
1494.927,2897.00
1495.811,2573.00
1496.695,2861.00
1497.579,2995.00
1498.463,2704.00
1499.347,2719.00
1500.231,2735.00
1501.114,2715.00
1501.998,2970.00
1502.881,2736.00
1503.765,2987.00
1504.648,3118.00
1505.533,2786.00
1506.417,2708.00
1507.300,2640.00
1508.183,2766.00
1509.066,2200.00
1509.948,2977.00
1510.831,3068.00
1511.714,2449.00
1512.596,2828.00
1513.479,2973.00
1514.361,2894.00
1515.243,2720.00
1516.125,2886.00
1517.008,2964.00
1517.890,2634.00
1518.771,2720.00
1519.655,2912.00
1520.537,2637.00
1521.419,2536.00
1522.300,2744.00
1523.182,2813.00
1524.063,2833.00
1524.944,2987.00
1525.825,2865.00
1526.707,2500.00
1527.588,2482.00
1528.468,2830.00
1529.349,2367.00
1530.230,2655.00
1531.111,2889.00
1531.991,2781.00
1532.872,2412.00
1533.752,2719.00
1534.632,2570.00
1535.513,2598.00
1536.393,2878.00
1537.273,3009.00
1538.153,3391.00
1539.032,2433.00
1539.912,2724.00
1540.792,2696.00
1541.672,2722.00
1542.551,2802.00
1543.430,3275.00
1544.310,2741.00
1545.189,2632.00
1546.068,3153.00
1546.947,2809.00
1547.826,3014.00
1548.705,2694.00
1549.584,2924.00
1550.462,2679.00
1551.341,2886.00
1552.219,2740.00
1553.098,2873.00
1553.976,2928.00
1554.854,3123.00
1555.733,2881.00
1556.611,2625.00
1557.489,2506.00
1558.367,2720.00
1559.244,2883.00
1560.122,2706.00
1561.000,2802.00
1561.877,3016.00
1562.755,2585.00
1563.632,2655.00
1564.509,2973.00
1565.386,3085.00
1566.264,2481.00
1567.141,2314.00
1568.017,2875.00
1568.894,2731.00
1569.771,2767.00
1570.648,2830.00
1571.524,2712.00
1572.401,2475.00
1573.277,2475.00
1574.153,2731.00
1575.029,2581.00
1575.906,3440.00
1576.781,2851.00
1577.657,2659.00
1578.533,2934.00
1579.409,2334.00
1580.285,2656.00
1581.160,3110.00
1582.036,2883.00
1582.911,2553.00
1583.786,3093.00
1584.662,2533.00
1585.537,2701.00
1586.412,2747.00
1587.287,2555.00
1588.160,2887.00
1589.035,2366.00
1589.909,2731.00
1590.784,2671.00
1591.658,2502.00
1592.533,2746.00
1593.407,2712.00
1594.281,2594.00
1595.155,3130.00
1596.029,2628.00
1596.903,2668.00
1597.777,2633.00
1598.651,2956.00
1599.525,2412.00
1600.398,2744.00
1601.272,2653.00
1602.144,3259.00
1603.017,2665.00
1603.890,2949.00
1604.763,2789.00
1605.636,2863.00
1606.509,2415.00
1607.382,2567.00
1608.255,2803.00
1609.128,2899.00
1610.000,2703.00
1610.873,2410.00
1611.746,2587.00
1612.616,2635.00
1613.488,2311.00
1614.361,2706.00
1615.233,2672.00
1616.105,2906.00
1616.977,2603.00
1617.849,2555.00
1618.720,3009.00
1619.592,3017.00
1620.464,2820.00
1621.333,3138.00
1622.205,2726.00
1623.076,2710.00
1623.947,2690.00
1624.818,2992.00
1625.689,2824.00
1626.560,2624.00
1627.431,2764.00
1628.302,3140.00
1629.171,2844.00
1630.042,3008.00
1630.912,3364.00
1631.782,3308.00
1632.653,2525.00
1633.523,2900.00
1634.393,2944.00
1635.263,2589.00
1636.131,2709.00
1637.001,2647.00
1637.871,2368.00
1638.741,2325.00
1639.611,2443.00
1640.480,2830.00
1641.350,2627.00
1642.219,2536.00
1643.087,2207.00
1643.956,3174.00
1644.825,2965.00
1645.694,2942.00
1646.563,2889.00
1647.432,2790.00
1648.299,2709.00
1649.167,2814.00
1650.036,2525.00
1650.904,2918.00
1651.773,2937.00
1652.641,2742.00
1653.509,2921.00
1654.376,2591.00
1655.244,2745.00
1656.112,2762.00
1656.980,2685.00
1657.847,2619.00
1658.715,2894.00
1659.581,2634.00
1660.448,2953.00
1661.316,2222.00
1662.183,2751.00
1663.051,2729.00
1663.918,2777.00
1664.783,2711.00
1665.650,2816.00
1666.517,2931.00
1667.384,2730.00
1668.251,2766.00
1669.115,2962.00
1669.982,2680.00
1670.849,3031.00
1671.715,2724.00
1672.581,2881.00
1673.446,2869.00
1674.312,2765.00
1675.178,3135.00
1676.044,2825.00
1676.910,2839.00
1677.774,2758.00
1678.639,2375.00
1679.505,2719.00
1680.370,2891.00
1681.236,3362.00
1682.099,2697.00
1682.965,2758.00
1683.830,2326.00
1684.695,2547.00
1685.560,2688.00
1686.423,2878.00
1687.288,2852.00
1688.153,2772.00
1689.017,2695.00
1689.880,2793.00
1690.745,2869.00
1691.609,2540.00
1692.473,2893.00
1693.338,2962.00
1694.200,3022.00
1695.064,2775.00
1695.928,2640.00
1696.792,2766.00
1697.654,3209.00
1698.517,2772.00
1699.381,2463.00
1700.245,2361.00
1701.106,3040.00
1701.969,2607.00
1702.833,2860.00
1703.696,2642.00
1704.557,2722.00
1705.420,2613.00
1706.283,2766.00
1707.146,2841.00
1708.007,2536.00
1708.870,2569.00
1709.732,2422.00
1710.595,2620.00
1711.455,2455.00
1712.318,2684.00
1713.180,2971.00
1714.040,2809.00
1714.902,2925.00
1715.764,2730.00
1716.626,2509.00
1717.486,2702.00
1718.348,3039.00
1719.209,4915.00
1720.071,2441.00
1720.930,2523.00
1721.792,2573.00
1722.653,2554.00
1723.512,2619.00
1724.374,2698.00
1725.234,2803.00
1726.095,2770.00
1726.954,2752.00
1727.815,2878.00
1728.676,2732.00
1729.535,2967.00
1730.395,2704.00
1731.256,2661.00
1732.114,2816.00
1732.974,2220.00
1733.834,3106.00
1734.693,2916.00
1735.553,2766.00
1736.413,3116.00
1737.272,2629.00
1738.130,2652.00
1738.990,2809.00
1739.849,2629.00
1740.707,3732.00
1741.566,2779.00
1742.426,2757.00
1743.283,3130.00
1744.142,2626.00
1745.001,2421.00
1745.858,2919.00
1746.717,2798.00
1747.576,2840.00
1748.433,2928.00
1749.292,3315.00
1750.150,3383.00
1751.007,2908.00
1751.865,2984.00
1752.723,2757.00
1753.579,2715.00
1754.438,2959.00
1755.296,2980.00
1756.152,2256.00
1757.010,2434.00
1757.865,2927.00
1758.723,2402.00
1759.581,3069.00
1760.436,2749.00
1761.294,3096.00
1762.151,2706.00
1763.006,2653.00
1763.864,2378.00
1764.721,2955.00
1765.576,2752.00
1766.433,2920.00
1767.288,2635.00
1768.144,2805.00
1769.001,2695.00
1769.856,2848.00
1770.712,2941.00
1771.568,2507.00
1772.423,2655.00
1773.279,2634.00
1774.133,2629.00
1774.989,3151.00
1775.845,3126.00
1776.699,3002.00
1777.555,2720.00
1778.409,3279.00
1779.265,2782.00
1780.120,2749.00
1780.974,2745.00
1781.829,2356.00
1782.682,2798.00
1783.538,2572.00
1784.393,2818.00
1785.246,2631.00
1786.101,2820.00
1786.954,2877.00
1787.808,2960.00
1788.661,2484.00
1789.516,2639.00
1790.370,2696.00
1791.223,2927.00
1792.077,2721.00
1792.930,2832.00
1793.784,2575.00
1794.636,2720.00
1795.490,2730.00
1796.344,2787.00
1797.196,2749.00
1798.049,2927.00
1798.901,2596.00
1799.755,3005.00
1800.606,2570.00
1801.460,3290.00
1802.311,3023.00
1803.165,3129.00
1804.018,3123.00
1804.869,2856.00
1805.722,3232.00
1806.573,2799.00
1807.426,2591.00
1808.276,2718.00
1809.129,2652.00
1809.980,2972.00
1810.832,3006.00
1811.683,2651.00
1812.535,3084.00
1813.385,2652.00
1814.237,3044.00
1815.089,2772.00
1815.940,3039.00
1816.791,2713.00
1817.641,2600.00
1818.493,2889.00
1819.343,2797.00
1820.194,2651.00
1821.044,2835.00
1821.895,2972.00
1822.745,2486.00
1823.596,2643.00
1824.445,3174.00
1825.296,2846.00
1826.145,2716.00
1826.996,2949.00
1827.845,2770.00
1828.695,2804.00
1829.544,2784.00
1830.395,2813.00
1831.243,2679.00
1832.094,2473.00
1832.942,3377.00
1833.792,2884.00
1834.640,2854.00
1835.490,2730.00
1836.338,2819.00
1837.186,2646.00
1838.036,2584.00
1838.884,2788.00
1839.733,3088.00
1840.581,2982.00
1841.430,2844.00
1842.278,3100.00
1843.127,2669.00
1843.974,2453.00
1844.823,3196.00
1845.671,2920.00
1846.519,2724.00
1847.366,2859.00
1848.213,2414.00
1849.062,2557.00
1849.909,2508.00
1850.757,3385.00
1851.604,2855.00
1852.452,2676.00
1853.298,2987.00
1854.146,2805.00
1854.993,2819.00
1855.839,3258.00
1856.687,2884.00
1857.532,2903.00
1858.380,2759.00
1859.226,2835.00
1860.073,2884.00
1860.919,2608.00
1861.765,2694.00
1862.612,3007.00
1863.457,2979.00
1864.304,2692.00
1865.150,2881.00
1865.995,2800.00
1866.842,2911.00
1867.686,3010.00
1868.533,2864.00
1869.378,2850.00
1870.223,2800.00
1871.069,2679.00
1871.914,2796.00
1872.760,2748.00
1873.604,2568.00
1874.448,2840.00
1875.294,2934.00
1876.139,2616.00
1876.984,2905.00
1877.828,2429.00
1878.672,2252.00
1879.518,2649.00
1880.361,2973.00
1881.205,2951.00
1882.050,2602.00
1882.894,3272.00
1883.739,2651.00
1884.582,2530.00
1885.425,2587.00
1886.270,3037.00
1887.113,2513.00
1887.956,2855.00
1888.801,2780.00
1889.644,2574.00
1890.486,2406.00
1891.331,2719.00
1892.173,2794.00
1893.017,2841.00
1893.860,3080.00
1894.702,3073.00
1895.546,2790.00
1896.388,3485.00
1897.230,3118.00
1898.074,2656.00
1898.916,2571.00
1899.757,2613.00
1900.601,3486.00
1901.443,3089.00
1902.284,3061.00
1903.125,3259.00
1903.969,2958.00
1904.810,3041.00
1905.651,2842.00
1906.494,3134.00
1907.335,3239.00
1908.176,2856.00
1909.018,2858.00
1909.859,2744.00
1910.700,2641.00
1911.542,3323.00
1912.383,2852.00
1913.223,2380.00
1914.064,2917.00
1914.906,3043.00
1915.746,3106.00
1916.586,3216.00
1917.428,2769.00
1918.268,2803.00
1919.107,2687.00
1919.947,2525.00
1920.789,2737.00
1921.628,3018.00
1922.468,2787.00
1923.309,2627.00
1924.148,3118.00
1924.988,2858.00
1925.827,2765.00
1926.667,2683.00
1927.507,2787.00
1928.345,2613.00
1929.184,2936.00
1930.025,2574.00
1930.864,3054.00
1931.702,3086.00
1932.541,2706.00
1933.381,2941.00
1934.219,2921.00
1935.057,3068.00
1935.896,2505.00
1936.735,2736.00
1937.573,2719.00
1938.411,2563.00
1939.249,2960.00
1940.089,2647.00
1940.927,2997.00
1941.764,3078.00
1942.602,2714.00
1943.439,2693.00
1944.278,2746.00
1945.115,2707.00
1945.953,2520.00
1946.790,2852.00
1947.628,3131.00
1948.465,2916.00
1949.302,2946.00
1950.139,2928.00
1950.976,2633.00
1951.814,2971.00
1952.651,2825.00
1953.487,2588.00
1954.323,3049.00
1955.160,2767.00
1955.998,3147.00
1956.834,2811.00
1957.670,2844.00
1958.506,3075.00
1959.342,2851.00
1960.177,2843.00
1961.015,2935.00
1961.850,2833.00
1962.686,2810.00
1963.521,2890.00
1964.357,3111.00
1965.192,2579.00
1966.029,2930.00
1966.864,2724.00
1967.699,3004.00
1968.534,2818.00
1969.369,3055.00
1970.204,2761.00
1971.040,2813.00
1971.875,2761.00
1972.709,2797.00
1973.544,2591.00
1974.378,2682.00
1975.212,2915.00
1976.047,2731.00
1976.882,2682.00
1977.716,3231.00
1978.550,2512.00
1979.384,2774.00
1980.218,2703.00
1981.052,2728.00
1981.885,2822.00
1982.719,2789.00
1983.554,2933.00
1984.388,3115.00
1985.221,2893.00
1986.054,3069.00
1986.887,2870.00
1987.720,2634.00
1988.553,3094.00
1989.386,2891.00
1990.219,2918.00
1991.053,3100.00
1991.886,2657.00
1992.719,2988.00
1993.551,2322.00
1994.383,2965.00
1995.216,2713.00
1996.048,2510.00
1996.880,2977.00
1997.712,2668.00
1998.544,2786.00
1999.376,2882.00
2000.208,3089.00
2001.040,3226.00
2001.873,2641.00
2002.705,2636.00
2003.536,2884.00
2004.367,2863.00
2005.199,2868.00
2006.030,2694.00
2006.861,2605.00
2007.692,2833.00
2008.523,2655.00
2009.354,2852.00
2010.185,2593.00
2011.016,2938.00
2011.846,3011.00
2012.677,2743.00
2013.507,3169.00
2014.338,3046.00
2015.168,2737.00
2015.999,3299.00
2016.829,2727.00
2017.659,3051.00
2018.489,3352.00
2019.319,2622.00
2020.149,2974.00
2020.980,2838.00
2021.810,2603.00
2022.639,2700.00
2023.469,2725.00
2024.298,2520.00
2025.128,2436.00
2025.957,2382.00
2026.786,2277.00
2027.615,2462.00
2028.444,2628.00
2029.273,2861.00
2030.102,2453.00
2030.931,2694.00
2031.758,2920.00
2032.586,2585.00
2033.415,2694.00
2034.243,2290.00
2035.072,2044.00
2035.900,2528.00
2036.728,2374.00
2037.556,2416.00
2038.385,2420.00
2039.213,2253.00
2040.040,2213.00
2040.868,2173.00
2041.696,2256.00
2042.524,2285.00
2043.351,2458.00
2044.179,2254.00
2045.006,2038.00
