RamanScope Measure Spectrum Data V3.72

<< MEASURE CONDITION >>
Exposure Type,Aver
Exposure Time [sec],15
Exposure Count,30
Measure Time,2023/07/05 08:40:41
Data Name,""
Data Comment,""
Rayleigh Wave[nm],532.0

<< SAMPLE SPECTRUM >>
Wave[dcm-1],No305
146.591,712.17
147.626,830.57
148.664,953.80
149.699,1116.10
150.737,1252.53
151.772,1413.10
152.809,1568.10
153.846,1688.53
154.881,1809.73
155.918,1884.83
156.953,1969.20
157.989,2053.90
159.026,2150.67
160.060,2213.97
161.096,2246.47
162.130,2319.07
163.167,2344.57
164.200,2390.20
165.236,2431.80
166.272,2458.47
167.305,2480.20
168.341,2536.13
169.374,2540.37
170.409,2616.10
171.445,2637.50
172.477,2649.07
173.512,2693.53
174.545,2739.50
175.580,2725.97
176.614,2749.20
177.647,2786.47
178.681,2784.40
179.713,2832.07
180.747,2775.67
181.781,2777.57
182.813,2772.60
183.847,2814.50
184.878,2815.70
185.912,2788.43
186.945,2773.37
187.976,2866.23
189.010,2789.33
190.043,2852.10
191.073,2870.97
192.106,2913.07
193.137,2895.77
194.170,2932.37
195.202,2983.83
196.232,3008.00
197.265,2994.80
198.297,3070.90
199.327,3111.73
200.359,3133.77
201.388,3171.47
202.420,3234.87
203.452,3299.70
204.481,3323.47
205.512,3393.20
206.544,3440.70
207.573,3524.43
208.604,3582.93
209.635,3722.13
210.663,3859.33
211.694,3992.63
212.725,4078.23
213.753,4296.83
214.783,4477.23
215.813,4658.80
216.841,4818.87
217.871,4955.17
218.899,5127.90
219.929,5296.37
220.959,5326.53
221.986,5360.23
223.016,5303.03
224.045,5161.17
225.072,5028.37
226.101,4895.20
227.130,4690.03
228.157,4530.37
229.185,4370.30
230.214,4196.23
231.241,4057.50
232.269,3927.93
233.297,3879.27
234.323,3798.57
235.351,3738.47
236.379,3666.53
237.407,3683.60
238.433,3616.57
239.460,3602.23
240.488,3637.30
241.513,3668.17
242.540,3652.97
243.568,3700.93
244.592,3724.87
245.619,3788.60
246.646,3778.27
247.671,3806.63
248.697,3768.63
249.724,3716.43
250.748,3728.60
251.774,3696.97
252.801,3638.00
253.827,3619.63
254.850,3652.73
255.876,3639.03
256.902,3678.13
257.925,3694.93
258.951,3725.97
259.976,3786.63
260.999,3767.47
262.024,3799.37
263.049,3857.43
264.074,3907.63
265.097,3885.80
266.122,3972.87
267.146,4027.40
268.168,4084.23
269.193,4154.13
270.217,4234.53
271.241,4305.10
272.263,4351.60
273.287,4436.03
274.311,4497.13
275.332,4583.50
276.356,4655.10
277.379,4708.10
278.402,4774.03
279.424,4803.33
280.447,4853.97
281.470,4835.80
282.492,4825.93
283.513,4754.90
284.536,4725.37
285.558,4663.30
286.581,4612.17
287.601,4470.27
288.623,4423.47
289.645,4328.07
290.665,4304.73
291.687,4149.33
292.709,4130.47
293.730,4025.63
294.750,3934.73
295.771,3908.27
296.792,3863.47
297.813,3735.87
298.832,3624.37
299.853,3622.00
300.874,3533.77
301.895,3523.53
302.913,3412.63
303.934,3347.60
304.954,3327.33
305.975,3273.13
306.993,3231.20
308.013,3223.87
309.033,3146.97
310.052,3135.03
311.072,3060.03
312.090,3058.87
313.109,3056.03
314.129,2982.70
315.148,2985.67
316.165,2948.23
317.184,2910.10
318.203,2883.33
319.222,2841.60
320.238,2823.57
321.257,2783.87
322.275,2840.47
323.294,2785.83
324.312,2763.63
325.328,2760.07
326.346,2742.87
327.364,2802.70
328.382,2721.97
329.397,2727.20
330.415,2700.90
331.432,2725.90
332.450,2691.80
333.467,2715.23
334.482,2650.40
335.499,2661.43
336.516,2630.60
337.533,2643.80
338.547,2618.13
339.564,2615.97
340.580,2626.87
341.597,2627.03
342.613,2650.00
343.627,2638.87
344.643,2599.77
345.659,2588.30
346.675,2586.60
347.690,2610.23
348.704,2612.00
349.719,2615.57
350.735,2535.43
351.750,2566.53
352.765,2599.80
353.778,2612.07
354.793,2622.60
355.808,2555.50
356.822,2610.90
357.837,2599.93
358.851,2631.67
359.864,2574.50
360.878,2576.10
361.892,2595.93
362.906,2651.37
363.920,2645.77
364.932,2591.77
365.945,2648.97
366.959,2674.93
367.972,2645.43
368.986,2676.83
369.999,2607.63
371.010,2685.93
372.023,2713.37
373.036,2680.13
374.049,2698.47
375.061,2756.13
376.072,2723.97
377.084,2785.87
378.097,2783.60
379.109,2808.70
380.121,2851.00
381.133,2870.30
382.143,2844.33
383.155,2865.40
384.166,2866.17
385.178,2903.70
386.189,2859.23
387.201,2913.43
388.212,2922.73
389.221,2935.80
390.232,2928.40
391.243,2939.37
392.254,2927.20
393.264,2942.17
394.275,2915.60
395.283,2876.90
396.294,2867.10
397.304,2867.37
398.314,2883.10
399.324,2865.30
400.334,2888.70
401.344,2837.87
402.351,2769.10
403.361,2789.37
404.370,2771.03
405.380,2803.63
406.389,2700.87
407.398,2707.57
408.407,2689.17
409.414,2684.23
410.423,2683.80
411.431,2622.40
412.440,2619.47
413.448,2647.60
414.457,2616.73
415.465,2566.80
416.471,2534.83
417.479,2511.40
418.487,2485.03
419.495,2515.70
420.503,2574.03
421.510,2498.20
422.518,2501.87
423.525,2451.60
424.530,2498.10
425.537,2470.03
426.544,2478.00
427.551,2449.00
428.558,2437.00
429.565,2391.83
430.571,2431.43
431.578,2412.60
432.582,2431.20
433.588,2403.93
434.595,2431.43
435.601,2434.33
436.607,2427.20
437.612,2394.50
438.618,2387.33
439.624,2378.47
440.627,2401.70
441.633,2400.57
442.638,2370.60
443.643,2408.60
444.648,2396.00
445.653,2394.70
446.658,2433.33
447.663,2385.80
448.667,2402.97
449.672,2423.23
450.674,2368.63
451.678,2421.57
452.682,2418.83
453.687,2394.10
454.690,2403.47
455.694,2458.27
456.698,2410.50
457.702,2391.00
458.705,2436.00
459.709,2388.40
460.710,2443.53
461.713,2458.60
462.716,2481.23
463.719,2412.87
464.722,2448.53
465.725,2399.27
466.727,2475.30
467.730,2451.60
468.732,2450.47
469.735,2412.23
470.737,2465.70
471.737,2480.33
472.739,2448.50
473.741,2437.13
474.742,2472.77
475.744,2486.20
476.746,2457.63
477.747,2439.60
478.748,2453.10
479.750,2451.57
480.751,2470.13
481.752,2471.87
482.753,2518.90
483.751,2478.13
484.752,2438.80
485.753,2511.63
486.753,2444.93
487.753,2496.37
488.754,2452.77
489.754,2459.87
490.754,2429.83
491.754,2473.07
492.754,2481.60
493.753,2473.57
494.753,2415.63
495.752,2476.70
496.752,2445.90
497.749,2444.07
498.748,2467.90
499.747,2441.87
500.746,2420.93
501.745,2400.93
502.744,2450.13
503.742,2382.77
504.741,2408.70
505.739,2376.20
506.737,2376.43
507.735,2424.13
508.734,2407.47
509.732,2378.17
510.729,2374.83
511.727,2361.93
512.725,2395.00
513.720,2379.47
514.718,2360.53
515.715,2378.63
516.712,2345.47
517.709,2308.87
518.706,2383.13
519.703,2351.37
520.700,2398.30
521.696,2348.43
522.693,2382.37
523.689,2368.07
524.686,2356.83
525.682,2376.10
526.678,2353.73
527.674,2397.50
528.670,2396.27
529.666,2445.83
530.661,2381.23
531.657,2071.77
532.652,2423.30
533.648,2441.90
534.641,2437.27
535.636,2404.60
536.631,2470.63
537.626,2472.73
538.621,2447.87
539.616,2483.23
540.610,2467.37
541.605,2479.60
542.599,2436.57
543.593,2463.83
544.587,2455.57
545.581,2532.00
546.575,2492.33
547.569,2527.60
548.563,2473.87
549.557,2455.77
550.550,2487.70
551.543,2504.73
552.537,2554.73
553.530,2491.63
554.523,2510.43
555.516,2508.97
556.509,2498.87
557.502,2503.07
558.494,2462.53
559.487,2493.87
560.479,2506.87
561.472,2531.77
562.464,2530.47
563.456,2528.40
564.448,2484.00
565.440,2535.63
566.432,2529.93
567.423,2547.70
568.415,2530.80
569.404,2524.50
570.396,2567.83
571.387,2577.27
572.378,2560.37
573.369,2559.10
574.360,2586.30
575.351,2592.60
576.341,2586.70
577.332,2599.77
578.323,2576.90
579.313,2615.33
580.303,2648.87
581.293,2606.57
582.283,2640.73
583.273,2642.67
584.263,2656.50
585.253,2685.07
586.243,2693.50
587.232,2675.10
588.222,2667.40
589.211,2638.23
590.200,2652.67
591.189,2711.60
592.178,2678.47
593.167,2700.73
594.156,2649.50
595.145,2671.23
596.133,2656.33
597.122,2691.67
598.110,2683.93
599.098,2665.03
600.086,2648.60
601.074,2689.30
602.062,2682.40
603.050,2653.97
604.038,2666.70
605.025,2635.67
606.013,2692.20
607.000,2634.77
607.987,2667.13
608.975,2675.17
609.962,2640.23
610.949,2668.97
611.936,2630.47
612.922,2612.77
613.909,2591.40
614.895,2637.53
615.882,2588.57
616.868,2601.93
617.854,2602.93
618.841,2613.20
619.826,2523.50
620.812,2472.07
621.798,2536.73
622.784,2506.63
623.769,2476.50
624.755,2457.13
625.740,2440.20
626.725,2474.90
627.711,2442.43
628.698,2460.77
629.683,2352.70
630.667,2381.23
631.652,2359.00
632.637,2375.63
633.621,2363.60
634.606,2330.63
635.590,2316.73
636.574,2302.73
637.558,2304.33
638.542,2271.93
639.526,2233.20
640.510,2256.63
641.493,2242.00
642.477,2256.40
643.460,2244.70
644.444,2249.97
645.427,2211.53
646.410,2167.23
647.393,2159.87
648.376,2247.37
649.359,2197.63
650.341,2165.07
651.324,2161.47
652.307,2111.67
653.289,2142.30
654.271,2164.63
655.253,2154.43
656.235,2128.97
657.217,2093.47
658.199,2082.50
659.181,2089.07
660.163,2120.87
661.144,2085.90
662.126,2064.20
663.107,2088.73
664.088,2130.37
665.069,2051.77
666.050,2005.27
667.033,2041.37
668.014,2027.67
668.995,2027.10
669.975,2034.83
670.956,2004.83
671.936,1995.83
672.916,1978.53
673.896,2016.33
674.876,1946.50
675.856,1999.60
676.836,1942.33
677.816,1916.00
678.795,1957.17
679.775,1951.77
680.754,1926.57
681.734,1876.63
682.713,1872.80
683.692,1865.43
684.671,1851.17
685.650,1874.57
686.629,1865.17
687.607,1825.57
688.586,1803.27
689.564,1823.87
690.543,1837.77
691.523,1817.23
692.501,1768.53
693.479,1785.07
694.457,1760.07
695.435,1770.10
696.413,1732.30
697.390,1741.73
698.368,1693.50
699.345,1745.40
700.322,1713.20
701.300,1697.17
702.277,1712.33
703.254,1648.43
704.231,1666.33
705.207,1699.03
706.184,1702.13
707.161,1690.47
708.137,1644.93
709.113,1654.77
710.090,1649.57
711.068,1602.03
712.044,1624.53
713.020,1573.37
713.996,1625.50
714.971,1598.90
715.947,1597.87
716.922,1596.70
717.898,1585.03
718.873,1613.87
719.848,1585.13
720.823,1589.13
721.798,1585.33
722.773,1599.17
723.748,1551.47
724.723,1546.27
725.697,1573.47
726.672,1577.07
727.646,1538.17
728.622,1601.80
729.596,1552.63
730.570,1563.63
731.544,1571.00
732.518,1570.23
733.492,1560.80
734.466,1527.77
735.439,1542.00
736.413,1538.80
737.386,1565.40
738.359,1561.03
739.332,1515.97
740.305,1543.87
741.278,1491.53
742.251,1497.67
743.224,1553.80
744.196,1490.53
745.171,1541.87
746.143,1515.27
747.115,1513.63
748.087,1533.73
749.059,1522.00
750.031,1525.70
751.003,1526.40
751.975,1494.70
752.947,1524.03
753.918,1487.77
754.890,1502.07
755.861,1478.97
756.832,1535.47
757.803,1469.20
758.774,1490.93
759.747,1453.00
760.718,1510.67
761.689,1470.80
762.659,1475.77
763.630,1468.77
764.600,1450.40
765.570,1442.77
766.540,1457.43
767.510,1515.27
768.480,1447.30
769.450,1468.23
770.420,1453.53
771.390,1463.40
772.359,1459.43
773.329,1407.20
774.300,1428.37
775.269,1413.97
776.238,1427.10
777.207,1399.40
778.176,1446.80
779.145,1408.90
780.114,1432.37
781.083,1406.67
782.051,1411.30
783.019,1395.97
783.988,1388.60
784.956,1395.23
785.924,1391.50
786.894,1394.97
787.862,1388.33
788.830,1361.10
789.797,1369.00
790.765,1365.97
791.732,1389.37
792.700,1364.83
793.667,1331.73
794.634,1339.97
795.601,1353.57
796.568,1331.10
797.535,1328.50
798.502,1387.20
799.468,1349.33
800.437,1329.93
801.403,1338.93
802.370,1295.73
803.336,1278.83
804.302,1323.43
805.268,1338.47
806.234,1317.40
807.200,1288.73
808.166,1288.00
809.131,1318.10
810.097,1297.90
811.062,1295.97
812.027,1294.30
812.994,1293.00
813.960,1296.23
814.925,1308.53
815.889,1264.57
816.854,1279.33
817.819,1271.73
818.783,1281.20
819.748,1291.63
820.712,1261.50
821.677,1258.77
822.641,1277.43
823.605,1243.63
824.571,1239.10
825.534,1255.43
826.498,1292.83
827.462,1242.47
828.425,1203.13
829.389,1226.63
830.352,1266.07
831.315,1250.13
832.279,1267.83
833.242,1188.83
834.204,1227.37
835.167,1234.87
836.132,1208.07
837.095,1221.23
838.057,1235.97
839.020,1209.73
839.982,1208.20
840.944,1267.90
841.906,1205.53
842.868,1233.07
843.830,1195.80
844.792,1206.83
845.753,1221.03
846.715,1218.37
847.679,1229.00
848.640,1209.07
849.601,1239.60
850.562,1227.70
851.523,1186.73
852.484,1211.20
853.445,1227.87
854.406,1188.60
855.367,1195.40
856.327,1211.97
857.288,1190.10
858.248,1208.03
859.210,1195.63
860.170,1191.57
861.130,1186.67
862.090,1174.47
863.050,1177.57
864.010,1162.33
864.969,1167.77
865.929,1177.17
866.888,1186.20
867.848,1130.77
868.807,1187.20
869.766,1205.90
870.727,1165.67
871.686,1159.40
872.645,1184.83
873.604,1185.07
874.562,1184.30
875.521,1200.77
876.479,1131.53
877.437,1151.83
878.396,1142.03
879.354,1170.47
880.312,1150.40
881.270,1187.93
882.229,1178.63
883.187,1169.97
884.145,1116.37
885.102,1185.63
886.059,1140.43
887.017,1136.13
887.974,1166.10
888.931,1171.07
889.888,1205.30
890.845,1187.83
891.802,1134.83
892.758,1144.97
893.717,1116.33
894.673,1169.10
895.630,1209.77
896.586,1135.90
897.542,1134.17
898.498,1174.53
899.454,1197.13
900.410,1218.43
901.366,1196.63
902.321,1161.37
903.277,1145.17
904.232,1183.97
905.189,1172.43
906.145,1181.07
907.100,1163.67
908.055,1119.40
909.010,1196.17
909.965,1184.63
910.919,1159.27
911.874,1154.47
912.828,1170.90
913.783,1138.57
914.737,1151.83
915.693,1145.27
916.648,1179.33
917.602,1171.17
918.555,1153.70
919.509,1177.50
920.463,1183.87
921.417,1187.67
922.370,1140.37
923.324,1184.73
924.277,1182.17
925.230,1172.20
926.183,1150.50
927.138,1196.00
928.091,1185.70
929.044,1178.07
929.996,1164.53
930.949,1180.83
931.902,1188.40
932.854,1185.83
933.806,1189.73
934.758,1170.73
935.711,1183.30
936.663,1202.83
937.614,1189.57
938.568,1172.07
939.520,1212.30
940.471,1178.10
941.423,1184.90
942.374,1211.27
943.326,1218.40
944.277,1177.37
945.228,1165.67
946.179,1199.83
947.130,1186.63
948.080,1193.63
949.031,1196.70
949.984,1188.53
950.934,1208.50
951.884,1168.53
952.835,1165.33
953.785,1192.23
954.735,1184.10
955.685,1158.93
956.635,1159.60
957.585,1172.63
958.534,1189.67
959.484,1144.63
960.433,1202.33
961.383,1174.50
962.334,1163.03
963.283,1160.90
964.232,1157.07
965.181,1173.07
966.130,1187.83
967.079,1152.53
968.027,1190.50
968.976,1178.37
969.924,1182.70
970.873,1212.47
971.821,1162.20
972.769,1168.07
973.719,1131.20
974.667,1192.23
975.615,1203.80
976.562,1177.13
977.510,1162.73
978.458,1164.70
979.405,1184.13
980.352,1163.93
981.300,1180.87
982.247,1186.00
983.194,1174.37
984.141,1181.20
985.088,1162.30
986.036,1177.00
986.983,1185.83
987.930,1175.63
988.876,1179.87
989.822,1181.53
990.769,1209.17
991.715,1166.77
992.661,1167.70
993.607,1199.67
994.553,1171.97
995.498,1181.03
996.444,1183.27
997.389,1180.17
998.337,1185.40
999.282,1170.20
1000.227,1184.90
1001.173,1175.67
1002.118,1175.57
1003.062,1169.17
1004.007,1200.53
1004.952,1148.63
1005.897,1148.97
1006.841,1184.77
1007.786,1184.03
1008.730,1227.33
1009.674,1166.77
1010.618,1194.73
1011.564,1181.30
1012.508,1170.50
1013.452,1165.13
1014.396,1176.40
1015.339,1171.07
1016.283,1215.17
1017.226,1212.73
1018.170,1204.03
1019.113,1182.73
1020.056,1193.33
1020.999,1208.20
1021.942,1217.00
1022.885,1183.00
1023.828,1181.77
1024.770,1196.87
1025.715,1225.97
1026.657,1176.47
1027.600,1252.33
1028.542,1201.80
1029.484,1233.70
1030.426,1223.63
1031.368,1231.23
1032.310,1236.30
1033.251,1217.13
1034.193,1235.43
1035.135,1235.73
1036.076,1244.37
1037.017,1232.50
1037.959,1253.27
1038.900,1239.30
1039.843,1267.20
1040.784,1252.73
1041.725,1264.40
1042.665,1253.73
1043.606,1217.60
1044.547,1273.00
1045.487,1222.20
1046.427,1262.07
1047.368,1264.10
1048.308,1281.20
1049.248,1276.17
1050.188,1285.77
1051.128,1314.07
1052.067,1291.50
1053.007,1273.73
1053.947,1268.77
1054.886,1269.53
1055.827,1299.37
1056.766,1320.97
1057.706,1304.43
1058.645,1282.23
1059.584,1314.40
1060.522,1319.53
1061.461,1326.97
1062.400,1319.17
1063.338,1343.27
1064.277,1312.70
1065.215,1314.77
1066.154,1309.00
1067.092,1352.77
1068.030,1343.10
1068.968,1350.20
1069.906,1368.97
1070.843,1321.27
1071.781,1330.07
1072.720,1361.07
1073.658,1371.57
1074.595,1408.40
1075.533,1408.83
1076.470,1401.10
1077.407,1418.90
1078.344,1402.70
1079.281,1408.40
1080.217,1370.67
1081.154,1353.60
1082.091,1365.77
1083.027,1400.80
1083.964,1427.67
1084.900,1404.20
1085.836,1397.43
1086.772,1370.87
1087.708,1388.43
1088.644,1402.33
1089.580,1419.07
1090.515,1399.60
1091.451,1380.23
1092.388,1416.87
1093.324,1408.83
1094.259,1377.50
1095.194,1406.00
1096.129,1410.77
1097.064,1406.00
1097.999,1383.07
1098.934,1404.73
1099.869,1396.23
1100.803,1415.03
1101.738,1384.50
1102.672,1389.77
1103.607,1376.97
1104.541,1373.97
1105.475,1379.13
1106.409,1368.50
1107.343,1353.10
1108.277,1350.80
1109.210,1360.67
1110.144,1329.70
1111.078,1353.90
1112.011,1351.13
1112.944,1290.37
1113.878,1296.57
1114.811,1292.30
1115.744,1283.57
1116.678,1303.27
1117.611,1297.80
1118.544,1296.90
1119.477,1274.10
1120.409,1296.40
1121.342,1299.30
1122.274,1283.50
1123.206,1227.37
1124.138,1259.67
1125.070,1241.20
1126.002,1262.47
1126.934,1243.10
1127.866,1246.77
1128.798,1252.67
1129.729,1220.73
1130.661,1187.07
1131.592,1218.20
1132.523,1203.07
1133.454,1157.50
1134.385,1210.57
1135.317,1206.53
1136.247,1200.13
1137.178,1202.80
1138.109,1183.83
1139.039,1147.43
1139.970,1195.67
1140.900,1140.57
1141.831,1189.40
1142.761,1178.03
1143.691,1169.83
1144.621,1127.63
1145.551,1131.33
1146.480,1101.80
1147.410,1145.30
1148.340,1163.07
1149.269,1152.47
1150.199,1114.80
1151.128,1137.30
1152.057,1147.20
1152.979,1067.87
1153.898,1112.70
1154.819,1147.87
1155.739,1093.73
1156.658,1097.40
1157.579,1083.50
1158.498,1105.53
1159.419,1084.00
1160.338,1110.23
1161.256,1096.17
1162.177,1091.10
1163.095,1132.83
1164.016,1085.27
1164.934,1106.17
1165.852,1026.33
1166.772,1063.63
1167.690,1081.33
1168.610,1055.67
1169.528,1072.57
1170.446,1045.63
1171.365,1124.73
1172.283,1076.43
1173.202,1095.43
1174.120,1067.90
1175.037,1071.10
1175.956,1073.03
1176.873,1052.07
1177.792,1057.90
1178.709,1044.77
1179.626,1063.60
1180.544,1088.67
1181.461,1075.37
1182.379,1076.53
1183.296,1051.70
1184.212,1047.40
1185.130,1062.70
1186.046,1053.80
1186.962,998.20
1187.880,1050.07
1188.796,1040.40
1189.714,1064.50
1190.629,1059.20
1191.545,1055.00
1192.462,1049.00
1193.378,1053.77
1194.295,1047.67
1195.210,1072.03
1196.125,1026.27
1197.042,1037.70
1197.957,1016.87
1198.872,1030.10
1199.788,1033.10
1200.703,1045.10
1201.619,1071.60
1202.534,1038.63
1203.448,1054.10
1204.364,1041.70
1205.278,1044.83
1206.192,1056.13
1207.108,1043.50
1208.022,1024.80
1208.938,1077.00
1209.851,1069.43
1210.765,1051.40
1211.680,1083.87
1212.594,1058.07
1213.507,1012.13
1214.422,1037.33
1215.335,1049.47
1216.248,1056.77
1217.163,1072.73
1218.076,1083.30
1218.990,1051.97
1219.903,1072.50
1220.816,1054.10
1221.730,1072.33
1222.642,1090.20
1223.554,1077.53
1224.469,1055.53
1225.380,1129.30
1226.292,1086.83
1227.206,1072.83
1228.118,1090.20
1229.032,1100.97
1229.943,1103.40
1230.855,1102.13
1231.768,1085.50
1232.679,1108.77
1233.590,1079.33
1234.503,1075.17
1235.414,1061.30
1236.325,1109.27
1237.238,1092.10
1238.149,1104.43
1239.059,1137.50
1239.972,1105.37
1240.882,1092.40
1241.793,1098.80
1242.705,1150.93
1243.615,1122.77
1244.525,1113.60
1245.437,1116.80
1246.347,1155.77
1247.259,1124.53
1248.168,1131.43
1249.078,1138.73
1249.989,1109.77
1250.899,1153.10
1251.808,1153.03
1252.719,1146.57
1253.628,1157.83
1254.537,1113.87
1255.448,1179.00
1256.357,1119.10
1257.266,1134.17
1258.176,1151.77
1259.085,1146.90
1259.993,1166.20
1260.904,1185.33
1261.812,1177.73
1262.720,1184.63
1263.630,1172.07
1264.538,1183.33
1265.446,1166.43
1266.356,1184.97
1267.263,1198.60
1268.171,1184.50
1269.080,1198.87
1269.988,1193.80
1270.895,1182.80
1271.804,1201.27
1272.711,1191.77
1273.619,1169.97
1274.527,1228.43
1275.434,1206.27
1276.341,1190.20
1277.248,1206.83
1278.156,1211.13
1279.063,1196.77
1279.969,1173.47
1280.877,1185.70
1281.783,1183.73
1282.690,1225.13
1283.598,1182.70
1284.503,1165.80
1285.409,1148.23
1286.317,1176.17
1287.223,1189.73
1288.128,1165.53
1289.036,1193.13
1289.941,1191.13
1290.846,1183.30
1291.751,1167.87
1292.658,1180.07
1293.563,1171.83
1294.468,1169.13
1295.375,1158.10
1296.280,1122.07
1297.184,1158.17
1298.091,1146.70
1298.995,1107.93
1299.900,1133.33
1300.806,1181.17
1301.710,1100.83
1302.614,1125.80
1303.518,1119.80
1304.424,1102.50
1305.327,1136.33
1306.231,1139.17
1307.137,1121.17
1308.040,1139.90
1308.943,1113.20
1309.847,1121.30
1310.752,1111.57
1311.655,1109.07
1312.558,1087.70
1313.463,1113.13
1314.366,1072.93
1315.269,1075.03
1316.171,1052.97
1317.076,1069.67
1317.978,1059.40
1318.881,1093.70
1319.785,1060.97
1320.687,1032.30
1321.589,1084.10
1322.491,1030.37
1323.395,1033.60
1324.297,997.27
1325.198,1036.57
1326.102,1014.27
1327.004,1019.63
1327.905,1058.37
1328.806,1002.83
1329.709,1001.00
1330.611,993.33
1331.512,982.83
1332.413,1028.23
1333.316,995.70
1334.216,963.83
1335.117,935.47
1336.020,963.77
1336.920,999.30
1337.821,974.37
1338.721,988.67
1339.623,1015.30
1340.523,951.50
1341.423,940.37
1342.323,937.33
1343.225,960.27
1344.125,927.20
1345.025,955.43
1345.924,943.60
1346.826,975.13
1347.725,929.40
1348.624,923.00
1349.524,914.83
1350.425,871.43
1351.324,902.43
1352.223,893.77
1353.121,903.30
1354.022,891.13
1354.921,895.80
1355.819,891.67
1356.718,875.30
1357.618,884.00
1358.516,885.90
1359.415,874.07
1360.313,890.17
1361.213,870.97
1362.111,868.37
1363.008,850.87
1363.906,894.80
1364.806,871.83
1365.703,859.00
1366.601,860.53
1367.498,841.80
1368.397,846.67
1369.295,896.87
1370.192,822.20
1371.089,849.33
1371.987,817.30
1372.884,800.77
1373.781,816.97
1374.678,829.87
1375.574,845.40
1376.473,852.77
1377.369,814.53
1378.265,831.33
1379.161,815.00
1380.059,861.07
1380.955,781.30
1381.851,821.93
1382.747,806.03
1383.643,821.33
1384.540,795.30
1385.436,776.03
1386.331,770.07
1387.227,801.73
1388.124,820.97
1389.019,778.47
1389.914,808.87
1390.809,773.77
1391.704,735.40
1392.601,762.47
1393.495,776.70
1394.390,757.77
1395.285,798.63
1396.179,772.60
1397.075,717.30
1397.969,776.43
1398.864,763.90
1399.758,761.30
1400.652,729.17
1401.547,788.43
1402.441,730.17
1403.335,766.60
1404.229,777.97
1405.122,761.93
1406.017,727.73
1406.911,712.60
1407.804,724.77
1408.697,773.40
1409.590,741.07
1410.485,747.93
1411.378,744.20
1412.271,739.87
1413.163,740.17
1414.056,738.07
1414.949,719.93
1415.843,715.73
1416.735,744.57
1417.627,773.70
1418.520,714.93
1419.412,709.20
1420.306,747.67
1421.197,739.83
1422.089,743.57
1422.981,744.77
1423.873,720.27
1424.764,741.67
1425.657,718.90
1426.549,722.43
1427.440,682.13
1428.331,721.37
1429.222,716.37
1430.113,686.43
1431.006,696.23
1431.897,683.90
1432.787,713.43
1433.678,717.50
1434.568,710.10
1435.459,710.87
1436.351,710.83
1437.241,704.90
1438.131,681.07
1439.021,738.93
1439.911,721.53
1440.801,666.67
1441.693,705.73
1442.583,722.13
1443.472,722.30
1444.362,662.43
1445.251,693.90
1446.140,670.77
1447.030,721.97
1447.921,680.93
1448.810,666.67
1449.699,728.23
1450.588,695.17
1451.476,697.37
1452.365,668.67
1453.254,674.13
1454.144,670.67
1455.032,694.90
1455.921,669.10
1456.809,694.90
1457.697,691.17
1458.585,672.33
1459.473,667.20
1460.361,662.77
1461.251,660.73
1462.138,655.13
1463.026,683.43
1463.913,711.67
1464.801,680.40
1465.688,698.20
1466.575,690.77
1467.463,700.37
1468.351,649.63
1469.238,645.07
1470.125,655.63
1471.012,690.10
1471.899,649.70
1472.785,658.87
1473.672,629.13
1474.558,644.57
1475.446,678.33
1476.333,651.53
1477.219,657.33
1478.105,626.77
1478.991,634.30
1479.877,645.43
1480.762,625.83
1481.648,641.50
1482.534,661.00
1483.419,679.37
1484.307,645.50
1485.192,680.10
1486.077,625.17
1486.962,647.97
1487.847,653.23
1488.732,601.73
1489.617,630.93
1490.502,645.40
1491.387,597.00
1492.271,648.30
1493.156,631.83
1494.042,621.23
1494.927,629.43
1495.811,642.57
1496.695,627.13
1497.579,594.57
1498.463,624.63
1499.347,614.00
1500.231,655.73
1501.114,595.47
1501.998,604.90
1502.881,600.17
1503.765,636.03
1504.648,644.23
1505.533,600.53
1506.417,622.93
1507.300,612.27
1508.183,621.57
1509.066,621.10
1509.948,610.23
1510.831,655.17
1511.714,616.23
1512.596,611.90
1513.479,627.70
1514.361,626.60
1515.243,605.27
1516.125,585.00
1517.008,608.97
1517.890,622.70
1518.771,597.80
1519.655,611.73
1520.537,618.67
1521.419,603.00
1522.300,596.93
1523.182,612.27
1524.063,652.03
1524.944,590.03
1525.825,626.83
1526.707,606.87
1527.588,611.30
1528.468,616.50
1529.349,624.53
1530.230,587.13
1531.111,593.67
1531.991,604.30
1532.872,613.77
1533.752,589.23
1534.632,568.73
1535.513,589.00
1536.393,616.70
1537.273,638.87
1538.153,573.33
1539.032,558.73
1539.912,574.23
1540.792,637.40
1541.672,615.00
1542.551,609.43
1543.430,634.33
1544.310,596.67
1545.189,565.70
1546.068,610.83
1546.947,618.37
1547.826,608.73
1548.705,598.30
1549.584,585.40
1550.462,594.57
1551.341,587.43
1552.219,591.53
1553.098,603.17
1553.976,572.60
1554.854,616.77
1555.733,572.67
1556.611,613.60
1557.489,591.90
1558.367,572.77
1559.244,578.33
1560.122,528.83
1561.000,582.97
1561.877,599.90
1562.755,603.03
1563.632,554.57
1564.509,617.00
1565.386,543.23
1566.264,570.57
1567.141,559.70
1568.017,563.47
1568.894,587.93
1569.771,580.03
1570.648,580.43
1571.524,572.73
1572.401,524.67
1573.277,551.73
1574.153,544.40
1575.029,574.97
1575.906,573.47
1576.781,550.90
1577.657,568.03
1578.533,598.20
1579.409,551.47
1580.285,545.93
1581.160,569.80
1582.036,564.23
1582.911,553.17
1583.786,536.43
1584.662,548.93
1585.537,540.40
1586.412,523.03
1587.287,527.30
1588.160,554.83
1589.035,542.00
1589.909,577.97
1590.784,559.37
1591.658,555.90
1592.533,540.07
1593.407,580.03
1594.281,546.50
1595.155,549.20
1596.029,541.90
1596.903,555.20
1597.777,593.73
1598.651,546.60
1599.525,556.50
1600.398,570.07
1601.272,550.07
1602.144,554.43
1603.017,541.40
1603.890,558.97
1604.763,517.13
1605.636,580.03
1606.509,541.03
1607.382,543.60
1608.255,570.13
1609.128,525.00
1610.000,544.50
1610.873,568.73
1611.746,514.97
1612.616,572.93
1613.488,574.37
1614.361,551.83
1615.233,541.90
1616.105,536.67
1616.977,559.50
1617.849,535.93
1618.720,568.87
1619.592,516.70
1620.464,548.00
1621.333,537.43
1622.205,512.90
1623.076,520.60
1623.947,548.80
1624.818,511.57
1625.689,519.37
1626.560,522.33
1627.431,520.20
1628.302,558.60
1629.171,529.20
1630.042,553.00
1630.912,635.53
1631.782,534.77
1632.653,529.00
1633.523,554.97
1634.393,527.77
1635.263,547.23
1636.131,526.73
1637.001,558.47
1637.871,542.43
1638.741,542.63
1639.611,498.07
1640.480,515.90
1641.350,569.33
1642.219,536.93
1643.087,512.27
1643.956,504.17
1644.825,517.53
1645.694,524.53
1646.563,521.73
1647.432,545.03
1648.299,529.20
1649.167,528.00
1650.036,528.17
1650.904,461.20
1651.773,526.53
1652.641,515.43
1653.509,489.70
1654.376,483.73
1655.244,522.67
1656.112,521.00
1656.980,515.97
1657.847,517.00
1658.715,511.07
1659.581,533.47
1660.448,510.03
1661.316,499.20
1662.183,507.43
1663.051,503.10
1663.918,475.33
1664.783,500.50
1665.650,489.47
1666.517,494.80
1667.384,514.17
1668.251,497.33
1669.115,525.30
1669.982,530.97
1670.849,503.20
1671.715,489.40
1672.581,511.17
1673.446,483.80
1674.312,496.43
1675.178,501.53
1676.044,481.00
1676.910,521.37
1677.774,491.00
1678.639,494.10
1679.505,483.97
1680.370,494.73
1681.236,480.83
1682.099,499.73
1682.965,483.73
1683.830,505.73
1684.695,472.37
1685.560,477.20
1686.423,494.90
1687.288,513.63
1688.153,496.73
1689.017,495.67
1689.880,515.57
1690.745,504.50
1691.609,487.30
1692.473,538.43
1693.338,499.43
1694.200,534.47
1695.064,522.10
1695.928,469.87
1696.792,517.27
1697.654,522.57
1698.517,492.77
1699.381,478.33
1700.245,497.20
1701.106,493.00
1701.969,476.80
1702.833,472.43
1703.696,494.40
1704.557,464.73
1705.420,498.30
1706.283,505.77
1707.146,496.27
1708.007,476.67
1708.870,512.47
1709.732,492.13
1710.595,526.40
1711.455,476.57
1712.318,465.37
1713.180,487.97
1714.040,469.93
1714.902,491.20
1715.764,501.97
1716.626,471.03
1717.486,516.33
1718.348,485.90
1719.209,418.87
1720.071,509.37
1720.930,472.17
1721.792,481.00
1722.653,411.23
1723.512,440.30
1724.374,485.70
1725.234,473.57
1726.095,465.90
1726.954,473.07
1727.815,466.60
1728.676,481.03
1729.535,454.40
1730.395,466.60
1731.256,486.57
1732.114,459.73
1732.974,489.17
1733.834,463.13
1734.693,491.43
1735.553,460.70
1736.413,455.60
1737.272,470.80
1738.130,485.00
1738.990,468.13
1739.849,489.50
1740.707,456.00
1741.566,447.37
1742.426,476.93
1743.283,498.47
1744.142,484.73
1745.001,503.10
1745.858,506.63
1746.717,474.30
1747.576,456.67
1748.433,478.77
1749.292,515.70
1750.150,475.50
1751.007,452.43
1751.865,465.70
1752.723,460.13
1753.579,429.43
1754.438,495.40
1755.296,470.93
1756.152,446.93
1757.010,485.57
1757.865,495.47
1758.723,455.87
1759.581,473.63
1760.436,455.40
1761.294,465.83
1762.151,457.03
1763.006,464.63
1763.864,490.97
1764.721,484.30
1765.576,479.77
1766.433,474.20
1767.288,467.00
1768.144,475.07
1769.001,444.73
1769.856,463.03
1770.712,511.83
1771.568,482.70
1772.423,473.33
1773.279,475.40
1774.133,454.83
1774.989,482.17
1775.845,507.13
1776.699,472.43
1777.555,448.43
1778.409,494.37
1779.265,454.57
1780.120,431.77
1780.974,470.87
1781.829,455.83
1782.682,480.73
1783.538,480.03
1784.393,460.13
1785.246,472.23
1786.101,461.87
1786.954,493.97
1787.808,462.23
1788.661,490.80
1789.516,498.70
1790.370,439.83
1791.223,453.70
1792.077,486.33
1792.930,506.00
1793.784,417.63
1794.636,466.27
1795.490,470.63
1796.344,464.87
1797.196,461.47
1798.049,427.93
1798.901,471.50
1799.755,459.97
1800.606,433.77
1801.460,444.13
1802.311,430.63
1803.165,464.13
1804.018,445.20
1804.869,448.87
1805.722,429.87
1806.573,472.57
1807.426,463.00
1808.276,444.63
1809.129,457.00
1809.980,481.73
1810.832,447.27
1811.683,470.43
1812.535,452.90
1813.385,472.27
1814.237,493.03
1815.089,437.53
1815.940,442.73
1816.791,447.53
1817.641,433.73
1818.493,437.87
1819.343,430.13
1820.194,444.90
1821.044,446.50
1821.895,424.97
1822.745,446.10
1823.596,453.80
1824.445,489.70
1825.296,451.37
1826.145,476.60
1826.996,425.03
1827.845,452.40
1828.695,458.20
1829.544,426.27
1830.395,440.07
1831.243,487.87
1832.094,432.27
1832.942,480.77
1833.792,404.30
1834.640,440.13
1835.490,462.87
1836.338,453.30
1837.186,455.27
1838.036,450.47
1838.884,474.83
1839.733,470.27
1840.581,449.40
1841.430,463.13
1842.278,468.77
1843.127,428.23
1843.974,459.63
1844.823,419.77
1845.671,471.93
1846.519,452.07
1847.366,439.77
1848.213,458.37
1849.062,417.87
1849.909,420.90
1850.757,469.17
1851.604,419.00
1852.452,444.70
1853.298,426.90
1854.146,437.17
1854.993,423.67
1855.839,446.77
1856.687,458.37
1857.532,429.70
1858.380,472.90
1859.226,428.90
1860.073,483.53
1860.919,449.50
1861.765,431.23
1862.612,422.20
1863.457,470.53
1864.304,422.67
1865.150,451.70
1865.995,415.43
1866.842,435.33
1867.686,466.63
1868.533,415.73
1869.378,421.30
1870.223,433.83
1871.069,433.70
1871.914,425.40
1872.760,447.90
1873.604,416.80
1874.448,425.10
1875.294,452.80
1876.139,454.60
1876.984,416.40
1877.828,433.03
1878.672,408.83
1879.518,439.43
1880.361,447.40
1881.205,445.43
1882.050,473.67
1882.894,419.77
1883.739,464.90
1884.582,444.27
1885.425,457.23
1886.270,439.07
1887.113,434.23
1887.956,431.97
1888.801,410.50
1889.644,474.57
1890.486,423.33
1891.331,426.00
1892.173,445.20
1893.017,447.73
1893.860,420.03
1894.702,473.40
1895.546,443.90
1896.388,426.83
1897.230,411.53
1898.074,459.83
1898.916,427.73
1899.757,408.17
1900.601,450.47
1901.443,422.93
1902.284,454.73
1903.125,450.27
1903.969,455.23
1904.810,429.83
1905.651,454.67
1906.494,434.80
1907.335,427.30
1908.176,435.97
1909.018,437.23
1909.859,469.73
1910.700,403.27
1911.542,446.70
1912.383,389.47
1913.223,418.33
1914.064,440.10
1914.906,414.30
1915.746,451.33
1916.586,394.67
1917.428,444.60
1918.268,439.60
1919.107,414.77
1919.947,459.27
1920.789,421.43
1921.628,443.57
1922.468,450.13
1923.309,419.90
1924.148,434.23
1924.988,443.90
1925.827,444.93
1926.667,427.23
1927.507,435.43
1928.345,435.90
1929.184,446.40
1930.025,421.73
1930.864,412.70
1931.702,438.60
1932.541,444.50
1933.381,413.03
1934.219,428.67
1935.057,456.20
1935.896,395.60
1936.735,397.33
1937.573,468.33
1938.411,464.73
1939.249,428.40
1940.089,408.50
1940.927,419.40
1941.764,410.83
1942.602,408.73
1943.439,417.47
1944.278,446.93
1945.115,458.17
1945.953,399.30
1946.790,404.40
1947.628,415.40
1948.465,442.33
1949.302,446.37
1950.139,422.53
1950.976,403.40
1951.814,437.33
1952.651,432.40
1953.487,418.37
1954.323,441.97
1955.160,415.27
1955.998,389.77
1956.834,425.37
1957.670,454.20
1958.506,424.23
1959.342,429.43
1960.177,430.60
1961.015,440.27
1961.850,407.23
1962.686,402.63
1963.521,423.13
1964.357,395.43
1965.192,394.90
1966.029,437.70
1966.864,414.13
1967.699,414.03
1968.534,400.57
1969.369,407.27
1970.204,412.20
1971.040,431.43
1971.875,419.67
1972.709,415.87
1973.544,410.63
1974.378,440.43
1975.212,409.70
1976.047,425.30
1976.882,433.80
1977.716,418.07
1978.550,400.83
1979.384,389.23
1980.218,426.30
1981.052,413.50
1981.885,473.23
1982.719,392.13
1983.554,405.20
1984.388,418.50
1985.221,414.10
1986.054,425.43
1986.887,403.53
1987.720,399.97
1988.553,398.80
1989.386,439.37
1990.219,416.70
1991.053,436.53
1991.886,413.27
1992.719,425.10
1993.551,404.13
1994.383,419.77
1995.216,402.07
1996.048,410.03
1996.880,408.20
1997.712,384.87
1998.544,380.63
1999.376,438.97
2000.208,368.23
2000.208,368.23

Max Intensity Wave.,221.986
Max Intensity Data,5360.23
Min Intensity Wave.,2000.208
Min Intensity Data,368.23
FWHM Wave.,393.553
FWHM Value,14.67
Pressure Wave.,685.859
Pressure Value [GPa],-21.81776
G/D Ratio,0.53964
G/D Gband Wave.,1540.792
G/D Gband Intensity,637.40
G/D Dband Wave.,1300.806
G/D Dband Intensity,1181.17

<< BACKGROUND SPECTRUM >>
Wave[dcm-1],No305
146.591,2239.00
147.626,2097.00
148.664,2064.00
149.699,2527.00
150.737,2263.00
151.772,2402.00
152.809,2374.00
153.846,2293.00
154.881,2387.00
155.918,1990.00
156.953,2312.00
157.989,2632.00
159.026,2451.00
160.060,2614.00
161.096,2856.00
162.130,2473.00
163.167,2561.00
164.200,2431.00
165.236,2633.00
166.272,2664.00
167.305,2271.00
168.341,2526.00
169.374,2791.00
170.409,2767.00
171.445,2720.00
172.477,2531.00
173.512,2393.00
174.545,2655.00
175.580,2843.00
176.614,3029.00
177.647,2790.00
178.681,3042.00
179.713,3295.00
180.747,2806.00
181.781,2695.00
182.813,2976.00
183.847,3045.00
184.878,2687.00
185.912,2965.00
186.945,3154.00
187.976,3001.00
189.010,2763.00
190.043,2822.00
191.073,2895.00
192.106,2716.00
193.137,3190.00
194.170,2574.00
195.202,2908.00
196.232,2678.00
197.265,3017.00
198.297,3056.00
199.327,2776.00
200.359,2949.00
201.388,3328.00
202.420,2886.00
203.452,3072.00
204.481,2697.00
205.512,3302.00
206.544,3085.00
207.573,3061.00
208.604,3421.00
209.635,3519.00
210.663,2929.00
211.694,2955.00
212.725,2854.00
213.753,2763.00
214.783,3363.00
215.813,3211.00
216.841,2995.00
217.871,3176.00
218.899,2910.00
219.929,3118.00
220.959,2895.00
221.986,3147.00
223.016,2764.00
224.045,3168.00
225.072,3152.00
226.101,3174.00
227.130,3227.00
228.157,2809.00
229.185,2325.00
230.214,3201.00
231.241,2848.00
232.269,2491.00
233.297,2683.00
234.323,3246.00
235.351,2831.00
236.379,3137.00
237.407,2746.00
238.433,2958.00
239.460,3149.00
240.488,3118.00
241.513,3198.00
242.540,3113.00
243.568,3181.00
244.592,3227.00
245.619,3192.00
246.646,2953.00
247.671,2927.00
248.697,2803.00
249.724,3038.00
250.748,3000.00
251.774,3002.00
252.801,3318.00
253.827,3170.00
254.850,3084.00
255.876,2700.00
256.902,3141.00
257.925,2972.00
258.951,2724.00
259.976,2740.00
260.999,3092.00
262.024,2794.00
263.049,3613.00
264.074,3077.00
265.097,3056.00
266.122,3080.00
267.146,3048.00
268.168,3202.00
269.193,2838.00
270.217,3220.00
271.241,2693.00
272.263,2900.00
273.287,3176.00
274.311,2793.00
275.332,3305.00
276.356,2879.00
277.379,3104.00
278.402,3124.00
279.424,2950.00
280.447,2875.00
281.470,2723.00
282.492,3072.00
283.513,2904.00
284.536,3132.00
285.558,3159.00
286.581,3107.00
287.601,2889.00
288.623,2805.00
289.645,3089.00
290.665,3094.00
291.687,3170.00
292.709,3110.00
293.730,3403.00
294.750,2915.00
295.771,2753.00
296.792,3033.00
297.813,2940.00
298.832,3090.00
299.853,2727.00
300.874,2986.00
301.895,2926.00
302.913,2992.00
303.934,3277.00
304.954,3031.00
305.975,4252.00
306.993,2757.00
308.013,3088.00
309.033,3023.00
310.052,2886.00
311.072,2916.00
312.090,3047.00
313.109,3240.00
314.129,3406.00
315.148,2985.00
316.165,3049.00
317.184,3263.00
318.203,2772.00
319.222,2781.00
320.238,3139.00
321.257,2866.00
322.275,2675.00
323.294,2996.00
324.312,3159.00
325.328,3263.00
326.346,3309.00
327.364,3186.00
328.382,3184.00
329.397,3123.00
330.415,3238.00
331.432,3199.00
332.450,3261.00
333.467,3433.00
334.482,2611.00
335.499,3352.00
336.516,2898.00
337.533,2599.00
338.547,2871.00
339.564,2883.00
340.580,3097.00
341.597,2961.00
342.613,3391.00
343.627,2966.00
344.643,3027.00
345.659,3131.00
346.675,3003.00
347.690,2883.00
348.704,3084.00
349.719,2867.00
350.735,2787.00
351.750,3214.00
352.765,3014.00
353.778,2972.00
354.793,3130.00
355.808,2855.00
356.822,3184.00
357.837,2632.00
358.851,3241.00
359.864,2976.00
360.878,2759.00
361.892,2964.00
362.906,3144.00
363.920,2575.00
364.932,3132.00
365.945,3074.00
366.959,2973.00
367.972,2940.00
368.986,2703.00
369.999,3433.00
371.010,2840.00
372.023,3327.00
373.036,2969.00
374.049,3411.00
375.061,3063.00
376.072,3029.00
377.084,2858.00
378.097,2726.00
379.109,3194.00
380.121,2983.00
381.133,2654.00
382.143,3149.00
383.155,2716.00
384.166,2912.00
385.178,3098.00
386.189,3240.00
387.201,2715.00
388.212,2921.00
389.221,2940.00
390.232,3036.00
391.243,2912.00
392.254,3034.00
393.264,2839.00
394.275,3252.00
395.283,3228.00
396.294,3648.00
397.304,3496.00
398.314,3102.00
399.324,3044.00
400.334,2636.00
401.344,3140.00
402.351,2701.00
403.361,3221.00
404.370,2973.00
405.380,2861.00
406.389,3380.00
407.398,3127.00
408.407,3106.00
409.414,3151.00
410.423,3302.00
411.431,2789.00
412.440,2679.00
413.448,3288.00
414.457,2850.00
415.465,2836.00
416.471,2915.00
417.479,3047.00
418.487,2856.00
419.495,3332.00
420.503,3068.00
421.510,2635.00
422.518,3143.00
423.525,3205.00
424.530,3372.00
425.537,2900.00
426.544,3230.00
427.551,2862.00
428.558,3602.00
429.565,3480.00
430.571,2884.00
431.578,2913.00
432.582,2868.00
433.588,2969.00
434.595,2613.00
435.601,3285.00
436.607,3235.00
437.612,2757.00
438.618,3362.00
439.624,2970.00
440.627,2930.00
441.633,3126.00
442.638,3626.00
443.643,3089.00
444.648,3021.00
445.653,3181.00
446.658,2865.00
447.663,3045.00
448.667,2867.00
449.672,2874.00
450.674,3014.00
451.678,2702.00
452.682,2863.00
453.687,2831.00
454.690,3597.00
455.694,3240.00
456.698,2569.00
457.702,2682.00
458.705,2770.00
459.709,2835.00
460.710,2852.00
461.713,3010.00
462.716,3029.00
463.719,3013.00
464.722,3179.00
465.725,2988.00
466.727,2808.00
467.730,3042.00
468.732,2766.00
469.735,3314.00
470.737,2892.00
471.737,2872.00
472.739,2908.00
473.741,2828.00
474.742,3061.00
475.744,3073.00
476.746,3053.00
477.747,3001.00
478.748,3193.00
479.750,2931.00
480.751,3018.00
481.752,3739.00
482.753,3058.00
483.751,3543.00
484.752,2663.00
485.753,2953.00
486.753,2906.00
487.753,2981.00
488.754,3443.00
489.754,2706.00
490.754,3338.00
491.754,3120.00
492.754,2687.00
493.753,3011.00
494.753,2945.00
495.752,3320.00
496.752,3048.00
497.749,2994.00
498.748,2839.00
499.747,3390.00
500.746,3100.00
501.745,2793.00
502.744,2744.00
503.742,3374.00
504.741,2953.00
505.739,2505.00
506.737,2922.00
507.735,3104.00
508.734,3381.00
509.732,3166.00
510.729,3342.00
511.727,2904.00
512.725,2888.00
513.720,2782.00
514.718,3265.00
515.715,2665.00
516.712,2637.00
517.709,3033.00
518.706,2877.00
519.703,3055.00
520.700,3162.00
521.696,3362.00
522.693,2894.00
523.689,2862.00
524.686,3191.00
525.682,2821.00
526.678,3492.00
527.674,2908.00
528.670,2600.00
529.666,3466.00
530.661,3502.00
531.657,3701.00
532.652,3169.00
533.648,3000.00
534.641,3228.00
535.636,3072.00
536.631,3079.00
537.626,3147.00
538.621,2757.00
539.616,2585.00
540.610,2517.00
541.605,2995.00
542.599,3083.00
543.593,2995.00
544.587,3931.00
545.581,2806.00
546.575,3030.00
547.569,2994.00
548.563,2691.00
549.557,2710.00
550.550,2788.00
551.543,2732.00
552.537,3093.00
553.530,2767.00
554.523,2781.00
555.516,3124.00
556.509,2969.00
557.502,2639.00
558.494,3227.00
559.487,2942.00
560.479,3196.00
561.472,3243.00
562.464,3118.00
563.456,3282.00
564.448,2977.00
565.440,2996.00
566.432,3402.00
567.423,2869.00
568.415,2896.00
569.404,3142.00
570.396,2808.00
571.387,3117.00
572.378,3031.00
573.369,3964.00
574.360,3664.00
575.351,2960.00
576.341,2879.00
577.332,2882.00
578.323,2712.00
579.313,2885.00
580.303,3229.00
581.293,3162.00
582.283,2973.00
583.273,3121.00
584.263,3011.00
585.253,3074.00
586.243,3157.00
587.232,2658.00
588.222,2967.00
589.211,3211.00
590.200,3081.00
591.189,2922.00
592.178,2965.00
593.167,3402.00
594.156,3295.00
595.145,2918.00
596.133,3484.00
597.122,3119.00
598.110,3193.00
599.098,3075.00
600.086,3012.00
601.074,3169.00
602.062,2842.00
603.050,2767.00
604.038,3115.00
605.025,2812.00
606.013,3178.00
607.000,3405.00
607.987,3014.00
608.975,3038.00
609.962,2776.00
610.949,3096.00
611.936,3263.00
612.922,3176.00
613.909,2720.00
614.895,3317.00
615.882,2841.00
616.868,2982.00
617.854,2724.00
618.841,2977.00
619.826,3115.00
620.812,3031.00
621.798,2773.00
622.784,3181.00
623.769,3103.00
624.755,2714.00
625.740,3051.00
626.725,2714.00
627.711,2862.00
628.698,3039.00
629.683,2849.00
630.667,3159.00
631.652,2745.00
632.637,2936.00
633.621,3162.00
634.606,2930.00
635.590,3115.00
636.574,2938.00
637.558,3061.00
638.542,3044.00
639.526,2876.00
640.510,2643.00
641.493,3045.00
642.477,2983.00
643.460,2705.00
644.444,3209.00
645.427,3235.00
646.410,2707.00
647.393,3003.00
648.376,3007.00
649.359,2894.00
650.341,3083.00
651.324,3078.00
652.307,3071.00
653.289,2947.00
654.271,2852.00
655.253,2875.00
656.235,3105.00
657.217,3263.00
658.199,2654.00
659.181,2764.00
660.163,2983.00
661.144,2867.00
662.126,2886.00
663.107,2756.00
664.088,6160.00
665.069,3234.00
666.050,2842.00
667.033,2704.00
668.014,3044.00
668.995,2596.00
669.975,2984.00
670.956,2992.00
671.936,3128.00
672.916,2972.00
673.896,3061.00
674.876,2948.00
675.856,2821.00
676.836,2745.00
677.816,2328.00
678.795,2802.00
679.775,2661.00
680.754,3018.00
681.734,3162.00
682.713,3152.00
683.692,2785.00
684.671,2658.00
685.650,2736.00
686.629,2836.00
687.607,2737.00
688.586,2787.00
689.564,2833.00
690.543,3208.00
691.523,2348.00
692.501,2842.00
693.479,2931.00
694.457,2791.00
695.435,2849.00
696.413,2680.00
697.390,2508.00
698.368,2703.00
699.345,3071.00
700.322,2934.00
701.300,3085.00
702.277,3020.00
703.254,3287.00
704.231,2579.00
705.207,2945.00
706.184,2754.00
707.161,2640.00
708.137,2843.00
709.113,2799.00
710.090,2799.00
711.068,2636.00
712.044,2621.00
713.020,2951.00
713.996,2622.00
714.971,2830.00
715.947,2876.00
716.922,2819.00
717.898,2758.00
718.873,2864.00
719.848,2729.00
720.823,2701.00
721.798,2971.00
722.773,2757.00
723.748,2561.00
724.723,3054.00
725.697,2823.00
726.672,2750.00
727.646,2538.00
728.622,2947.00
729.596,2604.00
730.570,2715.00
731.544,3048.00
732.518,3240.00
733.492,2803.00
734.466,2888.00
735.439,3003.00
736.413,3125.00
737.386,2428.00
738.359,2394.00
739.332,2552.00
740.305,2831.00
741.278,3334.00
742.251,2945.00
743.224,2704.00
744.196,2580.00
745.171,3095.00
746.143,3032.00
747.115,2774.00
748.087,2701.00
749.059,3081.00
750.031,2886.00
751.003,3668.00
751.975,3256.00
752.947,2678.00
753.918,3103.00
754.890,2588.00
755.861,2777.00
756.832,2992.00
757.803,2872.00
758.774,2838.00
759.747,2648.00
760.718,3170.00
761.689,2745.00
762.659,2605.00
763.630,3157.00
764.600,2553.00
765.570,3076.00
766.540,3127.00
767.510,2882.00
768.480,3067.00
769.450,2715.00
770.420,2829.00
771.390,2626.00
772.359,2741.00
773.329,2699.00
774.300,2531.00
775.269,2766.00
776.238,2984.00
777.207,3182.00
778.176,2486.00
779.145,2799.00
780.114,2656.00
781.083,2581.00
782.051,2744.00
783.019,2693.00
783.988,3090.00
784.956,2837.00
785.924,2983.00
786.894,2856.00
787.862,2691.00
788.830,3149.00
789.797,2631.00
790.765,2607.00
791.732,2732.00
792.700,2647.00
793.667,2623.00
794.634,2762.00
795.601,2742.00
796.568,2793.00
797.535,2838.00
798.502,3374.00
799.468,2884.00
800.437,2405.00
801.403,2643.00
802.370,3297.00
803.336,3021.00
804.302,2860.00
805.268,2419.00
806.234,2550.00
807.200,2750.00
808.166,2790.00
809.131,2552.00
810.097,2970.00
811.062,3645.00
812.027,3008.00
812.994,2600.00
813.960,2597.00
814.925,2912.00
815.889,2535.00
816.854,3009.00
817.819,2632.00
818.783,2718.00
819.748,3072.00
820.712,2738.00
821.677,2679.00
822.641,2689.00
823.605,2729.00
824.571,3137.00
825.534,2745.00
826.498,2643.00
827.462,2819.00
828.425,2658.00
829.389,3071.00
830.352,2810.00
831.315,2899.00
832.279,2486.00
833.242,2805.00
834.204,2662.00
835.167,2660.00
836.132,3090.00
837.095,2533.00
838.057,2702.00
839.020,2833.00
839.982,2865.00
840.944,2636.00
841.906,2658.00
842.868,2948.00
843.830,2567.00
844.792,3051.00
845.753,2676.00
846.715,2433.00
847.679,2581.00
848.640,2626.00
849.601,2719.00
850.562,3213.00
851.523,2714.00
852.484,2478.00
853.445,2965.00
854.406,2723.00
855.367,2726.00
856.327,3040.00
857.288,2513.00
858.248,2675.00
859.210,2695.00
860.170,2524.00
861.130,3001.00
862.090,2434.00
863.050,2626.00
864.010,2711.00
864.969,2913.00
865.929,2599.00
866.888,2520.00
867.848,2877.00
868.807,2651.00
869.766,2827.00
870.727,2735.00
871.686,2997.00
872.645,2986.00
873.604,3283.00
874.562,2755.00
875.521,2763.00
876.479,3394.00
877.437,2597.00
878.396,2631.00
879.354,3171.00
880.312,2614.00
881.270,2641.00
882.229,3079.00
883.187,2610.00
884.145,2726.00
885.102,2909.00
886.059,2859.00
887.017,2923.00
887.974,2949.00
888.931,3065.00
889.888,2483.00
890.845,2410.00
891.802,2375.00
892.758,2651.00
893.717,2482.00
894.673,2567.00
895.630,2593.00
896.586,2919.00
897.542,2707.00
898.498,2513.00
899.454,2827.00
900.410,2622.00
901.366,2635.00
902.321,2619.00
903.277,2718.00
904.232,2730.00
905.189,2469.00
906.145,2650.00
907.100,2223.00
908.055,2756.00
909.010,2884.00
909.965,2319.00
910.919,2808.00
911.874,2586.00
912.828,2761.00
913.783,2796.00
914.737,2371.00
915.693,2781.00
916.648,2908.00
917.602,2950.00
918.555,2793.00
919.509,2834.00
920.463,2734.00
921.417,2745.00
922.370,2604.00
923.324,2666.00
924.277,2652.00
925.230,2764.00
926.183,2450.00
927.138,2669.00
928.091,2933.00
929.044,2808.00
929.996,2672.00
930.949,2649.00
931.902,2835.00
932.854,2843.00
933.806,2581.00
934.758,2980.00
935.711,2986.00
936.663,2763.00
937.614,2795.00
938.568,2758.00
939.520,2381.00
940.471,2720.00
941.423,2791.00
942.374,2871.00
943.326,2721.00
944.277,2606.00
945.228,2865.00
946.179,2694.00
947.130,3023.00
948.080,2662.00
949.031,2561.00
949.984,2666.00
950.934,2676.00
951.884,2491.00
952.835,2721.00
953.785,2751.00
954.735,2609.00
955.685,2369.00
956.635,2639.00
957.585,2651.00
958.534,2622.00
959.484,2766.00
960.433,2583.00
961.383,2466.00
962.334,2975.00
963.283,2789.00
964.232,2865.00
965.181,2731.00
966.130,2765.00
967.079,2639.00
968.027,2702.00
968.976,2735.00
969.924,2602.00
970.873,2766.00
971.821,2758.00
972.769,2936.00
973.719,2891.00
974.667,2465.00
975.615,2696.00
976.562,2717.00
977.510,2429.00
978.458,2622.00
979.405,2819.00
980.352,2777.00
981.300,2958.00
982.247,2790.00
983.194,2544.00
984.141,2626.00
985.088,2743.00
986.036,2784.00
986.983,3000.00
987.930,3133.00
988.876,2384.00
989.822,2954.00
990.769,2533.00
991.715,2617.00
992.661,2438.00
993.607,2764.00
994.553,3276.00
995.498,2591.00
996.444,2287.00
997.389,2784.00
998.337,2529.00
999.282,2884.00
1000.227,2646.00
1001.173,2731.00
1002.118,2453.00
1003.062,2918.00
1004.007,2673.00
1004.952,3024.00
1005.897,2967.00
1006.841,2694.00
1007.786,2465.00
1008.730,2403.00
1009.674,3189.00
1010.618,2642.00
1011.564,2533.00
1012.508,2426.00
1013.452,2963.00
1014.396,2735.00
1015.339,2644.00
1016.283,2678.00
1017.226,2736.00
1018.170,2695.00
1019.113,2914.00
1020.056,2744.00
1020.999,2724.00
1021.942,2584.00
1022.885,2891.00
1023.828,3029.00
1024.770,2520.00
1025.715,2737.00
1026.657,2712.00
1027.600,2718.00
1028.542,2934.00
1029.484,2736.00
1030.426,2851.00
1031.368,2768.00
1032.310,2568.00
1033.251,2541.00
1034.193,2685.00
1035.135,2506.00
1036.076,2628.00
1037.017,2553.00
1037.959,2822.00
1038.900,2783.00
1039.843,2780.00
1040.784,2749.00
1041.725,2799.00
1042.665,2617.00
1043.606,2798.00
1044.547,2752.00
1045.487,2406.00
1046.427,2678.00
1047.368,2782.00
1048.308,2229.00
1049.248,2500.00
1050.188,2693.00
1051.128,2592.00
1052.067,2661.00
1053.007,2422.00
1053.947,2424.00
1054.886,2598.00
1055.827,2493.00
1056.766,2882.00
1057.706,2464.00
1058.645,2696.00
1059.584,2741.00
1060.522,2970.00
1061.461,2453.00
1062.400,2481.00
1063.338,2637.00
1064.277,2519.00
1065.215,2537.00
1066.154,2443.00
1067.092,2590.00
1068.030,2630.00
1068.968,2862.00
1069.906,2991.00
1070.843,2987.00
1071.781,2784.00
1072.720,2820.00
1073.658,2821.00
1074.595,2571.00
1075.533,2534.00
1076.470,2564.00
1077.407,2936.00
1078.344,2755.00
1079.281,2794.00
1080.217,2333.00
1081.154,2712.00
1082.091,2765.00
1083.027,2455.00
1083.964,2909.00
1084.900,2563.00
1085.836,2613.00
1086.772,2907.00
1087.708,2483.00
1088.644,2827.00
1089.580,2679.00
1090.515,2762.00
1091.451,2634.00
1092.388,2706.00
1093.324,2442.00
1094.259,3258.00
1095.194,2757.00
1096.129,2601.00
1097.064,2584.00
1097.999,2833.00
1098.934,2528.00
1099.869,2539.00
1100.803,2694.00
1101.738,2708.00
1102.672,2374.00
1103.607,2812.00
1104.541,2547.00
1105.475,2528.00
1106.409,2424.00
1107.343,2605.00
1108.277,2428.00
1109.210,2690.00
1110.144,2681.00
1111.078,2644.00
1112.011,2426.00
1112.944,2797.00
1113.878,2745.00
1114.811,2203.00
1115.744,2596.00
1116.678,2308.00
1117.611,2562.00
1118.544,2586.00
1119.477,2746.00
1120.409,2529.00
1121.342,3092.00
1122.274,2729.00
1123.206,3069.00
1124.138,2665.00
1125.070,2978.00
1126.002,2816.00
1126.934,2294.00
1127.866,2550.00
1128.798,2299.00
1129.729,2385.00
1130.661,2676.00
1131.592,2556.00
1132.523,2732.00
1133.454,2810.00
1134.385,2279.00
1135.317,2637.00
1136.247,2568.00
1137.178,2837.00
1138.109,2365.00
1139.039,3027.00
1139.970,2802.00
1140.900,2596.00
1141.831,2318.00
1142.761,2211.00
1143.691,3254.00
1144.621,2657.00
1145.551,2713.00
1146.480,2736.00
1147.410,2847.00
1148.340,2284.00
1149.269,2351.00
1150.199,2594.00
1151.128,3033.00
1152.057,2423.00
1152.979,2628.00
1153.898,2626.00
1154.819,2700.00
1155.739,2647.00
1156.658,2559.00
1157.579,2696.00
1158.498,2637.00
1159.419,2204.00
1160.338,2654.00
1161.256,2695.00
1162.177,2492.00
1163.095,2583.00
1164.016,2716.00
1164.934,2877.00
1165.852,2875.00
1166.772,2637.00
1167.690,2643.00
1168.610,2725.00
1169.528,2650.00
1170.446,2227.00
1171.365,2518.00
1172.283,2514.00
1173.202,2610.00
1174.120,2676.00
1175.037,2498.00
1175.956,2453.00
1176.873,2513.00
1177.792,2533.00
1178.709,3129.00
1179.626,2529.00
1180.544,2826.00
1181.461,2491.00
1182.379,2698.00
1183.296,2631.00
1184.212,2283.00
1185.130,2477.00
1186.046,2967.00
1186.962,2684.00
1187.880,2907.00
1188.796,2687.00
1189.714,2426.00
1190.629,2763.00
1191.545,2685.00
1192.462,2563.00
1193.378,2607.00
1194.295,2360.00
1195.210,2626.00
1196.125,2794.00
1197.042,2723.00
1197.957,2663.00
1198.872,2528.00
1199.788,2565.00
1200.703,2957.00
1201.619,2634.00
1202.534,2507.00
1203.448,2708.00
1204.364,2574.00
1205.278,2302.00
1206.192,2676.00
1207.108,3150.00
1208.022,3028.00
1208.938,2452.00
1209.851,2765.00
1210.765,2872.00
1211.680,2508.00
1212.594,2424.00
1213.507,2628.00
1214.422,3042.00
1215.335,2768.00
1216.248,2572.00
1217.163,2641.00
1218.076,3201.00
1218.990,2761.00
1219.903,2421.00
1220.816,2477.00
1221.730,2606.00
1222.642,2487.00
1223.554,2547.00
1224.469,2723.00
1225.380,2527.00
1226.292,2292.00
1227.206,2782.00
1228.118,2946.00
1229.032,2255.00
1229.943,2503.00
1230.855,2573.00
1231.768,2388.00
1232.679,2721.00
1233.590,2622.00
1234.503,2879.00
1235.414,2530.00
1236.325,2513.00
1237.238,2718.00
1238.149,2737.00
1239.059,2438.00
1239.972,2816.00
1240.882,2467.00
1241.793,2780.00
1242.705,2958.00
1243.615,2593.00
1244.525,2725.00
1245.437,2226.00
1246.347,2665.00
1247.259,2797.00
1248.168,3070.00
1249.078,2882.00
1249.989,2932.00
1250.899,2431.00
1251.808,2502.00
1252.719,2576.00
1253.628,2493.00
1254.537,3041.00
1255.448,2442.00
1256.357,2500.00
1257.266,2665.00
1258.176,2379.00
1259.085,2366.00
1259.993,2448.00
1260.904,2457.00
1261.812,2451.00
1262.720,3219.00
1263.630,2801.00
1264.538,2456.00
1265.446,2742.00
1266.356,2619.00
1267.263,2886.00
1268.171,2427.00
1269.080,2689.00
1269.988,2804.00
1270.895,2538.00
1271.804,2584.00
1272.711,2811.00
1273.619,2790.00
1274.527,2405.00
1275.434,2736.00
1276.341,2440.00
1277.248,2639.00
1278.156,2881.00
1279.063,2491.00
1279.969,2737.00
1280.877,3513.00
1281.783,2838.00
1282.690,2654.00
1283.598,2591.00
1284.503,2502.00
1285.409,2494.00
1286.317,3005.00
1287.223,3009.00
1288.128,2695.00
1289.036,2509.00
1289.941,2556.00
1290.846,2635.00
1291.751,2471.00
1292.658,2523.00
1293.563,3062.00
1294.468,2640.00
1295.375,2803.00
1296.280,2895.00
1297.184,3334.00
1298.091,2720.00
1298.995,2828.00
1299.900,3018.00
1300.806,2506.00
1301.710,2432.00
1302.614,2220.00
1303.518,2884.00
1304.424,2605.00
1305.327,2813.00
1306.231,2588.00
1307.137,2784.00
1308.040,2664.00
1308.943,2654.00
1309.847,2814.00
1310.752,2808.00
1311.655,2280.00
1312.558,2417.00
1313.463,2548.00
1314.366,2524.00
1315.269,2689.00
1316.171,2637.00
1317.076,2531.00
1317.978,2437.00
1318.881,2217.00
1319.785,2482.00
1320.687,2526.00
1321.589,2210.00
1322.491,2475.00
1323.395,2711.00
1324.297,3221.00
1325.198,2756.00
1326.102,2456.00
1327.004,2459.00
1327.905,2986.00
1328.806,2619.00
1329.709,2692.00
1330.611,2577.00
1331.512,2482.00
1332.413,3057.00
1333.316,2674.00
1334.216,2841.00
1335.117,2419.00
1336.020,2685.00
1336.920,2614.00
1337.821,2497.00
1338.721,2871.00
1339.623,2646.00
1340.523,2599.00
1341.423,2517.00
1342.323,2911.00
1343.225,2698.00
1344.125,2484.00
1345.025,2495.00
1345.924,2298.00
1346.826,2926.00
1347.725,3052.00
1348.624,2869.00
1349.524,2494.00
1350.425,2629.00
1351.324,2741.00
1352.223,2813.00
1353.121,2627.00
1354.022,2836.00
1354.921,3035.00
1355.819,2758.00
1356.718,2698.00
1357.618,2387.00
1358.516,2736.00
1359.415,3023.00
1360.313,2721.00
1361.213,2596.00
1362.111,2906.00
1363.008,3285.00
1363.906,2578.00
1364.806,2638.00
1365.703,2724.00
1366.601,2449.00
1367.498,2458.00
1368.397,2817.00
1369.295,2648.00
1370.192,2485.00
1371.089,2707.00
1371.987,2637.00
1372.884,2919.00
1373.781,2445.00
1374.678,2635.00
1375.574,2447.00
1376.473,2718.00
1377.369,2867.00
1378.265,2462.00
1379.161,2599.00
1380.059,2307.00
1380.955,2781.00
1381.851,2395.00
1382.747,2517.00
1383.643,2542.00
1384.540,2446.00
1385.436,2539.00
1386.331,2723.00
1387.227,2779.00
1388.124,2708.00
1389.019,2449.00
1389.914,2586.00
1390.809,2290.00
1391.704,3086.00
1392.601,2564.00
1393.495,2914.00
1394.390,2820.00
1395.285,2856.00
1396.179,2712.00
1397.075,2648.00
1397.969,2692.00
1398.864,2325.00
1399.758,2580.00
1400.652,2689.00
1401.547,2429.00
1402.441,2440.00
1403.335,2959.00
1404.229,2653.00
1405.122,2706.00
1406.017,2650.00
1406.911,2820.00
1407.804,3058.00
1408.697,2598.00
1409.590,2468.00
1410.485,2817.00
1411.378,2700.00
1412.271,2349.00
1413.163,2696.00
1414.056,2781.00
1414.949,3026.00
1415.843,2697.00
1416.735,2582.00
1417.627,2617.00
1418.520,2622.00
1419.412,2873.00
1420.306,2786.00
1421.197,2908.00
1422.089,2838.00
1422.981,3068.00
1423.873,2818.00
1424.764,2729.00
1425.657,2672.00
1426.549,2784.00
1427.440,2876.00
1428.331,2549.00
1429.222,2343.00
1430.113,2709.00
1431.006,2840.00
1431.897,2584.00
1432.787,2659.00
1433.678,2559.00
1434.568,2458.00
1435.459,2860.00
1436.351,2813.00
1437.241,2787.00
1438.131,2822.00
1439.021,2372.00
1439.911,2601.00
1440.801,2735.00
1441.693,2862.00
1442.583,2636.00
1443.472,2632.00
1444.362,2775.00
1445.251,2595.00
1446.140,2593.00
1447.030,2805.00
1447.921,2848.00
1448.810,2502.00
1449.699,2974.00
1450.588,2670.00
1451.476,2538.00
1452.365,2764.00
1453.254,2557.00
1454.144,2537.00
1455.032,2772.00
1455.921,2397.00
1456.809,2916.00
1457.697,2439.00
1458.585,2595.00
1459.473,2592.00
1460.361,2498.00
1461.251,2732.00
1462.138,2738.00
1463.026,2598.00
1463.913,2833.00
1464.801,2549.00
1465.688,2713.00
1466.575,2641.00
1467.463,3061.00
1468.351,2527.00
1469.238,2631.00
1470.125,2262.00
1471.012,2670.00
1471.899,2742.00
1472.785,2471.00
1473.672,2683.00
1474.558,2889.00
1475.446,2781.00
1476.333,2805.00
1477.219,2458.00
1478.105,2647.00
1478.991,2618.00
1479.877,2946.00
1480.762,2667.00
1481.648,2521.00
1482.534,2771.00
1483.419,2680.00
1484.307,2764.00
1485.192,2582.00
1486.077,2518.00
1486.962,2518.00
1487.847,2400.00
1488.732,2536.00
1489.617,2676.00
1490.502,2912.00
1491.387,2824.00
1492.271,2481.00
1493.156,2501.00
1494.042,2477.00
1494.927,2849.00
1495.811,2541.00
1496.695,2803.00
1497.579,2975.00
1498.463,2655.00
1499.347,2706.00
1500.231,2663.00
1501.114,2750.00
1501.998,2939.00
1502.881,2715.00
1503.765,2940.00
1504.648,3039.00
1505.533,2784.00
1506.417,2667.00
1507.300,2622.00
1508.183,2737.00
1509.066,2146.00
1509.948,2893.00
1510.831,2978.00
1511.714,2433.00
1512.596,2790.00
1513.479,2885.00
1514.361,2859.00
1515.243,2704.00
1516.125,2843.00
1517.008,2921.00
1517.890,2598.00
1518.771,2699.00
1519.655,2885.00
1520.537,2594.00
1521.419,2506.00
1522.300,2705.00
1523.182,2791.00
1524.063,2758.00
1524.944,2953.00
1525.825,2832.00
1526.707,2474.00
1527.588,2426.00
1528.468,2720.00
1529.349,2315.00
1530.230,2592.00
1531.111,2849.00
1531.991,2697.00
1532.872,2365.00
1533.752,2635.00
1534.632,2548.00
1535.513,2539.00
1536.393,2795.00
1537.273,2915.00
1538.153,3319.00
1539.032,2441.00
1539.912,2658.00
1540.792,2623.00
1541.672,2635.00
1542.551,2751.00
1543.430,3214.00
1544.310,2681.00
1545.189,2575.00
1546.068,3055.00
1546.947,2747.00
1547.826,2956.00
1548.705,2650.00
1549.584,2882.00
1550.462,2611.00
1551.341,2822.00
1552.219,2709.00
1553.098,2793.00
1553.976,2884.00
1554.854,3047.00
1555.733,2865.00
1556.611,2571.00
1557.489,2451.00
1558.367,2669.00
1559.244,2823.00
1560.122,2695.00
1561.000,2723.00
1561.877,2938.00
1562.755,2519.00
1563.632,2651.00
1564.509,2890.00
1565.386,3054.00
1566.264,2437.00
1567.141,2310.00
1568.017,2826.00
1568.894,2633.00
1569.771,2705.00
1570.648,2775.00
1571.524,2680.00
1572.401,2465.00
1573.277,2458.00
1574.153,2726.00
1575.029,2507.00
1575.906,3373.00
1576.781,2846.00
1577.657,2601.00
1578.533,2861.00
1579.409,2322.00
1580.285,2647.00
1581.160,3073.00
1582.036,2830.00
1582.911,2511.00
1583.786,3020.00
1584.662,2490.00
1585.537,2647.00
1586.412,2729.00
1587.287,2527.00
1588.160,2849.00
1589.035,2332.00
1589.909,2666.00
1590.784,2635.00
1591.658,2474.00
1592.533,2742.00
1593.407,2652.00
1594.281,2568.00
1595.155,3063.00
1596.029,2597.00
1596.903,2612.00
1597.777,2545.00
1598.651,2920.00
1599.525,2366.00
1600.398,2667.00
1601.272,2625.00
1602.144,3198.00
1603.017,2613.00
1603.890,2900.00
1604.763,2794.00
1605.636,2782.00
1606.509,2385.00
1607.382,2506.00
1608.255,2728.00
1609.128,2905.00
1610.000,2632.00
1610.873,2347.00
1611.746,2588.00
1612.616,2580.00
1613.488,2222.00
1614.361,2653.00
1615.233,2623.00
1616.105,2885.00
1616.977,2569.00
1617.849,2509.00
1618.720,2954.00
1619.592,2995.00
1620.464,2750.00
1621.333,3115.00
1622.205,2695.00
1623.076,2668.00
1623.947,2642.00
1624.818,2925.00
1625.689,2811.00
1626.560,2599.00
1627.431,2736.00
1628.302,3021.00
1629.171,2802.00
1630.042,2971.00
1630.912,3267.00
1631.782,3241.00
1632.653,2491.00
1633.523,2808.00
1634.393,2914.00
1635.263,2530.00
1636.131,2650.00
1637.001,2566.00
1637.871,2292.00
1638.741,2296.00
1639.611,2444.00
1640.480,2809.00
1641.350,2500.00
1642.219,2501.00
1643.087,2197.00
1643.956,3120.00
1644.825,2918.00
1645.694,2876.00
1646.563,2838.00
1647.432,2694.00
1648.299,2688.00
1649.167,2801.00
1650.036,2476.00
1650.904,2937.00
1651.773,2893.00
1652.641,2708.00
1653.509,2903.00
1654.376,2577.00
1655.244,2719.00
1656.112,2722.00
1656.980,2688.00
1657.847,2538.00
1658.715,2843.00
1659.581,2563.00
1660.448,2913.00
1661.316,2208.00
1662.183,2713.00
1663.051,2734.00
1663.918,2742.00
1664.783,2707.00
1665.650,2793.00
1666.517,2855.00
1667.384,2696.00
1668.251,2724.00
1669.115,2870.00
1669.982,2615.00
1670.849,2962.00
1671.715,2677.00
1672.581,2821.00
1673.446,2808.00
1674.312,2706.00
1675.178,3073.00
1676.044,2782.00
1676.910,2742.00
1677.774,2736.00
1678.639,2345.00
1679.505,2699.00
1680.370,2812.00
1681.236,3341.00
1682.099,2633.00
1682.965,2727.00
1683.830,2283.00
1684.695,2532.00
1685.560,2626.00
1686.423,2835.00
1687.288,2798.00
1688.153,2726.00
1689.017,2616.00
1689.880,2737.00
1690.745,2819.00
1691.609,2532.00
1692.473,2800.00
1693.338,2909.00
1694.200,2918.00
1695.064,2659.00
1695.928,2616.00
1696.792,2668.00
1697.654,3166.00
1698.517,2713.00
1699.381,2459.00
1700.245,2340.00
1701.106,2977.00
1701.969,2600.00
1702.833,2850.00
1703.696,2595.00
1704.557,2672.00
1705.420,2546.00
1706.283,2692.00
1707.146,2821.00
1708.007,2502.00
1708.870,2465.00
1709.732,2372.00
1710.595,2533.00
1711.455,2467.00
1712.318,2624.00
1713.180,2950.00
1714.040,2744.00
1714.902,2854.00
1715.764,2687.00
1716.626,2492.00
1717.486,2625.00
1718.348,2944.00
1719.209,4781.00
1720.071,2323.00
1720.930,2448.00
1721.792,2538.00
1722.653,2617.00
1723.512,2623.00
1724.374,2635.00
1725.234,2749.00
1726.095,2724.00
1726.954,2694.00
1727.815,2822.00
1728.676,2690.00
1729.535,2935.00
1730.395,2672.00
1731.256,2593.00
1732.114,2753.00
1732.974,2168.00
1733.834,3066.00
1734.693,2840.00
1735.553,2715.00
1736.413,3131.00
1737.272,2584.00
1738.130,2616.00
1738.990,2781.00
1739.849,2571.00
1740.707,3690.00
1741.566,2749.00
1742.426,2732.00
1743.283,3063.00
1744.142,2567.00
1745.001,2324.00
1745.858,2827.00
1746.717,2753.00
1747.576,2811.00
1748.433,2834.00
1749.292,3224.00
1750.150,3298.00
1751.007,2902.00
1751.865,2907.00
1752.723,2724.00
1753.579,2660.00
1754.438,2892.00
1755.296,2905.00
1756.152,2291.00
1757.010,2364.00
1757.865,2857.00
1758.723,2368.00
1759.581,3003.00
1760.436,2679.00
1761.294,3052.00
1762.151,2686.00
1763.006,2617.00
1763.864,2323.00
1764.721,2866.00
1765.576,2713.00
1766.433,2828.00
1767.288,2602.00
1768.144,2735.00
1769.001,2668.00
1769.856,2779.00
1770.712,2860.00
1771.568,2465.00
1772.423,2590.00
1773.279,2596.00
1774.133,2602.00
1774.989,3065.00
1775.845,3047.00
1776.699,2932.00
1777.555,2693.00
1778.409,3200.00
1779.265,2658.00
1780.120,2682.00
1780.974,2668.00
1781.829,2310.00
1782.682,2733.00
1783.538,2497.00
1784.393,2748.00
1785.246,2581.00
1786.101,2792.00
1786.954,2794.00
1787.808,2902.00
1788.661,2381.00
1789.516,2578.00
1790.370,2641.00
1791.223,2885.00
1792.077,2665.00
1792.930,2731.00
1793.784,2608.00
1794.636,2706.00
1795.490,2642.00
1796.344,2710.00
1797.196,2678.00
1798.049,2885.00
1798.901,2568.00
1799.755,2917.00
1800.606,2516.00
1801.460,3229.00
1802.311,3014.00
1803.165,3085.00
1804.018,3059.00
1804.869,2788.00
1805.722,3178.00
1806.573,2717.00
1807.426,2523.00
1808.276,2703.00
1809.129,2600.00
1809.980,2877.00
1810.832,2990.00
1811.683,2606.00
1812.535,3031.00
1813.385,2608.00
1814.237,2938.00
1815.089,2752.00
1815.940,2981.00
1816.791,2651.00
1817.641,2581.00
1818.493,2864.00
1819.343,2793.00
1820.194,2586.00
1821.044,2810.00
1821.895,2946.00
1822.745,2436.00
1823.596,2591.00
1824.445,3068.00
1825.296,2804.00
1826.145,2648.00
1826.996,2921.00
1827.845,2754.00
1828.695,2764.00
1829.544,2717.00
1830.395,2757.00
1831.243,2594.00
1832.094,2460.00
1832.942,3284.00
1833.792,2854.00
1834.640,2771.00
1835.490,2713.00
1836.338,2769.00
1837.186,2589.00
1838.036,2561.00
1838.884,2663.00
1839.733,3010.00
1840.581,2883.00
1841.430,2802.00
1842.278,3023.00
1843.127,2606.00
1843.974,2377.00
1844.823,3155.00
1845.671,2833.00
1846.519,2710.00
1847.366,2780.00
1848.213,2335.00
1849.062,2543.00
1849.909,2463.00
1850.757,3321.00
1851.604,2837.00
1852.452,2630.00
1853.298,2906.00
1854.146,2770.00
1854.993,2755.00
1855.839,3214.00
1856.687,2812.00
1857.532,2841.00
1858.380,2684.00
1859.226,2790.00
1860.073,2789.00
1860.919,2537.00
1861.765,2610.00
1862.612,2968.00
1863.457,2897.00
1864.304,2687.00
1865.150,2814.00
1865.995,2705.00
1866.842,2829.00
1867.686,2911.00
1868.533,2814.00
1869.378,2793.00
1870.223,2747.00
1871.069,2610.00
1871.914,2739.00
1872.760,2693.00
1873.604,2531.00
1874.448,2874.00
1875.294,2876.00
1876.139,2563.00
1876.984,2859.00
1877.828,2383.00
1878.672,2265.00
1879.518,2584.00
1880.361,2886.00
1881.205,2851.00
1882.050,2494.00
1882.894,3227.00
1883.739,2556.00
1884.582,2476.00
1885.425,2523.00
1886.270,2961.00
1887.113,2486.00
1887.956,2817.00
1888.801,2789.00
1889.644,2495.00
1890.486,2331.00
1891.331,2653.00
1892.173,2750.00
1893.017,2771.00
1893.860,3003.00
1894.702,2974.00
1895.546,2714.00
1896.388,3420.00
1897.230,3086.00
1898.074,2594.00
1898.916,2520.00
1899.757,2576.00
1900.601,3373.00
1901.443,3017.00
1902.284,2992.00
1903.125,3168.00
1903.969,2889.00
1904.810,2947.00
1905.651,2787.00
1906.494,3029.00
1907.335,3165.00
1908.176,2834.00
1909.018,2811.00
1909.859,2647.00
1910.700,2614.00
1911.542,3239.00
1912.383,2829.00
1913.223,2371.00
1914.064,2851.00
1914.906,3009.00
1915.746,3034.00
1916.586,3218.00
1917.428,2690.00
1918.268,2747.00
1919.107,2631.00
1919.947,2465.00
1920.789,2656.00
1921.628,2945.00
1922.468,2687.00
1923.309,2575.00
1924.148,3026.00
1924.988,2785.00
1925.827,2687.00
1926.667,2622.00
1927.507,2767.00
1928.345,2545.00
1929.184,2863.00
1930.025,2555.00
1930.864,2989.00
1931.702,3010.00
1932.541,2611.00
1933.381,2867.00
1934.219,2874.00
1935.057,2983.00
1935.896,2469.00
1936.735,2707.00
1937.573,2590.00
1938.411,2488.00
1939.249,2895.00
1940.089,2634.00
1940.927,2978.00
1941.764,3016.00
1942.602,2660.00
1943.439,2630.00
1944.278,2676.00
1945.115,2617.00
1945.953,2496.00
1946.790,2816.00
1947.628,3076.00
1948.465,2812.00
1949.302,2850.00
1950.139,2868.00
1950.976,2624.00
1951.814,2868.00
1952.651,2789.00
1953.487,2536.00
1954.323,2968.00
1955.160,2724.00
1955.998,3120.00
1956.834,2714.00
1957.670,2768.00
1958.506,2953.00
1959.342,2821.00
1960.177,2776.00
1961.015,2844.00
1961.850,2784.00
1962.686,2799.00
1963.521,2779.00
1964.357,3033.00
1965.192,2540.00
1966.029,2857.00
1966.864,2662.00
1967.699,2959.00
1968.534,2786.00
1969.369,3025.00
1970.204,2698.00
1971.040,2757.00
1971.875,2678.00
1972.709,2777.00
1973.544,2587.00
1974.378,2601.00
1975.212,2842.00
1976.047,2624.00
1976.882,2586.00
1977.716,3131.00
1978.550,2455.00
1979.384,2716.00
1980.218,2685.00
1981.052,2680.00
1981.885,2715.00
1982.719,2758.00
1983.554,2904.00
1984.388,3027.00
1985.221,2808.00
1986.054,2975.00
1986.887,2801.00
1987.720,2605.00
1988.553,3055.00
1989.386,2796.00
1990.219,2875.00
1991.053,3026.00
1991.886,2622.00
1992.719,2930.00
1993.551,2268.00
1994.383,2882.00
1995.216,2660.00
1996.048,2469.00
1996.880,2897.00
1997.712,2653.00
1998.544,2781.00
1999.376,2777.00
2000.208,3070.00
