RamanScope Measure Spectrum Data V3.72

<< MEASURE CONDITION >>
Exposure Type,Aver
Exposure Time [sec],15
Exposure Count,30
Measure Time,2023/07/12 12:04:25
Data Name,""
Data Comment,""
Rayleigh Wave[nm],532.0

<< SAMPLE SPECTRUM >>
Wave[dcm-1],No15
146.591,1027.23
147.626,1236.80
148.664,1413.60
149.699,1642.43
150.737,1839.30
151.772,2072.07
152.809,2208.40
153.846,2386.30
154.881,2560.77
155.918,2705.90
156.953,2782.07
157.989,2904.50
159.026,2973.63
160.060,3012.07
161.096,3094.77
162.130,3163.33
163.167,3217.37
164.200,3269.40
165.236,3284.77
166.272,3369.30
167.305,3456.23
168.341,3500.77
169.374,3577.10
170.409,3660.57
171.445,3737.53
172.477,3805.20
173.512,3812.30
174.545,3878.67
175.580,3897.17
176.614,3880.40
177.647,3894.13
178.681,3833.23
179.713,3811.83
180.747,3768.23
181.781,3758.93
182.813,3753.43
183.847,3705.67
184.878,3749.90
185.912,3683.10
186.945,3707.63
187.976,3748.23
189.010,3695.33
190.043,3732.23
191.073,3755.00
192.106,3791.70
193.137,3811.80
194.170,3820.43
195.202,3884.93
196.232,3918.83
197.265,3938.57
198.297,3996.40
199.327,4041.27
200.359,4063.10
201.388,4096.70
202.420,4153.40
203.452,4244.97
204.481,4278.13
205.512,4380.90
206.544,4403.40
207.573,4498.00
208.604,4507.73
209.635,4633.27
210.663,4657.43
211.694,4766.37
212.725,4879.63
213.753,4926.60
214.783,5000.70
215.813,5016.87
216.841,5069.27
217.871,5063.87
218.899,5057.60
219.929,5042.37
220.959,4974.20
221.986,4923.70
223.016,4850.47
224.045,4765.67
225.072,4753.97
226.101,4634.23
227.130,4542.90
228.157,4498.30
229.185,4425.60
230.214,4422.57
231.241,4361.73
232.269,4344.00
233.297,4293.30
234.323,4290.53
235.351,4248.60
236.379,4259.47
237.407,4236.83
238.433,4221.57
239.460,4289.60
240.488,4321.33
241.513,4361.50
242.540,4442.33
243.568,4406.13
244.592,4423.37
245.619,4467.97
246.646,4404.80
247.671,4422.07
248.697,4398.50
249.724,4376.47
250.748,4378.83
251.774,4375.00
252.801,4358.30
253.827,4359.47
254.850,4339.13
255.876,4399.47
256.902,4385.47
257.925,4386.00
258.951,4420.23
259.976,4447.40
260.999,4413.20
262.024,4434.97
263.049,4497.23
264.074,4498.10
265.097,4517.90
266.122,4542.10
267.146,4594.87
268.168,4611.30
269.193,4651.03
270.217,4681.37
271.241,4746.47
272.263,4725.63
273.287,4740.90
274.311,4779.90
275.332,4835.63
276.356,4820.87
277.379,4804.70
278.402,4781.60
279.424,4765.33
280.447,4730.97
281.470,4688.00
282.492,4602.93
283.513,4587.10
284.536,4528.70
285.558,4489.47
286.581,4454.70
287.601,4387.80
288.623,4338.83
289.645,4329.00
290.665,4225.63
291.687,4227.00
292.709,4177.60
293.730,4087.00
294.750,4103.90
295.771,4050.23
296.792,4023.07
297.813,3987.07
298.832,3936.27
299.853,3960.30
300.874,3885.97
301.895,3820.67
302.913,3791.27
303.934,3781.83
304.954,3808.73
305.975,3769.10
306.993,3752.70
308.013,3686.60
309.033,3649.73
310.052,3699.47
311.072,3676.27
312.090,3640.03
313.109,3675.07
314.129,3563.23
315.148,3582.97
316.165,3561.83
317.184,3603.03
318.203,3575.37
319.222,3540.30
320.238,3510.93
321.257,3490.47
322.275,3528.50
323.294,3502.73
324.312,3523.47
325.328,3516.00
326.346,3493.90
327.364,3473.73
328.382,3513.40
329.397,3463.60
330.415,3479.27
331.432,3452.30
332.450,3421.43
333.467,3456.53
334.482,3437.77
335.499,3441.30
336.516,3420.67
337.533,3454.80
338.547,3376.50
339.564,3376.70
340.580,3422.23
341.597,3443.13
342.613,3419.00
343.627,3376.67
344.643,3357.30
345.659,3368.73
346.675,3347.93
347.690,3365.13
348.704,3376.60
349.719,3343.73
350.735,3377.27
351.750,3334.90
352.765,3373.87
353.778,3367.07
354.793,3324.50
355.808,3348.93
356.822,3340.63
357.837,3372.27
358.851,3342.87
359.864,3325.20
360.878,3373.23
361.892,3398.20
362.906,3316.40
363.920,3390.20
364.932,3412.30
365.945,3340.77
366.959,3384.07
367.972,3374.77
368.986,3386.97
369.999,3330.17
371.010,3363.97
372.023,3399.57
373.036,3442.97
374.049,3404.97
375.061,3403.90
376.072,3448.77
377.084,3435.80
378.097,3476.37
379.109,3441.43
380.121,3432.70
381.133,3430.90
382.143,3430.67
383.155,3419.83
384.166,3443.90
385.178,3430.00
386.189,3418.20
387.201,3436.77
388.212,3444.07
389.221,3407.07
390.232,3395.67
391.243,3401.83
392.254,3388.73
393.264,3338.83
394.275,3374.00
395.283,3366.90
396.294,3368.53
397.304,3353.37
398.314,3338.73
399.324,3307.83
400.334,3343.13
401.344,3330.17
402.351,3307.23
403.361,3276.63
404.370,3254.60
405.380,3253.27
406.389,3246.00
407.398,3263.67
408.407,3292.23
409.414,3218.70
410.423,3223.47
411.431,3180.30
412.440,3175.80
413.448,3162.40
414.457,3212.90
415.465,3190.60
416.471,3164.03
417.479,3154.70
418.487,3154.70
419.495,3143.43
420.503,3158.33
421.510,3156.83
422.518,3120.27
423.525,3106.67
424.530,3138.33
425.537,3108.53
426.544,3089.90
427.551,3152.10
428.558,3109.77
429.565,3113.23
430.571,3106.90
431.578,3114.17
432.582,3116.63
433.588,3085.33
434.595,3113.60
435.601,3087.03
436.607,3150.10
437.612,3087.40
438.618,3095.10
439.624,3073.20
440.627,3124.53
441.633,3096.93
442.638,3056.23
443.643,3031.23
444.648,3051.77
445.653,3091.70
446.658,3091.80
447.663,3099.50
448.667,3073.37
449.672,3077.87
450.674,3106.03
451.678,3125.53
452.682,3091.10
453.687,3113.87
454.690,3106.37
455.694,3112.47
456.698,3130.70
457.702,3116.00
458.705,3114.73
459.709,3141.03
460.710,3101.97
461.713,3157.77
462.716,3155.83
463.719,3122.87
464.722,3118.43
465.725,3143.23
466.727,3187.33
467.730,3128.20
468.732,3130.47
469.735,3124.37
470.737,3153.70
471.737,3148.73
472.739,3143.33
473.741,3135.27
474.742,3151.67
475.744,3186.03
476.746,3126.33
477.747,3144.17
478.748,3150.57
479.750,3168.03
480.751,3143.70
481.752,3161.60
482.753,3172.50
483.751,3087.77
484.752,3155.10
485.753,3132.73
486.753,3154.13
487.753,3185.60
488.754,3158.93
489.754,3124.97
490.754,3103.50
491.754,3161.00
492.754,3136.97
493.753,3149.77
494.753,3146.37
495.752,3154.93
496.752,3153.03
497.749,3123.57
498.748,3131.87
499.747,3058.30
500.746,3087.27
501.745,3110.40
502.744,3153.40
503.742,3112.23
504.741,3073.10
505.739,3111.83
506.737,3142.57
507.735,3103.47
508.734,3059.80
509.732,3052.93
510.729,3032.27
511.727,3044.40
512.725,3056.60
513.720,3042.27
514.718,3019.63
515.715,2973.03
516.712,2979.20
517.709,3045.80
518.706,3005.47
519.703,3036.70
520.700,2959.87
521.696,3024.83
522.693,3028.27
523.689,3035.60
524.686,2986.47
525.682,3054.67
526.678,2996.47
527.674,3012.20
528.670,3078.37
529.666,3029.50
530.661,3040.03
531.657,3049.47
532.652,3012.83
533.648,3051.43
534.641,3061.27
535.636,3032.10
536.631,3043.43
537.626,3079.73
538.621,3056.50
539.616,3048.33
540.610,3045.57
541.605,3060.23
542.599,2996.40
543.593,3062.30
544.587,3099.53
545.581,3042.60
546.575,3016.40
547.569,3021.33
548.563,3012.40
549.557,2997.53
550.550,2991.40
551.543,2969.93
552.537,2999.27
553.530,2992.43
554.523,2992.97
555.516,2953.43
556.509,2962.10
557.502,2964.13
558.494,2905.33
559.487,2974.77
560.479,2925.50
561.472,2933.70
562.464,2920.97
563.456,2927.47
564.448,2929.43
565.440,2943.20
566.432,2908.23
567.423,2934.37
568.415,2890.03
569.404,2956.83
570.396,2936.43
571.387,2947.57
572.378,2941.23
573.369,2937.50
574.360,2968.97
575.351,2945.43
576.341,2957.63
577.332,2952.03
578.323,2962.73
579.313,2963.93
580.303,2988.13
581.293,2962.50
582.283,2972.47
583.273,2999.60
584.263,2955.53
585.253,3022.83
586.243,3007.77
587.232,3011.63
588.222,3002.70
589.211,2996.27
590.200,3011.03
591.189,3031.73
592.178,2970.90
593.167,3001.87
594.156,2998.30
595.145,3007.07
596.133,3014.90
597.122,3025.53
598.110,2997.70
599.098,3008.53
600.086,3027.43
601.074,3012.07
602.062,3039.23
603.050,2994.63
604.038,3020.27
605.025,3010.77
606.013,3003.67
607.000,3044.93
607.987,2993.37
608.975,2925.73
609.962,2967.70
610.949,2974.53
611.936,2962.10
612.922,2937.67
613.909,2895.33
614.895,2895.60
615.882,2940.87
616.868,2912.17
617.854,2879.27
618.841,2876.37
619.826,2797.83
620.812,2796.63
621.798,2804.30
622.784,2791.67
623.769,2746.90
624.755,2737.33
625.740,2727.67
626.725,2723.07
627.711,2686.50
628.698,2666.53
629.683,2644.83
630.667,2619.57
631.652,2618.20
632.637,2589.47
633.621,2551.50
634.606,2582.23
635.590,2568.27
636.574,2559.93
637.558,2546.63
638.542,2492.80
639.526,2480.40
640.510,2470.43
641.493,2496.90
642.477,2490.07
643.460,2470.73
644.444,2446.40
645.427,2441.37
646.410,2424.83
647.393,2410.60
648.376,2367.93
649.359,2369.77
650.341,2339.27
651.324,2397.00
652.307,2325.27
653.289,2373.40
654.271,2346.77
655.253,2347.83
656.235,2295.80
657.217,2312.90
658.199,2291.20
659.181,2295.77
660.163,2285.90
661.144,2289.20
662.126,2281.67
663.107,2281.03
664.088,2266.93
665.069,2299.23
666.050,2236.93
667.033,2254.00
668.014,2261.03
668.995,2251.80
669.975,2256.23
670.956,2245.80
671.936,2212.27
672.916,2182.23
673.896,2201.83
674.876,2192.67
675.856,2147.43
676.836,2133.30
677.816,2118.80
678.795,2143.20
679.775,2101.13
680.754,2071.87
681.734,2025.50
682.713,2033.27
683.692,2053.43
684.671,2045.47
685.650,2030.80
686.629,1972.03
687.607,2025.43
688.586,1973.53
689.564,1963.80
690.543,1922.83
691.523,1978.73
692.501,1943.77
693.479,1957.77
694.457,1919.23
695.435,1934.17
696.413,1923.10
697.390,1942.47
698.368,1895.87
699.345,1901.03
700.322,1886.50
701.300,1887.03
702.277,1866.63
703.254,1864.70
704.231,1870.63
705.207,1829.90
706.184,1838.20
707.161,1841.37
708.137,1835.93
709.113,1813.73
710.090,1782.63
711.068,1829.97
712.044,1759.77
713.020,1882.70
713.996,1798.70
714.971,1810.07
715.947,1773.57
716.922,1777.87
717.898,1806.77
718.873,1751.67
719.848,1718.83
720.823,1780.07
721.798,1776.93
722.773,1781.90
723.748,1745.23
724.723,1722.23
725.697,1762.87
726.672,1709.53
727.646,1728.20
728.622,1705.37
729.596,1761.43
730.570,1720.07
731.544,1741.80
732.518,1705.17
733.492,1685.67
734.466,1691.63
735.439,1664.20
736.413,1671.43
737.386,1715.13
738.359,1702.03
739.332,1672.03
740.305,1679.03
741.278,1630.90
742.251,1688.73
743.224,1663.43
744.196,1693.53
745.171,1661.93
746.143,1660.57
747.115,1675.03
748.087,1639.50
749.059,1654.47
750.031,1598.50
751.003,1627.83
751.975,1617.67
752.947,1635.67
753.918,1605.73
754.890,1598.13
755.861,1599.73
756.832,1602.03
757.803,1574.40
758.774,1579.37
759.747,1579.23
760.718,1545.30
761.689,1529.17
762.659,1589.53
763.630,1563.60
764.600,1543.27
765.570,1536.90
766.540,1529.33
767.510,1561.77
768.480,1568.57
769.450,1528.00
770.420,1532.87
771.390,1510.40
772.359,1512.17
773.329,1521.53
774.300,1495.10
775.269,1508.20
776.238,1477.93
777.207,1458.83
778.176,1487.20
779.145,1463.80
780.114,1487.43
781.083,1491.83
782.051,1453.53
783.019,1478.33
783.988,1428.60
784.956,1494.63
785.924,1446.23
786.894,1442.53
787.862,1441.63
788.830,1475.23
789.797,1424.10
790.765,1453.77
791.732,1408.00
792.700,1428.67
793.667,1443.83
794.634,1423.07
795.601,1430.07
796.568,1402.53
797.535,1400.67
798.502,1394.63
799.468,1374.60
800.437,1402.80
801.403,1354.40
802.370,1395.20
803.336,1422.53
804.302,1373.50
805.268,1369.50
806.234,1370.60
807.200,1365.97
808.166,1337.57
809.131,1354.83
810.097,1409.80
811.062,1355.97
812.027,1348.67
812.994,1374.30
813.960,1345.93
814.925,1366.50
815.889,1358.77
816.854,1383.60
817.819,1356.40
818.783,1298.10
819.748,1305.07
820.712,1337.73
821.677,1358.30
822.641,1326.17
823.605,1302.53
824.571,1342.23
825.534,1355.03
826.498,1347.87
827.462,1352.83
828.425,1342.00
829.389,1304.03
830.352,1359.17
831.315,1341.37
832.279,1345.20
833.242,1282.13
834.204,1304.03
835.167,1318.57
836.132,1348.73
837.095,1313.53
838.057,1336.03
839.020,1310.63
839.982,1318.83
840.944,1327.37
841.906,1360.57
842.868,1355.07
843.830,1329.97
844.792,1363.37
845.753,1307.57
846.715,1326.73
847.679,1323.30
848.640,1361.13
849.601,1357.97
850.562,1288.57
851.523,1295.37
852.484,1330.50
853.445,1316.00
854.406,1324.73
855.367,1345.07
856.327,1340.60
857.288,1356.93
858.248,1339.83
859.210,1346.10
860.170,1363.07
861.130,1311.97
862.090,1378.20
863.050,1353.63
864.010,1349.60
864.969,1348.70
865.929,1314.73
866.888,1374.87
867.848,1401.40
868.807,1352.77
869.766,1320.43
870.727,1338.00
871.686,1338.67
872.645,1380.10
873.604,1363.83
874.562,1312.70
875.521,1327.33
876.479,1379.20
877.437,1354.43
878.396,1377.40
879.354,1359.67
880.312,1341.97
881.270,1371.53
882.229,1396.23
883.187,1406.53
884.145,1406.20
885.102,1388.73
886.059,1383.13
887.017,1390.97
887.974,1375.53
888.931,1383.17
889.888,1394.63
890.845,1360.87
891.802,1378.57
892.758,1406.33
893.717,1416.30
894.673,1364.77
895.630,1411.00
896.586,1374.93
897.542,1388.20
898.498,1430.10
899.454,1413.67
900.410,1431.40
901.366,1389.20
902.321,1424.07
903.277,1421.93
904.232,1426.83
905.189,1412.87
906.145,1434.10
907.100,1447.43
908.055,1401.87
909.010,1479.03
909.965,1444.17
910.919,1442.37
911.874,1434.63
912.828,1459.00
913.783,1414.20
914.737,1430.70
915.693,1455.03
916.648,1440.93
917.602,1430.40
918.555,1449.87
919.509,1464.13
920.463,1493.60
921.417,1482.80
922.370,1475.70
923.324,1453.33
924.277,1467.87
925.230,1455.97
926.183,1475.13
927.138,1500.33
928.091,1462.53
929.044,1471.60
929.996,1478.30
930.949,1477.10
931.902,1472.80
932.854,1463.40
933.806,1458.67
934.758,1453.97
935.711,1499.10
936.663,1479.40
937.614,1457.30
938.568,1481.87
939.520,1501.77
940.471,1527.70
941.423,1498.60
942.374,1487.23
943.326,1446.17
944.277,1423.80
945.228,1475.57
946.179,1477.53
947.130,1462.93
948.080,1462.50
949.031,1459.43
949.984,1435.73
950.934,1460.97
951.884,1448.70
952.835,1479.87
953.785,1423.47
954.735,1447.07
955.685,1450.07
956.635,1447.13
957.585,1419.40
958.534,1456.17
959.484,1457.10
960.433,1417.87
961.383,1420.67
962.334,1420.37
963.283,1431.30
964.232,1388.43
965.181,1379.43
966.130,1394.40
967.079,1406.53
968.027,1358.37
968.976,1368.50
969.924,1414.20
970.873,1342.30
971.821,1356.47
972.769,1378.10
973.719,1417.03
974.667,1375.37
975.615,1343.67
976.562,1359.50
977.510,1353.03
978.458,1371.33
979.405,1374.43
980.352,1387.23
981.300,1400.00
982.247,1386.20
983.194,1382.27
984.141,1341.53
985.088,1317.67
986.036,1347.37
986.983,1354.70
987.930,1347.83
988.876,1328.67
989.822,1325.77
990.769,1312.97
991.715,1325.70
992.661,1319.60
993.607,1329.63
994.553,1309.53
995.498,1326.47
996.444,1334.33
997.389,1300.30
998.337,1308.57
999.282,1314.87
1000.227,1346.33
1001.173,1298.87
1002.118,1309.20
1003.062,1323.57
1004.007,1291.03
1004.952,1307.60
1005.897,1279.17
1006.841,1321.23
1007.786,1301.40
1008.730,1279.70
1009.674,1258.47
1010.618,1271.50
1011.564,1290.93
1012.508,1285.20
1013.452,1269.47
1014.396,1276.30
1015.339,1319.77
1016.283,1303.40
1017.226,1275.93
1018.170,1300.37
1019.113,1293.60
1020.056,1305.73
1020.999,1300.67
1021.942,1250.37
1022.885,1255.33
1023.828,1263.87
1024.770,1236.77
1025.715,1323.00
1026.657,1306.90
1027.600,1300.33
1028.542,1256.47
1029.484,1279.00
1030.426,1300.50
1031.368,1291.13
1032.310,1246.57
1033.251,1288.57
1034.193,1307.23
1035.135,1276.17
1036.076,1277.30
1037.017,1261.90
1037.959,1274.73
1038.900,1258.53
1039.843,1328.50
1040.784,1293.20
1041.725,1291.10
1042.665,1327.70
1043.606,1295.07
1044.547,1280.30
1045.487,1279.00
1046.427,1289.60
1047.368,1314.63
1048.308,1294.90
1049.248,1306.93
1050.188,1281.60
1051.128,1293.37
1052.067,1312.20
1053.007,1305.53
1053.947,1314.20
1054.886,1339.87
1055.827,1267.90
1056.766,1298.30
1057.706,1294.97
1058.645,1348.40
1059.584,1292.87
1060.522,1328.93
1061.461,1306.13
1062.400,1352.27
1063.338,1329.03
1064.277,1311.20
1065.215,1313.63
1066.154,1303.00
1067.092,1350.80
1068.030,1358.07
1068.968,1331.93
1069.906,1336.67
1070.843,1319.17
1071.781,1357.17
1072.720,1345.73
1073.658,1366.30
1074.595,1332.73
1075.533,1352.33
1076.470,1315.70
1077.407,1325.93
1078.344,1382.67
1079.281,1360.07
1080.217,1333.90
1081.154,1327.17
1082.091,1303.13
1083.027,1353.30
1083.964,1336.70
1084.900,1361.07
1085.836,1336.23
1086.772,1341.27
1087.708,1321.60
1088.644,1297.93
1089.580,1339.07
1090.515,1317.53
1091.451,1315.00
1092.388,1298.00
1093.324,1357.20
1094.259,1307.17
1095.194,1335.97
1096.129,1267.07
1097.064,1277.13
1097.999,1290.23
1098.934,1328.53
1099.869,1301.43
1100.803,1296.10
1101.738,1278.60
1102.672,1241.23
1103.607,1291.07
1104.541,1275.10
1105.475,1265.70
1106.409,1242.97
1107.343,1228.07
1108.277,1247.97
1109.210,1252.80
1110.144,1238.13
1111.078,1257.57
1112.011,1236.47
1112.944,1177.67
1113.878,1227.43
1114.811,1212.47
1115.744,1214.47
1116.678,1210.57
1117.611,1223.30
1118.544,1198.10
1119.477,1204.17
1120.409,1210.30
1121.342,1181.40
1122.274,1192.50
1123.206,1143.87
1124.138,1145.50
1125.070,1135.83
1126.002,1175.97
1126.934,1141.83
1127.866,1158.20
1128.798,1131.73
1129.729,1185.27
1130.661,1135.33
1131.592,1108.70
1132.523,1139.27
1133.454,1090.53
1134.385,1111.07
1135.317,1113.47
1136.247,1103.73
1137.178,1115.97
1138.109,1091.27
1139.039,1084.00
1139.970,1107.60
1140.900,1123.57
1141.831,1080.63
1142.761,1073.83
1143.691,1090.07
1144.621,1050.63
1145.551,1094.53
1146.480,1074.00
1147.410,1092.13
1148.340,1044.17
1149.269,1014.37
1150.199,1065.63
1151.128,1021.70
1152.057,1056.57
1152.979,1074.77
1153.898,1056.17
1154.819,1018.40
1155.739,1028.30
1156.658,1058.90
1157.579,1062.13
1158.498,1035.10
1159.419,1008.30
1160.338,1021.83
1161.256,1031.70
1162.177,1013.83
1163.095,1027.30
1164.016,1034.53
1164.934,1009.80
1165.852,999.53
1166.772,988.60
1167.690,986.50
1168.610,1025.00
1169.528,995.73
1170.446,985.23
1171.365,1010.37
1172.283,993.10
1173.202,1014.13
1174.120,964.80
1175.037,997.93
1175.956,997.03
1176.873,998.57
1177.792,994.20
1178.709,995.87
1179.626,982.53
1180.544,969.20
1181.461,1012.77
1182.379,983.50
1183.296,978.97
1184.212,987.93
1185.130,982.60
1186.046,942.93
1186.962,994.67
1187.880,984.73
1188.796,998.93
1189.714,975.53
1190.629,956.57
1191.545,950.47
1192.462,929.80
1193.378,941.67
1194.295,1003.23
1195.210,970.63
1196.125,992.33
1197.042,976.90
1197.957,992.10
1198.872,976.23
1199.788,976.67
1200.703,955.03
1201.619,960.17
1202.534,991.73
1203.448,955.83
1204.364,961.13
1205.278,961.70
1206.192,957.93
1207.108,983.27
1208.022,970.10
1208.938,982.87
1209.851,978.47
1210.765,993.97
1211.680,953.00
1212.594,962.67
1213.507,990.20
1214.422,931.47
1215.335,955.80
1216.248,981.00
1217.163,936.30
1218.076,915.10
1218.990,998.73
1219.903,984.80
1220.816,977.73
1221.730,937.83
1222.642,958.67
1223.554,975.97
1224.469,947.27
1225.380,997.73
1226.292,971.93
1227.206,950.47
1228.118,952.97
1229.032,966.73
1229.943,997.20
1230.855,932.87
1231.768,966.27
1232.679,980.13
1233.590,956.70
1234.503,949.73
1235.414,942.40
1236.325,999.43
1237.238,995.93
1238.149,971.87
1239.059,976.03
1239.972,984.90
1240.882,976.97
1241.793,962.97
1242.705,952.50
1243.615,968.90
1244.525,946.53
1245.437,1001.97
1246.347,988.40
1247.259,990.67
1248.168,987.97
1249.078,981.20
1249.989,972.87
1250.899,964.27
1251.808,974.53
1252.719,1019.80
1253.628,990.60
1254.537,991.13
1255.448,998.33
1256.357,939.57
1257.266,965.20
1258.176,945.07
1259.085,963.60
1259.993,994.93
1260.904,976.67
1261.812,983.97
1262.720,967.17
1263.630,999.63
1264.538,947.67
1265.446,986.73
1266.356,985.27
1267.263,972.80
1268.171,998.03
1269.080,989.87
1269.988,958.00
1270.895,1003.20
1271.804,973.13
1272.711,983.93
1273.619,964.00
1274.527,1014.60
1275.434,957.87
1276.341,969.27
1277.248,946.73
1278.156,1000.67
1279.063,975.63
1279.969,976.93
1280.877,924.93
1281.783,974.90
1282.690,924.00
1283.598,950.67
1284.503,967.20
1285.409,947.30
1286.317,947.03
1287.223,956.13
1288.128,964.37
1289.036,940.30
1289.941,943.60
1290.846,972.73
1291.751,941.23
1292.658,918.87
1293.563,956.13
1294.468,933.70
1295.375,953.53
1296.280,935.07
1297.184,908.77
1298.091,914.53
1298.995,921.80
1299.900,955.17
1300.806,887.67
1301.710,968.63
1302.614,883.23
1303.518,952.13
1304.424,947.80
1305.327,911.83
1306.231,942.00
1307.137,920.20
1308.040,889.47
1308.943,910.17
1309.847,895.27
1310.752,912.50
1311.655,919.47
1312.558,909.20
1313.463,916.63
1314.366,897.37
1315.269,933.13
1316.171,911.23
1317.076,896.20
1317.978,887.93
1318.881,865.83
1319.785,839.57
1320.687,864.80
1321.589,915.83
1322.491,905.80
1323.395,851.93
1324.297,828.00
1325.198,855.23
1326.102,890.73
1327.004,854.20
1327.905,898.80
1328.806,848.20
1329.709,885.07
1330.611,868.07
1331.512,847.97
1332.413,836.93
1333.316,819.17
1334.216,816.30
1335.117,830.53
1336.020,847.00
1336.920,821.67
1337.821,860.33
1338.721,865.23
1339.623,853.60
1340.523,813.60
1341.423,809.00
1342.323,790.63
1343.225,856.13
1344.125,833.30
1345.025,829.63
1345.924,837.13
1346.826,816.57
1347.725,776.67
1348.624,799.93
1349.524,837.57
1350.425,807.40
1351.324,855.00
1352.223,813.97
1353.121,855.80
1354.022,820.23
1354.921,819.57
1355.819,775.10
1356.718,809.53
1357.618,760.37
1358.516,780.57
1359.415,795.00
1360.313,764.23
1361.213,831.40
1362.111,729.13
1363.008,791.23
1363.906,781.60
1364.806,767.97
1365.703,799.57
1366.601,738.63
1367.498,712.53
1368.397,773.10
1369.295,783.80
1370.192,765.20
1371.089,789.90
1371.987,770.17
1372.884,744.67
1373.781,746.23
1374.678,756.40
1375.574,762.73
1376.473,742.80
1377.369,731.03
1378.265,778.23
1379.161,789.40
1380.059,760.73
1380.955,742.73
1381.851,748.60
1382.747,757.03
1383.643,756.47
1384.540,752.13
1385.436,758.40
1386.331,732.13
1387.227,755.83
1388.124,729.57
1389.019,758.83
1389.914,737.97
1390.809,748.60
1391.704,745.30
1392.601,742.43
1393.495,730.10
1394.390,691.00
1395.285,729.57
1396.179,728.73
1397.075,738.93
1397.969,678.10
1398.864,706.40
1399.758,718.77
1400.652,734.13
1401.547,746.27
1402.441,713.97
1403.335,706.13
1404.229,728.93
1405.122,718.47
1406.017,709.13
1406.911,723.67
1407.804,702.07
1408.697,709.20
1409.590,715.23
1410.485,698.50
1411.378,672.57
1412.271,699.00
1413.163,703.83
1414.056,690.13
1414.949,708.63
1415.843,689.33
1416.735,656.33
1417.627,682.20
1418.520,690.13
1419.412,681.87
1420.306,682.90
1421.197,689.00
1422.089,719.63
1422.981,728.57
1423.873,680.53
1424.764,645.80
1425.657,694.97
1426.549,721.13
1427.440,685.33
1428.331,689.03
1429.222,672.33
1430.113,654.87
1431.006,707.70
1431.897,667.57
1432.787,709.17
1433.678,680.07
1434.568,699.03
1435.459,684.13
1436.351,684.20
1437.241,665.80
1438.131,693.67
1439.021,688.33
1439.911,702.07
1440.801,680.20
1441.693,656.33
1442.583,687.10
1443.472,667.00
1444.362,671.70
1445.251,654.00
1446.140,707.47
1447.030,670.70
1447.921,683.77
1448.810,682.40
1449.699,683.10
1450.588,659.73
1451.476,672.27
1452.365,674.23
1453.254,640.57
1454.144,645.83
1455.032,637.00
1455.921,671.43
1456.809,643.20
1457.697,646.00
1458.585,634.97
1459.473,674.47
1460.361,651.67
1461.251,665.23
1462.138,674.07
1463.026,616.87
1463.913,642.43
1464.801,610.50
1465.688,614.93
1466.575,649.60
1467.463,629.17
1468.351,646.27
1469.238,629.30
1470.125,666.27
1471.012,654.53
1471.899,627.47
1472.785,659.40
1473.672,612.33
1474.558,625.83
1475.446,604.70
1476.333,674.10
1477.219,615.97
1478.105,679.00
1478.991,613.70
1479.877,572.30
1480.762,673.23
1481.648,635.77
1482.534,615.50
1483.419,596.20
1484.307,597.97
1485.192,638.97
1486.077,614.10
1486.962,579.80
1487.847,607.10
1488.732,664.23
1489.617,637.57
1490.502,639.10
1491.387,649.40
1492.271,616.83
1493.156,636.70
1494.042,584.47
1494.927,611.77
1495.811,587.17
1496.695,667.10
1497.579,584.47
1498.463,629.67
1499.347,613.80
1500.231,609.73
1501.114,594.03
1501.998,590.23
1502.881,610.70
1503.765,618.33
1504.648,615.07
1505.533,608.30
1506.417,613.50
1507.300,570.50
1508.183,585.60
1509.066,610.77
1509.948,560.40
1510.831,622.23
1511.714,582.13
1512.596,582.70
1513.479,595.30
1514.361,565.77
1515.243,603.40
1516.125,595.17
1517.008,588.33
1517.890,558.97
1518.771,602.87
1519.655,581.73
1520.537,579.03
1521.419,554.87
1522.300,590.20
1523.182,553.33
1524.063,591.97
1524.944,603.63
1525.825,554.47
1526.707,607.90
1527.588,594.40
1528.468,570.77
1529.349,593.00
1530.230,565.73
1531.111,571.33
1531.991,608.80
1532.872,577.23
1533.752,583.80
1534.632,582.70
1535.513,581.93
1536.393,572.97
1537.273,559.97
1538.153,626.70
1539.032,581.57
1539.912,566.47
1540.792,600.77
1541.672,596.57
1542.551,598.03
1543.430,544.83
1544.310,622.50
1545.189,561.97
1546.068,574.87
1546.947,580.13
1547.826,582.70
1548.705,553.17
1549.584,554.07
1550.462,534.67
1551.341,586.17
1552.219,555.47
1553.098,560.73
1553.976,584.37
1554.854,552.70
1555.733,571.20
1556.611,571.13
1557.489,593.70
1558.367,559.10
1559.244,527.97
1560.122,562.53
1561.000,574.53
1561.877,554.77
1562.755,525.70
1563.632,588.03
1564.509,584.93
1565.386,568.07
1566.264,580.60
1567.141,551.03
1568.017,576.53
1568.894,529.13
1569.771,551.00
1570.648,589.30
1571.524,580.27
1572.401,554.27
1573.277,534.93
1574.153,576.67
1575.029,549.73
1575.906,574.70
1576.781,539.37
1577.657,528.80
1578.533,555.57
1579.409,552.60
1580.285,551.63
1581.160,541.53
1582.036,543.60
1582.911,536.03
1583.786,503.63
1584.662,545.03
1585.537,543.73
1586.412,539.10
1587.287,565.83
1588.160,528.27
1589.035,524.80
1589.909,487.97
1590.784,538.47
1591.658,529.87
1592.533,533.73
1593.407,541.13
1594.281,542.00
1595.155,514.07
1596.029,557.20
1596.903,539.27
1597.777,512.97
1598.651,532.43
1599.525,528.87
1600.398,471.00
1601.272,522.03
1602.144,550.37
1603.017,523.53
1603.890,542.10
1604.763,514.40
1605.636,555.23
1606.509,500.33
1607.382,523.40
1608.255,506.67
1609.128,537.83
1610.000,494.27
1610.873,546.53
1611.746,554.60
1612.616,554.93
1613.488,539.80
1614.361,495.60
1615.233,515.73
1616.105,500.47
1616.977,528.13
1617.849,513.20
1618.720,531.40
1619.592,558.30
1620.464,505.70
1621.333,534.33
1622.205,524.17
1623.076,541.73
1623.947,552.03
1624.818,513.70
1625.689,559.30
1626.560,488.63
1627.431,512.53
1628.302,520.70
1629.171,517.17
1630.042,531.87
1630.912,492.07
1631.782,453.70
1632.653,542.87
1633.523,509.27
1634.393,503.10
1635.263,503.47
1636.131,547.47
1637.001,495.70
1637.871,518.00
1638.741,484.00
1639.611,527.43
1640.480,543.27
1641.350,493.57
1642.219,528.60
1643.087,555.80
1643.956,535.73
1644.825,509.27
1645.694,533.97
1646.563,494.50
1647.432,486.50
1648.299,515.47
1649.167,506.23
1650.036,527.00
1650.904,526.37
1651.773,514.77
1652.641,511.27
1653.509,509.07
1654.376,500.70
1655.244,503.67
1656.112,479.43
1656.980,493.50
1657.847,523.40
1658.715,525.40
1659.581,522.83
1660.448,523.13
1661.316,457.37
1662.183,511.23
1663.051,487.83
1663.918,512.63
1664.783,526.57
1665.650,501.83
1666.517,550.23
1667.384,520.73
1668.251,507.00
1669.115,496.73
1669.982,494.13
1670.849,483.10
1671.715,486.00
1672.581,483.03
1673.446,484.53
1674.312,485.40
1675.178,462.57
1676.044,510.37
1676.910,515.00
1677.774,543.07
1678.639,513.47
1679.505,503.80
1680.370,501.80
1681.236,471.50
1682.099,479.40
1682.965,510.23
1683.830,494.80
1684.695,493.03
1685.560,480.07
1686.423,505.50
1687.288,496.27
1688.153,490.70
1689.017,498.90
1689.880,497.60
1690.745,541.30
1691.609,471.50
1692.473,485.90
1693.338,482.70
1694.200,498.27
1695.064,471.23
1695.928,473.23
1696.792,468.43
1697.654,465.07
1698.517,446.23
1699.381,489.90
1700.245,464.80
1701.106,498.37
1701.969,447.03
1702.833,481.37
1703.696,455.50
1704.557,469.07
1705.420,482.23
1706.283,493.00
1707.146,491.13
1708.007,456.47
1708.870,465.60
1709.732,485.63
1710.595,468.10
1711.455,478.93
1712.318,495.73
1713.180,435.53
1714.040,504.03
1714.902,482.63
1715.764,477.93
1716.626,485.00
1717.486,496.73
1718.348,480.83
1719.209,492.67
1720.071,461.50
1720.930,499.13
1721.792,508.20
1722.653,437.60
1723.512,455.23
1724.374,454.17
1725.234,488.37
1726.095,479.97
1726.954,461.00
1727.815,451.70
1728.676,482.57
1729.535,463.67
1730.395,466.63
1731.256,453.53
1732.114,493.90
1732.974,456.97
1733.834,475.33
1734.693,489.83
1735.553,492.87
1736.413,490.83
1737.272,478.43
1738.130,499.40
1738.990,501.57
1739.849,461.40
1740.707,444.20
1741.566,496.60
1742.426,488.00
1743.283,476.60
1744.142,480.60
1745.001,475.37
1745.858,448.97
1746.717,465.83
1747.576,479.00
1748.433,437.70
1749.292,473.80
1750.150,465.03
1751.007,508.17
1751.865,430.90
1752.723,460.03
1753.579,442.60
1754.438,482.80
1755.296,442.50
1756.152,466.63
1757.010,491.80
1757.865,433.00
1758.723,508.93
1759.581,478.27
1760.436,462.83
1761.294,451.53
1762.151,475.07
1763.006,456.17
1763.864,479.20
1764.721,411.27
1765.576,454.43
1766.433,445.77
1767.288,461.77
1768.144,536.07
1769.001,463.23
1769.856,427.07
1770.712,468.80
1771.568,475.47
1772.423,468.90
1773.279,493.63
1774.133,435.90
1774.989,482.10
1775.845,429.30
1776.699,469.60
1777.555,455.40
1778.409,492.57
1779.265,448.40
1780.120,451.27
1780.974,479.57
1781.829,451.97
1782.682,469.47
1783.538,481.37
1784.393,476.07
1785.246,469.47
1786.101,447.43
1786.954,459.63
1787.808,444.77
1788.661,496.87
1789.516,470.97
1790.370,387.27
1791.223,459.67
1792.077,426.77
1792.930,470.40
1793.784,446.17
1794.636,456.60
1795.490,429.70
1796.344,494.80
1797.196,426.63
1798.049,423.70
1798.901,483.27
1799.755,491.07
1800.606,426.17
1801.460,445.33
1802.311,508.30
1803.165,437.00
1804.018,416.40
1804.869,427.67
1805.722,448.07
1806.573,484.87
1807.426,437.23
1808.276,434.77
1809.129,451.70
1809.980,458.77
1810.832,478.87
1811.683,467.70
1812.535,458.30
1813.385,426.17
1814.237,422.97
1815.089,427.47
1815.940,434.57
1816.791,484.67
1817.641,440.00
1818.493,419.07
1819.343,451.97
1820.194,435.67
1821.044,445.53
1821.895,426.33
1822.745,457.87
1823.596,442.10
1824.445,434.27
1825.296,440.27
1826.145,431.63
1826.996,453.80
1827.845,469.20
1828.695,446.20
1829.544,407.57
1830.395,421.30
1831.243,438.57
1832.094,424.50
1832.942,435.53
1833.792,434.67
1834.640,424.53
1835.490,452.50
1836.338,442.40
1837.186,456.97
1838.036,396.50
1838.884,446.73
1839.733,424.17
1840.581,452.13
1841.430,452.67
1842.278,411.17
1843.127,416.33
1843.974,432.93
1844.823,456.00
1845.671,442.60
1846.519,441.53
1847.366,387.03
1848.213,424.40
1849.062,412.60
1849.909,433.30
1850.757,431.30
1851.604,483.23
1852.452,432.93
1853.298,375.33
1854.146,455.97
1854.993,424.00
1855.839,455.00
1856.687,426.73
1857.532,422.20
1858.380,426.23
1859.226,456.63
1860.073,469.20
1860.919,437.93
1861.765,408.10
1862.612,397.40
1863.457,437.70
1864.304,427.37
1865.150,464.47
1865.995,436.10
1866.842,435.23
1867.686,388.47
1868.533,420.73
1869.378,408.43
1870.223,391.40
1871.069,366.23
1871.914,433.07
1872.760,463.23
1873.604,442.43
1874.448,427.07
1875.294,409.07
1876.139,414.03
1876.984,417.67
1877.828,412.87
1878.672,424.83
1879.518,438.43
1880.361,445.23
1881.205,434.17
1882.050,422.43
1882.894,431.93
1883.739,429.23
1884.582,419.47
1885.425,439.30
1886.270,464.63
1887.113,465.23
1887.956,438.67
1888.801,423.43
1889.644,440.10
1890.486,454.57
1891.331,456.63
1892.173,392.60
1893.017,447.97
1893.860,432.47
1894.702,441.10
1895.546,430.17
1896.388,415.87
1897.230,415.07
1898.074,401.77
1898.916,410.13
1899.757,412.03
1900.601,395.33
1901.443,420.90
1902.284,404.53
1903.125,453.77
1903.969,415.77
1904.810,434.90
1905.651,376.70
1906.494,416.80
1907.335,414.20
1908.176,398.60
1909.018,413.27
1909.859,423.77
1910.700,407.90
1911.542,410.43
1912.383,473.60
1913.223,434.77
1914.064,402.53
1914.906,357.07
1915.746,412.33
1916.586,427.50
1917.428,413.67
1918.268,425.13
1919.107,423.13
1919.947,399.67
1920.789,371.50
1921.628,413.47
1922.468,443.70
1923.309,406.57
1924.148,380.63
1924.988,448.93
1925.827,423.80
1926.667,408.13
1927.507,421.20
1928.345,404.27
1929.184,449.67
1930.025,355.27
1930.864,384.03
1931.702,412.50
1932.541,426.23
1933.381,406.97
1934.219,428.73
1935.057,355.03
1935.896,419.23
1936.735,427.53
1937.573,412.20
1938.411,437.83
1939.249,407.93
1940.089,423.07
1940.927,376.90
1941.764,431.90
1942.602,413.87
1943.439,408.27
1944.278,415.93
1945.115,412.70
1945.953,421.00
1946.790,417.00
1947.628,430.83
1948.465,426.07
1949.302,402.73
1950.139,420.83
1950.976,414.33
1951.814,364.43
1952.651,420.67
1953.487,424.30
1954.323,419.53
1955.160,440.20
1955.998,420.87
1956.834,427.03
1957.670,408.27
1958.506,409.00
1959.342,380.73
1960.177,405.47
1961.015,391.47
1961.850,434.10
1962.686,406.43
1963.521,414.20
1964.357,422.83
1965.192,389.43
1966.029,416.10
1966.864,407.03
1967.699,409.23
1968.534,402.67
1969.369,391.03
1970.204,448.57
1971.040,389.23
1971.875,428.10
1972.709,409.87
1973.544,369.37
1974.378,431.53
1975.212,431.13
1976.047,366.23
1976.882,392.33
1977.716,407.17
1978.550,410.17
1979.384,423.20
1980.218,413.70
1981.052,406.23
1981.885,423.73
1982.719,399.07
1983.554,387.27
1984.388,416.20
1985.221,421.17
1986.054,431.70
1986.887,430.63
1987.720,385.13
1988.553,401.33
1989.386,417.63
1990.219,418.70
1991.053,403.17
1991.886,427.13
1992.719,392.87
1993.551,435.37
1994.383,411.57
1995.216,384.67
1996.048,380.83
1996.880,397.87
1997.712,390.67
1998.544,393.53
1999.376,380.03
2000.208,387.67
2001.040,344.43
2001.873,384.93
2002.705,407.33
2003.536,422.70
2004.367,376.67
2005.199,408.40
2006.030,402.93
2006.861,397.30
2007.692,425.23
2008.523,402.53
2009.354,414.23
2010.185,354.53
2011.016,405.37
2011.846,396.47
2012.677,411.00
2013.507,423.57
2014.338,389.23
2015.168,410.03
2015.999,384.30
2016.829,397.80
2017.659,410.97
2018.489,386.30
2019.319,416.33
2020.149,391.00
2020.980,450.63
2021.810,376.30
2022.639,416.33
2023.469,397.50
2024.298,404.40
2025.128,390.67
2025.957,376.97
2026.786,416.00
2027.615,389.83
2028.444,419.87
2029.273,384.00
2030.102,398.47
2030.931,392.20
2031.758,387.10
2032.586,424.73
2033.415,434.87
2034.243,392.47
2035.072,416.10
2035.900,443.17
2036.728,410.23
2037.556,399.03
2038.385,388.53
2039.213,396.40
2040.040,436.57
2040.868,406.67
2041.696,438.63
2042.524,385.67
2043.351,415.93
2044.179,402.93
2045.006,405.53
2045.006,405.53

Max Intensity Wave.,216.841
Max Intensity Data,5069.27
Min Intensity Wave.,2001.040
Min Intensity Data,344.43
FWHM Wave.,400.645
FWHM Value,1.34
Pressure Wave.,684.671
Pressure Value [GPa],-24.91530
G/D Ratio,0.64292
G/D Gband Wave.,1544.364
G/D Gband Intensity,622.77
G/D Dband Wave.,1301.698
G/D Dband Intensity,968.65

<< BACKGROUND SPECTRUM >>
Wave[dcm-1],No15
146.591,2409.00
147.626,2212.00
148.664,2192.00
149.699,2676.00
150.737,2406.00
151.772,2530.00
152.809,2568.00
153.846,2476.00
154.881,2545.00
155.918,2069.00
156.953,2461.00
157.989,2776.00
159.026,2636.00
160.060,2847.00
161.096,3067.00
162.130,2671.00
163.167,2736.00
164.200,2612.00
165.236,2847.00
166.272,2867.00
167.305,2407.00
168.341,2712.00
169.374,2960.00
170.409,2962.00
171.445,2890.00
172.477,2670.00
173.512,2561.00
174.545,2841.00
175.580,3045.00
176.614,3240.00
177.647,2992.00
178.681,3254.00
179.713,3563.00
180.747,3022.00
181.781,2880.00
182.813,3177.00
183.847,3301.00
184.878,2847.00
185.912,3185.00
186.945,3349.00
187.976,3255.00
189.010,2914.00
190.043,3042.00
191.073,3139.00
192.106,2902.00
193.137,3398.00
194.170,2740.00
195.202,3089.00
196.232,2859.00
197.265,3201.00
198.297,3268.00
199.327,2945.00
200.359,3159.00
201.388,3570.00
202.420,3110.00
203.452,3304.00
204.481,2843.00
205.512,3502.00
206.544,3285.00
207.573,3236.00
208.604,3636.00
209.635,3739.00
210.663,3180.00
211.694,3166.00
212.725,3001.00
213.753,3004.00
214.783,3591.00
215.813,3468.00
216.841,3184.00
217.871,3378.00
218.899,3089.00
219.929,3339.00
220.959,3060.00
221.986,3353.00
223.016,2913.00
224.045,3367.00
225.072,3279.00
226.101,3413.00
227.130,3462.00
228.157,3010.00
229.185,2506.00
230.214,3370.00
231.241,3003.00
232.269,2608.00
233.297,2865.00
234.323,3452.00
235.351,3008.00
236.379,3302.00
237.407,2965.00
238.433,3154.00
239.460,3317.00
240.488,3325.00
241.513,3417.00
242.540,3274.00
243.568,3428.00
244.592,3475.00
245.619,3406.00
246.646,3163.00
247.671,3137.00
248.697,2992.00
249.724,3223.00
250.748,3213.00
251.774,3190.00
252.801,3522.00
253.827,3332.00
254.850,3323.00
255.876,2827.00
256.902,3352.00
257.925,3172.00
258.951,2905.00
259.976,2931.00
260.999,3347.00
262.024,3016.00
263.049,3881.00
264.074,3342.00
265.097,3262.00
266.122,3331.00
267.146,3240.00
268.168,3443.00
269.193,3044.00
270.217,3436.00
271.241,2850.00
272.263,3080.00
273.287,3398.00
274.311,2973.00
275.332,3496.00
276.356,3044.00
277.379,3300.00
278.402,3341.00
279.424,3123.00
280.447,3064.00
281.470,2889.00
282.492,3316.00
283.513,3091.00
284.536,3399.00
285.558,3384.00
286.581,3319.00
287.601,3036.00
288.623,2998.00
289.645,3258.00
290.665,3357.00
291.687,3330.00
292.709,3309.00
293.730,3661.00
294.750,3073.00
295.771,2942.00
296.792,3276.00
297.813,3106.00
298.832,3283.00
299.853,2898.00
300.874,3197.00
301.895,3192.00
302.913,3197.00
303.934,3499.00
304.954,3188.00
305.975,3406.00
306.993,2897.00
308.013,3335.00
309.033,3242.00
310.052,3105.00
311.072,3064.00
312.090,3238.00
313.109,3450.00
314.129,3685.00
315.148,3223.00
316.165,3312.00
317.184,3424.00
318.203,2913.00
319.222,2950.00
320.238,3366.00
321.257,3052.00
322.275,2881.00
323.294,3207.00
324.312,3352.00
325.328,3472.00
326.346,3525.00
327.364,3463.00
328.382,3346.00
329.397,3317.00
330.415,3432.00
331.432,3443.00
332.450,3519.00
333.467,3672.00
334.482,2754.00
335.499,3561.00
336.516,3075.00
337.533,2727.00
338.547,3060.00
339.564,3069.00
340.580,3283.00
341.597,3123.00
342.613,3682.00
343.627,3181.00
344.643,3230.00
345.659,3339.00
346.675,3198.00
347.690,3088.00
348.704,3287.00
349.719,3077.00
350.735,2911.00
351.750,3425.00
352.765,3181.00
353.778,3166.00
354.793,3371.00
355.808,3010.00
356.822,3418.00
357.837,2791.00
358.851,3481.00
359.864,3175.00
360.878,2913.00
361.892,3125.00
362.906,3415.00
363.920,2722.00
364.932,3243.00
365.945,3307.00
366.959,3182.00
367.972,3138.00
368.986,2873.00
369.999,3651.00
371.010,3054.00
372.023,3580.00
373.036,3116.00
374.049,3622.00
375.061,3302.00
376.072,3168.00
377.084,3052.00
378.097,2848.00
379.109,3417.00
380.121,3204.00
381.133,2861.00
382.143,3372.00
383.155,2928.00
384.166,3095.00
385.178,3316.00
386.189,3430.00
387.201,2889.00
388.212,3104.00
389.221,3131.00
390.232,3233.00
391.243,3112.00
392.254,3246.00
393.264,3076.00
394.275,3438.00
395.283,3398.00
396.294,3861.00
397.304,3713.00
398.314,3325.00
399.324,3248.00
400.334,2792.00
401.344,3342.00
402.351,2815.00
403.361,3439.00
404.370,3188.00
405.380,3116.00
406.389,3577.00
407.398,3315.00
408.407,3247.00
409.414,3385.00
410.423,3528.00
411.431,2970.00
412.440,2875.00
413.448,3583.00
414.457,3046.00
415.465,2981.00
416.471,3072.00
417.479,3227.00
418.487,2994.00
419.495,3541.00
420.503,3338.00
421.510,2788.00
422.518,3367.00
423.525,3416.00
424.530,3627.00
425.537,3104.00
426.544,3481.00
427.551,3011.00
428.558,3836.00
429.565,3694.00
430.571,3068.00
431.578,3090.00
432.582,3046.00
433.588,3164.00
434.595,2768.00
435.601,3537.00
436.607,3409.00
437.612,2940.00
438.618,3561.00
439.624,3156.00
440.627,3110.00
441.633,3318.00
442.638,3876.00
443.643,3351.00
444.648,3260.00
445.653,3413.00
446.658,3092.00
447.663,3220.00
448.667,3094.00
449.672,3132.00
450.674,3171.00
451.678,2892.00
452.682,3076.00
453.687,3024.00
454.690,3857.00
455.694,3495.00
456.698,2721.00
457.702,2840.00
458.705,2972.00
459.709,2974.00
460.710,3082.00
461.713,3202.00
462.716,3237.00
463.719,3196.00
464.722,3385.00
465.725,3132.00
466.727,2977.00
467.730,3254.00
468.732,2956.00
469.735,3534.00
470.737,3112.00
471.737,3075.00
472.739,3093.00
473.741,2993.00
474.742,3264.00
475.744,3265.00
476.746,3254.00
477.747,3155.00
478.748,3366.00
479.750,3104.00
480.751,3199.00
481.752,4000.00
482.753,3283.00
483.751,3832.00
484.752,2789.00
485.753,3194.00
486.753,3069.00
487.753,3155.00
488.754,3653.00
489.754,2899.00
490.754,3568.00
491.754,3323.00
492.754,2890.00
493.753,3211.00
494.753,3098.00
495.752,3537.00
496.752,3227.00
497.749,3200.00
498.748,3059.00
499.747,3676.00
500.746,3326.00
501.745,2954.00
502.744,2912.00
503.742,3531.00
504.741,3125.00
505.739,2596.00
506.737,3024.00
507.735,3333.00
508.734,3595.00
509.732,3350.00
510.729,3560.00
511.727,3073.00
512.725,3094.00
513.720,2942.00
514.718,3469.00
515.715,2885.00
516.712,2826.00
517.709,3160.00
518.706,3081.00
519.703,3215.00
520.700,3438.00
521.696,3549.00
522.693,3092.00
523.689,3030.00
524.686,3394.00
525.682,2941.00
526.678,3719.00
527.674,3121.00
528.670,2709.00
529.666,3729.00
530.661,3682.00
531.657,3874.00
532.652,3407.00
533.648,3210.00
534.641,3423.00
535.636,3248.00
536.631,3328.00
537.626,3338.00
538.621,2925.00
539.616,2770.00
540.610,2648.00
541.605,3164.00
542.599,3285.00
543.593,3174.00
544.587,4088.00
545.581,3004.00
546.575,3244.00
547.569,3219.00
548.563,2873.00
549.557,2833.00
550.550,2953.00
551.543,2937.00
552.537,3335.00
553.530,2943.00
554.523,2939.00
555.516,3334.00
556.509,3146.00
557.502,2795.00
558.494,3443.00
559.487,3086.00
560.479,3416.00
561.472,3460.00
562.464,3363.00
563.456,3510.00
564.448,3141.00
565.440,3184.00
566.432,3629.00
567.423,3087.00
568.415,3101.00
569.404,3302.00
570.396,3008.00
571.387,3326.00
572.378,3206.00
573.369,4210.00
574.360,3892.00
575.351,3176.00
576.341,3024.00
577.332,3056.00
578.323,2840.00
579.313,3052.00
580.303,3437.00
581.293,3317.00
582.283,3168.00
583.273,3285.00
584.263,3212.00
585.253,3263.00
586.243,3350.00
587.232,2800.00
588.222,3122.00
589.211,3380.00
590.200,3219.00
591.189,3124.00
592.178,3176.00
593.167,3621.00
594.156,3485.00
595.145,3075.00
596.133,3696.00
597.122,3304.00
598.110,3426.00
599.098,3271.00
600.086,3171.00
601.074,3385.00
602.062,2992.00
603.050,2916.00
604.038,3294.00
605.025,2990.00
606.013,3426.00
607.000,3577.00
607.987,3224.00
608.975,3309.00
609.962,2953.00
610.949,3353.00
611.936,3470.00
612.922,3388.00
613.909,2898.00
614.895,3602.00
615.882,2991.00
616.868,3173.00
617.854,2920.00
618.841,3189.00
619.826,3341.00
620.812,3191.00
621.798,2966.00
622.784,3384.00
623.769,3295.00
624.755,2882.00
625.740,3258.00
626.725,2876.00
627.711,3045.00
628.698,3275.00
629.683,2985.00
630.667,3388.00
631.652,2937.00
632.637,3162.00
633.621,3390.00
634.606,3091.00
635.590,3296.00
636.574,3115.00
637.558,3256.00
638.542,3257.00
639.526,3034.00
640.510,2792.00
641.493,3215.00
642.477,3157.00
643.460,2850.00
644.444,3433.00
645.427,3449.00
646.410,2815.00
647.393,3138.00
648.376,3289.00
649.359,3098.00
650.341,3307.00
651.324,3246.00
652.307,3264.00
653.289,3111.00
654.271,3048.00
655.253,3079.00
656.235,3341.00
657.217,3457.00
658.199,2806.00
659.181,2933.00
660.163,3186.00
661.144,3038.00
662.126,3058.00
663.107,2960.00
664.088,5007.00
665.069,3405.00
666.050,3012.00
667.033,2873.00
668.014,3224.00
668.995,2730.00
669.975,3151.00
670.956,3148.00
671.936,3327.00
672.916,3145.00
673.896,3293.00
674.876,3067.00
675.856,3036.00
676.836,2910.00
677.816,2459.00
678.795,2975.00
679.775,2846.00
680.754,3237.00
681.734,3393.00
682.713,3367.00
683.692,2939.00
684.671,2792.00
685.650,2914.00
686.629,3066.00
687.607,2883.00
688.586,2962.00
689.564,3048.00
690.543,3504.00
691.523,2492.00
692.501,2999.00
693.479,3097.00
694.457,2968.00
695.435,3032.00
696.413,2825.00
697.390,2650.00
698.368,2846.00
699.345,3289.00
700.322,3133.00
701.300,3251.00
702.277,3233.00
703.254,3465.00
704.231,2710.00
705.207,3159.00
706.184,2955.00
707.161,2830.00
708.137,2999.00
709.113,2984.00
710.090,3007.00
711.068,2742.00
712.044,2808.00
713.020,2970.00
713.996,2757.00
714.971,2959.00
715.947,3029.00
716.922,2993.00
717.898,2865.00
718.873,3074.00
719.848,2930.00
720.823,2847.00
721.798,3139.00
722.773,2883.00
723.748,2677.00
724.723,3221.00
725.697,2999.00
726.672,2947.00
727.646,2659.00
728.622,3186.00
729.596,2727.00
730.570,2903.00
731.544,3235.00
732.518,3479.00
733.492,3016.00
734.466,3051.00
735.439,3206.00
736.413,3327.00
737.386,2574.00
738.359,2544.00
739.332,2671.00
740.305,3000.00
741.278,3558.00
742.251,3093.00
743.224,2889.00
744.196,2679.00
745.171,3333.00
746.143,3201.00
747.115,2911.00
748.087,2883.00
749.059,3271.00
750.031,3099.00
751.003,3911.00
751.975,3459.00
752.947,2846.00
753.918,3287.00
754.890,2735.00
755.861,2930.00
756.832,3227.00
757.803,3032.00
758.774,3030.00
759.747,2750.00
760.718,3428.00
761.689,2935.00
762.659,2729.00
763.630,3336.00
764.600,2716.00
765.570,3240.00
766.540,3334.00
767.510,3082.00
768.480,3200.00
769.450,2880.00
770.420,2988.00
771.390,2812.00
772.359,2948.00
773.329,2820.00
774.300,2668.00
775.269,2908.00
776.238,3208.00
777.207,3381.00
778.176,2676.00
779.145,2988.00
780.114,2832.00
781.083,2692.00
782.051,2927.00
783.019,2825.00
783.988,3325.00
784.956,2976.00
785.924,3149.00
786.894,3063.00
787.862,2863.00
788.830,3298.00
789.797,2792.00
790.765,2718.00
791.732,2935.00
792.700,2807.00
793.667,2717.00
794.634,2920.00
795.601,2888.00
796.568,2946.00
797.535,3007.00
798.502,3643.00
799.468,3113.00
800.437,2536.00
801.403,2837.00
802.370,3466.00
803.336,3127.00
804.302,3046.00
805.268,2593.00
806.234,2703.00
807.200,2892.00
808.166,2963.00
809.131,2740.00
810.097,3122.00
811.062,3875.00
812.027,3192.00
812.994,2727.00
813.960,2772.00
814.925,3101.00
815.889,2643.00
816.854,3156.00
817.819,2779.00
818.783,2924.00
819.748,3311.00
820.712,2894.00
821.677,2748.00
822.641,2863.00
823.605,2900.00
824.571,3319.00
825.534,2897.00
826.498,2829.00
827.462,2959.00
828.425,2764.00
829.389,3275.00
830.352,2963.00
831.315,3075.00
832.279,2635.00
833.242,2968.00
834.204,2826.00
835.167,2815.00
836.132,3227.00
837.095,2682.00
838.057,2844.00
839.020,2989.00
839.982,3030.00
840.944,2847.00
841.906,2765.00
842.868,3117.00
843.830,2683.00
844.792,3204.00
845.753,2858.00
846.715,2591.00
847.679,2747.00
848.640,2738.00
849.601,2881.00
850.562,3485.00
851.523,2906.00
852.484,2626.00
853.445,3189.00
854.406,2874.00
855.367,2866.00
856.327,3217.00
857.288,2621.00
858.248,2843.00
859.210,2833.00
860.170,2637.00
861.130,3206.00
862.090,2518.00
863.050,2747.00
864.010,2819.00
864.969,3054.00
865.929,2765.00
866.888,2633.00
867.848,2950.00
868.807,2798.00
869.766,3040.00
870.727,2878.00
871.686,3170.00
872.645,3149.00
873.604,3484.00
874.562,2956.00
875.521,2988.00
876.479,3545.00
877.437,2738.00
878.396,2729.00
879.354,3352.00
880.312,2784.00
881.270,2807.00
882.229,3268.00
883.187,2738.00
884.145,2793.00
885.102,3081.00
886.059,2975.00
887.017,3061.00
887.974,3141.00
888.931,3246.00
889.888,2643.00
890.845,2595.00
891.802,2475.00
892.758,2786.00
893.717,2552.00
894.673,2742.00
895.630,2763.00
896.586,3094.00
897.542,2845.00
898.498,2652.00
899.454,3005.00
900.410,2807.00
901.366,2829.00
902.321,2755.00
903.277,2836.00
904.232,2898.00
905.189,2643.00
906.145,2779.00
907.100,2323.00
908.055,2897.00
909.010,3057.00
909.965,2471.00
910.919,2951.00
911.874,2719.00
912.828,2898.00
913.783,2963.00
914.737,2495.00
915.693,2906.00
916.648,3058.00
917.602,3140.00
918.555,2947.00
919.509,2998.00
920.463,2881.00
921.417,2909.00
922.370,2685.00
923.324,2831.00
924.277,2813.00
925.230,2935.00
926.183,2535.00
927.138,2806.00
928.091,3118.00
929.044,2963.00
929.996,2806.00
930.949,2810.00
931.902,2985.00
932.854,3012.00
933.806,2746.00
934.758,3161.00
935.711,3144.00
936.663,2903.00
937.614,2969.00
938.568,2896.00
939.520,2486.00
940.471,2808.00
941.423,2919.00
942.374,3042.00
943.326,2929.00
944.277,2789.00
945.228,2992.00
946.179,2823.00
947.130,3217.00
948.080,2798.00
949.031,2695.00
949.984,2845.00
950.934,2859.00
951.884,2606.00
952.835,2833.00
953.785,2922.00
954.735,2731.00
955.685,2475.00
956.635,2753.00
957.585,2794.00
958.534,2753.00
959.484,2854.00
960.433,2746.00
961.383,2591.00
962.334,3129.00
963.283,2903.00
964.232,3036.00
965.181,2889.00
966.130,2954.00
967.079,2762.00
968.027,2903.00
968.976,2893.00
969.924,2734.00
970.873,3005.00
971.821,2920.00
972.769,3106.00
973.719,2979.00
974.667,2624.00
975.615,2899.00
976.562,2889.00
977.510,2581.00
978.458,2759.00
979.405,2981.00
980.352,2891.00
981.300,3098.00
982.247,2923.00
983.194,2666.00
984.141,2783.00
985.088,2911.00
986.036,2924.00
986.983,3171.00
987.930,3296.00
988.876,2502.00
989.822,3146.00
990.769,2713.00
991.715,2746.00
992.661,2580.00
993.607,2948.00
994.553,3472.00
995.498,2735.00
996.444,2397.00
997.389,2948.00
998.337,2692.00
999.282,3037.00
1000.227,2774.00
1001.173,2858.00
1002.118,2573.00
1003.062,3048.00
1004.007,2854.00
1004.952,3168.00
1005.897,3140.00
1006.841,2839.00
1007.786,2592.00
1008.730,2576.00
1009.674,3392.00
1010.618,2816.00
1011.564,2647.00
1012.508,2529.00
1013.452,3129.00
1014.396,2909.00
1015.339,2740.00
1016.283,2838.00
1017.226,2906.00
1018.170,2839.00
1019.113,3042.00
1020.056,2864.00
1020.999,2852.00
1021.942,2773.00
1022.885,3038.00
1023.828,3189.00
1024.770,2696.00
1025.715,2868.00
1026.657,2810.00
1027.600,2881.00
1028.542,3099.00
1029.484,2909.00
1030.426,2993.00
1031.368,2936.00
1032.310,2750.00
1033.251,2662.00
1034.193,2811.00
1035.135,2630.00
1036.076,2776.00
1037.017,2689.00
1037.959,2996.00
1038.900,2947.00
1039.843,2908.00
1040.784,2885.00
1041.725,2947.00
1042.665,2729.00
1043.606,2902.00
1044.547,2900.00
1045.487,2503.00
1046.427,2823.00
1047.368,2910.00
1048.308,2352.00
1049.248,2640.00
1050.188,2859.00
1051.128,2762.00
1052.067,2804.00
1053.007,2525.00
1053.947,2496.00
1054.886,2671.00
1055.827,2660.00
1056.766,3125.00
1057.706,2591.00
1058.645,2761.00
1059.584,2902.00
1060.522,3121.00
1061.461,2582.00
1062.400,2582.00
1063.338,2782.00
1064.277,2652.00
1065.215,2650.00
1066.154,2540.00
1067.092,2697.00
1068.030,2749.00
1068.968,3000.00
1069.906,3165.00
1070.843,3108.00
1071.781,2859.00
1072.720,2958.00
1073.658,2932.00
1074.595,2734.00
1075.533,2681.00
1076.470,2730.00
1077.407,3157.00
1078.344,2869.00
1079.281,2933.00
1080.217,2427.00
1081.154,2797.00
1082.091,2907.00
1083.027,2570.00
1083.964,3083.00
1084.900,2670.00
1085.836,2743.00
1086.772,3010.00
1087.708,2589.00
1088.644,3018.00
1089.580,2817.00
1090.515,2899.00
1091.451,2744.00
1092.388,2882.00
1093.324,2541.00
1094.259,3427.00
1095.194,2870.00
1096.129,2780.00
1097.064,2740.00
1097.999,2971.00
1098.934,2638.00
1099.869,2673.00
1100.803,2849.00
1101.738,2852.00
1102.672,2559.00
1103.607,2953.00
1104.541,2682.00
1105.475,2671.00
1106.409,2564.00
1107.343,2762.00
1108.277,2566.00
1109.210,2848.00
1110.144,2811.00
1111.078,2788.00
1112.011,2569.00
1112.944,2945.00
1113.878,2856.00
1114.811,2290.00
1115.744,2704.00
1116.678,2438.00
1117.611,2694.00
1118.544,2721.00
1119.477,2881.00
1120.409,2665.00
1121.342,3301.00
1122.274,2868.00
1123.206,3227.00
1124.138,2831.00
1125.070,3163.00
1126.002,2971.00
1126.934,2417.00
1127.866,2678.00
1128.798,2447.00
1129.729,2458.00
1130.661,2799.00
1131.592,2722.00
1132.523,2869.00
1133.454,2935.00
1134.385,2405.00
1135.317,2775.00
1136.247,2713.00
1137.178,3002.00
1138.109,2494.00
1139.039,3174.00
1139.970,2971.00
1140.900,2671.00
1141.831,2480.00
1142.761,2353.00
1143.691,2881.00
1144.621,2814.00
1145.551,2814.00
1146.480,2833.00
1147.410,2974.00
1148.340,2438.00
1149.269,2533.00
1150.199,2716.00
1151.128,3239.00
1152.057,2561.00
1152.979,2701.00
1153.898,2743.00
1154.819,2876.00
1155.739,2771.00
1156.658,2663.00
1157.579,2802.00
1158.498,2775.00
1159.419,2305.00
1160.338,2827.00
1161.256,2834.00
1162.177,2640.00
1163.095,2755.00
1164.016,2822.00
1164.934,3047.00
1165.852,2977.00
1166.772,2768.00
1167.690,2810.00
1168.610,2816.00
1169.528,2794.00
1170.446,2315.00
1171.365,2673.00
1172.283,2656.00
1173.202,2752.00
1174.120,2837.00
1175.037,2610.00
1175.956,2582.00
1176.873,2621.00
1177.792,2661.00
1178.709,3258.00
1179.626,2669.00
1180.544,3008.00
1181.461,2610.00
1182.379,2871.00
1183.296,2764.00
1184.212,2375.00
1185.130,2608.00
1186.046,3160.00
1186.962,2758.00
1187.880,3048.00
1188.796,2802.00
1189.714,2553.00
1190.629,2921.00
1191.545,2857.00
1192.462,2736.00
1193.378,2765.00
1194.295,2439.00
1195.210,2787.00
1196.125,2886.00
1197.042,2841.00
1197.957,2750.00
1198.872,2631.00
1199.788,2655.00
1200.703,3128.00
1201.619,2782.00
1202.534,2597.00
1203.448,2863.00
1204.364,2715.00
1205.278,2413.00
1206.192,2824.00
1207.108,3283.00
1208.022,3146.00
1208.938,2579.00
1209.851,2906.00
1210.765,2977.00
1211.680,2678.00
1212.594,2528.00
1213.507,2683.00
1214.422,3220.00
1215.335,2903.00
1216.248,2685.00
1217.163,2804.00
1218.076,3431.00
1218.990,2852.00
1219.903,2522.00
1220.816,2562.00
1221.730,2752.00
1222.642,2642.00
1223.554,2665.00
1224.469,2869.00
1225.380,2684.00
1226.292,2393.00
1227.206,2913.00
1228.118,3122.00
1229.032,2374.00
1229.943,2617.00
1230.855,2743.00
1231.768,2494.00
1232.679,2844.00
1233.590,2749.00
1234.503,3007.00
1235.414,2639.00
1236.325,2609.00
1237.238,2824.00
1238.149,2867.00
1239.059,2579.00
1239.972,2943.00
1240.882,2551.00
1241.793,2916.00
1242.705,3166.00
1243.615,2730.00
1244.525,2883.00
1245.437,2283.00
1246.347,2824.00
1247.259,2933.00
1248.168,3208.00
1249.078,3022.00
1249.989,3047.00
1250.899,2565.00
1251.808,2635.00
1252.719,2653.00
1253.628,2609.00
1254.537,3146.00
1255.448,2570.00
1256.357,2619.00
1257.266,2786.00
1258.176,2510.00
1259.085,2481.00
1259.993,2545.00
1260.904,2598.00
1261.812,2569.00
1262.720,3337.00
1263.630,2934.00
1264.538,2622.00
1265.446,2864.00
1266.356,2727.00
1267.263,3058.00
1268.171,2536.00
1269.080,2820.00
1269.988,2972.00
1270.895,2647.00
1271.804,2725.00
1272.711,2956.00
1273.619,2949.00
1274.527,2537.00
1275.434,2902.00
1276.341,2555.00
1277.248,2824.00
1278.156,3047.00
1279.063,2615.00
1279.969,2861.00
1280.877,3734.00
1281.783,2957.00
1282.690,2875.00
1283.598,2747.00
1284.503,2603.00
1285.409,2601.00
1286.317,3162.00
1287.223,3186.00
1288.128,2818.00
1289.036,2670.00
1289.941,2715.00
1290.846,2753.00
1291.751,2565.00
1292.658,2716.00
1293.563,3221.00
1294.468,2795.00
1295.375,2927.00
1296.280,3023.00
1297.184,3549.00
1298.091,2878.00
1298.995,2947.00
1299.900,3146.00
1300.806,2706.00
1301.710,2463.00
1302.614,2364.00
1303.518,3003.00
1304.424,2697.00
1305.327,2988.00
1306.231,2739.00
1307.137,2921.00
1308.040,2850.00
1308.943,2802.00
1309.847,3008.00
1310.752,2971.00
1311.655,2399.00
1312.558,2536.00
1313.463,2689.00
1314.366,2649.00
1315.269,2783.00
1316.171,2747.00
1317.076,2657.00
1317.978,2555.00
1318.881,2379.00
1319.785,2671.00
1320.687,2650.00
1321.589,2319.00
1322.491,2562.00
1323.395,2875.00
1324.297,3399.00
1325.198,2925.00
1326.102,2543.00
1327.004,2601.00
1327.905,3154.00
1328.806,2755.00
1329.709,2815.00
1330.611,2683.00
1331.512,2610.00
1332.413,3248.00
1333.316,2863.00
1334.216,2978.00
1335.117,2515.00
1336.020,2805.00
1336.920,2804.00
1337.821,2611.00
1338.721,3021.00
1339.623,2822.00
1340.523,2743.00
1341.423,2653.00
1342.323,3102.00
1343.225,2834.00
1344.125,2585.00
1345.025,2635.00
1345.924,2406.00
1346.826,3145.00
1347.725,3241.00
1348.624,3026.00
1349.524,2607.00
1350.425,2736.00
1351.324,2830.00
1352.223,2955.00
1353.121,2704.00
1354.022,2971.00
1354.921,3168.00
1355.819,2912.00
1356.718,2814.00
1357.618,2536.00
1358.516,2910.00
1359.415,3173.00
1360.313,2880.00
1361.213,2684.00
1362.111,3124.00
1363.008,3468.00
1363.906,2746.00
1364.806,2797.00
1365.703,2853.00
1366.601,2612.00
1367.498,2653.00
1368.397,2972.00
1369.295,2810.00
1370.192,2591.00
1371.089,2837.00
1371.987,2754.00
1372.884,3092.00
1373.781,2564.00
1374.678,2782.00
1375.574,2599.00
1376.473,2912.00
1377.369,3033.00
1378.265,2580.00
1379.161,2705.00
1380.059,2442.00
1380.955,2889.00
1381.851,2531.00
1382.747,2649.00
1383.643,2694.00
1384.540,2544.00
1385.436,2650.00
1386.331,2851.00
1387.227,2926.00
1388.124,2896.00
1389.019,2552.00
1389.914,2752.00
1390.809,2379.00
1391.704,3201.00
1392.601,2660.00
1393.495,3069.00
1394.390,2988.00
1395.285,3027.00
1396.179,2850.00
1397.075,2729.00
1397.969,2867.00
1398.864,2465.00
1399.758,2727.00
1400.652,2796.00
1401.547,2563.00
1402.441,2550.00
1403.335,3166.00
1404.229,2807.00
1405.122,2852.00
1406.017,2763.00
1406.911,2916.00
1407.804,3213.00
1408.697,2763.00
1409.590,2585.00
1410.485,2970.00
1411.378,2880.00
1412.271,2458.00
1413.163,2846.00
1414.056,2946.00
1414.949,3177.00
1415.843,2828.00
1416.735,2773.00
1417.627,2805.00
1418.520,2749.00
1419.412,3039.00
1420.306,2953.00
1421.197,3087.00
1422.089,2975.00
1422.981,3234.00
1423.873,2979.00
1424.764,2942.00
1425.657,2815.00
1426.549,2899.00
1427.440,3001.00
1428.331,2687.00
1429.222,2472.00
1430.113,2867.00
1431.006,2959.00
1431.897,2690.00
1432.787,2782.00
1433.678,2720.00
1434.568,2579.00
1435.459,3023.00
1436.351,2981.00
1437.241,2949.00
1438.131,2936.00
1439.021,2515.00
1439.911,2719.00
1440.801,2850.00
1441.693,3055.00
1442.583,2809.00
1443.472,2790.00
1444.362,2915.00
1445.251,2748.00
1446.140,2674.00
1447.030,3002.00
1447.921,2992.00
1448.810,2578.00
1449.699,3160.00
1450.588,2836.00
1451.476,2681.00
1452.365,2896.00
1453.254,2724.00
1454.144,2684.00
1455.032,2945.00
1455.921,2495.00
1456.809,3128.00
1457.697,2589.00
1458.585,2745.00
1459.473,2718.00
1460.361,2618.00
1461.251,2857.00
1462.138,2854.00
1463.026,2799.00
1463.913,3057.00
1464.801,2728.00
1465.688,2926.00
1466.575,2821.00
1467.463,3279.00
1468.351,2643.00
1469.238,2780.00
1470.125,2360.00
1471.012,2838.00
1471.899,2899.00
1472.785,2587.00
1473.672,2824.00
1474.558,3032.00
1475.446,2992.00
1476.333,2939.00
1477.219,2606.00
1478.105,2728.00
1478.991,2764.00
1479.877,3168.00
1480.762,2750.00
1481.648,2637.00
1482.534,2961.00
1483.419,2896.00
1484.307,2952.00
1485.192,2761.00
1486.077,2650.00
1486.962,2695.00
1487.847,2544.00
1488.732,2588.00
1489.617,2791.00
1490.502,3068.00
1491.387,2915.00
1492.271,2612.00
1493.156,2609.00
1494.042,2623.00
1494.927,3032.00
1495.811,2710.00
1496.695,2896.00
1497.579,3131.00
1498.463,2778.00
1499.347,2861.00
1500.231,2828.00
1501.114,2889.00
1501.998,3106.00
1502.881,2849.00
1503.765,3103.00
1504.648,3224.00
1505.533,2918.00
1506.417,2816.00
1507.300,2802.00
1508.183,2895.00
1509.066,2248.00
1509.948,3093.00
1510.831,3160.00
1511.714,2604.00
1512.596,2962.00
1513.479,3076.00
1514.361,3051.00
1515.243,2820.00
1516.125,2980.00
1517.008,3096.00
1517.890,2797.00
1518.771,2831.00
1519.655,3032.00
1520.537,2760.00
1521.419,2665.00
1522.300,2851.00
1523.182,2986.00
1524.063,2952.00
1524.944,3109.00
1525.825,3030.00
1526.707,2587.00
1527.588,2568.00
1528.468,2909.00
1529.349,2442.00
1530.230,2744.00
1531.111,2998.00
1531.991,2840.00
1532.872,2499.00
1533.752,2777.00
1534.632,2649.00
1535.513,2656.00
1536.393,2973.00
1537.273,3166.00
1538.153,3427.00
1539.032,2530.00
1539.912,2796.00
1540.792,2795.00
1541.672,2813.00
1542.551,2911.00
1543.430,3465.00
1544.310,2793.00
1545.189,2714.00
1546.068,3250.00
1546.947,2911.00
1547.826,3135.00
1548.705,2822.00
1549.584,3064.00
1550.462,2789.00
1551.341,2967.00
1552.219,2895.00
1553.098,2980.00
1553.976,3028.00
1554.854,3259.00
1555.733,3018.00
1556.611,2722.00
1557.489,2580.00
1558.367,2816.00
1559.244,3023.00
1560.122,2796.00
1561.000,2877.00
1561.877,3124.00
1562.755,2712.00
1563.632,2755.00
1564.509,3068.00
1565.386,3206.00
1566.264,2541.00
1567.141,2421.00
1568.017,2951.00
1568.894,2829.00
1569.771,2865.00
1570.648,2898.00
1571.524,2814.00
1572.401,2551.00
1573.277,2594.00
1574.153,2842.00
1575.029,2680.00
1575.906,3573.00
1576.781,3010.00
1577.657,2769.00
1578.533,3064.00
1579.409,2429.00
1580.285,2754.00
1581.160,3272.00
1582.036,3010.00
1582.911,2636.00
1583.786,3215.00
1584.662,2593.00
1585.537,2784.00
1586.412,2868.00
1587.287,2616.00
1588.160,3018.00
1589.035,2462.00
1589.909,2896.00
1590.784,2784.00
1591.658,2612.00
1592.533,2885.00
1593.407,2833.00
1594.281,2700.00
1595.155,3268.00
1596.029,2716.00
1596.903,2759.00
1597.777,2758.00
1598.651,3105.00
1599.525,2509.00
1600.398,2925.00
1601.272,2795.00
1602.144,3376.00
1603.017,2782.00
1603.890,3074.00
1604.763,2927.00
1605.636,2958.00
1606.509,2540.00
1607.382,2656.00
1608.255,2921.00
1609.128,3047.00
1610.000,2821.00
1610.873,2488.00
1611.746,2688.00
1612.616,2726.00
1613.488,2379.00
1614.361,2850.00
1615.233,2784.00
1616.105,3060.00
1616.977,2713.00
1617.849,2659.00
1618.720,3152.00
1619.592,3116.00
1620.464,2933.00
1621.333,3314.00
1622.205,2814.00
1623.076,2777.00
1623.947,2793.00
1624.818,3091.00
1625.689,2916.00
1626.560,2765.00
1627.431,2878.00
1628.302,3263.00
1629.171,2962.00
1630.042,3136.00
1630.912,3543.00
1631.782,3492.00
1632.653,2587.00
1633.523,3008.00
1634.393,3093.00
1635.263,2699.00
1636.131,2785.00
1637.001,2762.00
1637.871,2432.00
1638.741,2475.00
1639.611,2534.00
1640.480,2919.00
1641.350,2704.00
1642.219,2628.00
1643.087,2254.00
1643.956,3253.00
1644.825,3094.00
1645.694,3040.00
1646.563,3017.00
1647.432,2885.00
1648.299,2850.00
1649.167,2968.00
1650.036,2621.00
1650.904,2951.00
1651.773,3067.00
1652.641,2833.00
1653.509,3020.00
1654.376,2691.00
1655.244,2882.00
1656.112,2914.00
1656.980,2859.00
1657.847,2668.00
1658.715,2999.00
1659.581,2708.00
1660.448,3064.00
1661.316,2350.00
1662.183,2860.00
1663.051,2895.00
1663.918,2857.00
1664.783,2821.00
1665.650,2933.00
1666.517,2964.00
1667.384,2834.00
1668.251,2871.00
1669.115,3086.00
1669.982,2803.00
1670.849,3144.00
1671.715,2828.00
1672.581,3007.00
1673.446,2988.00
1674.312,2874.00
1675.178,3304.00
1676.044,2924.00
1676.910,2911.00
1677.774,2837.00
1678.639,2452.00
1679.505,2820.00
1680.370,2985.00
1681.236,3535.00
1682.099,2799.00
1682.965,2848.00
1683.830,2416.00
1684.695,2651.00
1685.560,2770.00
1686.423,2966.00
1687.288,2973.00
1688.153,2897.00
1689.017,2763.00
1689.880,2917.00
1690.745,2952.00
1691.609,2683.00
1692.473,3014.00
1693.338,3079.00
1694.200,3115.00
1695.064,2869.00
1695.928,2750.00
1696.792,2864.00
1697.654,3398.00
1698.517,2918.00
1699.381,2574.00
1700.245,2493.00
1701.106,3153.00
1701.969,2776.00
1702.833,3009.00
1703.696,2785.00
1704.557,2831.00
1705.420,2706.00
1706.283,2861.00
1707.146,2982.00
1708.007,2663.00
1708.870,2651.00
1709.732,2492.00
1710.595,2751.00
1711.455,2593.00
1712.318,2751.00
1713.180,3171.00
1714.040,2872.00
1714.902,3035.00
1715.764,2859.00
1716.626,2610.00
1717.486,2810.00
1718.348,3128.00
1719.209,4243.00
1720.071,2511.00
1720.930,2565.00
1721.792,2641.00
1722.653,2729.00
1723.512,2754.00
1724.374,2815.00
1725.234,2895.00
1726.095,2870.00
1726.954,2858.00
1727.815,3013.00
1728.676,2835.00
1729.535,3098.00
1730.395,2825.00
1731.256,2780.00
1732.114,2890.00
1732.974,2315.00
1733.834,3240.00
1734.693,3002.00
1735.553,2844.00
1736.413,3272.00
1737.272,2722.00
1738.130,2753.00
1738.990,2909.00
1739.849,2741.00
1740.707,3941.00
1741.566,2865.00
1742.426,2883.00
1743.283,3271.00
1744.142,2727.00
1745.001,2494.00
1745.858,3059.00
1746.717,2943.00
1747.576,2947.00
1748.433,3046.00
1749.292,3485.00
1750.150,3515.00
1751.007,3023.00
1751.865,3111.00
1752.723,2876.00
1753.579,2790.00
1754.438,3071.00
1755.296,3103.00
1756.152,2395.00
1757.010,2492.00
1757.865,3100.00
1758.723,2454.00
1759.581,3182.00
1760.436,2834.00
1761.294,3252.00
1762.151,2832.00
1763.006,2784.00
1763.864,2476.00
1764.721,3120.00
1765.576,2912.00
1766.433,3037.00
1767.288,2752.00
1768.144,2856.00
1769.001,2805.00
1769.856,2989.00
1770.712,3074.00
1771.568,2617.00
1772.423,2741.00
1773.279,2734.00
1774.133,2766.00
1774.989,3256.00
1775.845,3290.00
1776.699,3106.00
1777.555,2844.00
1778.409,3381.00
1779.265,2813.00
1780.120,2813.00
1780.974,2820.00
1781.829,2448.00
1782.682,2910.00
1783.538,2651.00
1784.393,2887.00
1785.246,2725.00
1786.101,2968.00
1786.954,2996.00
1787.808,3091.00
1788.661,2523.00
1789.516,2747.00
1790.370,2853.00
1791.223,3061.00
1792.077,2878.00
1792.930,2939.00
1793.784,2735.00
1794.636,2883.00
1795.490,2846.00
1796.344,2848.00
1797.196,2866.00
1798.049,3043.00
1798.901,2703.00
1799.755,3068.00
1800.606,2669.00
1801.460,3433.00
1802.311,3139.00
1803.165,3306.00
1804.018,3256.00
1804.869,2979.00
1805.722,3354.00
1806.573,2870.00
1807.426,2696.00
1808.276,2865.00
1809.129,2750.00
1809.980,3068.00
1810.832,3133.00
1811.683,2764.00
1812.535,3214.00
1813.385,2812.00
1814.237,3172.00
1815.089,2922.00
1815.940,3168.00
1816.791,2769.00
1817.641,2725.00
1818.493,3049.00
1819.343,2933.00
1820.194,2733.00
1821.044,2974.00
1821.895,3115.00
1822.745,2567.00
1823.596,2754.00
1824.445,3314.00
1825.296,2988.00
1826.145,2830.00
1826.996,3071.00
1827.845,2893.00
1828.695,2933.00
1829.544,2893.00
1830.395,2928.00
1831.243,2782.00
1832.094,2619.00
1832.942,3515.00
1833.792,3011.00
1834.640,2964.00
1835.490,2872.00
1836.338,2942.00
1837.186,2743.00
1838.036,2762.00
1838.884,2856.00
1839.733,3237.00
1840.581,3060.00
1841.430,2990.00
1842.278,3268.00
1843.127,2776.00
1843.974,2534.00
1844.823,3301.00
1845.671,3041.00
1846.519,2877.00
1847.366,2988.00
1848.213,2505.00
1849.062,2703.00
1849.909,2594.00
1850.757,3567.00
1851.604,2948.00
1852.452,2791.00
1853.298,3135.00
1854.146,2908.00
1854.993,2927.00
1855.839,3404.00
1856.687,3003.00
1857.532,3010.00
1858.380,2896.00
1859.226,2934.00
1860.073,2977.00
1860.919,2686.00
1861.765,2789.00
1862.612,3164.00
1863.457,3105.00
1864.304,2838.00
1865.150,2973.00
1865.995,2839.00
1866.842,2996.00
1867.686,3167.00
1868.533,2980.00
1869.378,2974.00
1870.223,2939.00
1871.069,2841.00
1871.914,2898.00
1872.760,2828.00
1873.604,2645.00
1874.448,3026.00
1875.294,3091.00
1876.139,2761.00
1876.984,3021.00
1877.828,2543.00
1878.672,2368.00
1879.518,2734.00
1880.361,3062.00
1881.205,3038.00
1882.050,2687.00
1882.894,3412.00
1883.739,2737.00
1884.582,2633.00
1885.425,2693.00
1886.270,3115.00
1887.113,2569.00
1887.956,2986.00
1888.801,2947.00
1889.644,2670.00
1890.486,2431.00
1891.331,2767.00
1892.173,2956.00
1893.017,2930.00
1893.860,3176.00
1894.702,3186.00
1895.546,2895.00
1896.388,3624.00
1897.230,3272.00
1898.074,2801.00
1898.916,2680.00
1899.757,2719.00
1900.601,3624.00
1901.443,3197.00
1902.284,3226.00
1903.125,3360.00
1903.969,3102.00
1904.810,3120.00
1905.651,3038.00
1906.494,3240.00
1907.335,3368.00
1908.176,3040.00
1909.018,2993.00
1909.859,2856.00
1910.700,2757.00
1911.542,3465.00
1912.383,2912.00
1913.223,2474.00
1914.064,3068.00
1914.906,3239.00
1915.746,3259.00
1916.586,3388.00
1917.428,2884.00
1918.268,2924.00
1919.107,2770.00
1919.947,2651.00
1920.789,2868.00
1921.628,3161.00
1922.468,2865.00
1923.309,2741.00
1924.148,3266.00
1924.988,2956.00
1925.827,2874.00
1926.667,2783.00
1927.507,2939.00
1928.345,2741.00
1929.184,3044.00
1930.025,2761.00
1930.864,3194.00
1931.702,3234.00
1932.541,2783.00
1933.381,3057.00
1934.219,3067.00
1935.057,3268.00
1935.896,2589.00
1936.735,2847.00
1937.573,2799.00
1938.411,2658.00
1939.249,3080.00
1940.089,2766.00
1940.927,3214.00
1941.764,3191.00
1942.602,2824.00
1943.439,2784.00
1944.278,2869.00
1945.115,2825.00
1945.953,2631.00
1946.790,2988.00
1947.628,3253.00
1948.465,2999.00
1949.302,3070.00
1950.139,3026.00
1950.976,2769.00
1951.814,3127.00
1952.651,2963.00
1953.487,2677.00
1954.323,3173.00
1955.160,2847.00
1955.998,3282.00
1956.834,2879.00
1957.670,2983.00
1958.506,3150.00
1959.342,3046.00
1960.177,2968.00
1961.015,3083.00
1961.850,2931.00
1962.686,2964.00
1963.521,2956.00
1964.357,3200.00
1965.192,2702.00
1966.029,3066.00
1966.864,2816.00
1967.699,3149.00
1968.534,2956.00
1969.369,3220.00
1970.204,2824.00
1971.040,2953.00
1971.875,2818.00
1972.709,2944.00
1973.544,2769.00
1974.378,2776.00
1975.212,3006.00
1976.047,2845.00
1976.882,2781.00
1977.716,3330.00
1978.550,2585.00
1979.384,2836.00
1980.218,2859.00
1981.052,2834.00
1981.885,2928.00
1982.719,2931.00
1983.554,3093.00
1984.388,3239.00
1985.221,2980.00
1986.054,3160.00
1986.887,2938.00
1987.720,2755.00
1988.553,3242.00
1989.386,3009.00
1990.219,3052.00
1991.053,3241.00
1991.886,2759.00
1992.719,3145.00
1993.551,2390.00
1994.383,3065.00
1995.216,2842.00
1996.048,2635.00
1996.880,3103.00
1997.712,2796.00
1998.544,2910.00
1999.376,3025.00
2000.208,3227.00
2001.040,3446.00
2001.873,2752.00
2002.705,2732.00
2003.536,2946.00
2004.367,2986.00
2005.199,2956.00
2006.030,2809.00
2006.861,2713.00
2007.692,2913.00
2008.523,2765.00
2009.354,2944.00
2010.185,2755.00
2011.016,3066.00
2011.846,3154.00
2012.677,2855.00
2013.507,3260.00
2014.338,3171.00
2015.168,2837.00
2015.999,3493.00
2016.829,2867.00
2017.659,3149.00
2018.489,3494.00
2019.319,2714.00
2020.149,3123.00
2020.980,2910.00
2021.810,2739.00
2022.639,2784.00
2023.469,2809.00
2024.298,2590.00
2025.128,2529.00
2025.957,2554.00
2026.786,2324.00
2027.615,2563.00
2028.444,2736.00
2029.273,2978.00
2030.102,2524.00
2030.931,2776.00
2031.758,3079.00
2032.586,2677.00
2033.415,2740.00
2034.243,2372.00
2035.072,2133.00
2035.900,2622.00
2036.728,2462.00
2037.556,2509.00
2038.385,2544.00
2039.213,2347.00
2040.040,2280.00
2040.868,2272.00
2041.696,2306.00
2042.524,2368.00
2043.351,2551.00
2044.179,2360.00
2045.006,2121.00
