RamanScope Measure Spectrum Data V3.72

<< MEASURE CONDITION >>
Exposure Type,Aver
Exposure Time [sec],15
Exposure Count,30
Measure Time,2023/07/12 19:53:16
Data Name,""
Data Comment,""
Rayleigh Wave[nm],532.0

<< SAMPLE SPECTRUM >>
Wave[dcm-1],No38
146.591,987.90
147.626,1160.10
148.664,1354.37
149.699,1519.27
150.737,1735.30
151.772,1967.37
152.809,2163.37
153.846,2287.93
154.881,2421.07
155.918,2547.40
156.953,2686.27
157.989,2737.97
159.026,2829.80
160.060,2878.40
161.096,2938.30
162.130,2997.50
163.167,3047.70
164.200,3076.97
165.236,3118.93
166.272,3158.97
167.305,3244.87
168.341,3311.37
169.374,3352.17
170.409,3483.93
171.445,3523.33
172.477,3560.80
173.512,3612.50
174.545,3655.03
175.580,3655.47
176.614,3699.07
177.647,3706.53
178.681,3660.30
179.713,3676.67
180.747,3612.13
181.781,3575.77
182.813,3600.67
183.847,3547.30
184.878,3526.83
185.912,3536.13
186.945,3596.07
187.976,3566.40
189.010,3632.83
190.043,3610.77
191.073,3640.47
192.106,3678.73
193.137,3693.43
194.170,3738.10
195.202,3784.77
196.232,3795.10
197.265,3833.30
198.297,3920.57
199.327,3952.53
200.359,4006.27
201.388,4061.23
202.420,4149.27
203.452,4218.13
204.481,4275.93
205.512,4336.20
206.544,4429.07
207.573,4536.50
208.604,4619.27
209.635,4760.83
210.663,4894.93
211.694,5011.60
212.725,5087.30
213.753,5238.13
214.783,5323.23
215.813,5361.53
216.841,5352.20
217.871,5412.57
218.899,5361.97
219.929,5331.70
220.959,5281.67
221.986,5195.07
223.016,5068.40
224.045,4994.37
225.072,4951.67
226.101,4839.07
227.130,4780.00
228.157,4687.07
229.185,4671.33
230.214,4598.93
231.241,4525.07
232.269,4531.87
233.297,4516.63
234.323,4486.80
235.351,4470.97
236.379,4517.90
237.407,4466.40
238.433,4433.60
239.460,4501.23
240.488,4479.97
241.513,4569.73
242.540,4607.37
243.568,4647.00
244.592,4662.77
245.619,4671.13
246.646,4595.73
247.671,4560.90
248.697,4570.53
249.724,4565.63
250.748,4549.83
251.774,4526.47
252.801,4562.83
253.827,4585.17
254.850,4570.67
255.876,4576.10
256.902,4626.77
257.925,4611.13
258.951,4684.07
259.976,4709.43
260.999,4768.10
262.024,4735.63
263.049,4761.97
264.074,4831.90
265.097,4894.80
266.122,4976.73
267.146,5022.03
268.168,5036.90
269.193,5070.33
270.217,5152.87
271.241,5149.17
272.263,5207.47
273.287,5217.77
274.311,5263.37
275.332,5265.50
276.356,5308.93
277.379,5288.83
278.402,5230.40
279.424,5195.37
280.447,5104.30
281.470,5056.50
282.492,5008.53
283.513,4976.97
284.536,4918.23
285.558,4858.83
286.581,4826.20
287.601,4678.13
288.623,4628.73
289.645,4611.17
290.665,4567.47
291.687,4517.33
292.709,4414.73
293.730,4359.17
294.750,4331.00
295.771,4274.73
296.792,4217.33
297.813,4147.47
298.832,4087.70
299.853,4105.03
300.874,4028.10
301.895,4023.83
302.913,3998.73
303.934,3900.57
304.954,3916.47
305.975,3844.97
306.993,3815.47
308.013,3742.53
309.033,3801.87
310.052,3757.17
311.072,3692.50
312.090,3718.33
313.109,3717.03
314.129,3636.97
315.148,3651.77
316.165,3625.03
317.184,3609.97
318.203,3590.63
319.222,3558.33
320.238,3573.50
321.257,3607.17
322.275,3549.60
323.294,3525.77
324.312,3500.07
325.328,3512.23
326.346,3529.87
327.364,3495.23
328.382,3489.97
329.397,3471.50
330.415,3510.77
331.432,3488.13
332.450,3457.30
333.467,3455.10
334.482,3448.13
335.499,3467.60
336.516,3413.20
337.533,3413.47
338.547,3429.83
339.564,3413.83
340.580,3431.17
341.597,3438.27
342.613,3376.93
343.627,3464.07
344.643,3371.60
345.659,3415.77
346.675,3411.10
347.690,3385.13
348.704,3375.33
349.719,3398.03
350.735,3429.10
351.750,3407.27
352.765,3416.40
353.778,3351.80
354.793,3408.83
355.808,3379.50
356.822,3408.53
357.837,3369.07
358.851,3412.40
359.864,3386.40
360.878,3434.47
361.892,3396.40
362.906,3418.67
363.920,3423.63
364.932,3418.77
365.945,3397.97
366.959,3491.17
367.972,3463.10
368.986,3463.57
369.999,3454.77
371.010,3459.33
372.023,3483.13
373.036,3459.43
374.049,3540.47
375.061,3549.37
376.072,3536.60
377.084,3521.40
378.097,3539.10
379.109,3576.87
380.121,3553.30
381.133,3526.20
382.143,3529.07
383.155,3456.43
384.166,3554.47
385.178,3499.33
386.189,3462.97
387.201,3530.40
388.212,3550.40
389.221,3505.67
390.232,3486.03
391.243,3442.83
392.254,3424.37
393.264,3464.00
394.275,3408.80
395.283,3435.67
396.294,3387.67
397.304,3422.93
398.314,3397.37
399.324,3350.33
400.334,3384.70
401.344,3325.23
402.351,3337.47
403.361,3297.87
404.370,3286.83
405.380,3248.70
406.389,3243.73
407.398,3225.17
408.407,3205.53
409.414,3236.73
410.423,3191.50
411.431,3169.43
412.440,3153.60
413.448,3136.23
414.457,3145.90
415.465,3107.83
416.471,3131.40
417.479,3114.80
418.487,3165.57
419.495,3141.93
420.503,3096.53
421.510,3121.83
422.518,3071.87
423.525,3062.83
424.530,3069.43
425.537,3014.57
426.544,3062.87
427.551,3030.10
428.558,3035.30
429.565,2984.63
430.571,2997.87
431.578,3016.30
432.582,2973.07
433.588,2989.27
434.595,2987.90
435.601,3000.10
436.607,3018.23
437.612,2982.30
438.618,3013.33
439.624,2993.27
440.627,3008.00
441.633,2964.07
442.638,2977.80
443.643,2959.10
444.648,2971.60
445.653,2992.60
446.658,2985.60
447.663,2989.40
448.667,2966.10
449.672,2973.30
450.674,2948.43
451.678,2983.23
452.682,2964.07
453.687,2961.20
454.690,2966.00
455.694,2984.07
456.698,2969.30
457.702,2988.53
458.705,2985.20
459.709,2950.07
460.710,3011.17
461.713,3005.63
462.716,3000.17
463.719,2975.83
464.722,3000.57
465.725,2997.77
466.727,3002.17
467.730,2959.17
468.732,2981.07
469.735,2972.63
470.737,2984.77
471.737,2976.33
472.739,3015.90
473.741,2960.47
474.742,2953.17
475.744,2993.13
476.746,2968.63
477.747,2984.23
478.748,2998.40
479.750,3001.90
480.751,2979.43
481.752,2985.17
482.753,2970.63
483.751,2933.77
484.752,3004.30
485.753,2977.67
486.753,2997.80
487.753,2973.80
488.754,2976.83
489.754,2960.03
490.754,2965.03
491.754,2982.33
492.754,2975.27
493.753,2971.83
494.753,2954.50
495.752,2958.97
496.752,2991.50
497.749,2954.27
498.748,2916.30
499.747,2939.13
500.746,2917.27
501.745,2917.93
502.744,2938.50
503.742,2901.13
504.741,2891.30
505.739,2895.87
506.737,2922.70
507.735,2938.00
508.734,2889.37
509.732,2888.93
510.729,2863.80
511.727,2873.63
512.725,2862.93
513.720,2836.90
514.718,2868.00
515.715,2842.17
516.712,2809.83
517.709,2831.13
518.706,2856.13
519.703,2829.47
520.700,2803.83
521.696,2766.90
522.693,2845.47
523.689,2863.47
524.686,2813.63
525.682,2824.40
526.678,2852.47
527.674,2845.67
528.670,2819.93
529.666,2835.63
530.661,2784.13
531.657,2812.50
532.652,2871.70
533.648,2853.03
534.641,2826.83
535.636,2796.70
536.631,2819.60
537.626,2832.43
538.621,2828.73
539.616,2822.87
540.610,2840.00
541.605,2795.57
542.599,2814.60
543.593,2869.00
544.587,2830.03
545.581,2859.37
546.575,2849.83
547.569,2789.37
548.563,2879.97
549.557,2859.53
550.550,2838.83
551.543,2825.30
552.537,2793.67
553.530,2830.97
554.523,2827.33
555.516,2861.93
556.509,2836.93
557.502,2867.10
558.494,2837.37
559.487,2923.43
560.479,2868.80
561.472,2845.17
562.464,2883.40
563.456,2863.60
564.448,2891.10
565.440,2909.60
566.432,2926.30
567.423,2877.63
568.415,2924.87
569.404,2941.07
570.396,2935.47
571.387,2939.70
572.378,2959.37
573.369,2970.97
574.360,2959.83
575.351,3018.67
576.341,2986.67
577.332,2959.83
578.323,2982.43
579.313,3004.67
580.303,2979.77
581.293,2980.37
582.283,2987.10
583.273,2994.53
584.263,3015.67
585.253,3069.30
586.243,3032.23
587.232,3030.47
588.222,3009.83
589.211,3029.60
590.200,3023.33
591.189,3068.47
592.178,3034.97
593.167,3000.93
594.156,3041.40
595.145,3036.90
596.133,3073.83
597.122,3035.43
598.110,3027.27
599.098,3034.00
600.086,2950.63
601.074,3029.73
602.062,3025.70
603.050,3000.93
604.038,2975.80
605.025,3010.00
606.013,3021.10
607.000,3013.30
607.987,2978.13
608.975,2994.63
609.962,2939.80
610.949,2944.43
611.936,2921.77
612.922,2928.77
613.909,2882.30
614.895,2933.23
615.882,2894.70
616.868,2890.33
617.854,2859.50
618.841,2823.77
619.826,2824.90
620.812,2813.27
621.798,2774.80
622.784,2756.77
623.769,2748.00
624.755,2742.03
625.740,2691.77
626.725,2756.10
627.711,2697.30
628.698,2656.63
629.683,2621.23
630.667,2655.00
631.652,2644.60
632.637,2674.97
633.621,2650.43
634.606,2605.20
635.590,2600.47
636.574,2597.33
637.558,2593.77
638.542,2600.77
639.526,2538.10
640.510,2511.13
641.493,2545.70
642.477,2534.20
643.460,2509.30
644.444,2481.60
645.427,2459.27
646.410,2494.63
647.393,2486.77
648.376,2483.20
649.359,2445.07
650.341,2497.07
651.324,2496.83
652.307,2476.23
653.289,2481.77
654.271,2467.53
655.253,2443.90
656.235,2461.30
657.217,2436.17
658.199,2407.20
659.181,2422.43
660.163,2405.57
661.144,2351.53
662.126,2410.80
663.107,2393.00
664.088,2426.83
665.069,2365.67
666.050,2399.50
667.033,2390.57
668.014,2376.57
668.995,2372.77
669.975,2324.23
670.956,2327.00
671.936,2345.13
672.916,2317.10
673.896,2296.27
674.876,2275.60
675.856,2268.07
676.836,2229.63
677.816,2209.43
678.795,2254.07
679.775,2262.93
680.754,2225.73
681.734,2194.37
682.713,2194.47
683.692,2173.83
684.671,2211.27
685.650,2186.93
686.629,2153.30
687.607,2128.07
688.586,2142.77
689.564,2152.90
690.543,2117.17
691.523,2115.53
692.501,2135.80
693.479,2102.73
694.457,2124.23
695.435,2072.53
696.413,2086.40
697.390,2067.27
698.368,2102.00
699.345,2072.67
700.322,2074.60
701.300,2032.63
702.277,2040.83
703.254,2041.13
704.231,2055.70
705.207,2043.63
706.184,2038.57
707.161,2008.97
708.137,1990.00
709.113,1989.70
710.090,2028.23
711.068,2011.83
712.044,2001.43
713.020,2000.20
713.996,1960.93
714.971,2003.47
715.947,1992.67
716.922,2000.20
717.898,1984.80
718.873,1976.17
719.848,1970.60
720.823,1931.47
721.798,1923.17
722.773,1948.67
723.748,1934.47
724.723,1958.63
725.697,1937.23
726.672,1960.97
727.646,1954.50
728.622,1933.67
729.596,1923.13
730.570,1939.60
731.544,1923.97
732.518,1903.47
733.492,1930.30
734.466,1889.00
735.439,1926.23
736.413,1925.53
737.386,1895.07
738.359,1851.57
739.332,1885.27
740.305,1845.47
741.278,1890.57
742.251,1831.60
743.224,1876.03
744.196,1819.17
745.171,1883.73
746.143,1862.47
747.115,1867.23
748.087,1881.80
749.059,1873.83
750.031,1871.40
751.003,1882.57
751.975,1826.47
752.947,1828.60
753.918,1823.10
754.890,1831.40
755.861,1830.37
756.832,1782.10
757.803,1850.03
758.774,1777.63
759.747,1782.27
760.718,1801.70
761.689,1807.70
762.659,1787.90
763.630,1774.70
764.600,1787.83
765.570,1730.87
766.540,1784.63
767.510,1766.53
768.480,1761.10
769.450,1769.97
770.420,1766.73
771.390,1756.60
772.359,1753.50
773.329,1759.37
774.300,1761.73
775.269,1736.27
776.238,1738.90
777.207,1726.67
778.176,1698.63
779.145,1759.77
780.114,1697.70
781.083,1715.33
782.051,1712.27
783.019,1709.13
783.988,1721.33
784.956,1696.17
785.924,1652.43
786.894,1663.77
787.862,1699.93
788.830,1687.73
789.797,1636.23
790.765,1674.03
791.732,1658.07
792.700,1651.73
793.667,1653.67
794.634,1655.67
795.601,1673.27
796.568,1663.97
797.535,1671.83
798.502,1663.67
799.468,1667.03
800.437,1669.47
801.403,1632.47
802.370,1633.20
803.336,1569.37
804.302,1635.63
805.268,1619.87
806.234,1589.50
807.200,1603.70
808.166,1611.20
809.131,1635.87
810.097,1600.93
811.062,1623.10
812.027,1608.73
812.994,1608.13
813.960,1597.13
814.925,1623.37
815.889,1616.20
816.854,1585.60
817.819,1577.17
818.783,1584.27
819.748,1608.60
820.712,1587.87
821.677,1544.03
822.641,1545.60
823.605,1576.37
824.571,1579.37
825.534,1600.93
826.498,1577.43
827.462,1565.87
828.425,1569.37
829.389,1559.77
830.352,1555.77
831.315,1584.27
832.279,1547.57
833.242,1545.30
834.204,1573.93
835.167,1547.53
836.132,1549.70
837.095,1542.87
838.057,1567.60
839.020,1504.53
839.982,1572.27
840.944,1550.87
841.906,1514.83
842.868,1590.53
843.830,1507.53
844.792,1531.90
845.753,1513.17
846.715,1520.00
847.679,1551.20
848.640,1516.67
849.601,1561.27
850.562,1476.37
851.523,1491.80
852.484,1514.03
853.445,1511.73
854.406,1498.10
855.367,1516.90
856.327,1504.30
857.288,1508.33
858.248,1506.23
859.210,1551.97
860.170,1483.83
861.130,1507.57
862.090,1508.77
863.050,1505.23
864.010,1494.90
864.969,1501.10
865.929,1462.20
866.888,1532.17
867.848,1484.23
868.807,1476.50
869.766,1450.60
870.727,1441.10
871.686,1527.57
872.645,1449.60
873.604,1455.57
874.562,1469.33
875.521,1490.00
876.479,1443.33
877.437,1480.47
878.396,1522.97
879.354,1495.23
880.312,1489.63
881.270,1467.77
882.229,1466.80
883.187,1479.93
884.145,1465.20
885.102,1499.23
886.059,1480.83
887.017,1461.97
887.974,1430.73
888.931,1497.60
889.888,1481.43
890.845,1453.70
891.802,1450.50
892.758,1482.93
893.717,1465.30
894.673,1505.67
895.630,1447.50
896.586,1461.30
897.542,1476.50
898.498,1466.50
899.454,1497.70
900.410,1477.43
901.366,1480.10
902.321,1472.40
903.277,1485.00
904.232,1490.07
905.189,1463.83
906.145,1445.73
907.100,1476.80
908.055,1469.50
909.010,1517.70
909.965,1467.57
910.919,1481.93
911.874,1459.17
912.828,1440.23
913.783,1441.57
914.737,1492.13
915.693,1476.07
916.648,1477.17
917.602,1442.50
918.555,1493.87
919.509,1463.47
920.463,1490.87
921.417,1493.90
922.370,1451.30
923.324,1444.30
924.277,1512.00
925.230,1490.00
926.183,1463.83
927.138,1494.40
928.091,1467.13
929.044,1480.07
929.996,1531.33
930.949,1476.73
931.902,1480.83
932.854,1507.83
933.806,1514.90
934.758,1451.77
935.711,1475.73
936.663,1485.53
937.614,1479.20
938.568,1500.33
939.520,1456.60
940.471,1465.03
941.423,1479.50
942.374,1462.47
943.326,1440.63
944.277,1469.10
945.228,1495.50
946.179,1536.60
947.130,1507.80
948.080,1474.17
949.031,1489.73
949.984,1473.10
950.934,1456.50
951.884,1484.80
952.835,1459.57
953.785,1453.43
954.735,1438.53
955.685,1431.47
956.635,1496.40
957.585,1487.70
958.534,1475.97
959.484,1426.47
960.433,1443.03
961.383,1443.43
962.334,1460.00
963.283,1472.30
964.232,1412.87
965.181,1449.30
966.130,1442.97
967.079,1461.23
968.027,1474.93
968.976,1447.87
969.924,1450.63
970.873,1450.67
971.821,1448.90
972.769,1436.37
973.719,1421.37
974.667,1440.53
975.615,1453.43
976.562,1422.93
977.510,1431.77
978.458,1449.70
979.405,1415.00
980.352,1412.03
981.300,1455.87
982.247,1447.63
983.194,1462.17
984.141,1460.77
985.088,1463.33
986.036,1420.97
986.983,1436.07
987.930,1427.73
988.876,1419.40
989.822,1383.43
990.769,1422.10
991.715,1421.60
992.661,1398.63
993.607,1399.93
994.553,1425.33
995.498,1408.67
996.444,1393.83
997.389,1403.57
998.337,1383.73
999.282,1440.60
1000.227,1444.97
1001.173,1419.17
1002.118,1422.57
1003.062,1432.23
1004.007,1442.67
1004.952,1420.63
1005.897,1398.73
1006.841,1388.90
1007.786,1424.47
1008.730,1423.40
1009.674,1376.13
1010.618,1392.93
1011.564,1413.47
1012.508,1399.53
1013.452,1380.77
1014.396,1362.70
1015.339,1371.87
1016.283,1413.20
1017.226,1387.97
1018.170,1377.87
1019.113,1379.73
1020.056,1424.00
1020.999,1400.83
1021.942,1393.87
1022.885,1373.20
1023.828,1392.87
1024.770,1387.17
1025.715,1368.30
1026.657,1386.70
1027.600,1366.57
1028.542,1381.07
1029.484,1407.57
1030.426,1354.27
1031.368,1388.27
1032.310,1385.03
1033.251,1350.80
1034.193,1378.67
1035.135,1398.97
1036.076,1414.73
1037.017,1368.43
1037.959,1409.07
1038.900,1386.93
1039.843,1367.70
1040.784,1374.90
1041.725,1405.07
1042.665,1388.97
1043.606,1410.63
1044.547,1373.63
1045.487,1369.37
1046.427,1370.17
1047.368,1406.17
1048.308,1385.13
1049.248,1379.67
1050.188,1362.13
1051.128,1368.30
1052.067,1380.07
1053.007,1374.23
1053.947,1369.17
1054.886,1369.73
1055.827,1397.73
1056.766,1373.50
1057.706,1404.80
1058.645,1385.57
1059.584,1389.70
1060.522,1372.57
1061.461,1423.30
1062.400,1385.37
1063.338,1395.93
1064.277,1398.53
1065.215,1361.03
1066.154,1418.37
1067.092,1436.17
1068.030,1423.80
1068.968,1384.53
1069.906,1387.33
1070.843,1429.37
1071.781,1411.47
1072.720,1411.00
1073.658,1384.37
1074.595,1395.77
1075.533,1404.67
1076.470,1374.27
1077.407,1407.13
1078.344,1428.67
1079.281,1419.00
1080.217,1391.77
1081.154,1409.13
1082.091,1385.30
1083.027,1395.80
1083.964,1412.37
1084.900,1394.53
1085.836,1399.90
1086.772,1387.97
1087.708,1413.53
1088.644,1399.20
1089.580,1410.40
1090.515,1395.50
1091.451,1394.20
1092.388,1413.13
1093.324,1396.57
1094.259,1400.90
1095.194,1377.20
1096.129,1420.23
1097.064,1375.47
1097.999,1354.97
1098.934,1384.23
1099.869,1388.47
1100.803,1401.23
1101.738,1368.90
1102.672,1417.60
1103.607,1359.53
1104.541,1363.10
1105.475,1361.97
1106.409,1373.93
1107.343,1392.67
1108.277,1368.43
1109.210,1347.03
1110.144,1369.03
1111.078,1364.63
1112.011,1373.23
1112.944,1363.03
1113.878,1333.27
1114.811,1333.83
1115.744,1323.97
1116.678,1323.77
1117.611,1342.87
1118.544,1336.10
1119.477,1353.93
1120.409,1297.27
1121.342,1338.67
1122.274,1373.77
1123.206,197.47
1124.138,1358.17
1125.070,1308.00
1126.002,1355.87
1126.934,1335.83
1127.866,1320.30
1128.798,1317.83
1129.729,1351.30
1130.661,1336.63
1131.592,1328.60
1132.523,1320.80
1133.454,1293.60
1134.385,1278.03
1135.317,1341.50
1136.247,1324.23
1137.178,1305.43
1138.109,1310.07
1139.039,1304.87
1139.970,1310.20
1140.900,1321.60
1141.831,1283.97
1142.761,1331.80
1143.691,1643.27
1144.621,1265.70
1145.551,1297.90
1146.480,1278.00
1147.410,1306.60
1148.340,1271.90
1149.269,1306.67
1150.199,1295.50
1151.128,1277.07
1152.057,1261.50
1152.979,1287.33
1153.898,1290.17
1154.819,1222.90
1155.739,1289.93
1156.658,1318.43
1157.579,1269.27
1158.498,1273.90
1159.419,1239.87
1160.338,1279.17
1161.256,1275.10
1162.177,1291.27
1163.095,1324.10
1164.016,1273.70
1164.934,1286.30
1165.852,1267.83
1166.772,1301.30
1167.690,1288.53
1168.610,1231.60
1169.528,1279.90
1170.446,1263.93
1171.365,1281.03
1172.283,1255.70
1173.202,1258.37
1174.120,1305.10
1175.037,1272.67
1175.956,1231.63
1176.873,1301.93
1177.792,1284.70
1178.709,1311.57
1179.626,1280.50
1180.544,1282.23
1181.461,1259.53
1182.379,1260.63
1183.296,1293.53
1184.212,1286.57
1185.130,1260.23
1186.046,1304.10
1186.962,1220.73
1187.880,1279.73
1188.796,1261.53
1189.714,1279.50
1190.629,1264.20
1191.545,1267.87
1192.462,1229.53
1193.378,1252.33
1194.295,1285.37
1195.210,1272.83
1196.125,1261.23
1197.042,1277.47
1197.957,1293.97
1198.872,1304.73
1199.788,1247.80
1200.703,1272.93
1201.619,1261.23
1202.534,1241.10
1203.448,1276.90
1204.364,1272.37
1205.278,1274.13
1206.192,1242.90
1207.108,1260.67
1208.022,1281.30
1208.938,1296.67
1209.851,1243.53
1210.765,1264.57
1211.680,1274.73
1212.594,1298.77
1213.507,1271.17
1214.422,1280.47
1215.335,1283.70
1216.248,1293.90
1217.163,1284.63
1218.076,1291.67
1218.990,1298.33
1219.903,1265.30
1220.816,1314.50
1221.730,1327.47
1222.642,1304.10
1223.554,1271.23
1224.469,1241.70
1225.380,1280.00
1226.292,1312.07
1227.206,1269.67
1228.118,1283.40
1229.032,1300.70
1229.943,1281.13
1230.855,1289.30
1231.768,1305.03
1232.679,1295.00
1233.590,1286.53
1234.503,1277.03
1235.414,1308.97
1236.325,1303.17
1237.238,1288.57
1238.149,1304.87
1239.059,1256.67
1239.972,1311.13
1240.882,1313.87
1241.793,1329.93
1242.705,1293.30
1243.615,1292.90
1244.525,1322.07
1245.437,1287.60
1246.347,1325.20
1247.259,1330.23
1248.168,1301.53
1249.078,1281.73
1249.989,1286.90
1250.899,1301.67
1251.808,1339.97
1252.719,1283.43
1253.628,1329.57
1254.537,1318.93
1255.448,1304.57
1256.357,1309.83
1257.266,1306.63
1258.176,1319.53
1259.085,1332.47
1259.993,1295.27
1260.904,1312.73
1261.812,1290.60
1262.720,1314.07
1263.630,1334.20
1264.538,1288.60
1265.446,1340.30
1266.356,1322.90
1267.263,1299.93
1268.171,1273.37
1269.080,1298.23
1269.988,1295.03
1270.895,1314.43
1271.804,1334.83
1272.711,1303.93
1273.619,1333.03
1274.527,1285.47
1275.434,1323.23
1276.341,1303.87
1277.248,1316.40
1278.156,1324.87
1279.063,1290.23
1279.969,1294.43
1280.877,1312.13
1281.783,1292.90
1282.690,1266.43
1283.598,1321.00
1284.503,1319.10
1285.409,1298.57
1286.317,1277.27
1287.223,1292.70
1288.128,1298.13
1289.036,1322.97
1289.941,1278.10
1290.846,1279.03
1291.751,1275.73
1292.658,1264.53
1293.563,1262.13
1294.468,1272.23
1295.375,1293.47
1296.280,1278.23
1297.184,1284.77
1298.091,1249.03
1298.995,1292.70
1299.900,1252.10
1300.806,1237.30
1301.710,1261.60
1302.614,1274.47
1303.518,1246.97
1304.424,1268.03
1305.327,1244.30
1306.231,1265.90
1307.137,1259.80
1308.040,1243.73
1308.943,1243.03
1309.847,1217.70
1310.752,1237.87
1311.655,1240.20
1312.558,1243.13
1313.463,1253.03
1314.366,1204.80
1315.269,1216.07
1316.171,1209.43
1317.076,1234.90
1317.978,1225.67
1318.881,1198.67
1319.785,1206.33
1320.687,1193.90
1321.589,1178.50
1322.491,1172.70
1323.395,1218.53
1324.297,1202.97
1325.198,1193.37
1326.102,1216.57
1327.004,1213.60
1327.905,1149.93
1328.806,1176.13
1329.709,1186.27
1330.611,1192.47
1331.512,1196.43
1332.413,1147.90
1333.316,1168.33
1334.216,1150.03
1335.117,1169.50
1336.020,1186.50
1336.920,1190.83
1337.821,1151.30
1338.721,1198.80
1339.623,1130.87
1340.523,1184.83
1341.423,1187.53
1342.323,1148.80
1343.225,1152.00
1344.125,1150.37
1345.025,1111.70
1345.924,1156.87
1346.826,1150.07
1347.725,1146.53
1348.624,1124.10
1349.524,1142.60
1350.425,1123.07
1351.324,1131.77
1352.223,1181.93
1353.121,1133.93
1354.022,1154.33
1354.921,1105.77
1355.819,1147.33
1356.718,1141.77
1357.618,1103.00
1358.516,1115.10
1359.415,1110.07
1360.313,1097.63
1361.213,1121.57
1362.111,1094.27
1363.008,1137.20
1363.906,1114.03
1364.806,1056.87
1365.703,1120.53
1366.601,1106.87
1367.498,1095.43
1368.397,1147.80
1369.295,1097.47
1370.192,1047.30
1371.089,1113.63
1371.987,1079.53
1372.884,1076.43
1373.781,1099.60
1374.678,1071.00
1375.574,1084.23
1376.473,1084.27
1377.369,1078.43
1378.265,1069.03
1379.161,1089.97
1380.059,1066.63
1380.955,1054.53
1381.851,1116.63
1382.747,1067.60
1383.643,1048.77
1384.540,1096.37
1385.436,1043.60
1386.331,1067.87
1387.227,1037.30
1388.124,1059.60
1389.019,1059.47
1389.914,1055.93
1390.809,1070.33
1391.704,1017.53
1392.601,1055.83
1393.495,1070.63
1394.390,1063.20
1395.285,1055.80
1396.179,1032.77
1397.075,1014.33
1397.969,1050.70
1398.864,1035.17
1399.758,1040.37
1400.652,1068.27
1401.547,1040.00
1402.441,1029.00
1403.335,1044.53
1404.229,1071.23
1405.122,1007.40
1406.017,1021.03
1406.911,1031.73
1407.804,1066.27
1408.697,1009.90
1409.590,1046.77
1410.485,1044.87
1411.378,1010.70
1412.271,987.10
1413.163,1045.27
1414.056,1010.37
1414.949,1058.07
1415.843,1034.37
1416.735,1011.17
1417.627,1001.00
1418.520,1011.47
1419.412,1006.70
1420.306,1016.43
1421.197,1015.17
1422.089,1022.67
1422.981,1003.90
1423.873,1025.90
1424.764,1041.93
1425.657,995.10
1426.549,1058.67
1427.440,1029.93
1428.331,1017.60
1429.222,970.60
1430.113,1017.80
1431.006,989.23
1431.897,982.43
1432.787,1000.47
1433.678,1030.00
1434.568,994.80
1435.459,993.33
1436.351,1014.30
1437.241,1009.27
1438.131,1004.37
1439.021,979.87
1439.911,1006.33
1440.801,946.63
1441.693,1004.10
1442.583,962.23
1443.472,962.20
1444.362,940.17
1445.251,1007.80
1446.140,993.77
1447.030,958.83
1447.921,964.03
1448.810,1021.90
1449.699,994.90
1450.588,983.57
1451.476,985.70
1452.365,980.03
1453.254,999.67
1454.144,953.40
1455.032,947.97
1455.921,967.00
1456.809,963.40
1457.697,964.63
1458.585,1010.70
1459.473,974.73
1460.361,943.27
1461.251,966.17
1462.138,962.00
1463.026,992.23
1463.913,938.40
1464.801,935.50
1465.688,967.97
1466.575,970.97
1467.463,930.57
1468.351,960.13
1469.238,942.40
1470.125,965.53
1471.012,898.30
1471.899,957.30
1472.785,938.50
1473.672,924.13
1474.558,931.00
1475.446,936.03
1476.333,950.20
1477.219,944.30
1478.105,923.43
1478.991,957.87
1479.877,951.20
1480.762,942.00
1481.648,935.00
1482.534,946.07
1483.419,938.63
1484.307,945.60
1485.192,973.50
1486.077,939.37
1486.962,919.10
1487.847,892.40
1488.732,931.93
1489.617,901.00
1490.502,935.13
1491.387,957.47
1492.271,931.67
1493.156,935.97
1494.042,922.23
1494.927,957.57
1495.811,927.97
1496.695,975.97
1497.579,937.33
1498.463,941.30
1499.347,945.00
1500.231,932.10
1501.114,906.17
1501.998,916.87
1502.881,907.77
1503.765,920.23
1504.648,916.07
1505.533,912.53
1506.417,917.97
1507.300,924.17
1508.183,919.83
1509.066,931.60
1509.948,935.10
1510.831,965.37
1511.714,927.80
1512.596,934.83
1513.479,930.83
1514.361,909.67
1515.243,902.93
1516.125,914.40
1517.008,903.83
1517.890,900.63
1518.771,907.17
1519.655,923.90
1520.537,902.13
1521.419,880.83
1522.300,889.00
1523.182,901.17
1524.063,878.10
1524.944,871.83
1525.825,912.80
1526.707,937.50
1527.588,873.43
1528.468,913.97
1529.349,907.07
1530.230,882.00
1531.111,901.43
1531.991,925.43
1532.872,866.10
1533.752,893.77
1534.632,893.20
1535.513,901.13
1536.393,892.70
1537.273,887.40
1538.153,904.60
1539.032,872.20
1539.912,869.50
1540.792,929.83
1541.672,867.77
1542.551,877.10
1543.430,844.73
1544.310,877.57
1545.189,885.27
1546.068,907.17
1546.947,893.33
1547.826,883.40
1548.705,906.93
1549.584,851.23
1550.462,846.23
1551.341,873.87
1552.219,856.70
1553.098,857.47
1553.976,883.17
1554.854,897.73
1555.733,894.70
1556.611,873.43
1557.489,848.67
1558.367,834.93
1559.244,885.70
1560.122,873.80
1561.000,867.93
1561.877,885.20
1562.755,874.57
1563.632,895.63
1564.509,852.63
1565.386,850.50
1566.264,862.20
1567.141,852.10
1568.017,834.73
1568.894,867.00
1569.771,857.30
1570.648,842.87
1571.524,848.23
1572.401,828.80
1573.277,844.40
1574.153,858.07
1575.029,824.53
1575.906,884.77
1576.781,855.13
1577.657,890.70
1578.533,846.07
1579.409,843.07
1580.285,869.83
1581.160,857.63
1582.036,868.80
1582.911,868.03
1583.786,843.63
1584.662,840.90
1585.537,841.80
1586.412,880.73
1587.287,847.07
1588.160,837.20
1589.035,825.63
1589.909,871.67
1590.784,853.07
1591.658,822.73
1592.533,880.13
1593.407,880.57
1594.281,863.20
1595.155,860.13
1596.029,857.50
1596.903,852.00
1597.777,819.43
1598.651,830.23
1599.525,828.43
1600.398,829.70
1601.272,825.03
1602.144,911.47
1603.017,840.07
1603.890,823.57
1604.763,805.50
1605.636,833.30
1606.509,851.93
1607.382,848.77
1608.255,828.90
1609.128,855.53
1610.000,853.17
1610.873,843.87
1611.746,863.60
1612.616,839.43
1613.488,873.07
1614.361,840.93
1615.233,837.53
1616.105,812.80
1616.977,829.87
1617.849,816.70
1618.720,856.93
1619.592,831.23
1620.464,827.40
1621.333,827.10
1622.205,830.13
1623.076,854.17
1623.947,858.97
1624.818,862.27
1625.689,822.93
1626.560,802.13
1627.431,841.37
1628.302,842.93
1629.171,788.43
1630.042,838.33
1630.912,874.87
1631.782,835.20
1632.653,856.00
1633.523,795.93
1634.393,789.77
1635.263,818.53
1636.131,799.87
1637.001,842.23
1637.871,783.00
1638.741,792.60
1639.611,787.53
1640.480,823.00
1641.350,795.83
1642.219,832.80
1643.087,814.17
1643.956,825.90
1644.825,812.03
1645.694,804.73
1646.563,831.57
1647.432,803.90
1648.299,839.13
1649.167,810.53
1650.036,791.10
1650.904,853.63
1651.773,816.33
1652.641,821.57
1653.509,788.37
1654.376,783.80
1655.244,787.30
1656.112,777.40
1656.980,838.60
1657.847,822.97
1658.715,808.17
1659.581,821.67
1660.448,812.37
1661.316,797.70
1662.183,809.53
1663.051,842.47
1663.918,841.03
1664.783,801.83
1665.650,793.97
1666.517,799.47
1667.384,832.30
1668.251,820.27
1669.115,785.43
1669.982,842.03
1670.849,830.00
1671.715,780.00
1672.581,827.07
1673.446,812.47
1674.312,810.50
1675.178,802.17
1676.044,771.33
1676.910,766.40
1677.774,832.17
1678.639,831.13
1679.505,800.37
1680.370,788.27
1681.236,782.27
1682.099,816.20
1682.965,796.83
1683.830,799.20
1684.695,805.00
1685.560,774.47
1686.423,779.37
1687.288,812.63
1688.153,784.13
1689.017,819.00
1689.880,759.70
1690.745,820.43
1691.609,823.17
1692.473,748.63
1693.338,822.03
1694.200,813.23
1695.064,770.10
1695.928,792.53
1696.792,804.20
1697.654,836.23
1698.517,797.53
1699.381,808.63
1700.245,767.50
1701.106,755.23
1701.969,797.03
1702.833,790.30
1703.696,761.77
1704.557,794.47
1705.420,799.23
1706.283,810.03
1707.146,796.87
1708.007,798.07
1708.870,793.93
1709.732,801.80
1710.595,784.33
1711.455,774.23
1712.318,790.90
1713.180,840.97
1714.040,816.47
1714.902,800.20
1715.764,823.80
1716.626,789.83
1717.486,800.33
1718.348,794.20
1719.209,843.40
1720.071,754.13
1720.930,807.37
1721.792,780.63
1722.653,786.50
1723.512,801.80
1724.374,762.93
1725.234,815.33
1726.095,786.33
1726.954,809.83
1727.815,797.83
1728.676,823.87
1729.535,794.70
1730.395,792.50
1731.256,810.07
1732.114,776.30
1732.974,769.33
1733.834,809.37
1734.693,783.60
1735.553,785.13
1736.413,788.90
1737.272,765.13
1738.130,779.23
1738.990,782.23
1739.849,801.67
1740.707,756.23
1741.566,763.10
1742.426,798.17
1743.283,793.07
1744.142,792.40
1745.001,781.63
1745.858,796.53
1746.717,777.20
1747.576,815.03
1748.433,791.50
1749.292,768.03
1750.150,794.90
1751.007,768.27
1751.865,772.13
1752.723,780.10
1753.579,796.57
1754.438,767.07
1755.296,789.07
1756.152,768.10
1757.010,793.67
1757.865,813.50
1758.723,737.77
1759.581,803.50
1760.436,759.47
1761.294,798.03
1762.151,780.67
1763.006,800.37
1763.864,784.40
1764.721,800.40
1765.576,785.23
1766.433,836.17
1767.288,766.93
1768.144,762.77
1769.001,763.60
1769.856,756.43
1770.712,768.93
1771.568,813.57
1772.423,742.77
1773.279,739.67
1774.133,774.40
1774.989,756.33
1775.845,839.20
1776.699,768.47
1777.555,801.97
1778.409,751.33
1779.265,787.37
1780.120,762.33
1780.974,776.63
1781.829,760.30
1782.682,812.50
1783.538,814.10
1784.393,768.73
1785.246,811.37
1786.101,783.77
1786.954,764.30
1787.808,753.07
1788.661,766.83
1789.516,808.33
1790.370,764.47
1791.223,762.60
1792.077,764.33
1792.930,756.63
1793.784,748.17
1794.636,774.27
1795.490,777.43
1796.344,776.50
1797.196,777.67
1798.049,781.83
1798.901,789.87
1799.755,734.73
1800.606,754.27
1801.460,779.67
1802.311,763.57
1803.165,812.03
1804.018,787.43
1804.869,774.20
1805.722,729.30
1806.573,743.73
1807.426,800.03
1808.276,797.13
1809.129,743.87
1809.980,753.73
1810.832,761.47
1811.683,746.00
1812.535,766.53
1813.385,810.47
1814.237,737.23
1815.089,802.30
1815.940,759.20
1816.791,758.00
1817.641,751.53
1818.493,783.53
1819.343,741.23
1820.194,746.60
1821.044,794.00
1821.895,732.37
1822.745,754.87
1823.596,745.17
1824.445,761.40
1825.296,772.77
1826.145,741.63
1826.996,792.97
1827.845,766.90
1828.695,748.80
1829.544,731.30
1830.395,748.57
1831.243,754.13
1832.094,781.43
1832.942,754.43
1833.792,748.33
1834.640,745.70
1835.490,766.80
1836.338,736.57
1837.186,722.50
1838.036,720.67
1838.884,749.57
1839.733,756.17
1840.581,761.83
1841.430,751.23
1842.278,777.37
1843.127,754.87
1843.974,774.83
1844.823,757.00
1845.671,768.80
1846.519,781.60
1847.366,725.03
1848.213,748.30
1849.062,746.63
1849.909,717.97
1850.757,755.53
1851.604,719.27
1852.452,774.57
1853.298,784.70
1854.146,757.90
1854.993,730.17
1855.839,777.40
1856.687,786.03
1857.532,747.47
1858.380,749.97
1859.226,719.70
1860.073,771.50
1860.919,761.80
1861.765,776.00
1862.612,732.67
1863.457,759.63
1864.304,745.93
1865.150,760.50
1865.995,752.30
1866.842,757.53
1867.686,747.37
1868.533,746.60
1869.378,793.83
1870.223,738.47
1871.069,756.37
1871.914,766.43
1872.760,783.80
1873.604,775.87
1874.448,724.80
1875.294,757.97
1876.139,747.70
1876.984,774.80
1877.828,754.33
1878.672,734.43
1879.518,761.43
1880.361,752.50
1881.205,723.47
1882.050,733.83
1882.894,728.43
1883.739,733.33
1884.582,751.93
1885.425,776.23
1886.270,769.23
1887.113,746.23
1887.956,740.43
1888.801,732.20
1889.644,753.63
1890.486,750.73
1891.331,754.33
1892.173,737.07
1893.017,772.30
1893.860,735.93
1894.702,739.33
1895.546,731.23
1896.388,750.10
1897.230,761.03
1898.074,720.77
1898.916,758.83
1899.757,730.87
1900.601,722.73
1901.443,760.80
1902.284,739.87
1903.125,724.30
1903.969,760.57
1904.810,757.60
1905.651,750.17
1906.494,716.20
1907.335,693.23
1908.176,685.47
1909.018,737.43
1909.859,737.63
1910.700,719.97
1911.542,747.23
1912.383,770.03
1913.223,745.97
1914.064,787.93
1914.906,730.97
1915.746,740.97
1916.586,768.43
1917.428,773.40
1918.268,719.67
1919.107,741.93
1919.947,720.83
1920.789,737.27
1921.628,727.80
1922.468,746.23
1923.309,717.67
1924.148,746.37
1924.988,752.33
1925.827,773.93
1926.667,750.27
1927.507,736.53
1928.345,720.37
1929.184,742.53
1930.025,732.77
1930.864,741.00
1931.702,737.70
1932.541,722.87
1933.381,715.23
1934.219,752.00
1935.057,721.73
1935.896,735.53
1936.735,721.10
1937.573,751.30
1938.411,754.07
1939.249,772.63
1940.089,732.57
1940.927,672.37
1941.764,744.17
1942.602,768.90
1943.439,720.87
1944.278,740.37
1945.115,769.87
1945.953,751.13
1946.790,743.37
1947.628,717.07
1948.465,752.73
1949.302,717.87
1950.139,715.60
1950.976,729.70
1951.814,729.73
1952.651,745.37
1953.487,737.43
1954.323,699.10
1955.160,733.83
1955.998,717.90
1956.834,716.97
1957.670,769.60
1958.506,749.40
1959.342,741.90
1960.177,734.43
1961.015,717.83
1961.850,749.40
1962.686,736.13
1963.521,725.73
1964.357,749.13
1965.192,753.77
1966.029,718.07
1966.864,720.13
1967.699,744.27
1968.534,727.73
1969.369,754.40
1970.204,743.27
1971.040,746.93
1971.875,699.63
1972.709,732.87
1973.544,696.83
1974.378,738.60
1975.212,740.17
1976.047,721.60
1976.882,728.63
1977.716,724.00
1978.550,744.27
1979.384,764.77
1980.218,747.43
1981.052,747.83
1981.885,729.53
1982.719,744.70
1983.554,763.17
1984.388,732.67
1985.221,730.43
1986.054,698.80
1986.887,723.93
1987.720,717.57
1988.553,741.13
1989.386,751.73
1990.219,740.17
1991.053,707.67
1991.886,709.47
1992.719,712.47
1993.551,759.93
1994.383,723.43
1995.216,745.60
1996.048,733.90
1996.880,745.03
1997.712,706.23
1998.544,731.03
1999.376,720.23
2000.208,704.60
2001.040,746.93
2001.873,739.80
2002.705,726.40
2003.536,707.90
2004.367,746.77
2005.199,720.73
2006.030,723.53
2006.861,741.17
2007.692,710.27
2008.523,732.17
2009.354,714.17
2010.185,733.47
2011.016,710.60
2011.846,756.50
2012.677,704.53
2013.507,771.80
2014.338,729.77
2015.168,764.90
2015.999,714.00
2016.829,720.00
2017.659,745.53
2018.489,730.10
2019.319,734.90
2020.149,725.97
2020.980,727.50
2021.810,738.10
2022.639,719.70
2023.469,723.90
2024.298,764.20
2025.128,725.80
2025.957,731.77
2026.786,738.40
2027.615,745.90
2028.444,755.03
2029.273,737.23
2030.102,748.07
2030.931,758.30
2031.758,760.23
2032.586,727.03
2033.415,712.23
2034.243,721.57
2035.072,758.00
2035.900,766.07
2036.728,712.50
2037.556,744.93
2038.385,792.00
2039.213,718.00
2040.040,751.37
2040.868,768.70
2041.696,728.57
2042.524,757.07
2043.351,769.53
2044.179,713.87
2045.006,745.13
2045.006,745.13

Max Intensity Wave.,217.871
Max Intensity Data,5412.57
Min Intensity Wave.,1123.206
Min Intensity Data,197.47
FWHM Wave.,400.223
FWHM Value,0.83
Pressure Wave.,684.671
Pressure Value [GPa],-24.91530
G/D Ratio,0.72921
G/D Gband Wave.,1540.792
G/D Gband Intensity,929.83
G/D Dband Wave.,1302.450
G/D Dband Intensity,1275.13

<< BACKGROUND SPECTRUM >>
Wave[dcm-1],No38
146.591,2258.00
147.626,2114.00
148.664,2072.00
149.699,2574.00
150.737,2289.00
151.772,2392.00
152.809,2357.00
153.846,2308.00
154.881,2409.00
155.918,1987.00
156.953,2272.00
157.989,2610.00
159.026,2461.00
160.060,2643.00
161.096,2863.00
162.130,2504.00
163.167,2552.00
164.200,2467.00
165.236,2651.00
166.272,2691.00
167.305,2285.00
168.341,2541.00
169.374,2798.00
170.409,2747.00
171.445,2726.00
172.477,2543.00
173.512,2422.00
174.545,2681.00
175.580,2874.00
176.614,3032.00
177.647,2802.00
178.681,3052.00
179.713,3303.00
180.747,2824.00
181.781,2736.00
182.813,2980.00
183.847,3097.00
184.878,2742.00
185.912,2976.00
186.945,3109.00
187.976,3081.00
189.010,2683.00
190.043,2833.00
191.073,2917.00
192.106,2703.00
193.137,3179.00
194.170,2563.00
195.202,2882.00
196.232,2695.00
197.265,2998.00
198.297,3062.00
199.327,2774.00
200.359,2952.00
201.388,3323.00
202.420,2881.00
203.452,3085.00
204.481,2684.00
205.512,3345.00
206.544,3102.00
207.573,3075.00
208.604,3418.00
209.635,3536.00
210.663,2938.00
211.694,2945.00
212.725,2842.00
213.753,2796.00
214.783,3337.00
215.813,3228.00
216.841,3010.00
217.871,3145.00
218.899,2916.00
219.929,3138.00
220.959,2860.00
221.986,3116.00
223.016,2763.00
224.045,3153.00
225.072,3089.00
226.101,3208.00
227.130,3217.00
228.157,2823.00
229.185,2334.00
230.214,3190.00
231.241,2853.00
232.269,2435.00
233.297,2674.00
234.323,3236.00
235.351,2816.00
236.379,3047.00
237.407,2770.00
238.433,2985.00
239.460,3112.00
240.488,3164.00
241.513,3198.00
242.540,3105.00
243.568,3198.00
244.592,3201.00
245.619,3168.00
246.646,2945.00
247.671,2986.00
248.697,2828.00
249.724,3015.00
250.748,3008.00
251.774,3027.00
252.801,3285.00
253.827,3092.00
254.850,3086.00
255.876,2708.00
256.902,3134.00
257.925,3002.00
258.951,2725.00
259.976,2765.00
260.999,3057.00
262.024,2817.00
263.049,3668.00
264.074,3123.00
265.097,3038.00
266.122,3063.00
267.146,2986.00
268.168,3212.00
269.193,2870.00
270.217,3192.00
271.241,2727.00
272.263,2876.00
273.287,3173.00
274.311,2776.00
275.332,3308.00
276.356,2838.00
277.379,3056.00
278.402,3122.00
279.424,2941.00
280.447,2933.00
281.470,2741.00
282.492,3092.00
283.513,2904.00
284.536,3163.00
285.558,3154.00
286.581,3074.00
287.601,2873.00
288.623,2841.00
289.645,3066.00
290.665,3112.00
291.687,3121.00
292.709,3123.00
293.730,3395.00
294.750,2892.00
295.771,2760.00
296.792,3079.00
297.813,2931.00
298.832,3078.00
299.853,2716.00
300.874,3016.00
301.895,2931.00
302.913,2963.00
303.934,3293.00
304.954,2989.00
305.975,3225.00
306.993,2747.00
308.013,3162.00
309.033,2982.00
310.052,2919.00
311.072,2931.00
312.090,3023.00
313.109,3229.00
314.129,3425.00
315.148,3006.00
316.165,3078.00
317.184,3235.00
318.203,2754.00
319.222,2786.00
320.238,3136.00
321.257,2793.00
322.275,2702.00
323.294,3000.00
324.312,3160.00
325.328,3261.00
326.346,3275.00
327.364,3244.00
328.382,3173.00
329.397,3125.00
330.415,3218.00
331.432,3215.00
332.450,3269.00
333.467,3447.00
334.482,2578.00
335.499,3337.00
336.516,2919.00
337.533,2602.00
338.547,2847.00
339.564,2853.00
340.580,3099.00
341.597,2946.00
342.613,3481.00
343.627,2934.00
344.643,3039.00
345.659,3082.00
346.675,2984.00
347.690,2922.00
348.704,3105.00
349.719,2867.00
350.735,2716.00
351.750,3197.00
352.765,2988.00
353.778,3022.00
354.793,3123.00
355.808,2861.00
356.822,3198.00
357.837,2693.00
358.851,3237.00
359.864,2979.00
360.878,2731.00
361.892,2981.00
362.906,3186.00
363.920,2611.00
364.932,3115.00
365.945,3118.00
366.959,2966.00
367.972,2957.00
368.986,2707.00
369.999,3366.00
371.010,2852.00
372.023,3344.00
373.036,3007.00
374.049,3346.00
375.061,3048.00
376.072,2968.00
377.084,2876.00
378.097,2707.00
379.109,3153.00
380.121,2972.00
381.133,2689.00
382.143,3152.00
383.155,2786.00
384.166,2891.00
385.178,3120.00
386.189,3254.00
387.201,2709.00
388.212,2893.00
389.221,2914.00
390.232,3013.00
391.243,2940.00
392.254,3055.00
393.264,2839.00
394.275,3244.00
395.283,3166.00
396.294,3628.00
397.304,3447.00
398.314,3102.00
399.324,3049.00
400.334,2612.00
401.344,3153.00
402.351,2638.00
403.361,3212.00
404.370,2975.00
405.380,2937.00
406.389,3342.00
407.398,3140.00
408.407,3104.00
409.414,3134.00
410.423,3311.00
411.431,2785.00
412.440,2700.00
413.448,3369.00
414.457,2876.00
415.465,2838.00
416.471,2862.00
417.479,3012.00
418.487,2762.00
419.495,3261.00
420.503,3113.00
421.510,2581.00
422.518,3137.00
423.525,3192.00
424.530,3403.00
425.537,2934.00
426.544,3210.00
427.551,2854.00
428.558,3581.00
429.565,3494.00
430.571,2912.00
431.578,2896.00
432.582,2897.00
433.588,2975.00
434.595,2629.00
435.601,3301.00
436.607,3201.00
437.612,2774.00
438.618,3311.00
439.624,2930.00
440.627,2919.00
441.633,3126.00
442.638,3585.00
443.643,3110.00
444.648,3024.00
445.653,3179.00
446.658,2872.00
447.663,2998.00
448.667,2884.00
449.672,2896.00
450.674,2991.00
451.678,2725.00
452.682,2885.00
453.687,2857.00
454.690,3604.00
455.694,3270.00
456.698,2578.00
457.702,2654.00
458.705,2786.00
459.709,2832.00
460.710,2848.00
461.713,3012.00
462.716,3037.00
463.719,2996.00
464.722,3157.00
465.725,2949.00
466.727,2825.00
467.730,3067.00
468.732,2784.00
469.735,3294.00
470.737,2927.00
471.737,2923.00
472.739,2879.00
473.741,2832.00
474.742,3092.00
475.744,3103.00
476.746,3058.00
477.747,2954.00
478.748,3149.00
479.750,2929.00
480.751,3003.00
481.752,3756.00
482.753,3112.00
483.751,3586.00
484.752,2603.00
485.753,2999.00
486.753,2861.00
487.753,3005.00
488.754,3416.00
489.754,2711.00
490.754,3323.00
491.754,3118.00
492.754,2715.00
493.753,3008.00
494.753,2927.00
495.752,3323.00
496.752,3012.00
497.749,2999.00
498.748,2904.00
499.747,3379.00
500.746,3123.00
501.745,2793.00
502.744,2762.00
503.742,3337.00
504.741,2959.00
505.739,2486.00
506.737,2878.00
507.735,3116.00
508.734,3371.00
509.732,3142.00
510.729,3328.00
511.727,2889.00
512.725,2912.00
513.720,2795.00
514.718,3221.00
515.715,2668.00
516.712,2650.00
517.709,2997.00
518.706,2851.00
519.703,3030.00
520.700,3197.00
521.696,3396.00
522.693,2906.00
523.689,2806.00
524.686,3160.00
525.682,2798.00
526.678,3436.00
527.674,2893.00
528.670,2608.00
529.666,3500.00
530.661,3488.00
531.657,3665.00
532.652,3131.00
533.648,3000.00
534.641,3220.00
535.636,3080.00
536.631,3126.00
537.626,3155.00
538.621,2776.00
539.616,2616.00
540.610,2500.00
541.605,3021.00
542.599,3082.00
543.593,2976.00
544.587,3912.00
545.581,2836.00
546.575,3027.00
547.569,3077.00
548.563,2681.00
549.557,2660.00
550.550,2764.00
551.543,2758.00
552.537,3186.00
553.530,2787.00
554.523,2813.00
555.516,3097.00
556.509,2965.00
557.502,2617.00
558.494,3206.00
559.487,2886.00
560.479,3178.00
561.472,3255.00
562.464,3130.00
563.456,3305.00
564.448,2936.00
565.440,2997.00
566.432,3367.00
567.423,2929.00
568.415,2886.00
569.404,3112.00
570.396,2814.00
571.387,3126.00
572.378,3014.00
573.369,3928.00
574.360,3697.00
575.351,2945.00
576.341,2841.00
577.332,2900.00
578.323,2713.00
579.313,2867.00
580.303,3274.00
581.293,3147.00
582.283,3001.00
583.273,3127.00
584.263,3022.00
585.253,3072.00
586.243,3167.00
587.232,2647.00
588.222,2970.00
589.211,3176.00
590.200,3073.00
591.189,2930.00
592.178,2966.00
593.167,3428.00
594.156,3257.00
595.145,2915.00
596.133,3433.00
597.122,3124.00
598.110,3204.00
599.098,3075.00
600.086,3078.00
601.074,3178.00
602.062,2844.00
603.050,2744.00
604.038,3134.00
605.025,2797.00
606.013,3180.00
607.000,3372.00
607.987,3029.00
608.975,3029.00
609.962,2783.00
610.949,3149.00
611.936,3273.00
612.922,3166.00
613.909,2710.00
614.895,3315.00
615.882,2835.00
616.868,2987.00
617.854,2756.00
618.841,3017.00
619.826,3091.00
620.812,2982.00
621.798,2814.00
622.784,3212.00
623.769,3106.00
624.755,2719.00
625.740,3105.00
626.725,2697.00
627.711,2880.00
628.698,3096.00
629.683,2863.00
630.667,3179.00
631.652,2783.00
632.637,2937.00
633.621,3137.00
634.606,2935.00
635.590,3115.00
636.574,2943.00
637.558,3058.00
638.542,3022.00
639.526,2863.00
640.510,2654.00
641.493,3042.00
642.477,2996.00
643.460,2716.00
644.444,3262.00
645.427,3285.00
646.410,2669.00
647.393,2977.00
648.376,3076.00
649.359,2917.00
650.341,3051.00
651.324,3042.00
652.307,3034.00
653.289,2916.00
654.271,2854.00
655.253,2902.00
656.235,3076.00
657.217,3236.00
658.199,2660.00
659.181,2756.00
660.163,2996.00
661.144,2916.00
662.126,2881.00
663.107,2789.00
664.088,4648.00
665.069,3248.00
666.050,2796.00
667.033,2703.00
668.014,3039.00
668.995,2573.00
669.975,3005.00
670.956,2993.00
671.936,3119.00
672.916,2946.00
673.896,3111.00
674.876,2911.00
675.856,2859.00
676.836,2778.00
677.816,2360.00
678.795,2822.00
679.775,2655.00
680.754,3031.00
681.734,3173.00
682.713,3144.00
683.692,2788.00
684.671,2614.00
685.650,2735.00
686.629,2854.00
687.607,2772.00
688.586,2776.00
689.564,2845.00
690.543,3263.00
691.523,2376.00
692.501,2805.00
693.479,2937.00
694.457,2770.00
695.435,2891.00
696.413,2665.00
697.390,2519.00
698.368,2655.00
699.345,3101.00
700.322,2943.00
701.300,3082.00
702.277,3046.00
703.254,3254.00
704.231,2558.00
705.207,2946.00
706.184,2772.00
707.161,2677.00
708.137,2865.00
709.113,2825.00
710.090,2773.00
711.068,2596.00
712.044,2614.00
713.020,2874.00
713.996,2630.00
714.971,2786.00
715.947,2829.00
716.922,2796.00
717.898,2716.00
718.873,2880.00
719.848,2712.00
720.823,2730.00
721.798,3024.00
722.773,2744.00
723.748,2528.00
724.723,2996.00
725.697,2849.00
726.672,2737.00
727.646,2481.00
728.622,2988.00
729.596,2612.00
730.570,2730.00
731.544,3066.00
732.518,3274.00
733.492,2804.00
734.466,2876.00
735.439,2973.00
736.413,3089.00
737.386,2453.00
738.359,2464.00
739.332,2520.00
740.305,2875.00
741.278,3295.00
742.251,2967.00
743.224,2720.00
744.196,2596.00
745.171,3114.00
746.143,3031.00
747.115,2759.00
748.087,2689.00
749.059,3072.00
750.031,2865.00
751.003,3635.00
751.975,3266.00
752.947,2706.00
753.918,3084.00
754.890,2559.00
755.861,2747.00
756.832,3077.00
757.803,2804.00
758.774,2876.00
759.747,2611.00
760.718,3198.00
761.689,2718.00
762.659,2608.00
763.630,3157.00
764.600,2542.00
765.570,3092.00
766.540,3097.00
767.510,2941.00
768.480,3047.00
769.450,2712.00
770.420,2805.00
771.390,2639.00
772.359,2774.00
773.329,2658.00
774.300,2493.00
775.269,2750.00
776.238,2987.00
777.207,3156.00
778.176,2549.00
779.145,2759.00
780.114,2696.00
781.083,2559.00
782.051,2744.00
783.019,2683.00
783.988,3059.00
784.956,2845.00
785.924,3002.00
786.894,2896.00
787.862,2683.00
788.830,3139.00
789.797,2655.00
790.765,2573.00
791.732,2761.00
792.700,2675.00
793.667,2594.00
794.634,2755.00
795.601,2727.00
796.568,2759.00
797.535,2814.00
798.502,3413.00
799.468,2878.00
800.437,2378.00
801.403,2646.00
802.370,3288.00
803.336,3030.00
804.302,2849.00
805.268,2444.00
806.234,2569.00
807.200,2741.00
808.166,2784.00
809.131,2555.00
810.097,2996.00
811.062,3631.00
812.027,2999.00
812.994,2584.00
813.960,2611.00
814.925,2921.00
815.889,2494.00
816.854,3007.00
817.819,2648.00
818.783,2726.00
819.748,3079.00
820.712,2724.00
821.677,2655.00
822.641,2713.00
823.605,2705.00
824.571,3138.00
825.534,2724.00
826.498,2674.00
827.462,2807.00
828.425,2618.00
829.389,3065.00
830.352,2825.00
831.315,2892.00
832.279,2518.00
833.242,2757.00
834.204,2623.00
835.167,2642.00
836.132,3069.00
837.095,2524.00
838.057,2670.00
839.020,2835.00
839.982,2821.00
840.944,2674.00
841.906,2652.00
842.868,2908.00
843.830,2570.00
844.792,3043.00
845.753,2700.00
846.715,2456.00
847.679,2557.00
848.640,2609.00
849.601,2707.00
850.562,3288.00
851.523,2721.00
852.484,2486.00
853.445,2978.00
854.406,2715.00
855.367,2713.00
856.327,3043.00
857.288,2505.00
858.248,2681.00
859.210,2646.00
860.170,2535.00
861.130,2994.00
862.090,2407.00
863.050,2595.00
864.010,2668.00
864.969,2878.00
865.929,2620.00
866.888,2483.00
867.848,2831.00
868.807,2660.00
869.766,2868.00
870.727,2764.00
871.686,2950.00
872.645,3026.00
873.604,3316.00
874.562,2765.00
875.521,2780.00
876.479,3385.00
877.437,2588.00
878.396,2556.00
879.354,3155.00
880.312,2588.00
881.270,2662.00
882.229,3109.00
883.187,2605.00
884.145,2682.00
885.102,2900.00
886.059,2809.00
887.017,2902.00
887.974,2999.00
888.931,3032.00
889.888,2509.00
890.845,2451.00
891.802,2356.00
892.758,2638.00
893.717,2460.00
894.673,2539.00
895.630,2647.00
896.586,2913.00
897.542,2680.00
898.498,2541.00
899.454,2822.00
900.410,2670.00
901.366,2650.00
902.321,2609.00
903.277,2670.00
904.232,2725.00
905.189,2508.00
906.145,2660.00
907.100,2211.00
908.055,2721.00
909.010,2891.00
909.965,2353.00
910.919,2784.00
911.874,2575.00
912.828,2794.00
913.783,2806.00
914.737,2335.00
915.693,2745.00
916.648,2883.00
917.602,2960.00
918.555,2769.00
919.509,2855.00
920.463,2750.00
921.417,2742.00
922.370,2577.00
923.324,2703.00
924.277,2627.00
925.230,2748.00
926.183,2417.00
927.138,2670.00
928.091,2938.00
929.044,2810.00
929.996,2601.00
930.949,2658.00
931.902,2820.00
932.854,2793.00
933.806,2548.00
934.758,2987.00
935.711,2997.00
936.663,2745.00
937.614,2794.00
938.568,2717.00
939.520,2403.00
940.471,2722.00
941.423,2774.00
942.374,2905.00
943.326,2774.00
944.277,2595.00
945.228,2824.00
946.179,2644.00
947.130,3007.00
948.080,2648.00
949.031,2547.00
949.984,2673.00
950.934,2717.00
951.884,2466.00
952.835,2716.00
953.785,2751.00
954.735,2623.00
955.685,2395.00
956.635,2589.00
957.585,2616.00
958.534,2623.00
959.484,2767.00
960.433,2614.00
961.383,2482.00
962.334,2953.00
963.283,2750.00
964.232,2891.00
965.181,2712.00
966.130,2804.00
967.079,2610.00
968.027,2700.00
968.976,2715.00
969.924,2609.00
970.873,2808.00
971.821,2744.00
972.769,2933.00
973.719,2874.00
974.667,2486.00
975.615,2704.00
976.562,2741.00
977.510,2446.00
978.458,2604.00
979.405,2845.00
980.352,2784.00
981.300,2951.00
982.247,2785.00
983.194,2516.00
984.141,2606.00
985.088,2696.00
986.036,2778.00
986.983,2999.00
987.930,3116.00
988.876,2381.00
989.822,2992.00
990.769,2553.00
991.715,2614.00
992.661,2460.00
993.607,2815.00
994.553,3265.00
995.498,2603.00
996.444,2309.00
997.389,2776.00
998.337,2566.00
999.282,2850.00
1000.227,2622.00
1001.173,2679.00
1002.118,2441.00
1003.062,2888.00
1004.007,2652.00
1004.952,2977.00
1005.897,2926.00
1006.841,2703.00
1007.786,2440.00
1008.730,2421.00
1009.674,3186.00
1010.618,2652.00
1011.564,2490.00
1012.508,2388.00
1013.452,2951.00
1014.396,2764.00
1015.339,2637.00
1016.283,2672.00
1017.226,2744.00
1018.170,2715.00
1019.113,2892.00
1020.056,2702.00
1020.999,2708.00
1021.942,2577.00
1022.885,2867.00
1023.828,2993.00
1024.770,2505.00
1025.715,2773.00
1026.657,2690.00
1027.600,2766.00
1028.542,2927.00
1029.484,2727.00
1030.426,2878.00
1031.368,2772.00
1032.310,2577.00
1033.251,2567.00
1034.193,2699.00
1035.135,2480.00
1036.076,2600.00
1037.017,2551.00
1037.959,2803.00
1038.900,2770.00
1039.843,2808.00
1040.784,2764.00
1041.725,2766.00
1042.665,2615.00
1043.606,2741.00
1044.547,2753.00
1045.487,2377.00
1046.427,2693.00
1047.368,2751.00
1048.308,2243.00
1049.248,2519.00
1050.188,2730.00
1051.128,2642.00
1052.067,2675.00
1053.007,2422.00
1053.947,2411.00
1054.886,2580.00
1055.827,2488.00
1056.766,2971.00
1057.706,2436.00
1058.645,2671.00
1059.584,2752.00
1060.522,2992.00
1061.461,2427.00
1062.400,2481.00
1063.338,2647.00
1064.277,2504.00
1065.215,2544.00
1066.154,2383.00
1067.092,2546.00
1068.030,2622.00
1068.968,2881.00
1069.906,3012.00
1070.843,2934.00
1071.781,2733.00
1072.720,2800.00
1073.658,2843.00
1074.595,2616.00
1075.533,2560.00
1076.470,2618.00
1077.407,2976.00
1078.344,2743.00
1079.281,2797.00
1080.217,2320.00
1081.154,2652.00
1082.091,2753.00
1083.027,2459.00
1083.964,2923.00
1084.900,2573.00
1085.836,2605.00
1086.772,2887.00
1087.708,2446.00
1088.644,2834.00
1089.580,2675.00
1090.515,2747.00
1091.451,2607.00
1092.388,2701.00
1093.324,2456.00
1094.259,3230.00
1095.194,2759.00
1096.129,2583.00
1097.064,2586.00
1097.999,2848.00
1098.934,2548.00
1099.869,2543.00
1100.803,2695.00
1101.738,2716.00
1102.672,2361.00
1103.607,2828.00
1104.541,2563.00
1105.475,2555.00
1106.409,2420.00
1107.343,2583.00
1108.277,2445.00
1109.210,2722.00
1110.144,2675.00
1111.078,2668.00
1112.011,2431.00
1112.944,2751.00
1113.878,2740.00
1114.811,2215.00
1115.744,2605.00
1116.678,2343.00
1117.611,2578.00
1118.544,2601.00
1119.477,2743.00
1120.409,2595.00
1121.342,3138.00
1122.274,2712.00
1123.206,4195.00
1124.138,2650.00
1125.070,3003.00
1126.002,2825.00
1126.934,2285.00
1127.866,2567.00
1128.798,2341.00
1129.729,2350.00
1130.661,2647.00
1131.592,2559.00
1132.523,2739.00
1133.454,2775.00
1134.385,2316.00
1135.317,2623.00
1136.247,2575.00
1137.178,2863.00
1138.109,2379.00
1139.039,3009.00
1139.970,2819.00
1140.900,2566.00
1141.831,2383.00
1142.761,2215.00
1143.691,2734.00
1144.621,2678.00
1145.551,2696.00
1146.480,2718.00
1147.410,2847.00
1148.340,2320.00
1149.269,2352.00
1150.199,2581.00
1151.128,3060.00
1152.057,2478.00
1152.979,2596.00
1153.898,2616.00
1154.819,2786.00
1155.739,2636.00
1156.658,2532.00
1157.579,2697.00
1158.498,2648.00
1159.419,2228.00
1160.338,2681.00
1161.256,2704.00
1162.177,2494.00
1163.095,2577.00
1164.016,2709.00
1164.934,2874.00
1165.852,2829.00
1166.772,2588.00
1167.690,2647.00
1168.610,2742.00
1169.528,2645.00
1170.446,2211.00
1171.365,2537.00
1172.283,2522.00
1173.202,2645.00
1174.120,2650.00
1175.037,2487.00
1175.956,2494.00
1176.873,2469.00
1177.792,2518.00
1178.709,3065.00
1179.626,2514.00
1180.544,2824.00
1181.461,2522.00
1182.379,2729.00
1183.296,2610.00
1184.212,2265.00
1185.130,2480.00
1186.046,2916.00
1186.962,2667.00
1187.880,2893.00
1188.796,2686.00
1189.714,2428.00
1190.629,2765.00
1191.545,2691.00
1192.462,2598.00
1193.378,2621.00
1194.295,2329.00
1195.210,2647.00
1196.125,2771.00
1197.042,2696.00
1197.957,2615.00
1198.872,2474.00
1199.788,2558.00
1200.703,2942.00
1201.619,2652.00
1202.534,2531.00
1203.448,2701.00
1204.364,2589.00
1205.278,2305.00
1206.192,2704.00
1207.108,3135.00
1208.022,2974.00
1208.938,2459.00
1209.851,2811.00
1210.765,2864.00
1211.680,2542.00
1212.594,2384.00
1213.507,2562.00
1214.422,3018.00
1215.335,2749.00
1216.248,2552.00
1217.163,2636.00
1218.076,3205.00
1218.990,2732.00
1219.903,2435.00
1220.816,2429.00
1221.730,2553.00
1222.642,2494.00
1223.554,2552.00
1224.469,2762.00
1225.380,2582.00
1226.292,2262.00
1227.206,2768.00
1228.118,2960.00
1229.032,2253.00
1229.943,2528.00
1230.855,2581.00
1231.768,2369.00
1232.679,2700.00
1233.590,2610.00
1234.503,2864.00
1235.414,2475.00
1236.325,2491.00
1237.238,2701.00
1238.149,2717.00
1239.059,2492.00
1239.972,2794.00
1240.882,2427.00
1241.793,2727.00
1242.705,2978.00
1243.615,2601.00
1244.525,2685.00
1245.437,2219.00
1246.347,2658.00
1247.259,2772.00
1248.168,3054.00
1249.078,2891.00
1249.989,2915.00
1250.899,2441.00
1251.808,2473.00
1252.719,2580.00
1253.628,2483.00
1254.537,2987.00
1255.448,2471.00
1256.357,2458.00
1257.266,2632.00
1258.176,2343.00
1259.085,2326.00
1259.993,2450.00
1260.904,2477.00
1261.812,2481.00
1262.720,3143.00
1263.630,2777.00
1264.538,2489.00
1265.446,2702.00
1266.356,2587.00
1267.263,2911.00
1268.171,2466.00
1269.080,2710.00
1269.988,2812.00
1270.895,2539.00
1271.804,2566.00
1272.711,2812.00
1273.619,2757.00
1274.527,2452.00
1275.434,2723.00
1276.341,2429.00
1277.248,2656.00
1278.156,2899.00
1279.063,2508.00
1279.969,2731.00
1280.877,3491.00
1281.783,2821.00
1282.690,2730.00
1283.598,2573.00
1284.503,2455.00
1285.409,2458.00
1286.317,2991.00
1287.223,3005.00
1288.128,2671.00
1289.036,2491.00
1289.941,2573.00
1290.846,2630.00
1291.751,2442.00
1292.658,2562.00
1293.563,3078.00
1294.468,2651.00
1295.375,2773.00
1296.280,2860.00
1297.184,3320.00
1298.091,2749.00
1298.995,2762.00
1299.900,3023.00
1300.806,2541.00
1301.710,2369.00
1302.614,2199.00
1303.518,2881.00
1304.424,2563.00
1305.327,2826.00
1306.231,2595.00
1307.137,2759.00
1308.040,2683.00
1308.943,2663.00
1309.847,2853.00
1310.752,2815.00
1311.655,2287.00
1312.558,2407.00
1313.463,2538.00
1314.366,2542.00
1315.269,2674.00
1316.171,2627.00
1317.076,2510.00
1317.978,2424.00
1318.881,2256.00
1319.785,2497.00
1320.687,2518.00
1321.589,2277.00
1322.491,2493.00
1323.395,2700.00
1324.297,3183.00
1325.198,2769.00
1326.102,2426.00
1327.004,2431.00
1327.905,3060.00
1328.806,2606.00
1329.709,2699.00
1330.611,2552.00
1331.512,2454.00
1332.413,3097.00
1333.316,2692.00
1334.216,2822.00
1335.117,2397.00
1336.020,2653.00
1336.920,2619.00
1337.821,2504.00
1338.721,2845.00
1339.623,2718.00
1340.523,2563.00
1341.423,2470.00
1342.323,2912.00
1343.225,2710.00
1344.125,2464.00
1345.025,2546.00
1345.924,2297.00
1346.826,2972.00
1347.725,3032.00
1348.624,2876.00
1349.524,2492.00
1350.425,2607.00
1351.324,2717.00
1352.223,2756.00
1353.121,2600.00
1354.022,2800.00
1354.921,3038.00
1355.819,2723.00
1356.718,2653.00
1357.618,2400.00
1358.516,2753.00
1359.415,3017.00
1360.313,2739.00
1361.213,2579.00
1362.111,2936.00
1363.008,3243.00
1363.906,2598.00
1364.806,2687.00
1365.703,2694.00
1366.601,2449.00
1367.498,2474.00
1368.397,2772.00
1369.295,2682.00
1370.192,2505.00
1371.089,2691.00
1371.987,2621.00
1372.884,2897.00
1373.781,2421.00
1374.678,2650.00
1375.574,2470.00
1376.473,2746.00
1377.369,2847.00
1378.265,2494.00
1379.161,2584.00
1380.059,2328.00
1380.955,2756.00
1381.851,2374.00
1382.747,2520.00
1383.643,2584.00
1384.540,2401.00
1385.436,2544.00
1386.331,2685.00
1387.227,2805.00
1388.124,2737.00
1389.019,2443.00
1389.914,2608.00
1390.809,2262.00
1391.704,3078.00
1392.601,2550.00
1393.495,2890.00
1394.390,2776.00
1395.285,2868.00
1396.179,2720.00
1397.075,2637.00
1397.969,2673.00
1398.864,2341.00
1399.758,2581.00
1400.652,2624.00
1401.547,2466.00
1402.441,2422.00
1403.335,2967.00
1404.229,2639.00
1405.122,2729.00
1406.017,2620.00
1406.911,2777.00
1407.804,2998.00
1408.697,2638.00
1409.590,2443.00
1410.485,2780.00
1411.378,2714.00
1412.271,2372.00
1413.163,2677.00
1414.056,2799.00
1414.949,2977.00
1415.843,2660.00
1416.735,2600.00
1417.627,2666.00
1418.520,2607.00
1419.412,2866.00
1420.306,2792.00
1421.197,2913.00
1422.089,2836.00
1422.981,3099.00
1423.873,2792.00
1424.764,2701.00
1425.657,2683.00
1426.549,2724.00
1427.440,2815.00
1428.331,2528.00
1429.222,2358.00
1430.113,2666.00
1431.006,2833.00
1431.897,2562.00
1432.787,2661.00
1433.678,2536.00
1434.568,2469.00
1435.459,2871.00
1436.351,2796.00
1437.241,2767.00
1438.131,2780.00
1439.021,2419.00
1439.911,2582.00
1440.801,2748.00
1441.693,2854.00
1442.583,2705.00
1443.472,2662.00
1444.362,2797.00
1445.251,2569.00
1446.140,2561.00
1447.030,2859.00
1447.921,2853.00
1448.810,2430.00
1449.699,2987.00
1450.588,2678.00
1451.476,2547.00
1452.365,2738.00
1453.254,2528.00
1454.144,2554.00
1455.032,2800.00
1455.921,2395.00
1456.809,2948.00
1457.697,2448.00
1458.585,2548.00
1459.473,2580.00
1460.361,2503.00
1461.251,2720.00
1462.138,2721.00
1463.026,2592.00
1463.913,2901.00
1464.801,2583.00
1465.688,2725.00
1466.575,2667.00
1467.463,3117.00
1468.351,2503.00
1469.238,2631.00
1470.125,2251.00
1471.012,2746.00
1471.899,2719.00
1472.785,2482.00
1473.672,2670.00
1474.558,2874.00
1475.446,2793.00
1476.333,2799.00
1477.219,2461.00
1478.105,2641.00
1478.991,2588.00
1479.877,2934.00
1480.762,2642.00
1481.648,2515.00
1482.534,2774.00
1483.419,2713.00
1484.307,2749.00
1485.192,2593.00
1486.077,2507.00
1486.962,2537.00
1487.847,2439.00
1488.732,2495.00
1489.617,2687.00
1490.502,2903.00
1491.387,2759.00
1492.271,2463.00
1493.156,2486.00
1494.042,2459.00
1494.927,2826.00
1495.811,2535.00
1496.695,2734.00
1497.579,2912.00
1498.463,2635.00
1499.347,2676.00
1500.231,2658.00
1501.114,2720.00
1501.998,2913.00
1502.881,2695.00
1503.765,2932.00
1504.648,3044.00
1505.533,2761.00
1506.417,2654.00
1507.300,2610.00
1508.183,2709.00
1509.066,2128.00
1509.948,2850.00
1510.831,2953.00
1511.714,2432.00
1512.596,2758.00
1513.479,2873.00
1514.361,2848.00
1515.243,2679.00
1516.125,2809.00
1517.008,2917.00
1517.890,2615.00
1518.771,2680.00
1519.655,2838.00
1520.537,2611.00
1521.419,2511.00
1522.300,2707.00
1523.182,2784.00
1524.063,2793.00
1524.944,2959.00
1525.825,2827.00
1526.707,2430.00
1527.588,2461.00
1528.468,2714.00
1529.349,2315.00
1530.230,2587.00
1531.111,2813.00
1531.991,2674.00
1532.872,2393.00
1533.752,2622.00
1534.632,2507.00
1535.513,2495.00
1536.393,2793.00
1537.273,2959.00
1538.153,3277.00
1539.032,2411.00
1539.912,2643.00
1540.792,2618.00
1541.672,2698.00
1542.551,2775.00
1543.430,3274.00
1544.310,2694.00
1545.189,2560.00
1546.068,3048.00
1546.947,2750.00
1547.826,2968.00
1548.705,2633.00
1549.584,2912.00
1550.462,2649.00
1551.341,2817.00
1552.219,2736.00
1553.098,2823.00
1553.976,2848.00
1554.854,3034.00
1555.733,2842.00
1556.611,2596.00
1557.489,2494.00
1558.367,2700.00
1559.244,2804.00
1560.122,2648.00
1561.000,2736.00
1561.877,2936.00
1562.755,2537.00
1563.632,2605.00
1564.509,2932.00
1565.386,3040.00
1566.264,2432.00
1567.141,2295.00
1568.017,2839.00
1568.894,2653.00
1569.771,2712.00
1570.648,2789.00
1571.524,2694.00
1572.401,2458.00
1573.277,2447.00
1574.153,2717.00
1575.029,2562.00
1575.906,3356.00
1576.781,2828.00
1577.657,2579.00
1578.533,2919.00
1579.409,2321.00
1580.285,2608.00
1581.160,3072.00
1582.036,2822.00
1582.911,2471.00
1583.786,3011.00
1584.662,2464.00
1585.537,2633.00
1586.412,2668.00
1587.287,2511.00
1588.160,2850.00
1589.035,2340.00
1589.909,2663.00
1590.784,2628.00
1591.658,2495.00
1592.533,2697.00
1593.407,2649.00
1594.281,2554.00
1595.155,3049.00
1596.029,2583.00
1596.903,2603.00
1597.777,2618.00
1598.651,2932.00
1599.525,2383.00
1600.398,2718.00
1601.272,2646.00
1602.144,3140.00
1603.017,2629.00
1603.890,2927.00
1604.763,2784.00
1605.636,2813.00
1606.509,2364.00
1607.382,2494.00
1608.255,2746.00
1609.128,2848.00
1610.000,2615.00
1610.873,2369.00
1611.746,2552.00
1612.616,2596.00
1613.488,2225.00
1614.361,2662.00
1615.233,2614.00
1616.105,2892.00
1616.977,2580.00
1617.849,2522.00
1618.720,2956.00
1619.592,2969.00
1620.464,2753.00
1621.333,3132.00
1622.205,2660.00
1623.076,2624.00
1623.947,2643.00
1624.818,2874.00
1625.689,2792.00
1626.560,2608.00
1627.431,2700.00
1628.302,3067.00
1629.171,2825.00
1630.042,2969.00
1630.912,3584.00
1631.782,3237.00
1632.653,2451.00
1633.523,2863.00
1634.393,2938.00
1635.263,2557.00
1636.131,2674.00
1637.001,2579.00
1637.871,2342.00
1638.741,2341.00
1639.611,2454.00
1640.480,2789.00
1641.350,2567.00
1642.219,2492.00
1643.087,2186.00
1643.956,3084.00
1644.825,2915.00
1645.694,2890.00
1646.563,2825.00
1647.432,2716.00
1648.299,2677.00
1649.167,2818.00
1650.036,2528.00
1650.904,2835.00
1651.773,2880.00
1652.641,2679.00
1653.509,2873.00
1654.376,2568.00
1655.244,2739.00
1656.112,2756.00
1656.980,2666.00
1657.847,2526.00
1658.715,2856.00
1659.581,2563.00
1660.448,2908.00
1661.316,2205.00
1662.183,2717.00
1663.051,2692.00
1663.918,2678.00
1664.783,2696.00
1665.650,2779.00
1666.517,2862.00
1667.384,2673.00
1668.251,2701.00
1669.115,2925.00
1669.982,2607.00
1670.849,2932.00
1671.715,2686.00
1672.581,2795.00
1673.446,2799.00
1674.312,2698.00
1675.178,3089.00
1676.044,2808.00
1676.910,2798.00
1677.774,2698.00
1678.639,2317.00
1679.505,2675.00
1680.370,2837.00
1681.236,3337.00
1682.099,2624.00
1682.965,2719.00
1683.830,2291.00
1684.695,2499.00
1685.560,2622.00
1686.423,2820.00
1687.288,2803.00
1688.153,2743.00
1689.017,2590.00
1689.880,2793.00
1690.745,2805.00
1691.609,2490.00
1692.473,2878.00
1693.338,2880.00
1694.200,2938.00
1695.064,2726.00
1695.928,2593.00
1696.792,2684.00
1697.654,3125.00
1698.517,2716.00
1699.381,2425.00
1700.245,2367.00
1701.106,3012.00
1701.969,2579.00
1702.833,2833.00
1703.696,2623.00
1704.557,2659.00
1705.420,2553.00
1706.283,2695.00
1707.146,2818.00
1708.007,2486.00
1708.870,2491.00
1709.732,2358.00
1710.595,2591.00
1711.455,2457.00
1712.318,2608.00
1713.180,2898.00
1714.040,2700.00
1714.902,2839.00
1715.764,2671.00
1716.626,2469.00
1717.486,2665.00
1718.348,2940.00
1719.209,4723.00
1720.071,2390.00
1720.930,2418.00
1721.792,2539.00
1722.653,2533.00
1723.512,2566.00
1724.374,2657.00
1725.234,2709.00
1726.095,2710.00
1726.954,2659.00
1727.815,2805.00
1728.676,2639.00
1729.535,2890.00
1730.395,2657.00
1731.256,2582.00
1732.114,2750.00
1732.974,2171.00
1733.834,3013.00
1734.693,2855.00
1735.553,2700.00
1736.413,3093.00
1737.272,2591.00
1738.130,2626.00
1738.990,2759.00
1739.849,2556.00
1740.707,3702.00
1741.566,2738.00
1742.426,2717.00
1743.283,3066.00
1744.142,2568.00
1745.001,2360.00
1745.858,2848.00
1746.717,2766.00
1747.576,2757.00
1748.433,2832.00
1749.292,3292.00
1750.150,3273.00
1751.007,2893.00
1751.865,2898.00
1752.723,2712.00
1753.579,2600.00
1754.438,2930.00
1755.296,2886.00
1756.152,2272.00
1757.010,2353.00
1757.865,2860.00
1758.723,2396.00
1759.581,2968.00
1760.436,2692.00
1761.294,3027.00
1762.151,2673.00
1763.006,2593.00
1763.864,2345.00
1764.721,2864.00
1765.576,2710.00
1766.433,2794.00
1767.288,2607.00
1768.144,2751.00
1769.001,2656.00
1769.856,2800.00
1770.712,2912.00
1771.568,2446.00
1772.423,2626.00
1773.279,2645.00
1774.133,2597.00
1774.989,3105.00
1775.845,3000.00
1776.699,2932.00
1777.555,2642.00
1778.409,3238.00
1779.265,2623.00
1780.120,2653.00
1780.974,2673.00
1781.829,2320.00
1782.682,2717.00
1783.538,2487.00
1784.393,2738.00
1785.246,2543.00
1786.101,2776.00
1786.954,2823.00
1787.808,2918.00
1788.661,2416.00
1789.516,2567.00
1790.370,2625.00
1791.223,2883.00
1792.077,2692.00
1792.930,2792.00
1793.784,2590.00
1794.636,2710.00
1795.490,2646.00
1796.344,2716.00
1797.196,2669.00
1798.049,2825.00
1798.901,2553.00
1799.755,2952.00
1800.606,2505.00
1801.460,3199.00
1802.311,3006.00
1803.165,3050.00
1804.018,3017.00
1804.869,2770.00
1805.722,3191.00
1806.573,2761.00
1807.426,2489.00
1808.276,2655.00
1809.129,2608.00
1809.980,2910.00
1810.832,2987.00
1811.683,2646.00
1812.535,3026.00
1813.385,2588.00
1814.237,3005.00
1815.089,2699.00
1815.940,2973.00
1816.791,2656.00
1817.641,2576.00
1818.493,2827.00
1819.343,2782.00
1820.194,2582.00
1821.044,2768.00
1821.895,2940.00
1822.745,2434.00
1823.596,2613.00
1824.445,3101.00
1825.296,2796.00
1826.145,2680.00
1826.996,2861.00
1827.845,2738.00
1828.695,2758.00
1829.544,2721.00
1830.395,2749.00
1831.243,2631.00
1832.094,2445.00
1832.942,3296.00
1833.792,2834.00
1834.640,2778.00
1835.490,2706.00
1836.338,2786.00
1837.186,2636.00
1838.036,2605.00
1838.884,2705.00
1839.733,3020.00
1840.581,2892.00
1841.430,2820.00
1842.278,3015.00
1843.127,2603.00
1843.974,2373.00
1844.823,3113.00
1845.671,2849.00
1846.519,2690.00
1847.366,2794.00
1848.213,2355.00
1849.062,2527.00
1849.909,2479.00
1850.757,3349.00
1851.604,2845.00
1852.452,2603.00
1853.298,2855.00
1854.146,2746.00
1854.993,2770.00
1855.839,3186.00
1856.687,2791.00
1857.532,2827.00
1858.380,2713.00
1859.226,2813.00
1860.073,2805.00
1860.919,2530.00
1861.765,2582.00
1862.612,2966.00
1863.457,2918.00
1864.304,2662.00
1865.150,2828.00
1865.995,2680.00
1866.842,2816.00
1867.686,2945.00
1868.533,2793.00
1869.378,2728.00
1870.223,2741.00
1871.069,2613.00
1871.914,2718.00
1872.760,2671.00
1873.604,2481.00
1874.448,2866.00
1875.294,2878.00
1876.139,2584.00
1876.984,2807.00
1877.828,2374.00
1878.672,2248.00
1879.518,2573.00
1880.361,2888.00
1881.205,2890.00
1882.050,2536.00
1882.894,3225.00
1883.739,2595.00
1884.582,2473.00
1885.425,2508.00
1886.270,2936.00
1887.113,2458.00
1887.956,2815.00
1888.801,2774.00
1889.644,2524.00
1890.486,2320.00
1891.331,2632.00
1892.173,2762.00
1893.017,2753.00
1893.860,3004.00
1894.702,3008.00
1895.546,2736.00
1896.388,3393.00
1897.230,3047.00
1898.074,2640.00
1898.916,2496.00
1899.757,2560.00
1900.601,3398.00
1901.443,2975.00
1902.284,3005.00
1903.125,3201.00
1903.969,2893.00
1904.810,2929.00
1905.651,2795.00
1906.494,3046.00
1907.335,3210.00
1908.176,2890.00
1909.018,2806.00
1909.859,2695.00
1910.700,2609.00
1911.542,3237.00
1912.383,2760.00
1913.223,2348.00
1914.064,2811.00
1914.906,2991.00
1915.746,3055.00
1916.586,3160.00
1917.428,2681.00
1918.268,2779.00
1919.107,2623.00
1919.947,2502.00
1920.789,2660.00
1921.628,2974.00
1922.468,2718.00
1923.309,2590.00
1924.148,3024.00
1924.988,2788.00
1925.827,2672.00
1926.667,2608.00
1927.507,2769.00
1928.345,2581.00
1929.184,2881.00
1930.025,2552.00
1930.864,2981.00
1931.702,3023.00
1932.541,2646.00
1933.381,2886.00
1934.219,2868.00
1935.057,3030.00
1935.896,2438.00
1936.735,2716.00
1937.573,2617.00
1938.411,2508.00
1939.249,2860.00
1940.089,2613.00
1940.927,3041.00
1941.764,3007.00
1942.602,2628.00
1943.439,2640.00
1944.278,2694.00
1945.115,2627.00
1945.953,2459.00
1946.790,2793.00
1947.628,3096.00
1948.465,2825.00
1949.302,2891.00
1950.139,2870.00
1950.976,2610.00
1951.814,2905.00
1952.651,2778.00
1953.487,2531.00
1954.323,3016.00
1955.160,2717.00
1955.998,3106.00
1956.834,2741.00
1957.670,2766.00
1958.506,2944.00
1959.342,2822.00
1960.177,2789.00
1961.015,2870.00
1961.850,2764.00
1962.686,2777.00
1963.521,2785.00
1964.357,2999.00
1965.192,2500.00
1966.029,2897.00
1966.864,2667.00
1967.699,2950.00
1968.534,2782.00
1969.369,2981.00
1970.204,2682.00
1971.040,2751.00
1971.875,2688.00
1972.709,2768.00
1973.544,2606.00
1974.378,2624.00
1975.212,2839.00
1976.047,2648.00
1976.882,2609.00
1977.716,3137.00
1978.550,2425.00
1979.384,2646.00
1980.218,2676.00
1981.052,2667.00
1981.885,2771.00
1982.719,2731.00
1983.554,2857.00
1984.388,3041.00
1985.221,2819.00
1986.054,3014.00
1986.887,2791.00
1987.720,2591.00
1988.553,3027.00
1989.386,2802.00
1990.219,2869.00
1991.053,3062.00
1991.886,2638.00
1992.719,2950.00
1993.551,2253.00
1994.383,2887.00
1995.216,2637.00
1996.048,2461.00
1996.880,2900.00
1997.712,2643.00
1998.544,2731.00
1999.376,2830.00
2000.208,3038.00
2001.040,3168.00
2001.873,2562.00
2002.705,2574.00
2003.536,2820.00
2004.367,2768.00
2005.199,2788.00
2006.030,2640.00
2006.861,2541.00
2007.692,2788.00
2008.523,2616.00
2009.354,2801.00
2010.185,2553.00
2011.016,2906.00
2011.846,2916.00
2012.677,2720.00
2013.507,3039.00
2014.338,2970.00
2015.168,2648.00
2015.999,3281.00
2016.829,2704.00
2017.659,2955.00
2018.489,3265.00
2019.319,2564.00
2020.149,2930.00
2020.980,2780.00
2021.810,2555.00
2022.639,2647.00
2023.469,2653.00
2024.298,2416.00
2025.128,2388.00
2025.957,2382.00
2026.786,2211.00
2027.615,2394.00
2028.444,2585.00
2029.273,2780.00
2030.102,2356.00
2030.931,2591.00
2031.758,2865.00
2032.586,2559.00
2033.415,2640.00
2034.243,2241.00
2035.072,2018.00
2035.900,2491.00
2036.728,2359.00
2037.556,2369.00
2038.385,2343.00
2039.213,2225.00
2040.040,2182.00
2040.868,2134.00
2041.696,2226.00
2042.524,2206.00
2043.351,2394.00
2044.179,2260.00
2045.006,2001.00
