RamanScope Measure Spectrum Data V3.72

<< MEASURE CONDITION >>
Exposure Type,Aver
Exposure Time [sec],15
Exposure Count,4
Measure Time,2023/07/14 22:14:11
Data Name,""
Data Comment,""
Rayleigh Wave[nm],532.0

<< SAMPLE SPECTRUM >>
Wave[dcm-1],No115
146.591,521.25
147.626,638.75
148.664,725.50
149.699,859.00
150.737,995.75
151.772,1168.75
152.809,1218.75
153.846,1365.50
154.881,1466.50
155.918,1575.00
156.953,1661.25
157.989,1742.25
159.026,1795.75
160.060,1867.50
161.096,1930.50
162.130,1968.25
163.167,2033.00
164.200,1984.75
165.236,2061.00
166.272,2072.00
167.305,2125.50
168.341,2229.75
169.374,2227.50
170.409,2238.75
171.445,2287.25
172.477,2307.25
173.512,2339.50
174.545,2371.25
175.580,2354.25
176.614,2383.75
177.647,2375.50
178.681,2455.00
179.713,2397.25
180.747,2427.00
181.781,2430.00
182.813,2403.50
183.847,2393.75
184.878,2443.25
185.912,2404.50
186.945,2431.25
187.976,2433.50
189.010,2469.00
190.043,2492.50
191.073,2486.50
192.106,2485.00
193.137,2500.00
194.170,2507.75
195.202,2542.50
196.232,2601.25
197.265,2576.50
198.297,2616.75
199.327,2676.25
200.359,2663.25
201.388,2615.00
202.420,2677.50
203.452,2699.75
204.481,2784.00
205.512,2792.75
206.544,2815.75
207.573,2767.50
208.604,2859.25
209.635,2880.50
210.663,2906.75
211.694,2910.25
212.725,2936.25
213.753,2926.75
214.783,2967.75
215.813,3013.75
216.841,2937.25
217.871,2899.75
218.899,2965.25
219.929,3004.00
220.959,2941.75
221.986,2931.50
223.016,2967.50
224.045,2965.00
225.072,2947.25
226.101,2919.25
227.130,2923.50
228.157,2837.75
229.185,2849.00
230.214,2833.00
231.241,2821.50
232.269,2857.25
233.297,2810.00
234.323,2763.25
235.351,2781.25
236.379,2746.75
237.407,2767.00
238.433,2722.00
239.460,2793.00
240.488,2780.25
241.513,2652.75
242.540,2792.75
243.568,2709.50
244.592,2794.00
245.619,2780.25
246.646,2843.75
247.671,2803.50
248.697,2802.25
249.724,2814.75
250.748,2791.75
251.774,2810.00
252.801,2783.25
253.827,2829.00
254.850,2803.00
255.876,2845.25
256.902,2871.50
257.925,2857.75
258.951,2827.75
259.976,2862.75
260.999,2898.00
262.024,2984.50
263.049,2912.75
264.074,2948.00
265.097,2906.50
266.122,2935.50
267.146,2969.25
268.168,3002.75
269.193,2930.50
270.217,2945.75
271.241,2980.50
272.263,2980.75
273.287,2949.25
274.311,2987.75
275.332,2986.00
276.356,2983.50
277.379,3021.25
278.402,3050.25
279.424,3026.00
280.447,2962.25
281.470,2965.50
282.492,2953.00
283.513,2910.00
284.536,2854.75
285.558,2859.75
286.581,2861.50
287.601,2848.25
288.623,2851.50
289.645,2752.00
290.665,2826.25
291.687,2790.00
292.709,2805.75
293.730,2724.50
294.750,2722.50
295.771,2689.00
296.792,2718.00
297.813,2664.25
298.832,2618.25
299.853,2676.75
300.874,2644.75
301.895,2601.25
302.913,2587.00
303.934,2662.00
304.954,2557.25
305.975,2553.75
306.993,2581.50
308.013,2535.75
309.033,2542.75
310.052,2520.25
311.072,2503.00
312.090,2543.25
313.109,2521.00
314.129,2529.50
315.148,2523.75
316.165,2500.25
317.184,2530.50
318.203,2444.00
319.222,2437.75
320.238,2449.00
321.257,2492.00
322.275,2484.75
323.294,2469.25
324.312,2504.25
325.328,2442.50
326.346,2446.50
327.364,2437.00
328.382,2472.00
329.397,2474.00
330.415,2412.75
331.432,2432.25
332.450,2395.50
333.467,2487.50
334.482,2454.00
335.499,2454.25
336.516,2421.50
337.533,2409.75
338.547,2423.75
339.564,2428.00
340.580,2390.00
341.597,2455.50
342.613,2435.50
343.627,2455.00
344.643,2412.75
345.659,2434.50
346.675,2383.00
347.690,2431.50
348.704,2424.75
349.719,2406.25
350.735,2430.50
351.750,2466.75
352.765,2410.25
353.778,2423.50
354.793,2433.75
355.808,2396.50
356.822,2404.25
357.837,2364.25
358.851,2422.50
359.864,2406.75
360.878,2433.50
361.892,2436.00
362.906,2456.00
363.920,2415.75
364.932,2388.00
365.945,2451.50
366.959,2422.75
367.972,2415.50
368.986,2415.00
369.999,2363.50
371.010,2456.00
372.023,2434.00
373.036,2409.00
374.049,2468.25
375.061,2463.25
376.072,2434.50
377.084,2447.50
378.097,2496.00
379.109,2447.00
380.121,2461.75
381.133,2443.50
382.143,2417.75
383.155,2428.50
384.166,2467.50
385.178,2489.00
386.189,2446.50
387.201,2455.00
388.212,2436.50
389.221,2454.25
390.232,2434.50
391.243,2459.00
392.254,2433.50
393.264,2376.50
394.275,2447.00
395.283,2451.50
396.294,2405.50
397.304,2412.00
398.314,2368.50
399.324,2427.25
400.334,2424.75
401.344,2357.00
402.351,2356.75
403.361,2339.75
404.370,2348.00
405.380,2339.00
406.389,2356.25
407.398,2380.75
408.407,2329.00
409.414,2318.25
410.423,2342.75
411.431,2350.00
412.440,2296.25
413.448,2330.75
414.457,2321.25
415.465,2332.75
416.471,2336.25
417.479,2287.25
418.487,2308.75
419.495,2312.75
420.503,2278.75
421.510,2286.25
422.518,2253.25
423.525,2238.25
424.530,2269.00
425.537,2253.50
426.544,2266.75
427.551,2277.25
428.558,2224.25
429.565,2274.25
430.571,2247.25
431.578,2238.00
432.582,2204.00
433.588,2190.75
434.595,2225.75
435.601,2248.75
436.607,2236.75
437.612,2209.00
438.618,2229.50
439.624,2223.00
440.627,2197.25
441.633,2270.25
442.638,2235.25
443.643,2255.50
444.648,2221.50
445.653,2275.00
446.658,2267.75
447.663,2229.75
448.667,2238.25
449.672,2186.25
450.674,2224.25
451.678,2237.00
452.682,2229.00
453.687,2265.00
454.690,2201.25
455.694,2170.25
456.698,2233.50
457.702,2237.75
458.705,2246.50
459.709,2181.25
460.710,2267.00
461.713,2241.25
462.716,2213.75
463.719,2234.50
464.722,2203.75
465.725,2214.00
466.727,2224.25
467.730,2324.00
468.732,2216.50
469.735,2181.25
470.737,2193.00
471.737,2222.75
472.739,2187.50
473.741,2201.25
474.742,2208.00
475.744,2170.75
476.746,2191.75
477.747,2219.50
478.748,2209.25
479.750,2195.50
480.751,2172.75
481.752,2203.25
482.753,2173.75
483.751,2196.75
484.752,2160.50
485.753,2180.25
486.753,2169.00
487.753,2154.75
488.754,2148.75
489.754,2161.75
490.754,2142.25
491.754,2209.50
492.754,2175.25
493.753,2143.75
494.753,2138.75
495.752,2124.25
496.752,2170.50
497.749,2138.75
498.748,2166.00
499.747,2116.00
500.746,2130.00
501.745,2102.25
502.744,2134.50
503.742,2113.75
504.741,2126.75
505.739,2093.25
506.737,2136.50
507.735,2052.50
508.734,2150.00
509.732,2154.00
510.729,2108.75
511.727,2129.50
512.725,2086.25
513.720,2087.50
514.718,2132.75
515.715,2070.00
516.712,2066.00
517.709,2104.00
518.706,2064.25
519.703,2108.25
520.700,2065.75
521.696,2105.75
522.693,2064.50
523.689,2140.75
524.686,2061.25
525.682,2141.00
526.678,2122.00
527.674,2098.75
528.670,2129.75
529.666,2043.75
530.661,2097.50
531.657,2092.25
532.652,2109.75
533.648,2020.00
534.641,2095.75
535.636,2065.50
536.631,2146.00
537.626,2064.00
538.621,2093.50
539.616,2101.25
540.610,2128.00
541.605,2147.50
542.599,2141.75
543.593,2163.75
544.587,2115.25
545.581,2153.00
546.575,2197.50
547.569,2127.75
548.563,2126.75
549.557,2126.75
550.550,2165.25
551.543,2154.25
552.537,2183.00
553.530,2112.00
554.523,2137.00
555.516,2186.50
556.509,2139.75
557.502,2137.75
558.494,2111.50
559.487,2157.50
560.479,2117.75
561.472,2118.00
562.464,2148.00
563.456,2154.75
564.448,2102.25
565.440,2065.00
566.432,2093.25
567.423,2099.50
568.415,2065.25
569.404,2083.00
570.396,2134.50
571.387,2119.25
572.378,2124.25
573.369,2079.75
574.360,2078.50
575.351,2094.00
576.341,2089.50
577.332,2056.00
578.323,2124.00
579.313,2043.50
580.303,2073.50
581.293,2088.25
582.283,2082.25
583.273,2030.50
584.263,2037.75
585.253,2085.00
586.243,2056.50
587.232,2042.75
588.222,2008.25
589.211,2088.75
590.200,2032.25
591.189,2057.50
592.178,1993.25
593.167,2043.00
594.156,2017.00
595.145,1990.75
596.133,2031.25
597.122,2042.25
598.110,2061.50
599.098,2021.25
600.086,1981.25
601.074,2011.00
602.062,2035.75
603.050,1995.75
604.038,2033.00
605.025,1948.75
606.013,1986.50
607.000,1958.75
607.987,1949.75
608.975,1978.75
609.962,1952.25
610.949,1881.25
611.936,1919.50
612.922,1947.50
613.909,1959.00
614.895,1905.25
615.882,1907.00
616.868,1866.25
617.854,1941.25
618.841,1891.50
619.826,1906.00
620.812,1882.00
621.798,1886.25
622.784,1887.00
623.769,1897.25
624.755,1880.50
625.740,1798.50
626.725,1841.00
627.711,1801.25
628.698,1866.00
629.683,1814.25
630.667,1793.25
631.652,1793.25
632.637,1771.00
633.621,1776.00
634.606,1738.00
635.590,1737.75
636.574,1736.50
637.558,1702.50
638.542,1709.75
639.526,1765.75
640.510,1714.00
641.493,1720.50
642.477,1755.50
643.460,1692.00
644.444,1730.00
645.427,1741.50
646.410,1704.75
647.393,1747.00
648.376,1681.25
649.359,1726.25
650.341,1650.50
651.324,1655.25
652.307,1660.00
653.289,1609.00
654.271,1638.00
655.253,1647.25
656.235,1569.25
657.217,1595.50
658.199,1580.75
659.181,1607.75
660.163,1616.75
661.144,1602.25
662.126,1604.25
663.107,1585.50
664.088,1502.00
665.069,1586.75
666.050,1595.00
667.033,1546.50
668.014,1595.25
668.995,1595.50
669.975,1567.00
670.956,1537.50
671.936,1533.50
672.916,1513.25
673.896,1521.25
674.876,1503.00
675.856,1523.50
676.836,1535.25
677.816,1485.00
678.795,1483.00
679.775,1472.50
680.754,1500.75
681.734,1468.50
682.713,1507.75
683.692,1466.50
684.671,1459.75
685.650,1456.00
686.629,1442.75
687.607,1481.75
688.586,1468.50
689.564,1424.50
690.543,1471.25
691.523,1401.00
692.501,1421.25
693.479,1341.75
694.457,1353.50
695.435,1425.75
696.413,1414.25
697.390,1372.25
698.368,1381.00
699.345,1354.75
700.322,1410.75
701.300,1368.75
702.277,1404.25
703.254,1321.25
704.231,1380.25
705.207,1323.00
706.184,1390.25
707.161,1388.00
708.137,1353.00
709.113,1333.00
710.090,1334.50
711.068,1293.75
712.044,1294.25
713.020,1334.50
713.996,1298.75
714.971,1325.50
715.947,1308.00
716.922,1282.00
717.898,1317.75
718.873,1343.00
719.848,1320.75
720.823,1284.00
721.798,1254.75
722.773,1261.25
723.748,1258.25
724.723,1308.50
725.697,1297.00
726.672,1244.00
727.646,1270.25
728.622,1232.75
729.596,1277.00
730.570,1253.00
731.544,1221.25
732.518,1257.00
733.492,1235.00
734.466,1205.75
735.439,1279.25
736.413,1261.75
737.386,1239.25
738.359,1261.50
739.332,1213.25
740.305,1247.25
741.278,1184.00
742.251,1177.00
743.224,1187.25
744.196,1233.25
745.171,1245.00
746.143,1258.50
747.115,1192.50
748.087,1213.25
749.059,1217.00
750.031,1192.50
751.003,1223.25
751.975,1234.25
752.947,1190.25
753.918,1243.75
754.890,1214.25
755.861,1221.00
756.832,1170.25
757.803,1182.25
758.774,1211.75
759.747,1179.50
760.718,1189.50
761.689,1204.00
762.659,1180.00
763.630,1191.75
764.600,1196.25
765.570,1170.50
766.540,1200.75
767.510,1191.00
768.480,1166.75
769.450,1141.25
770.420,1174.50
771.390,1174.25
772.359,1137.50
773.329,1188.50
774.300,1154.25
775.269,1148.75
776.238,1148.25
777.207,1176.50
778.176,1110.50
779.145,1131.50
780.114,1201.00
781.083,1139.75
782.051,1129.25
783.019,1140.75
783.988,1135.75
784.956,1196.75
785.924,1206.75
786.894,1139.75
787.862,1098.50
788.830,1111.50
789.797,1123.25
790.765,1095.75
791.732,1140.50
792.700,1095.50
793.667,1141.50
794.634,1125.00
795.601,1114.25
796.568,1115.50
797.535,1119.50
798.502,1108.50
799.468,1111.25
800.437,1116.75
801.403,1093.00
802.370,1058.75
803.336,1072.75
804.302,1081.00
805.268,1104.00
806.234,1066.50
807.200,1085.75
808.166,1080.75
809.131,1061.75
810.097,1028.50
811.062,1086.50
812.027,1042.75
812.994,1026.00
813.960,1096.75
814.925,1048.50
815.889,1085.50
816.854,1058.75
817.819,1031.50
818.783,1030.50
819.748,1056.00
820.712,996.00
821.677,1067.00
822.641,1030.50
823.605,1088.75
824.571,1066.25
825.534,1031.50
826.498,1019.50
827.462,1046.50
828.425,1031.00
829.389,1071.50
830.352,1034.50
831.315,1041.25
832.279,1038.75
833.242,1036.75
834.204,1026.25
835.167,1052.75
836.132,973.00
837.095,1033.75
838.057,1065.00
839.020,1018.00
839.982,1037.75
840.944,1014.25
841.906,1050.50
842.868,1012.75
843.830,1033.75
844.792,1031.50
845.753,1027.75
846.715,1037.75
847.679,1027.25
848.640,1085.00
849.601,997.75
850.562,1036.25
851.523,1026.00
852.484,1045.75
853.445,1002.25
854.406,1008.50
855.367,1046.00
856.327,1023.00
857.288,1018.25
858.248,1064.25
859.210,1062.25
860.170,1035.25
861.130,1042.50
862.090,1003.25
863.050,1037.75
864.010,1057.75
864.969,1045.00
865.929,1056.75
866.888,1081.00
867.848,1074.75
868.807,1074.25
869.766,1012.25
870.727,1047.50
871.686,1066.50
872.645,1028.75
873.604,1075.75
874.562,1102.25
875.521,1032.75
876.479,1047.50
877.437,1060.00
878.396,1005.25
879.354,1087.00
880.312,1039.00
881.270,1080.50
882.229,1068.75
883.187,1066.25
884.145,1057.75
885.102,1067.25
886.059,1025.50
887.017,1047.50
887.974,1057.00
888.931,1051.50
889.888,1083.75
890.845,1019.50
891.802,1071.75
892.758,1090.00
893.717,1055.75
894.673,1038.75
895.630,1093.50
896.586,1090.00
897.542,1087.50
898.498,1094.75
899.454,1097.25
900.410,1084.50
901.366,1121.75
902.321,1124.50
903.277,1095.50
904.232,1040.25
905.189,1066.50
906.145,1091.75
907.100,1082.50
908.055,1126.25
909.010,1113.00
909.965,1082.50
910.919,1096.25
911.874,1110.50
912.828,1120.00
913.783,1096.50
914.737,1125.00
915.693,1140.75
916.648,1123.50
917.602,1115.75
918.555,1112.50
919.509,1155.50
920.463,1090.75
921.417,1092.50
922.370,1102.75
923.324,1159.50
924.277,1119.00
925.230,1098.00
926.183,1139.50
927.138,1137.50
928.091,1127.75
929.044,1153.00
929.996,1139.25
930.949,1103.25
931.902,1156.25
932.854,1181.75
933.806,1165.25
934.758,1118.50
935.711,1115.25
936.663,1238.25
937.614,1173.00
938.568,1154.25
939.520,1135.50
940.471,1125.50
941.423,1146.50
942.374,1163.00
943.326,1149.00
944.277,1160.25
945.228,1134.50
946.179,1168.25
947.130,1106.75
948.080,1139.50
949.031,1154.75
949.984,1134.75
950.934,1088.00
951.884,1129.50
952.835,1119.75
953.785,1127.75
954.735,1139.25
955.685,1196.50
956.635,1164.00
957.585,1126.00
958.534,1126.00
959.484,1145.25
960.433,1151.25
961.383,1149.50
962.334,1171.00
963.283,1130.75
964.232,1127.00
965.181,1151.50
966.130,1114.25
967.079,1090.50
968.027,1138.75
968.976,1135.25
969.924,1086.75
970.873,1095.00
971.821,1153.75
972.769,1143.50
973.719,1165.25
974.667,1126.75
975.615,1126.00
976.562,1104.00
977.510,1118.50
978.458,1092.25
979.405,1122.50
980.352,1092.50
981.300,1109.25
982.247,1105.50
983.194,1137.75
984.141,1126.00
985.088,1136.50
986.036,1126.75
986.983,1113.75
987.930,1093.00
988.876,1112.25
989.822,1085.00
990.769,1089.00
991.715,1117.50
992.661,1088.75
993.607,1073.75
994.553,1097.50
995.498,1106.50
996.444,1123.75
997.389,1102.25
998.337,1128.75
999.282,1087.75
1000.227,1138.75
1001.173,1110.25
1002.118,1107.00
1003.062,1050.75
1004.007,1112.75
1004.952,1085.25
1005.897,1085.25
1006.841,1086.50
1007.786,1092.25
1008.730,1040.25
1009.674,1098.75
1010.618,1114.00
1011.564,1128.75
1012.508,1125.00
1013.452,1132.00
1014.396,1087.25
1015.339,1109.50
1016.283,1090.75
1017.226,1099.50
1018.170,1099.50
1019.113,1117.75
1020.056,1039.25
1020.999,1103.75
1021.942,1085.50
1022.885,1089.50
1023.828,1094.00
1024.770,1096.75
1025.715,1088.50
1026.657,1103.75
1027.600,1096.50
1028.542,1086.25
1029.484,1103.00
1030.426,1089.50
1031.368,1107.50
1032.310,1120.75
1033.251,1097.25
1034.193,1135.50
1035.135,1091.50
1036.076,1114.25
1037.017,1094.50
1037.959,1124.25
1038.900,1162.75
1039.843,1098.25
1040.784,1125.25
1041.725,1093.75
1042.665,1126.00
1043.606,1134.00
1044.547,1121.00
1045.487,1142.50
1046.427,1171.00
1047.368,1157.50
1048.308,1146.25
1049.248,1134.50
1050.188,1142.25
1051.128,1109.25
1052.067,1164.75
1053.007,1156.75
1053.947,1148.75
1054.886,1122.75
1055.827,1177.00
1056.766,1171.50
1057.706,1157.75
1058.645,1169.00
1059.584,1169.75
1060.522,1162.25
1061.461,1156.25
1062.400,1208.00
1063.338,1173.50
1064.277,1171.00
1065.215,1166.25
1066.154,1139.00
1067.092,1162.50
1068.030,1162.75
1068.968,1211.50
1069.906,1210.00
1070.843,1147.75
1071.781,1198.75
1072.720,1194.00
1073.658,1192.50
1074.595,1191.00
1075.533,1183.75
1076.470,1181.75
1077.407,1214.25
1078.344,1248.50
1079.281,1249.25
1080.217,1239.75
1081.154,1238.25
1082.091,1199.25
1083.027,1203.50
1083.964,1224.00
1084.900,1184.50
1085.836,1197.50
1086.772,1159.00
1087.708,1172.50
1088.644,1173.25
1089.580,1180.50
1090.515,1223.50
1091.451,1223.50
1092.388,1209.50
1093.324,1199.50
1094.259,1223.75
1095.194,1232.25
1096.129,1198.50
1097.064,1257.75
1097.999,1184.75
1098.934,1198.25
1099.869,1208.50
1100.803,1205.00
1101.738,1186.25
1102.672,1210.25
1103.607,1200.25
1104.541,1189.50
1105.475,1195.50
1106.409,1178.25
1107.343,1144.00
1108.277,1151.00
1109.210,1155.25
1110.144,1128.50
1111.078,1225.00
1112.011,1137.50
1112.944,1170.50
1113.878,1118.00
1114.811,1157.50
1115.744,1145.00
1116.678,1109.50
1117.611,1126.25
1118.544,1109.25
1119.477,1125.50
1120.409,1128.00
1121.342,1105.00
1122.274,1075.25
1123.206,1342.50
1124.138,1053.00
1125.070,1074.50
1126.002,1119.75
1126.934,1045.25
1127.866,1071.50
1128.798,1074.75
1129.729,1034.50
1130.661,1048.00
1131.592,1018.75
1132.523,1058.25
1133.454,1043.00
1134.385,1057.75
1135.317,1063.75
1136.247,1069.00
1137.178,1037.25
1138.109,998.75
1139.039,987.00
1139.970,1013.25
1140.900,1022.50
1141.831,1016.75
1142.761,1003.75
1143.691,998.50
1144.621,978.25
1145.551,1006.50
1146.480,1000.00
1147.410,987.25
1148.340,1013.00
1149.269,952.75
1150.199,999.50
1151.128,1027.50
1152.057,967.50
1152.979,930.50
1153.898,993.00
1154.819,972.75
1155.739,941.75
1156.658,966.00
1157.579,906.50
1158.498,950.50
1159.419,933.00
1160.338,964.75
1161.256,959.75
1162.177,941.00
1163.095,945.50
1164.016,946.75
1164.934,959.25
1165.852,970.25
1166.772,914.25
1167.690,927.00
1168.610,952.25
1169.528,925.25
1170.446,915.25
1171.365,894.75
1172.283,886.00
1173.202,915.25
1174.120,918.75
1175.037,906.50
1175.956,904.75
1176.873,938.25
1177.792,892.25
1178.709,895.50
1179.626,895.75
1180.544,903.25
1181.461,879.00
1182.379,880.75
1183.296,885.50
1184.212,897.75
1185.130,885.25
1186.046,890.00
1186.962,863.00
1187.880,886.50
1188.796,887.25
1189.714,879.75
1190.629,894.50
1191.545,897.50
1192.462,874.50
1193.378,862.25
1194.295,896.75
1195.210,847.50
1196.125,871.00
1197.042,836.50
1197.957,909.00
1198.872,869.75
1199.788,828.75
1200.703,861.25
1201.619,859.75
1202.534,820.50
1203.448,839.00
1204.364,862.75
1205.278,853.25
1206.192,846.50
1207.108,843.50
1208.022,821.50
1208.938,874.50
1209.851,851.00
1210.765,849.50
1211.680,884.75
1212.594,851.25
1213.507,863.50
1214.422,839.75
1215.335,834.25
1216.248,861.25
1217.163,893.00
1218.076,834.75
1218.990,867.25
1219.903,829.00
1220.816,875.75
1221.730,867.00
1222.642,843.75
1223.554,854.00
1224.469,860.25
1225.380,849.25
1226.292,820.50
1227.206,844.00
1228.118,883.50
1229.032,813.00
1229.943,856.50
1230.855,841.00
1231.768,844.50
1232.679,854.50
1233.590,886.50
1234.503,830.25
1235.414,805.25
1236.325,876.50
1237.238,873.50
1238.149,828.50
1239.059,826.75
1239.972,859.00
1240.882,856.25
1241.793,844.50
1242.705,862.00
1243.615,836.00
1244.525,882.50
1245.437,851.75
1246.347,838.50
1247.259,846.25
1248.168,849.50
1249.078,854.00
1249.989,902.25
1250.899,858.00
1251.808,869.00
1252.719,846.75
1253.628,825.00
1254.537,865.50
1255.448,821.75
1256.357,869.50
1257.266,848.75
1258.176,848.50
1259.085,883.50
1259.993,840.25
1260.904,824.50
1261.812,810.75
1262.720,878.25
1263.630,826.25
1264.538,844.75
1265.446,860.25
1266.356,820.25
1267.263,850.25
1268.171,863.50
1269.080,823.25
1269.988,894.00
1270.895,878.00
1271.804,882.25
1272.711,910.75
1273.619,848.00
1274.527,850.75
1275.434,843.50
1276.341,856.00
1277.248,843.25
1278.156,895.75
1279.063,849.00
1279.969,864.50
1280.877,807.25
1281.783,869.00
1282.690,869.25
1283.598,861.75
1284.503,814.75
1285.409,824.00
1286.317,874.50
1287.223,890.00
1288.128,832.25
1289.036,871.25
1289.941,833.75
1290.846,851.75
1291.751,843.00
1292.658,863.75
1293.563,828.75
1294.468,900.25
1295.375,864.00
1296.280,856.25
1297.184,862.00
1298.091,865.00
1298.995,883.25
1299.900,845.75
1300.806,859.75
1301.710,843.25
1302.614,842.75
1303.518,861.00
1304.424,848.75
1305.327,838.50
1306.231,808.25
1307.137,845.00
1308.040,815.50
1308.943,793.25
1309.847,822.00
1310.752,795.75
1311.655,799.00
1312.558,829.75
1313.463,804.00
1314.366,833.00
1315.269,830.00
1316.171,835.75
1317.076,814.25
1317.978,789.50
1318.881,791.00
1319.785,812.75
1320.687,791.50
1321.589,815.75
1322.491,861.50
1323.395,835.25
1324.297,788.00
1325.198,777.25
1326.102,812.75
1327.004,798.75
1327.905,809.75
1328.806,776.00
1329.709,826.25
1330.611,776.75
1331.512,808.75
1332.413,880.25
1333.316,771.50
1334.216,806.75
1335.117,827.50
1336.020,774.00
1336.920,767.75
1337.821,836.50
1338.721,821.75
1339.623,797.00
1340.523,829.50
1341.423,807.25
1342.323,793.25
1343.225,772.00
1344.125,795.50
1345.025,817.25
1345.924,837.25
1346.826,776.50
1347.725,787.50
1348.624,807.00
1349.524,752.75
1350.425,791.75
1351.324,808.00
1352.223,753.50
1353.121,766.00
1354.022,781.75
1354.921,786.75
1355.819,798.50
1356.718,773.00
1357.618,788.25
1358.516,794.00
1359.415,779.75
1360.313,802.75
1361.213,796.25
1362.111,790.25
1363.008,741.75
1363.906,804.00
1364.806,770.00
1365.703,777.25
1366.601,757.00
1367.498,728.25
1368.397,821.50
1369.295,733.50
1370.192,781.75
1371.089,765.50
1371.987,782.25
1372.884,747.50
1373.781,784.50
1374.678,772.25
1375.574,764.50
1376.473,779.25
1377.369,767.50
1378.265,779.50
1379.161,775.25
1380.059,732.75
1380.955,759.50
1381.851,762.50
1382.747,725.50
1383.643,757.25
1384.540,761.75
1385.436,786.75
1386.331,771.25
1387.227,735.75
1388.124,755.50
1389.019,764.25
1389.914,768.00
1390.809,745.00
1391.704,715.25
1392.601,723.75
1393.495,724.50
1394.390,777.50
1395.285,767.25
1396.179,745.00
1397.075,773.75
1397.969,737.75
1398.864,756.75
1399.758,747.25
1400.652,761.25
1401.547,746.00
1402.441,721.50
1403.335,781.25
1404.229,732.50
1405.122,750.00
1406.017,766.50
1406.911,741.75
1407.804,751.25
1408.697,751.25
1409.590,773.50
1410.485,734.75
1411.378,730.00
1412.271,745.50
1413.163,767.75
1414.056,721.75
1414.949,706.25
1415.843,761.75
1416.735,739.75
1417.627,747.00
1418.520,726.75
1419.412,755.00
1420.306,717.75
1421.197,785.00
1422.089,723.75
1422.981,735.00
1423.873,727.50
1424.764,748.25
1425.657,719.75
1426.549,722.00
1427.440,766.25
1428.331,778.25
1429.222,713.25
1430.113,710.00
1431.006,707.50
1431.897,714.75
1432.787,723.75
1433.678,733.50
1434.568,749.25
1435.459,749.00
1436.351,739.75
1437.241,714.50
1438.131,766.75
1439.021,726.00
1439.911,704.50
1440.801,745.00
1441.693,741.50
1442.583,727.75
1443.472,702.50
1444.362,738.75
1445.251,763.75
1446.140,741.00
1447.030,701.00
1447.921,717.50
1448.810,769.00
1449.699,737.75
1450.588,694.25
1451.476,708.75
1452.365,732.25
1453.254,721.75
1454.144,749.00
1455.032,730.00
1455.921,738.75
1456.809,705.25
1457.697,731.00
1458.585,735.50
1459.473,723.25
1460.361,712.25
1461.251,701.50
1462.138,674.25
1463.026,702.75
1463.913,776.00
1464.801,769.50
1465.688,748.25
1466.575,700.75
1467.463,744.25
1468.351,718.25
1469.238,714.25
1470.125,716.25
1471.012,713.75
1471.899,764.00
1472.785,718.50
1473.672,739.50
1474.558,712.25
1475.446,750.75
1476.333,700.50
1477.219,710.25
1478.105,674.00
1478.991,682.25
1479.877,687.25
1480.762,679.50
1481.648,707.00
1482.534,735.50
1483.419,710.00
1484.307,712.25
1485.192,712.25
1486.077,707.50
1486.962,691.75
1487.847,710.50
1488.732,698.25
1489.617,658.00
1490.502,698.25
1491.387,716.00
1492.271,703.75
1493.156,694.00
1494.042,704.50
1494.927,701.75
1495.811,674.50
1496.695,692.75
1497.579,684.50
1498.463,714.00
1499.347,715.50
1500.231,710.50
1501.114,740.75
1501.998,704.75
1502.881,745.50
1503.765,713.75
1504.648,700.75
1505.533,708.00
1506.417,673.50
1507.300,721.50
1508.183,701.00
1509.066,710.25
1509.948,683.50
1510.831,675.25
1511.714,684.75
1512.596,714.25
1513.479,684.25
1514.361,672.00
1515.243,692.75
1516.125,695.75
1517.008,686.75
1517.890,719.25
1518.771,689.00
1519.655,685.75
1520.537,712.75
1521.419,704.50
1522.300,720.75
1523.182,736.50
1524.063,656.25
1524.944,701.75
1525.825,713.75
1526.707,709.00
1527.588,693.25
1528.468,688.25
1529.349,685.00
1530.230,727.25
1531.111,689.50
1531.991,706.00
1532.872,700.00
1533.752,686.25
1534.632,697.25
1535.513,709.25
1536.393,669.25
1537.273,698.50
1538.153,693.00
1539.032,693.00
1539.912,739.25
1540.792,659.00
1541.672,674.25
1542.551,679.50
1543.430,682.50
1544.310,677.50
1545.189,692.50
1546.068,653.75
1546.947,658.25
1547.826,711.25
1548.705,702.25
1549.584,670.50
1550.462,653.00
1551.341,657.25
1552.219,667.75
1553.098,659.00
1553.976,694.75
1554.854,654.25
1555.733,695.25
1556.611,739.00
1557.489,684.50
1558.367,687.00
1559.244,745.00
1560.122,688.50
1561.000,667.50
1561.877,691.25
1562.755,680.50
1563.632,710.75
1564.509,730.25
1565.386,708.00
1566.264,684.25
1567.141,703.25
1568.017,638.75
1568.894,719.50
1569.771,701.50
1570.648,643.00
1571.524,658.00
1572.401,644.00
1573.277,672.25
1574.153,677.25
1575.029,664.50
1575.906,682.50
1576.781,656.50
1577.657,654.75
1578.533,656.00
1579.409,688.50
1580.285,712.25
1581.160,707.00
1582.036,663.00
1582.911,717.25
1583.786,647.75
1584.662,681.00
1585.537,673.50
1586.412,665.50
1587.287,691.00
1588.160,679.75
1589.035,687.25
1589.909,704.75
1590.784,669.75
1591.658,690.25
1592.533,670.75
1593.407,692.25
1594.281,687.25
1595.155,713.50
1596.029,653.50
1596.903,659.25
1597.777,683.00
1598.651,696.00
1599.525,690.50
1600.398,727.50
1601.272,638.00
1602.144,714.25
1603.017,664.50
1603.890,682.50
1604.763,669.50
1605.636,712.75
1606.509,654.50
1607.382,688.00
1608.255,655.75
1609.128,670.50
1610.000,649.25
1610.873,670.00
1611.746,688.75
1612.616,680.50
1613.488,701.75
1614.361,658.00
1615.233,720.75
1616.105,657.00
1616.977,688.50
1617.849,677.75
1618.720,669.25
1619.592,705.50
1620.464,702.75
1621.333,675.75
1622.205,666.00
1623.076,682.75
1623.947,690.50
1624.818,678.50
1625.689,691.75
1626.560,692.00
1627.431,687.75
1628.302,689.75
1629.171,654.00
1630.042,662.00
1630.912,676.75
1631.782,648.25
1632.653,650.00
1633.523,697.50
1634.393,664.75
1635.263,695.25
1636.131,640.00
1637.001,682.50
1637.871,689.25
1638.741,662.00
1639.611,675.75
1640.480,625.00
1641.350,694.50
1642.219,714.00
1643.087,655.75
1643.956,656.00
1644.825,671.25
1645.694,616.25
1646.563,635.50
1647.432,678.00
1648.299,661.75
1649.167,679.75
1650.036,657.25
1650.904,648.75
1651.773,655.75
1652.641,637.00
1653.509,677.00
1654.376,673.25
1655.244,669.00
1656.112,656.25
1656.980,646.00
1657.847,664.00
1658.715,617.75
1659.581,672.25
1660.448,639.00
1661.316,684.50
1662.183,668.25
1663.051,687.50
1663.918,690.00
1664.783,685.50
1665.650,674.50
1666.517,656.75
1667.384,680.25
1668.251,661.00
1669.115,688.25
1669.982,654.50
1670.849,695.25
1671.715,648.50
1672.581,660.25
1673.446,647.00
1674.312,634.50
1675.178,677.25
1676.044,704.75
1676.910,669.00
1677.774,649.50
1678.639,647.75
1679.505,684.00
1680.370,618.25
1681.236,681.50
1682.099,682.00
1682.965,664.25
1683.830,663.75
1684.695,684.50
1685.560,690.25
1686.423,684.75
1687.288,669.00
1688.153,660.00
1689.017,653.00
1689.880,670.00
1690.745,681.25
1691.609,660.50
1692.473,709.25
1693.338,658.25
1694.200,689.25
1695.064,680.75
1695.928,674.75
1696.792,661.00
1697.654,683.00
1698.517,703.25
1699.381,664.50
1700.245,640.75
1701.106,631.75
1701.969,671.25
1702.833,684.75
1703.696,651.25
1704.557,648.00
1705.420,702.00
1706.283,693.25
1707.146,708.75
1708.007,698.75
1708.870,667.25
1709.732,672.75
1710.595,627.25
1711.455,634.75
1712.318,661.50
1713.180,622.25
1714.040,665.00
1714.902,653.75
1715.764,648.00
1716.626,666.75
1717.486,706.00
1718.348,666.50
1719.209,653.25
1720.071,697.75
1720.930,639.00
1721.792,644.50
1722.653,641.50
1723.512,649.75
1724.374,660.75
1725.234,635.25
1726.095,639.25
1726.954,656.75
1727.815,663.00
1728.676,671.50
1729.535,687.00
1730.395,679.75
1731.256,669.25
1732.114,671.25
1732.974,683.50
1733.834,677.75
1734.693,698.50
1735.553,705.50
1736.413,696.50
1737.272,648.50
1738.130,639.25
1738.990,683.50
1739.849,648.50
1740.707,671.50
1741.566,700.25
1742.426,677.00
1743.283,667.50
1744.142,665.75
1745.001,647.75
1745.858,634.75
1746.717,683.50
1747.576,651.50
1748.433,618.00
1749.292,646.00
1750.150,694.00
1751.007,676.50
1751.865,719.75
1752.723,633.25
1753.579,691.75
1754.438,650.25
1755.296,693.50
1756.152,645.75
1757.010,682.75
1757.865,717.00
1758.723,649.25
1759.581,693.00
1760.436,635.50
1761.294,681.25
1762.151,629.50
1763.006,677.75
1763.864,667.25
1764.721,663.50
1765.576,667.00
1766.433,656.00
1767.288,655.75
1768.144,634.00
1769.001,657.50
1769.856,668.25
1770.712,690.00
1771.568,713.50
1772.423,660.25
1773.279,674.25
1774.133,687.25
1774.989,652.50
1775.845,663.50
1776.699,671.75
1777.555,679.25
1778.409,632.75
1779.265,660.25
1780.120,675.00
1780.974,663.25
1781.829,657.75
1782.682,641.25
1783.538,622.25
1784.393,688.50
1785.246,652.00
1786.101,676.75
1786.954,657.00
1787.808,696.00
1788.661,656.50
1789.516,649.00
1790.370,657.00
1791.223,642.75
1792.077,682.00
1792.930,625.50
1793.784,691.00
1794.636,688.75
1795.490,646.75
1796.344,678.50
1797.196,656.75
1798.049,676.50
1798.901,679.25
1799.755,658.00
1800.606,647.75
1801.460,705.25
1802.311,675.25
1803.165,644.00
1804.018,669.50
1804.869,687.00
1805.722,685.00
1806.573,671.00
1807.426,660.75
1808.276,688.00
1809.129,643.50
1809.980,661.25
1810.832,678.00
1811.683,685.00
1812.535,671.00
1813.385,672.00
1814.237,667.00
1815.089,662.00
1815.940,657.75
1816.791,655.25
1817.641,697.50
1818.493,642.50
1819.343,645.75
1820.194,612.25
1821.044,740.50
1821.895,634.50
1822.745,678.50
1823.596,615.25
1824.445,669.50
1825.296,671.50
1826.145,664.25
1826.996,658.50
1827.845,656.50
1828.695,639.00
1829.544,653.50
1830.395,670.00
1831.243,704.75
1832.094,648.50
1832.942,676.50
1833.792,671.25
1834.640,688.50
1835.490,615.00
1836.338,650.25
1837.186,633.75
1838.036,653.75
1838.884,650.25
1839.733,621.25
1840.581,665.50
1841.430,660.00
1842.278,606.25
1843.127,650.00
1843.974,646.50
1844.823,703.50
1845.671,662.50
1846.519,634.00
1847.366,666.75
1848.213,615.50
1849.062,693.50
1849.909,654.25
1850.757,626.50
1851.604,616.00
1852.452,657.50
1853.298,648.50
1854.146,610.00
1854.993,644.75
1855.839,663.50
1856.687,623.50
1857.532,636.50
1858.380,660.75
1859.226,673.75
1860.073,666.75
1860.919,652.50
1861.765,618.75
1862.612,694.75
1863.457,698.75
1864.304,645.25
1865.150,689.75
1865.995,680.75
1866.842,671.75
1867.686,660.25
1868.533,650.00
1869.378,667.75
1870.223,652.25
1871.069,679.25
1871.914,699.25
1872.760,648.75
1873.604,634.75
1874.448,686.25
1875.294,599.75
1876.139,682.50
1876.984,675.25
1877.828,649.25
1878.672,633.00
1879.518,657.00
1880.361,670.50
1881.205,649.25
1882.050,672.00
1882.894,667.25
1883.739,661.00
1884.582,638.25
1885.425,662.00
1886.270,642.25
1887.113,665.00
1887.956,643.25
1888.801,632.00
1889.644,666.00
1890.486,657.50
1891.331,696.25
1892.173,658.75
1893.017,657.75
1893.860,661.50
1894.702,684.50
1895.546,648.00
1896.388,612.25
1897.230,678.00
1898.074,694.25
1898.916,686.50
1899.757,639.00
1900.601,652.25
1901.443,686.50
1902.284,656.75
1903.125,660.75
1903.969,663.25
1904.810,645.25
1905.651,681.50
1906.494,618.25
1907.335,665.50
1908.176,656.00
1909.018,667.00
1909.859,672.50
1910.700,691.00
1911.542,654.50
1912.383,649.25
1913.223,653.25
1914.064,645.25
1914.906,670.25
1915.746,666.75
1916.586,721.25
1917.428,664.00
1918.268,663.25
1919.107,637.00
1919.947,692.00
1920.789,633.75
1921.628,662.75
1922.468,625.00
1923.309,709.50
1924.148,615.00
1924.988,672.25
1925.827,646.25
1926.667,638.50
1927.507,660.50
1928.345,638.25
1929.184,639.00
1930.025,634.00
1930.864,658.25
1931.702,650.50
1932.541,655.00
1933.381,642.00
1934.219,737.25
1935.057,672.25
1935.896,675.25
1936.735,662.50
1937.573,664.50
1938.411,647.25
1939.249,681.25
1940.089,696.00
1940.927,685.75
1941.764,659.50
1942.602,653.75
1943.439,644.75
1944.278,666.50
1945.115,627.75
1945.953,684.00
1946.790,669.25
1947.628,671.75
1948.465,635.50
1949.302,636.00
1950.139,620.75
1950.976,654.00
1951.814,632.75
1952.651,627.75
1953.487,663.50
1954.323,671.75
1955.160,634.00
1955.998,654.75
1956.834,691.00
1957.670,664.50
1958.506,643.25
1959.342,667.75
1960.177,639.75
1961.015,668.25
1961.850,709.50
1962.686,640.25
1963.521,666.00
1964.357,668.75
1965.192,660.75
1966.029,684.25
1966.864,697.25
1967.699,638.50
1968.534,671.00
1969.369,624.25
1970.204,678.00
1971.040,667.25
1971.875,630.75
1972.709,688.75
1973.544,646.00
1974.378,691.25
1975.212,678.00
1976.047,651.00
1976.882,674.00
1977.716,683.00
1978.550,668.50
1979.384,683.25
1980.218,642.25
1981.052,652.75
1981.885,670.50
1982.719,665.25
1983.554,642.00
1984.388,664.00
1985.221,688.50
1986.054,630.75
1986.887,702.25
1987.720,660.75
1988.553,677.25
1989.386,689.25
1990.219,631.00
1991.053,699.75
1991.886,669.00
1992.719,649.75
1993.551,673.00
1994.383,693.50
1995.216,647.00
1996.048,671.50
1996.880,618.00
1997.712,696.50
1998.544,655.50
1999.376,639.50
2000.208,655.25
2001.040,642.25
2001.873,670.75
2002.705,667.75
2003.536,658.50
2004.367,679.75
2005.199,683.25
2006.030,653.00
2006.861,644.50
2007.692,643.50
2008.523,676.25
2009.354,648.25
2010.185,651.75
2011.016,668.25
2011.846,655.50
2012.677,634.25
2013.507,680.50
2014.338,668.00
2015.168,636.75
2015.999,670.50
2016.829,711.50
2017.659,687.25
2018.489,676.50
2019.319,705.00
2020.149,659.75
2020.980,686.25
2021.810,668.25
2022.639,700.50
2023.469,673.50
2024.298,666.75
2025.128,643.25
2025.957,660.25
2026.786,679.75
2027.615,686.25
2028.444,688.25
2029.273,633.00
2030.102,668.00
2030.931,691.00
2031.758,684.75
2032.586,660.50
2033.415,711.25
2034.243,687.25
2035.072,677.50
2035.900,701.50
2036.728,650.75
2037.556,657.00
2038.385,652.75
2039.213,710.25
2040.040,683.00
2040.868,683.00
2041.696,686.50
2042.524,693.25
2043.351,704.00
2044.179,693.50
2045.006,673.50
2045.006,673.50

Max Intensity Wave.,278.402
Max Intensity Data,3050.25
Min Intensity Wave.,146.591
Min Intensity Data,521.25
FWHM Wave.,399.785
FWHM Value,1.68
Pressure Wave.,687.848
Pressure Value [GPa],-16.58042
G/D Ratio,0.84545
G/D Gband Wave.,1559.250
G/D Gband Intensity,745.00
G/D Dband Wave.,1332.320
G/D Dband Intensity,881.19

<< BACKGROUND SPECTRUM >>
Wave[dcm-1],No115
146.591,2332.00
147.626,2161.00
148.664,2143.00
149.699,2644.00
150.737,2362.00
151.772,2453.00
152.809,2523.00
153.846,2411.00
154.881,2517.00
155.918,2041.00
156.953,2374.00
157.989,2722.00
159.026,2586.00
160.060,2783.00
161.096,2990.00
162.130,2596.00
163.167,2673.00
164.200,2609.00
165.236,2787.00
166.272,2820.00
167.305,2380.00
168.341,2610.00
169.374,2926.00
170.409,2907.00
171.445,2836.00
172.477,2637.00
173.512,2501.00
174.545,2804.00
175.580,3038.00
176.614,3172.00
177.647,2970.00
178.681,3170.00
179.713,3540.00
180.747,2952.00
181.781,2836.00
182.813,3137.00
183.847,3245.00
184.878,2853.00
185.912,3137.00
186.945,3300.00
187.976,3234.00
189.010,2843.00
190.043,2994.00
191.073,3078.00
192.106,2860.00
193.137,3329.00
194.170,2691.00
195.202,3053.00
196.232,2769.00
197.265,3132.00
198.297,3207.00
199.327,2855.00
200.359,3071.00
201.388,3550.00
202.420,3060.00
203.452,3270.00
204.481,2771.00
205.512,3471.00
206.544,3217.00
207.573,3224.00
208.604,3541.00
209.635,3687.00
210.663,3098.00
211.694,3127.00
212.725,2960.00
213.753,2927.00
214.783,3563.00
215.813,3393.00
216.841,3202.00
217.871,3388.00
218.899,3051.00
219.929,3306.00
220.959,3074.00
221.986,3321.00
223.016,2889.00
224.045,3274.00
225.072,3261.00
226.101,3365.00
227.130,3375.00
228.157,3002.00
229.185,2460.00
230.214,3347.00
231.241,2990.00
232.269,2550.00
233.297,2812.00
234.323,3420.00
235.351,2954.00
236.379,3277.00
237.407,2900.00
238.433,3093.00
239.460,3205.00
240.488,3256.00
241.513,3443.00
242.540,3248.00
243.568,3419.00
244.592,3371.00
245.619,3373.00
246.646,3058.00
247.671,3093.00
248.697,2915.00
249.724,3171.00
250.748,3187.00
251.774,3173.00
252.801,3491.00
253.827,3246.00
254.850,3262.00
255.876,2783.00
256.902,3291.00
257.925,3123.00
258.951,2892.00
259.976,2920.00
260.999,3242.00
262.024,2894.00
263.049,3835.00
264.074,3228.00
265.097,3168.00
266.122,3256.00
267.146,3164.00
268.168,3359.00
269.193,3004.00
270.217,3384.00
271.241,2857.00
272.263,3013.00
273.287,3366.00
274.311,2925.00
275.332,3441.00
276.356,2990.00
277.379,3239.00
278.402,3225.00
279.424,3055.00
280.447,3014.00
281.470,2849.00
282.492,3219.00
283.513,3070.00
284.536,3366.00
285.558,3336.00
286.581,3275.00
287.601,2979.00
288.623,2956.00
289.645,3268.00
290.665,3212.00
291.687,3295.00
292.709,3231.00
293.730,3580.00
294.750,3044.00
295.771,2872.00
296.792,3194.00
297.813,3078.00
298.832,3221.00
299.853,2844.00
300.874,3132.00
301.895,3132.00
302.913,3124.00
303.934,3378.00
304.954,3168.00
305.975,3333.00
306.993,2860.00
308.013,3248.00
309.033,3168.00
310.052,3065.00
311.072,3055.00
312.090,3172.00
313.109,3425.00
314.129,3540.00
315.148,3139.00
316.165,3222.00
317.184,3368.00
318.203,2899.00
319.222,2905.00
320.238,3311.00
321.257,2928.00
322.275,2812.00
323.294,3126.00
324.312,3278.00
325.328,3423.00
326.346,3429.00
327.364,3397.00
328.382,3312.00
329.397,3280.00
330.415,3402.00
331.432,3362.00
332.450,3451.00
333.467,3605.00
334.482,2701.00
335.499,3517.00
336.516,3005.00
337.533,2694.00
338.547,2979.00
339.564,2982.00
340.580,3270.00
341.597,3074.00
342.613,3641.00
343.627,3114.00
344.643,3168.00
345.659,3237.00
346.675,3149.00
347.690,3035.00
348.704,3224.00
349.719,3024.00
350.735,2875.00
351.750,3310.00
352.765,3174.00
353.778,3120.00
354.793,3285.00
355.808,2979.00
356.822,3321.00
357.837,2817.00
358.851,3405.00
359.864,3119.00
360.878,2875.00
361.892,3103.00
362.906,3326.00
363.920,2731.00
364.932,3282.00
365.945,3223.00
366.959,3134.00
367.972,3072.00
368.986,2866.00
369.999,3585.00
371.010,2970.00
372.023,3516.00
373.036,3101.00
374.049,3533.00
375.061,3259.00
376.072,3177.00
377.084,3028.00
378.097,2798.00
379.109,3370.00
380.121,3130.00
381.133,2814.00
382.143,3324.00
383.155,2864.00
384.166,3028.00
385.178,3224.00
386.189,3368.00
387.201,2852.00
388.212,3045.00
389.221,3036.00
390.232,3157.00
391.243,3049.00
392.254,3185.00
393.264,3002.00
394.275,3356.00
395.283,3311.00
396.294,3831.00
397.304,3659.00
398.314,3293.00
399.324,3181.00
400.334,2763.00
401.344,3303.00
402.351,2790.00
403.361,3350.00
404.370,3098.00
405.380,3059.00
406.389,3511.00
407.398,3265.00
408.407,3236.00
409.414,3336.00
410.423,3450.00
411.431,2875.00
412.440,2815.00
413.448,3500.00
414.457,2988.00
415.465,2925.00
416.471,3002.00
417.479,3174.00
418.487,2952.00
419.495,3445.00
420.503,3282.00
421.510,2732.00
422.518,3325.00
423.525,3368.00
424.530,3566.00
425.537,3033.00
426.544,3404.00
427.551,2995.00
428.558,3784.00
429.565,3569.00
430.571,3007.00
431.578,3032.00
432.582,3035.00
433.588,3120.00
434.595,2727.00
435.601,3474.00
436.607,3400.00
437.612,2911.00
438.618,3473.00
439.624,3079.00
440.627,3089.00
441.633,3248.00
442.638,3778.00
443.643,3218.00
444.648,3158.00
445.653,3303.00
446.658,2985.00
447.663,3180.00
448.667,3004.00
449.672,3052.00
450.674,3094.00
451.678,2823.00
452.682,3008.00
453.687,2945.00
454.690,3797.00
455.694,3476.00
456.698,2674.00
457.702,2773.00
458.705,2907.00
459.709,2970.00
460.710,2984.00
461.713,3168.00
462.716,3226.00
463.719,3118.00
464.722,3364.00
465.725,3068.00
466.727,2945.00
467.730,3101.00
468.732,2901.00
469.735,3460.00
470.737,3057.00
471.737,3011.00
472.739,3035.00
473.741,2962.00
474.742,3196.00
475.744,3282.00
476.746,3182.00
477.747,3087.00
478.748,3304.00
479.750,3080.00
480.751,3144.00
481.752,3937.00
482.753,3226.00
483.751,3728.00
484.752,2740.00
485.753,3109.00
486.753,2999.00
487.753,3145.00
488.754,3620.00
489.754,2844.00
490.754,3486.00
491.754,3226.00
492.754,2802.00
493.753,3164.00
494.753,3057.00
495.752,3524.00
496.752,3144.00
497.749,3145.00
498.748,2989.00
499.747,3563.00
500.746,3252.00
501.745,2912.00
502.744,2867.00
503.742,3499.00
504.741,3083.00
505.739,2612.00
506.737,3037.00
507.735,3366.00
508.734,3515.00
509.732,3262.00
510.729,3508.00
511.727,2987.00
512.725,3072.00
513.720,2915.00
514.718,3400.00
515.715,2817.00
516.712,2770.00
517.709,3125.00
518.706,3054.00
519.703,3196.00
520.700,3350.00
521.696,3521.00
522.693,3050.00
523.689,2920.00
524.686,3345.00
525.682,2905.00
526.678,3603.00
527.674,3057.00
528.670,2665.00
529.666,3723.00
530.661,3630.00
531.657,3307.00
532.652,3310.00
533.648,3202.00
534.641,3370.00
535.636,3233.00
536.631,3226.00
537.626,3329.00
538.621,2873.00
539.616,2721.00
540.610,2647.00
541.605,3132.00
542.599,3191.00
543.593,3130.00
544.587,4111.00
545.581,2962.00
546.575,3156.00
547.569,3190.00
548.563,2825.00
549.557,2746.00
550.550,2864.00
551.543,2857.00
552.537,3280.00
553.530,2910.00
554.523,2901.00
555.516,3221.00
556.509,3078.00
557.502,2740.00
558.494,3336.00
559.487,3035.00
560.479,3334.00
561.472,3421.00
562.464,3261.00
563.456,3416.00
564.448,3087.00
565.440,3169.00
566.432,3547.00
567.423,3003.00
568.415,3044.00
569.404,3239.00
570.396,2914.00
571.387,3239.00
572.378,3170.00
573.369,4156.00
574.360,3858.00
575.351,3081.00
576.341,2978.00
577.332,3013.00
578.323,2764.00
579.313,3032.00
580.303,3395.00
581.293,3257.00
582.283,3103.00
583.273,3284.00
584.263,3145.00
585.253,3222.00
586.243,3310.00
587.232,2775.00
588.222,3125.00
589.211,3258.00
590.200,3185.00
591.189,3065.00
592.178,3138.00
593.167,3570.00
594.156,3409.00
595.145,3027.00
596.133,3598.00
597.122,3204.00
598.110,3324.00
599.098,3199.00
600.086,3154.00
601.074,3297.00
602.062,2933.00
603.050,2873.00
604.038,3246.00
605.025,2925.00
606.013,3331.00
607.000,3530.00
607.987,3186.00
608.975,3177.00
609.962,2891.00
610.949,3319.00
611.936,3425.00
612.922,3289.00
613.909,2798.00
614.895,3563.00
615.882,2967.00
616.868,3147.00
617.854,2870.00
618.841,3149.00
619.826,3259.00
620.812,3131.00
621.798,2894.00
622.784,3292.00
623.769,3191.00
624.755,2807.00
625.740,3206.00
626.725,2809.00
627.711,2985.00
628.698,3179.00
629.683,2935.00
630.667,3305.00
631.652,2878.00
632.637,3086.00
633.621,3343.00
634.606,3082.00
635.590,3282.00
636.574,3081.00
637.558,3256.00
638.542,3195.00
639.526,2985.00
640.510,2732.00
641.493,3167.00
642.477,3068.00
643.460,2794.00
644.444,3363.00
645.427,3408.00
646.410,2775.00
647.393,3036.00
648.376,3180.00
649.359,2983.00
650.341,3233.00
651.324,3234.00
652.307,3185.00
653.289,3097.00
654.271,2994.00
655.253,3019.00
656.235,3304.00
657.217,3403.00
658.199,2779.00
659.181,2873.00
660.163,3122.00
661.144,3017.00
662.126,3010.00
663.107,2914.00
664.088,4987.00
665.069,3381.00
666.050,2926.00
667.033,2852.00
668.014,3144.00
668.995,2662.00
669.975,3115.00
670.956,3124.00
671.936,3305.00
672.916,3108.00
673.896,3256.00
674.876,3059.00
675.856,3009.00
676.836,2858.00
677.816,2409.00
678.795,2940.00
679.775,2802.00
680.754,3154.00
681.734,3272.00
682.713,3274.00
683.692,2876.00
684.671,2729.00
685.650,2908.00
686.629,2957.00
687.607,2824.00
688.586,2876.00
689.564,2951.00
690.543,3357.00
691.523,2491.00
692.501,2948.00
693.479,3128.00
694.457,2935.00
695.435,2963.00
696.413,2766.00
697.390,2616.00
698.368,2800.00
699.345,3230.00
700.322,3030.00
701.300,3233.00
702.277,3148.00
703.254,3437.00
704.231,2640.00
705.207,3097.00
706.184,2886.00
707.161,2725.00
708.137,2958.00
709.113,2908.00
710.090,2894.00
711.068,2732.00
712.044,2751.00
713.020,2993.00
713.996,2744.00
714.971,2917.00
715.947,2957.00
716.922,2955.00
717.898,2854.00
718.873,2965.00
719.848,2843.00
720.823,2811.00
721.798,3150.00
722.773,2880.00
723.748,2650.00
724.723,3103.00
725.697,2946.00
726.672,2881.00
727.646,2625.00
728.622,3165.00
729.596,2711.00
730.570,2824.00
731.544,3235.00
732.518,3386.00
733.492,2955.00
734.466,3018.00
735.439,3097.00
736.413,3231.00
737.386,2556.00
738.359,2530.00
739.332,2657.00
740.305,2978.00
741.278,3482.00
742.251,3080.00
743.224,2868.00
744.196,2634.00
745.171,3272.00
746.143,3125.00
747.115,2885.00
748.087,2837.00
749.059,3233.00
750.031,3056.00
751.003,3855.00
751.975,3363.00
752.947,2826.00
753.918,3187.00
754.890,2680.00
755.861,2878.00
756.832,3182.00
757.803,2952.00
758.774,2971.00
759.747,2728.00
760.718,3356.00
761.689,2816.00
762.659,2705.00
763.630,3274.00
764.600,2645.00
765.570,3204.00
766.540,3241.00
767.510,3054.00
768.480,3165.00
769.450,2842.00
770.420,2924.00
771.390,2759.00
772.359,2900.00
773.329,2746.00
774.300,2620.00
775.269,2880.00
776.238,3134.00
777.207,3273.00
778.176,2624.00
779.145,2929.00
780.114,2740.00
781.083,2677.00
782.051,2874.00
783.019,2796.00
783.988,3194.00
784.956,2917.00
785.924,3067.00
786.894,3008.00
787.862,2824.00
788.830,3277.00
789.797,2747.00
790.765,2726.00
791.732,2876.00
792.700,2789.00
793.667,2683.00
794.634,2843.00
795.601,2865.00
796.568,2908.00
797.535,2946.00
798.502,3554.00
799.468,3031.00
800.437,2491.00
801.403,2772.00
802.370,3452.00
803.336,3097.00
804.302,2967.00
805.268,2530.00
806.234,2676.00
807.200,2840.00
808.166,2887.00
809.131,2674.00
810.097,3132.00
811.062,3784.00
812.027,3149.00
812.994,2730.00
813.960,2712.00
814.925,3052.00
815.889,2589.00
816.854,3174.00
817.819,2768.00
818.783,2845.00
819.748,3220.00
820.712,2899.00
821.677,2708.00
822.641,2825.00
823.605,2791.00
824.571,3252.00
825.534,2874.00
826.498,2780.00
827.462,2938.00
828.425,2738.00
829.389,3149.00
830.352,2929.00
831.315,3013.00
832.279,2589.00
833.242,2876.00
834.204,2770.00
835.167,2750.00
836.132,3214.00
837.095,2611.00
838.057,2777.00
839.020,2953.00
839.982,2957.00
840.944,2788.00
841.906,2726.00
842.868,3095.00
843.830,2639.00
844.792,3198.00
845.753,2776.00
846.715,2541.00
847.679,2714.00
848.640,2699.00
849.601,2884.00
850.562,3405.00
851.523,2822.00
852.484,2561.00
853.445,3131.00
854.406,2828.00
855.367,2811.00
856.327,3153.00
857.288,2599.00
858.248,2754.00
859.210,2776.00
860.170,2634.00
861.130,3134.00
862.090,2526.00
863.050,2716.00
864.010,2760.00
864.969,3009.00
865.929,2697.00
866.888,2584.00
867.848,2925.00
868.807,2740.00
869.766,3003.00
870.727,2799.00
871.686,3101.00
872.645,3139.00
873.604,3396.00
874.562,2851.00
875.521,2910.00
876.479,3514.00
877.437,2679.00
878.396,2729.00
879.354,3266.00
880.312,2721.00
881.270,2757.00
882.229,3223.00
883.187,2702.00
884.145,2764.00
885.102,3038.00
886.059,2971.00
887.017,3019.00
887.974,3073.00
888.931,3185.00
889.888,2593.00
890.845,2562.00
891.802,2419.00
892.758,2742.00
893.717,2558.00
894.673,2683.00
895.630,2716.00
896.586,2998.00
897.542,2792.00
898.498,2608.00
899.454,2935.00
900.410,2777.00
901.366,2736.00
902.321,3889.00
903.277,2784.00
904.232,2898.00
905.189,2627.00
906.145,2736.00
907.100,2299.00
908.055,2808.00
909.010,3033.00
909.965,2431.00
910.919,2908.00
911.874,2655.00
912.828,2885.00
913.783,2882.00
914.737,2418.00
915.693,2857.00
916.648,2987.00
917.602,3087.00
918.555,2909.00
919.509,2920.00
920.463,2894.00
921.417,2902.00
922.370,2667.00
923.324,2774.00
924.277,2796.00
925.230,2872.00
926.183,2512.00
927.138,2799.00
928.091,3073.00
929.044,2920.00
929.996,2748.00
930.949,2785.00
931.902,2939.00
932.854,2930.00
933.806,2701.00
934.758,3104.00
935.711,3126.00
936.663,2831.00
937.614,2885.00
938.568,2851.00
939.520,2485.00
940.471,2805.00
941.423,2911.00
942.374,2995.00
943.326,2870.00
944.277,2686.00
945.228,2946.00
946.179,2786.00
947.130,3211.00
948.080,2753.00
949.031,2665.00
949.984,2796.00
950.934,2869.00
951.884,2563.00
952.835,2835.00
953.785,2854.00
954.735,2721.00
955.685,2415.00
956.635,2715.00
957.585,2739.00
958.534,2748.00
959.484,2846.00
960.433,2699.00
961.383,2546.00
962.334,3058.00
963.283,2873.00
964.232,2972.00
965.181,2802.00
966.130,2897.00
967.079,2753.00
968.027,2827.00
968.976,2836.00
969.924,2756.00
970.873,2951.00
971.821,2814.00
972.769,3026.00
973.719,2892.00
974.667,2576.00
975.615,2810.00
976.562,2848.00
977.510,2493.00
978.458,2740.00
979.405,2932.00
980.352,2889.00
981.300,3088.00
982.247,2915.00
983.194,2624.00
984.141,2720.00
985.088,2814.00
986.036,2881.00
986.983,3126.00
987.930,3269.00
988.876,2464.00
989.822,3120.00
990.769,2655.00
991.715,2712.00
992.661,2551.00
993.607,2932.00
994.553,3412.00
995.498,2694.00
996.444,2365.00
997.389,2903.00
998.337,2617.00
999.282,2992.00
1000.227,2736.00
1001.173,2779.00
1002.118,2507.00
1003.062,3047.00
1004.007,2773.00
1004.952,3100.00
1005.897,3063.00
1006.841,2834.00
1007.786,2559.00
1008.730,2566.00
1009.674,3292.00
1010.618,2742.00
1011.564,2572.00
1012.508,2463.00
1013.452,3021.00
1014.396,2820.00
1015.339,2700.00
1016.283,2797.00
1017.226,2851.00
1018.170,2799.00
1019.113,2980.00
1020.056,2877.00
1020.999,2807.00
1021.942,2730.00
1022.885,2978.00
1023.828,3132.00
1024.770,2614.00
1025.715,2866.00
1026.657,2800.00
1027.600,2856.00
1028.542,3049.00
1029.484,2844.00
1030.426,2957.00
1031.368,2897.00
1032.310,2653.00
1033.251,2626.00
1034.193,2784.00
1035.135,2590.00
1036.076,2730.00
1037.017,2646.00
1037.959,2941.00
1038.900,2837.00
1039.843,2912.00
1040.784,2841.00
1041.725,2913.00
1042.665,2715.00
1043.606,2851.00
1044.547,2865.00
1045.487,2446.00
1046.427,2738.00
1047.368,2866.00
1048.308,2303.00
1049.248,2603.00
1050.188,2789.00
1051.128,2728.00
1052.067,2733.00
1053.007,2490.00
1053.947,2486.00
1054.886,2687.00
1055.827,2556.00
1056.766,3075.00
1057.706,2532.00
1058.645,2753.00
1059.584,2822.00
1060.522,3089.00
1061.461,2543.00
1062.400,2524.00
1063.338,2738.00
1064.277,2621.00
1065.215,2598.00
1066.154,2502.00
1067.092,2689.00
1068.030,2764.00
1068.968,2939.00
1069.906,3112.00
1070.843,3101.00
1071.781,2851.00
1072.720,2924.00
1073.658,2943.00
1074.595,2720.00
1075.533,2670.00
1076.470,2702.00
1077.407,3077.00
1078.344,2846.00
1079.281,2857.00
1080.217,2381.00
1081.154,2749.00
1082.091,2855.00
1083.027,2556.00
1083.964,3023.00
1084.900,2655.00
1085.836,2719.00
1086.772,3030.00
1087.708,2577.00
1088.644,2958.00
1089.580,2835.00
1090.515,2843.00
1091.451,2689.00
1092.388,2803.00
1093.324,2552.00
1094.259,3367.00
1095.194,2831.00
1096.129,2715.00
1097.064,2619.00
1097.999,2924.00
1098.934,2618.00
1099.869,2622.00
1100.803,2806.00
1101.738,2827.00
1102.672,2472.00
1103.607,2900.00
1104.541,2645.00
1105.475,2624.00
1106.409,2503.00
1107.343,2689.00
1108.277,2544.00
1109.210,2787.00
1110.144,2784.00
1111.078,2726.00
1112.011,2538.00
1112.944,2840.00
1113.878,2830.00
1114.811,2228.00
1115.744,2656.00
1116.678,2405.00
1117.611,2672.00
1118.544,2696.00
1119.477,2841.00
1120.409,2624.00
1121.342,3227.00
1122.274,2860.00
1123.206,3153.00
1124.138,2782.00
1125.070,3104.00
1126.002,2910.00
1126.934,2397.00
1127.866,2650.00
1128.798,2393.00
1129.729,2461.00
1130.661,2744.00
1131.592,2670.00
1132.523,2821.00
1133.454,2843.00
1134.385,2339.00
1135.317,2720.00
1136.247,2640.00
1137.178,2954.00
1138.109,2467.00
1139.039,3123.00
1139.970,2952.00
1140.900,2656.00
1141.831,2400.00
1142.761,2310.00
1143.691,2855.00
1144.621,2752.00
1145.551,2781.00
1146.480,2781.00
1147.410,2961.00
1148.340,2370.00
1149.269,2484.00
1150.199,2643.00
1151.128,3135.00
1152.057,2526.00
1152.979,2681.00
1153.898,2700.00
1154.819,2803.00
1155.739,2751.00
1156.658,2652.00
1157.579,2803.00
1158.498,2740.00
1159.419,2263.00
1160.338,2754.00
1161.256,2792.00
1162.177,2575.00
1163.095,2717.00
1164.016,2811.00
1164.934,2984.00
1165.852,2904.00
1166.772,2715.00
1167.690,2751.00
1168.610,2782.00
1169.528,2733.00
1170.446,2277.00
1171.365,2651.00
1172.283,2618.00
1173.202,2713.00
1174.120,2775.00
1175.037,2575.00
1175.956,2539.00
1176.873,2552.00
1177.792,2623.00
1178.709,3219.00
1179.626,2623.00
1180.544,2959.00
1181.461,2612.00
1182.379,2815.00
1183.296,2710.00
1184.212,2363.00
1185.130,2563.00
1186.046,3076.00
1186.962,2747.00
1187.880,2996.00
1188.796,2755.00
1189.714,2519.00
1190.629,2868.00
1191.545,2782.00
1192.462,2653.00
1193.378,2706.00
1194.295,2410.00
1195.210,2776.00
1196.125,2876.00
1197.042,2830.00
1197.957,2704.00
1198.872,2592.00
1199.788,2637.00
1200.703,3072.00
1201.619,2764.00
1202.534,2629.00
1203.448,2824.00
1204.364,2663.00
1205.278,2377.00
1206.192,2781.00
1207.108,3247.00
1208.022,3125.00
1208.938,2570.00
1209.851,2871.00
1210.765,2966.00
1211.680,2618.00
1212.594,2503.00
1213.507,2665.00
1214.422,3143.00
1215.335,2885.00
1216.248,2636.00
1217.163,2730.00
1218.076,3366.00
1218.990,2839.00
1219.903,2527.00
1220.816,2517.00
1221.730,2668.00
1222.642,2617.00
1223.554,2642.00
1224.469,2803.00
1225.380,2663.00
1226.292,2389.00
1227.206,2855.00
1228.118,3033.00
1229.032,2371.00
1229.943,2607.00
1230.855,2667.00
1231.768,2466.00
1232.679,2803.00
1233.590,2662.00
1234.503,2971.00
1235.414,2615.00
1236.325,2560.00
1237.238,2775.00
1238.149,2857.00
1239.059,2539.00
1239.972,2898.00
1240.882,2520.00
1241.793,2863.00
1242.705,3086.00
1243.615,2690.00
1244.525,2780.00
1245.437,2256.00
1246.347,2755.00
1247.259,2904.00
1248.168,3164.00
1249.078,2941.00
1249.989,2972.00
1250.899,2506.00
1251.808,2573.00
1252.719,2656.00
1253.628,2602.00
1254.537,3092.00
1255.448,2556.00
1256.357,2539.00
1257.266,2744.00
1258.176,2436.00
1259.085,2404.00
1259.993,2524.00
1260.904,2574.00
1261.812,2572.00
1262.720,3301.00
1263.630,2917.00
1264.538,2576.00
1265.446,2828.00
1266.356,2732.00
1267.263,3011.00
1268.171,2507.00
1269.080,2808.00
1269.988,2884.00
1270.895,2616.00
1271.804,2682.00
1272.711,2883.00
1273.619,2893.00
1274.527,2524.00
1275.434,2856.00
1276.341,2524.00
1277.248,2763.00
1278.156,2975.00
1279.063,2580.00
1279.969,2804.00
1280.877,3676.00
1281.783,2915.00
1282.690,2775.00
1283.598,2681.00
1284.503,2576.00
1285.409,2553.00
1286.317,3083.00
1287.223,3091.00
1288.128,2782.00
1289.036,2596.00
1289.941,2647.00
1290.846,2714.00
1291.751,2563.00
1292.658,2620.00
1293.563,3197.00
1294.468,2710.00
1295.375,2872.00
1296.280,2979.00
1297.184,3441.00
1298.091,2815.00
1298.995,2840.00
1299.900,3109.00
1300.806,2611.00
1301.710,2447.00
1302.614,2286.00
1303.518,2972.00
1304.424,2651.00
1305.327,2926.00
1306.231,2738.00
1307.137,2872.00
1308.040,2776.00
1308.943,2778.00
1309.847,2932.00
1310.752,2929.00
1311.655,2405.00
1312.558,2496.00
1313.463,2656.00
1314.366,2597.00
1315.269,2775.00
1316.171,2698.00
1317.076,2608.00
1317.978,2548.00
1318.881,2322.00
1319.785,2574.00
1320.687,2604.00
1321.589,2305.00
1322.491,2512.00
1323.395,2796.00
1324.297,3341.00
1325.198,2885.00
1326.102,2507.00
1327.004,2553.00
1327.905,3160.00
1328.806,2698.00
1329.709,2762.00
1330.611,2667.00
1331.512,2551.00
1332.413,3141.00
1333.316,2797.00
1334.216,2909.00
1335.117,2450.00
1336.020,2782.00
1336.920,2747.00
1337.821,2534.00
1338.721,2987.00
1339.623,2788.00
1340.523,2681.00
1341.423,2582.00
1342.323,3013.00
1343.225,2834.00
1344.125,2572.00
1345.025,2586.00
1345.924,2329.00
1346.826,3102.00
1347.725,3152.00
1348.624,2921.00
1349.524,2612.00
1350.425,2687.00
1351.324,2824.00
1352.223,2949.00
1353.121,2707.00
1354.022,2896.00
1354.921,3147.00
1355.819,2845.00
1356.718,2782.00
1357.618,2466.00
1358.516,2848.00
1359.415,3142.00
1360.313,2799.00
1361.213,2672.00
1362.111,3005.00
1363.008,3401.00
1363.906,2681.00
1364.806,2743.00
1365.703,2800.00
1366.601,2554.00
1367.498,2598.00
1368.397,2886.00
1369.295,2807.00
1370.192,2545.00
1371.089,2812.00
1371.987,2688.00
1372.884,3005.00
1373.781,2511.00
1374.678,2706.00
1375.574,2533.00
1376.473,2840.00
1377.369,2946.00
1378.265,2551.00
1379.161,2681.00
1380.059,2431.00
1380.955,2868.00
1381.851,2500.00
1382.747,2623.00
1383.643,2663.00
1384.540,2498.00
1385.436,2581.00
1386.331,2789.00
1387.227,2890.00
1388.124,2850.00
1389.019,2508.00
1389.914,2687.00
1390.809,2375.00
1391.704,3208.00
1392.601,2641.00
1393.495,3040.00
1394.390,2863.00
1395.285,2975.00
1396.179,2828.00
1397.075,2682.00
1397.969,2797.00
1398.864,2403.00
1399.758,2699.00
1400.652,2749.00
1401.547,2561.00
1402.441,2527.00
1403.335,3078.00
1404.229,2894.00
1405.122,2795.00
1406.017,2686.00
1406.911,2871.00
1407.804,3117.00
1408.697,2720.00
1409.590,2534.00
1410.485,2896.00
1411.378,2791.00
1412.271,2430.00
1413.163,2756.00
1414.056,2904.00
1414.949,3136.00
1415.843,2739.00
1416.735,2680.00
1417.627,2728.00
1418.520,2700.00
1419.412,2949.00
1420.306,2918.00
1421.197,3000.00
1422.089,2961.00
1422.981,3228.00
1423.873,2922.00
1424.764,2841.00
1425.657,2781.00
1426.549,2887.00
1427.440,2905.00
1428.331,2608.00
1429.222,2443.00
1430.113,2803.00
1431.006,2931.00
1431.897,2674.00
1432.787,2748.00
1433.678,2663.00
1434.568,2547.00
1435.459,2967.00
1436.351,2916.00
1437.241,2924.00
1438.131,2863.00
1439.021,2499.00
1439.911,2707.00
1440.801,2780.00
1441.693,2965.00
1442.583,2758.00
1443.472,2759.00
1444.362,2839.00
1445.251,2661.00
1446.140,2646.00
1447.030,2965.00
1447.921,2935.00
1448.810,2534.00
1449.699,3107.00
1450.588,2796.00
1451.476,2670.00
1452.365,2827.00
1453.254,2652.00
1454.144,2591.00
1455.032,2876.00
1455.921,2468.00
1456.809,3055.00
1457.697,2532.00
1458.585,2679.00
1459.473,2684.00
1460.361,2584.00
1461.251,2819.00
1462.138,2868.00
1463.026,2711.00
1463.913,2961.00
1464.801,2617.00
1465.688,2815.00
1466.575,2769.00
1467.463,3191.00
1468.351,2606.00
1469.238,2731.00
1470.125,2347.00
1471.012,2815.00
1471.899,2803.00
1472.785,2568.00
1473.672,2726.00
1474.558,2987.00
1475.446,2843.00
1476.333,2922.00
1477.219,2560.00
1478.105,2744.00
1478.991,2718.00
1479.877,3075.00
1480.762,2764.00
1481.648,2617.00
1482.534,2864.00
1483.419,2796.00
1484.307,2882.00
1485.192,2700.00
1486.077,2594.00
1486.962,2628.00
1487.847,2488.00
1488.732,2584.00
1489.617,2792.00
1490.502,3037.00
1491.387,2860.00
1492.271,2592.00
1493.156,2609.00
1494.042,2544.00
1494.927,2959.00
1495.811,2664.00
1496.695,2904.00
1497.579,3067.00
1498.463,2741.00
1499.347,2779.00
1500.231,2780.00
1501.114,2812.00
1501.998,3035.00
1502.881,2755.00
1503.765,3050.00
1504.648,3184.00
1505.533,2860.00
1506.417,2795.00
1507.300,2699.00
1508.183,2829.00
1509.066,2224.00
1509.948,2992.00
1510.831,3134.00
1511.714,2531.00
1512.596,2882.00
1513.479,3017.00
1514.361,2984.00
1515.243,2780.00
1516.125,2922.00
1517.008,3044.00
1517.890,2723.00
1518.771,2785.00
1519.655,2968.00
1520.537,2677.00
1521.419,2593.00
1522.300,2771.00
1523.182,2874.00
1524.063,2937.00
1524.944,3067.00
1525.825,2939.00
1526.707,2542.00
1527.588,2544.00
1528.468,2863.00
1529.349,2426.00
1530.230,2650.00
1531.111,2940.00
1531.991,2809.00
1532.872,2451.00
1533.752,2740.00
1534.632,2620.00
1535.513,2621.00
1536.393,2951.00
1537.273,3075.00
1538.153,3444.00
1539.032,2480.00
1539.912,2695.00
1540.792,2782.00
1541.672,2795.00
1542.551,2889.00
1543.430,3376.00
1544.310,2799.00
1545.189,2660.00
1546.068,3214.00
1546.947,2883.00
1547.826,3096.00
1548.705,2755.00
1549.584,3012.00
1550.462,2740.00
1551.341,2942.00
1552.219,2837.00
1553.098,2935.00
1553.976,2980.00
1554.854,3189.00
1555.733,2984.00
1556.611,2655.00
1557.489,2559.00
1558.367,2764.00
1559.244,2923.00
1560.122,2756.00
1561.000,2855.00
1561.877,3067.00
1562.755,2633.00
1563.632,2699.00
1564.509,2997.00
1565.386,3142.00
1566.264,2507.00
1567.141,2358.00
1568.017,2939.00
1568.894,2727.00
1569.771,2817.00
1570.648,2907.00
1571.524,2808.00
1572.401,2534.00
1573.277,2542.00
1574.153,2834.00
1575.029,2634.00
1575.906,3505.00
1576.781,2984.00
1577.657,2725.00
1578.533,3025.00
1579.409,2384.00
1580.285,2710.00
1581.160,3185.00
1582.036,2975.00
1582.911,2550.00
1583.786,3165.00
1584.662,2529.00
1585.537,2746.00
1586.412,2831.00
1587.287,2596.00
1588.160,2958.00
1589.035,2382.00
1589.909,2776.00
1590.784,2742.00
1591.658,2528.00
1592.533,2828.00
1593.407,2765.00
1594.281,2657.00
1595.155,3177.00
1596.029,2700.00
1596.903,2736.00
1597.777,2671.00
1598.651,3023.00
1599.525,2450.00
1600.398,2749.00
1601.272,2744.00
1602.144,3315.00
1603.017,2743.00
1603.890,3008.00
1604.763,2866.00
1605.636,2885.00
1606.509,2494.00
1607.382,2599.00
1608.255,2869.00
1609.128,2985.00
1610.000,2758.00
1610.873,2468.00
1611.746,2662.00
1612.616,2707.00
1613.488,2327.00
1614.361,2789.00
1615.233,2689.00
1616.105,3009.00
1616.977,2679.00
1617.849,2618.00
1618.720,3082.00
1619.592,3075.00
1620.464,2838.00
1621.333,3259.00
1622.205,2781.00
1623.076,2753.00
1623.947,2751.00
1624.818,3037.00
1625.689,2874.00
1626.560,2678.00
1627.431,2815.00
1628.302,3195.00
1629.171,2926.00
1630.042,3113.00
1630.912,3457.00
1631.782,3391.00
1632.653,2618.00
1633.523,2940.00
1634.393,3047.00
1635.263,2642.00
1636.131,2782.00
1637.001,2705.00
1637.871,2380.00
1638.741,2426.00
1639.611,2504.00
1640.480,2929.00
1641.350,2622.00
1642.219,2577.00
1643.087,2269.00
1643.956,3236.00
1644.825,3039.00
1645.694,3033.00
1646.563,2962.00
1647.432,2842.00
1648.299,2808.00
1649.167,2914.00
1650.036,2610.00
1650.904,2913.00
1651.773,3000.00
1652.641,2824.00
1653.509,2969.00
1654.376,2641.00
1655.244,2819.00
1656.112,2841.00
1656.980,2800.00
1657.847,2634.00
1658.715,3023.00
1659.581,2707.00
1660.448,3051.00
1661.316,2260.00
1662.183,2813.00
1663.051,2822.00
1663.918,2790.00
1664.783,2779.00
1665.650,2893.00
1666.517,2990.00
1667.384,2785.00
1668.251,2872.00
1669.115,3011.00
1669.982,2770.00
1670.849,3077.00
1671.715,2778.00
1672.581,2928.00
1673.446,2918.00
1674.312,2837.00
1675.178,3222.00
1676.044,2848.00
1676.910,2865.00
1677.774,2832.00
1678.639,2451.00
1679.505,2772.00
1680.370,2960.00
1681.236,3471.00
1682.099,2740.00
1682.965,2827.00
1683.830,2393.00
1684.695,2605.00
1685.560,2710.00
1686.423,2933.00
1687.288,2919.00
1688.153,2859.00
1689.017,2731.00
1689.880,2888.00
1690.745,2919.00
1691.609,2614.00
1692.473,2918.00
1693.338,3022.00
1694.200,3073.00
1695.064,2795.00
1695.928,2692.00
1696.792,2812.00
1697.654,3296.00
1698.517,2798.00
1699.381,2523.00
1700.245,2464.00
1701.106,3117.00
1701.969,2688.00
1702.833,2960.00
1703.696,2730.00
1704.557,2760.00
1705.420,2634.00
1706.283,2796.00
1707.146,2901.00
1708.007,2580.00
1708.870,2576.00
1709.732,2457.00
1710.595,2732.00
1711.455,2575.00
1712.318,2725.00
1713.180,3105.00
1714.040,2858.00
1714.902,2996.00
1715.764,2831.00
1716.626,2574.00
1717.486,2739.00
1718.348,3048.00
1719.209,5013.00
1720.071,2422.00
1720.930,2540.00
1721.792,2646.00
1722.653,2652.00
1723.512,2699.00
1724.374,2757.00
1725.234,2865.00
1726.095,2840.00
1726.954,2792.00
1727.815,2950.00
1728.676,2782.00
1729.535,3007.00
1730.395,2749.00
1731.256,2696.00
1732.114,2864.00
1732.974,2245.00
1733.834,3186.00
1734.693,2950.00
1735.553,2808.00
1736.413,3217.00
1737.272,2698.00
1738.130,2741.00
1738.990,2873.00
1739.849,2701.00
1740.707,3855.00
1741.566,2812.00
1742.426,2846.00
1743.283,3214.00
1744.142,2679.00
1745.001,2466.00
1745.858,2988.00
1746.717,2881.00
1747.576,2925.00
1748.433,2999.00
1749.292,3436.00
1750.150,3436.00
1751.007,3011.00
1751.865,2990.00
1752.723,2855.00
1753.579,2704.00
1754.438,3048.00
1755.296,3002.00
1756.152,2369.00
1757.010,2455.00
1757.865,2976.00
1758.723,2464.00
1759.581,3113.00
1760.436,2830.00
1761.294,3138.00
1762.151,2817.00
1763.006,2705.00
1763.864,2447.00
1764.721,3024.00
1765.576,2805.00
1766.433,2982.00
1767.288,2719.00
1768.144,2895.00
1769.001,2752.00
1769.856,2895.00
1770.712,3020.00
1771.568,2547.00
1772.423,2707.00
1773.279,2689.00
1774.133,2683.00
1774.989,3232.00
1775.845,3210.00
1776.699,3038.00
1777.555,2782.00
1778.409,3374.00
1779.265,2765.00
1780.120,2753.00
1780.974,2788.00
1781.829,2412.00
1782.682,2896.00
1783.538,2670.00
1784.393,2854.00
1785.246,2712.00
1786.101,2865.00
1786.954,2972.00
1787.808,3001.00
1788.661,2533.00
1789.516,2732.00
1790.370,2750.00
1791.223,3025.00
1792.077,2783.00
1792.930,2946.00
1793.784,2645.00
1794.636,2825.00
1795.490,2782.00
1796.344,2822.00
1797.196,2800.00
1798.049,2975.00
1798.901,2691.00
1799.755,3065.00
1800.606,2617.00
1801.460,3321.00
1802.311,3118.00
1803.165,3250.00
1804.018,3162.00
1804.869,2867.00
1805.722,3275.00
1806.573,2841.00
1807.426,2633.00
1808.276,2768.00
1809.129,2707.00
1809.980,3031.00
1810.832,3095.00
1811.683,2730.00
1812.535,3145.00
1813.385,2739.00
1814.237,3103.00
1815.089,2859.00
1815.940,3105.00
1816.791,2766.00
1817.641,2642.00
1818.493,2994.00
1819.343,2906.00
1820.194,2726.00
1821.044,2868.00
1821.895,3064.00
1822.745,2512.00
1823.596,2729.00
1824.445,3225.00
1825.296,2929.00
1826.145,2777.00
1826.996,3021.00
1827.845,2863.00
1828.695,2891.00
1829.544,2838.00
1830.395,2859.00
1831.243,2715.00
1832.094,2546.00
1832.942,3422.00
1833.792,2945.00
1834.640,2854.00
1835.490,2870.00
1836.338,2905.00
1837.186,2728.00
1838.036,2663.00
1838.884,2824.00
1839.733,3193.00
1840.581,3018.00
1841.430,2945.00
1842.278,3214.00
1843.127,2721.00
1843.974,2506.00
1844.823,3232.00
1845.671,2979.00
1846.519,2860.00
1847.366,2902.00
1848.213,2481.00
1849.062,2616.00
1849.909,2566.00
1850.757,3528.00
1851.604,2988.00
1852.452,2754.00
1853.298,3025.00
1854.146,2921.00
1854.993,2872.00
1855.839,3376.00
1856.687,2968.00
1857.532,2958.00
1858.380,2807.00
1859.226,2872.00
1860.073,2937.00
1860.919,2657.00
1861.765,2737.00
1862.612,3051.00
1863.457,3012.00
1864.304,2775.00
1865.150,2954.00
1865.995,2787.00
1866.842,2943.00
1867.686,3065.00
1868.533,2922.00
1869.378,2877.00
1870.223,2850.00
1871.069,2711.00
1871.914,2842.00
1872.760,2825.00
1873.604,2622.00
1874.448,2956.00
1875.294,3063.00
1876.139,2673.00
1876.984,2959.00
1877.828,2484.00
1878.672,2348.00
1879.518,2711.00
1880.361,2991.00
1881.205,2994.00
1882.050,2613.00
1882.894,3361.00
1883.739,2690.00
1884.582,2614.00
1885.425,2649.00
1886.270,3095.00
1887.113,2554.00
1887.956,2953.00
1888.801,2901.00
1889.644,2615.00
1890.486,2423.00
1891.331,2732.00
1892.173,2887.00
1893.017,2902.00
1893.860,3114.00
1894.702,3094.00
1895.546,2861.00
1896.388,3586.00
1897.230,3200.00
1898.074,2705.00
1898.916,2593.00
1899.757,2671.00
1900.601,3541.00
1901.443,3141.00
1902.284,3158.00
1903.125,3331.00
1903.969,3019.00
1904.810,3107.00
1905.651,2930.00
1906.494,3197.00
1907.335,3307.00
1908.176,2963.00
1909.018,2947.00
1909.859,2797.00
1910.700,2683.00
1911.542,3395.00
1912.383,2930.00
1913.223,2455.00
1914.064,2986.00
1914.906,3115.00
1915.746,3186.00
1916.586,3276.00
1917.428,2826.00
1918.268,2885.00
1919.107,2754.00
1919.947,2548.00
1920.789,2801.00
1921.628,3100.00
1922.468,2862.00
1923.309,2660.00
1924.148,3204.00
1924.988,2906.00
1925.827,2852.00
1926.667,2737.00
1927.507,2888.00
1928.345,2692.00
1929.184,3045.00
1930.025,2672.00
1930.864,3110.00
1931.702,3165.00
1932.541,2752.00
1933.381,2971.00
1934.219,2965.00
1935.057,3153.00
1935.896,2523.00
1936.735,2808.00
1937.573,2750.00
1938.411,2638.00
1939.249,3002.00
1940.089,2715.00
1940.927,3101.00
1941.764,3164.00
1942.602,2768.00
1943.439,2752.00
1944.278,2815.00
1945.115,2811.00
1945.953,2569.00
1946.790,2908.00
1947.628,3217.00
1948.465,2970.00
1949.302,3035.00
1950.139,3019.00
1950.976,2729.00
1951.814,3046.00
1952.651,2937.00
1953.487,2642.00
1954.323,3090.00
1955.160,2843.00
1955.998,3244.00
1956.834,2814.00
1957.670,2928.00
1958.506,3109.00
1959.342,2947.00
1960.177,2917.00
1961.015,2977.00
1961.850,2877.00
1962.686,2938.00
1963.521,2910.00
1964.357,3130.00
1965.192,2626.00
1966.029,3018.00
1966.864,2764.00
1967.699,3117.00
1968.534,2900.00
1969.369,3169.00
1970.204,2797.00
1971.040,2884.00
1971.875,2831.00
1972.709,2876.00
1973.544,2702.00
1974.378,2730.00
1975.212,2953.00
1976.047,2762.00
1976.882,2713.00
1977.716,3272.00
1978.550,2541.00
1979.384,2791.00
1980.218,2852.00
1981.052,2815.00
1981.885,2869.00
1982.719,2890.00
1983.554,3034.00
1984.388,3196.00
1985.221,2935.00
1986.054,3147.00
1986.887,2913.00
1987.720,2692.00
1988.553,3165.00
1989.386,2946.00
1990.219,3022.00
1991.053,3155.00
1991.886,2729.00
1992.719,3082.00
1993.551,2356.00
1994.383,3000.00
1995.216,2791.00
1996.048,2558.00
1996.880,3089.00
1997.712,2701.00
1998.544,2881.00
1999.376,2971.00
2000.208,3173.00
2001.040,3362.00
2001.873,2679.00
2002.705,2667.00
2003.536,2931.00
2004.367,2906.00
2005.199,2892.00
2006.030,2775.00
2006.861,2654.00
2007.692,2898.00
2008.523,2716.00
2009.354,2928.00
2010.185,2683.00
2011.016,3033.00
2011.846,3120.00
2012.677,2841.00
2013.507,3224.00
2014.338,3107.00
2015.168,2806.00
2015.999,3436.00
2016.829,2782.00
2017.659,3080.00
2018.489,3418.00
2019.319,2652.00
2020.149,3064.00
2020.980,2896.00
2021.810,2685.00
2022.639,2728.00
2023.469,2752.00
2024.298,2573.00
2025.128,2505.00
2025.957,2495.00
2026.786,2293.00
2027.615,2492.00
2028.444,2710.00
2029.273,2942.00
2030.102,2479.00
2030.931,2698.00
2031.758,3004.00
2032.586,2692.00
2033.415,2704.00
2034.243,2311.00
2035.072,2096.00
2035.900,2597.00
2036.728,2456.00
2037.556,2477.00
2038.385,2514.00
2039.213,2261.00
2040.040,2278.00
2040.868,2245.00
2041.696,2298.00
2042.524,2320.00
2043.351,2510.00
2044.179,2313.00
2045.006,2102.00
