RamanScope Measure Spectrum Data V3.72

<< MEASURE CONDITION >>
Exposure Type,Aver
Exposure Time [sec],15
Exposure Count,30
Measure Time,2023/07/03 20:19:54
Data Name,""
Data Comment,""
Rayleigh Wave[nm],532.0

<< SAMPLE SPECTRUM >>
Wave[dcm-1],No204
146.591,967.50
147.626,1168.90
148.664,1331.00
149.699,1526.83
150.737,1699.43
151.772,1898.17
152.809,2062.73
153.846,2227.80
154.881,2366.07
155.918,2496.60
156.953,2634.50
157.989,2678.90
159.026,2774.73
160.060,2861.03
161.096,2966.07
162.130,3006.07
163.167,3063.33
164.200,3101.40
165.236,3123.60
166.272,3202.80
167.305,3249.00
168.341,3278.60
169.374,3335.00
170.409,3349.40
171.445,3429.43
172.477,3466.23
173.512,3524.63
174.545,3558.37
175.580,3568.13
176.614,3574.33
177.647,3570.40
178.681,3620.13
179.713,3620.00
180.747,3556.60
181.781,3568.00
182.813,3569.23
183.847,3610.70
184.878,3583.47
185.912,3608.67
186.945,3637.17
187.976,3674.87
189.010,3659.93
190.043,3667.97
191.073,3684.87
192.106,3763.33
193.137,3797.10
194.170,3845.93
195.202,3867.07
196.232,3866.77
197.265,3945.90
198.297,4004.70
199.327,4067.53
200.359,4048.87
201.388,4167.83
202.420,4197.33
203.452,4297.20
204.481,4333.97
205.512,4425.00
206.544,4549.07
207.573,4616.03
208.604,4779.37
209.635,4907.77
210.663,5031.17
211.694,5188.17
212.725,5316.13
213.753,5523.23
214.783,5576.17
215.813,5716.43
216.841,5841.43
217.871,5858.63
218.899,5896.93
219.929,5887.70
220.959,5868.17
221.986,5743.70
223.016,5648.13
224.045,5542.67
225.072,5435.90
226.101,5297.07
227.130,5157.77
228.157,5080.83
229.185,4965.13
230.214,4915.80
231.241,4836.03
232.269,4770.87
233.297,4682.10
234.323,4711.53
235.351,4609.30
236.379,4596.73
237.407,4574.37
238.433,4576.17
239.460,4589.43
240.488,4625.80
241.513,4693.47
242.540,4706.07
243.568,4707.77
244.592,4796.33
245.619,4862.30
246.646,4892.20
247.671,4823.10
248.697,4836.77
249.724,4795.93
250.748,4775.53
251.774,4722.70
252.801,4733.30
253.827,4712.17
254.850,4755.97
255.876,4742.70
256.902,4690.60
257.925,4759.57
258.951,4772.20
259.976,4813.07
260.999,4846.60
262.024,4913.20
263.049,4866.10
264.074,4926.03
265.097,5042.90
266.122,5030.70
267.146,5048.77
268.168,5145.23
269.193,5194.27
270.217,5271.30
271.241,5278.33
272.263,5358.07
273.287,5352.73
274.311,5427.90
275.332,5493.60
276.356,5505.47
277.379,5497.00
278.402,5515.63
279.424,5519.10
280.447,5455.50
281.470,5403.60
282.492,5365.30
283.513,5252.73
284.536,5240.67
285.558,5126.23
286.581,5093.53
287.601,4973.00
288.623,4928.80
289.645,4841.97
290.665,4785.90
291.687,4745.70
292.709,4629.73
293.730,4557.73
294.750,4534.70
295.771,4500.37
296.792,4444.87
297.813,4403.50
298.832,4322.50
299.853,4278.10
300.874,4218.77
301.895,4175.70
302.913,4089.03
303.934,4010.53
304.954,3982.93
305.975,3565.07
306.993,3958.53
308.013,3910.63
309.033,3807.20
310.052,3799.67
311.072,3797.80
312.090,3784.73
313.109,3771.13
314.129,3667.20
315.148,3718.43
316.165,3687.63
317.184,3657.63
318.203,3643.90
319.222,3593.10
320.238,3570.60
321.257,3601.00
322.275,3582.23
323.294,3574.63
324.312,3514.37
325.328,3496.27
326.346,3530.47
327.364,3531.47
328.382,3452.43
329.397,3454.53
330.415,3463.00
331.432,3469.17
332.450,3428.60
333.467,3453.10
334.482,3389.17
335.499,3407.20
336.516,3412.83
337.533,3413.63
338.547,3423.07
339.564,3384.57
340.580,3394.93
341.597,3386.50
342.613,3404.93
343.627,3364.77
344.643,3309.67
345.659,3364.20
346.675,3359.63
347.690,3364.97
348.704,3382.37
349.719,3330.13
350.735,3292.50
351.750,3292.63
352.765,3327.67
353.778,3322.27
354.793,3314.90
355.808,3271.27
356.822,3285.97
357.837,3335.77
358.851,3333.10
359.864,3311.33
360.878,3350.57
361.892,3321.93
362.906,3297.97
363.920,3320.30
364.932,3349.83
365.945,3344.70
366.959,3356.80
367.972,3409.43
368.986,3410.07
369.999,3358.87
371.010,3381.37
372.023,3377.30
373.036,3362.03
374.049,3420.20
375.061,3440.43
376.072,3418.00
377.084,3449.03
378.097,3465.83
379.109,3489.00
380.121,3493.00
381.133,3466.10
382.143,3514.23
383.155,3550.10
384.166,3509.87
385.178,3504.43
386.189,3531.40
387.201,3566.53
388.212,3558.00
389.221,3549.10
390.232,3519.43
391.243,3497.77
392.254,3498.57
393.264,3493.20
394.275,3470.97
395.283,3479.50
396.294,3431.63
397.304,3375.27
398.314,3405.73
399.324,3388.63
400.334,3417.30
401.344,3368.47
402.351,3348.93
403.361,3353.80
404.370,3308.53
405.380,3283.33
406.389,3265.17
407.398,3282.03
408.407,3261.17
409.414,3240.57
410.423,3216.40
411.431,3232.23
412.440,3176.90
413.448,3232.27
414.457,3206.07
415.465,3214.73
416.471,3181.30
417.479,3165.83
418.487,3171.00
419.495,3127.87
420.503,3112.00
421.510,3129.37
422.518,3095.33
423.525,3132.13
424.530,3105.87
425.537,3098.57
426.544,3059.67
427.551,3108.47
428.558,3096.83
429.565,3085.80
430.571,3118.33
431.578,3098.00
432.582,3072.83
433.588,3073.30
434.595,3074.23
435.601,3065.50
436.607,3065.00
437.612,3054.73
438.618,3045.17
439.624,3051.27
440.627,3070.53
441.633,3075.47
442.638,3048.17
443.643,3121.60
444.648,3087.07
445.653,3121.10
446.658,3068.37
447.663,3059.07
448.667,3085.77
449.672,3104.57
450.674,3110.03
451.678,3116.37
452.682,3106.70
453.687,3087.67
454.690,3120.70
455.694,3131.23
456.698,3097.13
457.702,3103.67
458.705,3102.80
459.709,3106.03
460.710,3153.10
461.713,3107.47
462.716,3142.63
463.719,3095.73
464.722,3161.60
465.725,3145.50
466.727,3119.73
467.730,3116.97
468.732,3159.50
469.735,3199.80
470.737,3182.33
471.737,3204.60
472.739,3138.33
473.741,3143.63
474.742,3155.30
475.744,3215.23
476.746,3202.93
477.747,3162.73
478.748,3198.50
479.750,3136.97
480.751,3209.57
481.752,3168.43
482.753,3188.70
483.751,3158.23
484.752,3176.80
485.753,3195.33
486.753,3185.57
487.753,3194.37
488.754,3199.53
489.754,3176.03
490.754,3193.27
491.754,3219.60
492.754,3214.20
493.753,3206.17
494.753,3193.33
495.752,3174.67
496.752,3188.63
497.749,3202.53
498.748,3224.23
499.747,3194.93
500.746,3193.37
501.745,3155.03
502.744,3176.60
503.742,3150.87
504.741,3133.73
505.739,3146.57
506.737,3142.63
507.735,3112.90
508.734,3084.40
509.732,3151.03
510.729,3125.57
511.727,3117.83
512.725,3078.67
513.720,3129.37
514.718,3083.33
515.715,3090.73
516.712,3078.77
517.709,3077.27
518.706,3069.77
519.703,3057.50
520.700,3082.07
521.696,3038.73
522.693,3112.17
523.689,3082.90
524.686,3093.60
525.682,3137.40
526.678,3096.73
527.674,3087.07
528.670,3127.20
529.666,3080.87
530.661,3144.30
531.657,3131.97
532.652,3169.10
533.648,3145.03
534.641,3201.13
535.636,3149.13
536.631,3160.53
537.626,3186.20
538.621,3190.30
539.616,3183.00
540.610,3196.27
541.605,3190.00
542.599,3161.47
543.593,3225.83
544.587,3235.03
545.581,3190.00
546.575,3212.77
547.569,3215.80
548.563,3213.97
549.557,3215.57
550.550,3219.87
551.543,3221.17
552.537,3209.77
553.530,3194.87
554.523,3175.97
555.516,3172.87
556.509,3188.70
557.502,3195.00
558.494,3170.63
559.487,3195.63
560.479,3235.00
561.472,3203.50
562.464,3161.10
563.456,3176.83
564.448,3185.97
565.440,3263.10
566.432,3212.97
567.423,3253.57
568.415,3248.47
569.404,3260.93
570.396,3303.50
571.387,3267.23
572.378,3236.00
573.369,3219.27
574.360,3309.67
575.351,3299.73
576.341,3305.10
577.332,3336.83
578.323,3280.20
579.313,3303.33
580.303,3342.70
581.293,3315.57
582.283,3356.60
583.273,3356.60
584.263,3321.87
585.253,3388.33
586.243,3345.70
587.232,3372.90
588.222,3354.17
589.211,3395.40
590.200,3336.13
591.189,3430.80
592.178,3370.70
593.167,3399.40
594.156,3390.07
595.145,3371.13
596.133,3402.50
597.122,3421.27
598.110,3388.13
599.098,3385.30
600.086,3389.93
601.074,3460.30
602.062,3409.87
603.050,3411.00
604.038,3372.77
605.025,3404.97
606.013,3420.70
607.000,3427.37
607.987,3412.77
608.975,3428.23
609.962,3409.63
610.949,3350.20
611.936,3416.47
612.922,3346.40
613.909,3354.60
614.895,3309.20
615.882,3329.27
616.868,3361.97
617.854,3289.80
618.841,3274.53
619.826,3215.83
620.812,3242.03
621.798,3258.13
622.784,3173.23
623.769,3185.73
624.755,3135.80
625.740,3143.40
626.725,3118.07
627.711,3121.13
628.698,3047.03
629.683,3044.97
630.667,3005.23
631.652,3023.93
632.637,3010.27
633.621,3003.33
634.606,2982.77
635.590,2965.47
636.574,2942.67
637.558,2925.30
638.542,2905.20
639.526,2846.67
640.510,2834.50
641.493,2866.63
642.477,2825.20
643.460,2810.03
644.444,2852.73
645.427,2817.30
646.410,2767.43
647.393,2786.23
648.376,2760.57
649.359,2760.90
650.341,2729.97
651.324,2743.70
652.307,2700.83
653.289,2705.73
654.271,2719.47
655.253,2665.80
656.235,2657.07
657.217,2732.93
658.199,2645.73
659.181,2685.70
660.163,2610.80
661.144,2619.87
662.126,2619.67
663.107,2534.67
664.088,2633.47
665.069,2576.43
666.050,2563.70
667.033,2560.93
668.014,2553.33
668.995,2584.17
669.975,2576.30
670.956,2541.70
671.936,2486.07
672.916,2515.67
673.896,2489.47
674.876,2492.30
675.856,2501.03
676.836,2454.83
677.816,2422.57
678.795,2430.03
679.775,2432.30
680.754,2387.77
681.734,2361.37
682.713,2337.57
683.692,2309.13
684.671,2335.10
685.650,2306.70
686.629,2265.07
687.607,2269.63
688.586,2241.50
689.564,2236.83
690.543,2259.73
691.523,2226.17
692.501,2213.70
693.479,2177.90
694.457,2174.80
695.435,2164.40
696.413,2152.23
697.390,2147.60
698.368,2112.87
699.345,2118.60
700.322,2142.43
701.300,2097.17
702.277,2134.50
703.254,2076.33
704.231,2083.33
705.207,2075.60
706.184,2115.57
707.161,2060.70
708.137,2046.13
709.113,2066.60
710.090,2092.00
711.068,2045.20
712.044,2008.83
713.020,2017.17
713.996,2057.97
714.971,2031.63
715.947,1980.00
716.922,2004.00
717.898,1953.47
718.873,1939.07
719.848,1998.27
720.823,1990.30
721.798,1935.53
722.773,1976.93
723.748,1927.37
724.723,1934.30
725.697,1858.23
726.672,1941.00
727.646,1883.90
728.622,1957.50
729.596,1907.80
730.570,1922.40
731.544,1903.87
732.518,1924.27
733.492,1871.67
734.466,1875.13
735.439,1918.00
736.413,1883.43
737.386,1924.57
738.359,1886.43
739.332,1859.67
740.305,1807.03
741.278,1857.03
742.251,1857.13
743.224,1869.83
744.196,1815.90
745.171,1846.97
746.143,1832.10
747.115,1841.30
748.087,1813.93
749.059,1850.67
750.031,1807.07
751.003,1787.93
751.975,1780.37
752.947,1819.70
753.918,1783.93
754.890,1759.97
755.861,1757.17
756.832,1777.40
757.803,1775.03
758.774,1720.83
759.747,1766.80
760.718,1751.53
761.689,1732.73
762.659,1756.17
763.630,1749.80
764.600,1740.57
765.570,1687.33
766.540,1723.00
767.510,1753.07
768.480,1672.77
769.450,1721.03
770.420,1643.03
771.390,1689.40
772.359,1682.37
773.329,1696.43
774.300,1688.93
775.269,1692.63
776.238,1652.53
777.207,1662.17
778.176,1681.23
779.145,1639.77
780.114,1631.53
781.083,1643.57
782.051,1626.53
783.019,1632.30
783.988,1631.30
784.956,1634.80
785.924,1623.17
786.894,1623.13
787.862,1620.47
788.830,1611.93
789.797,1619.27
790.765,1580.20
791.732,1545.67
792.700,1600.30
793.667,1570.23
794.634,1571.37
795.601,1563.37
796.568,1554.47
797.535,1571.67
798.502,1547.83
799.468,1542.63
800.437,1595.33
801.403,1540.87
802.370,1553.73
803.336,1496.17
804.302,1555.53
805.268,1542.30
806.234,1534.37
807.200,1523.63
808.166,1535.20
809.131,1497.57
810.097,1540.93
811.062,1523.93
812.027,1498.03
812.994,1506.87
813.960,1479.87
814.925,1528.50
815.889,1472.13
816.854,1519.70
817.819,1500.87
818.783,1477.70
819.748,1469.47
820.712,1483.73
821.677,1470.77
822.641,1447.77
823.605,1450.23
824.571,1472.50
825.534,1492.70
826.498,1493.57
827.462,1471.20
828.425,1432.17
829.389,1459.33
830.352,1485.63
831.315,1485.33
832.279,1473.07
833.242,1473.87
834.204,1458.40
835.167,1470.93
836.132,1441.83
837.095,1449.27
838.057,1416.00
839.020,1433.47
839.982,1432.80
840.944,1389.43
841.906,1476.80
842.868,1459.90
843.830,1425.83
844.792,1433.47
845.753,1447.40
846.715,1446.93
847.679,1460.10
848.640,1430.10
849.601,1462.50
850.562,1433.07
851.523,1433.97
852.484,1431.93
853.445,1426.20
854.406,1401.53
855.367,1408.33
856.327,1400.00
857.288,1424.33
858.248,1394.07
859.210,1401.00
860.170,1392.17
861.130,1415.00
862.090,1399.93
863.050,1420.03
864.010,1414.00
864.969,1381.30
865.929,1408.70
866.888,1384.43
867.848,1387.93
868.807,1394.10
869.766,1374.63
870.727,1365.87
871.686,1350.80
872.645,1403.80
873.604,1406.50
874.562,1359.87
875.521,1388.17
876.479,1357.03
877.437,1372.33
878.396,1373.30
879.354,1377.10
880.312,1384.07
881.270,1362.10
882.229,1361.03
883.187,1355.80
884.145,1418.67
885.102,1355.77
886.059,1422.40
887.017,1344.37
887.974,1351.90
888.931,1335.10
889.888,1364.53
890.845,1383.73
891.802,1342.43
892.758,1332.83
893.717,1363.17
894.673,1380.77
895.630,1355.77
896.586,1333.83
897.542,1369.47
898.498,1368.03
899.454,1357.20
900.410,1405.57
901.366,1345.70
902.321,1358.37
903.277,1383.87
904.232,1379.03
905.189,1364.47
906.145,1390.10
907.100,1380.83
908.055,1334.53
909.010,1342.20
909.965,1411.70
910.919,1353.37
911.874,1365.30
912.828,1349.27
913.783,1361.03
914.737,1345.70
915.693,1362.90
916.648,1322.00
917.602,1374.20
918.555,1375.67
919.509,1341.83
920.463,1409.43
921.417,1402.13
922.370,1384.40
923.324,1366.97
924.277,1390.30
925.230,1420.63
926.183,1392.93
927.138,1386.97
928.091,1364.93
929.044,1372.67
929.996,1407.73
930.949,1362.97
931.902,1395.07
932.854,1406.40
933.806,1384.33
934.758,1415.03
935.711,1392.30
936.663,1384.33
937.614,1405.53
938.568,1402.80
939.520,1378.30
940.471,1348.13
941.423,1400.53
942.374,1369.90
943.326,1402.37
944.277,1421.03
945.228,1376.23
946.179,1382.30
947.130,1410.00
948.080,1379.53
949.031,1385.13
949.984,1366.60
950.934,1386.37
951.884,1406.73
952.835,1404.00
953.785,1368.30
954.735,1395.70
955.685,1370.33
956.635,1390.77
957.585,1410.03
958.534,1409.30
959.484,1405.20
960.433,1332.50
961.383,1382.63
962.334,1365.93
963.283,1363.40
964.232,1358.97
965.181,1372.07
966.130,1374.57
967.079,1375.27
968.027,1370.90
968.976,1326.00
969.924,1406.90
970.873,1366.77
971.821,1383.73
972.769,1372.10
973.719,1393.57
974.667,1395.90
975.615,1405.90
976.562,1377.50
977.510,1370.80
978.458,1366.33
979.405,1333.57
980.352,1410.77
981.300,1370.50
982.247,1360.00
983.194,1364.37
984.141,1404.80
985.088,1405.30
986.036,1343.50
986.983,1356.87
987.930,1402.73
988.876,1402.90
989.822,1383.77
990.769,1362.07
991.715,1373.27
992.661,1401.37
993.607,1363.90
994.553,1374.43
995.498,1374.03
996.444,1394.73
997.389,1392.27
998.337,1399.87
999.282,1413.90
1000.227,1416.90
1001.173,1378.60
1002.118,1399.17
1003.062,1374.47
1004.007,1369.23
1004.952,1389.53
1005.897,1380.67
1006.841,1401.07
1007.786,1437.80
1008.730,1370.97
1009.674,1376.43
1010.618,1388.47
1011.564,1392.23
1012.508,1435.80
1013.452,1363.50
1014.396,1418.97
1015.339,1405.73
1016.283,1405.60
1017.226,1377.07
1018.170,1399.10
1019.113,1426.43
1020.056,1438.27
1020.999,1434.10
1021.942,1411.77
1022.885,1394.43
1023.828,1432.73
1024.770,1456.43
1025.715,1405.53
1026.657,1412.40
1027.600,1451.27
1028.542,1418.40
1029.484,1439.33
1030.426,1432.73
1031.368,1403.33
1032.310,1420.90
1033.251,1453.30
1034.193,1487.67
1035.135,1464.00
1036.076,1496.30
1037.017,1449.37
1037.959,1459.97
1038.900,1454.90
1039.843,1465.50
1040.784,1492.70
1041.725,1476.13
1042.665,1477.20
1043.606,1494.83
1044.547,1479.50
1045.487,1466.37
1046.427,1500.67
1047.368,1449.90
1048.308,1484.53
1049.248,1485.40
1050.188,1504.90
1051.128,1528.00
1052.067,1534.20
1053.007,1513.30
1053.947,1533.07
1054.886,1519.00
1055.827,1496.27
1056.766,1579.23
1057.706,1506.00
1058.645,1520.07
1059.584,1538.53
1060.522,1586.23
1061.461,1565.70
1062.400,1599.43
1063.338,1563.73
1064.277,1588.60
1065.215,1607.63
1066.154,1587.87
1067.092,1578.97
1068.030,1596.47
1068.968,1600.70
1069.906,1595.17
1070.843,1582.70
1071.781,1615.10
1072.720,1568.97
1073.658,1616.00
1074.595,1614.17
1075.533,1647.10
1076.470,1648.10
1077.407,1645.63
1078.344,1608.77
1079.281,1667.43
1080.217,1639.73
1081.154,1626.77
1082.091,1639.10
1083.027,1655.27
1083.964,1599.60
1084.900,1644.13
1085.836,1675.37
1086.772,1633.93
1087.708,1653.13
1088.644,1639.73
1089.580,1656.20
1090.515,1640.23
1091.451,1647.40
1092.388,1649.90
1093.324,1641.47
1094.259,1662.77
1095.194,1637.67
1096.129,1636.77
1097.064,1641.77
1097.999,1651.90
1098.934,1617.00
1099.869,1665.07
1100.803,1667.20
1101.738,1618.77
1102.672,1641.17
1103.607,1606.40
1104.541,1599.87
1105.475,1607.47
1106.409,1562.73
1107.343,1631.00
1108.277,1528.33
1109.210,1594.37
1110.144,1541.53
1111.078,1596.07
1112.011,1578.37
1112.944,1514.53
1113.878,1538.37
1114.811,1544.70
1115.744,1488.63
1116.678,1530.50
1117.611,1540.60
1118.544,1502.70
1119.477,1491.00
1120.409,1506.57
1121.342,1502.87
1122.274,1495.53
1123.206,1768.17
1124.138,1470.60
1125.070,1448.83
1126.002,1499.47
1126.934,1462.27
1127.866,1432.50
1128.798,1416.07
1129.729,1428.80
1130.661,1426.03
1131.592,1416.40
1132.523,1446.37
1133.454,1389.30
1134.385,1389.47
1135.317,1387.80
1136.247,1426.03
1137.178,1374.63
1138.109,1353.63
1139.039,1350.73
1139.970,1338.80
1140.900,1379.50
1141.831,1373.77
1142.761,1379.47
1143.691,1319.27
1144.621,1333.37
1145.551,1303.67
1146.480,1355.77
1147.410,1342.10
1148.340,1358.03
1149.269,1342.83
1150.199,1331.83
1151.128,1293.60
1152.057,1288.30
1152.979,1296.03
1153.898,1307.63
1154.819,1333.30
1155.739,1311.73
1156.658,1304.60
1157.579,1285.90
1158.498,1272.73
1159.419,1310.50
1160.338,1280.20
1161.256,1266.30
1162.177,1269.43
1163.095,1267.07
1164.016,1265.67
1164.934,1254.33
1165.852,1294.33
1166.772,1269.67
1167.690,1251.90
1168.610,1261.33
1169.528,1251.90
1170.446,1270.53
1171.365,1262.10
1172.283,1285.87
1173.202,1256.17
1174.120,1219.23
1175.037,1245.03
1175.956,1277.40
1176.873,1238.53
1177.792,1242.80
1178.709,1270.93
1179.626,1231.60
1180.544,1238.03
1181.461,1247.53
1182.379,1222.50
1183.296,1267.97
1184.212,1246.30
1185.130,1231.47
1186.046,1252.57
1186.962,1218.70
1187.880,1220.53
1188.796,1249.03
1189.714,1202.57
1190.629,1220.23
1191.545,1235.17
1192.462,1214.93
1193.378,1206.30
1194.295,1203.53
1195.210,1215.40
1196.125,1225.67
1197.042,1187.30
1197.957,1202.03
1198.872,1222.87
1199.788,1215.97
1200.703,1184.03
1201.619,1212.80
1202.534,1207.97
1203.448,1200.73
1204.364,1217.00
1205.278,1215.53
1206.192,1237.90
1207.108,1220.77
1208.022,1180.07
1208.938,1226.87
1209.851,1211.07
1210.765,1197.27
1211.680,1169.43
1212.594,1227.43
1213.507,1235.17
1214.422,1219.53
1215.335,1227.77
1216.248,1242.33
1217.163,1209.87
1218.076,1199.83
1218.990,1198.73
1219.903,1260.30
1220.816,1206.93
1221.730,1230.20
1222.642,1226.13
1223.554,1220.43
1224.469,1228.73
1225.380,1208.37
1226.292,1191.57
1227.206,1234.67
1228.118,1230.57
1229.032,1238.80
1229.943,1280.37
1230.855,1220.97
1231.768,1244.93
1232.679,1259.90
1233.590,1251.43
1234.503,1233.83
1235.414,1227.27
1236.325,1233.00
1237.238,1232.03
1238.149,1275.03
1239.059,1273.40
1239.972,1236.70
1240.882,1244.07
1241.793,1256.73
1242.705,1254.40
1243.615,1261.87
1244.525,1255.60
1245.437,1259.67
1246.347,1241.03
1247.259,1237.80
1248.168,1265.57
1249.078,1272.47
1249.989,1252.40
1250.899,1260.20
1251.808,1224.40
1252.719,1277.77
1253.628,1244.50
1254.537,1262.60
1255.448,1291.93
1256.357,1250.07
1257.266,1273.83
1258.176,1240.40
1259.085,1307.67
1259.993,1270.20
1260.904,1293.43
1261.812,1277.40
1262.720,1303.83
1263.630,1272.83
1264.538,1250.07
1265.446,1255.97
1266.356,1288.30
1267.263,1323.20
1268.171,1285.37
1269.080,1282.27
1269.988,1269.33
1270.895,1231.40
1271.804,1292.00
1272.711,1296.07
1273.619,1267.40
1274.527,1290.73
1275.434,1278.63
1276.341,1270.77
1277.248,1293.13
1278.156,1281.50
1279.063,1274.63
1279.969,1291.63
1280.877,1245.37
1281.783,1288.10
1282.690,1264.30
1283.598,1282.93
1284.503,1256.03
1285.409,1261.00
1286.317,1261.23
1287.223,1290.43
1288.128,1282.90
1289.036,1291.93
1289.941,1232.70
1290.846,1295.40
1291.751,1240.20
1292.658,1231.70
1293.563,1255.93
1294.468,1301.53
1295.375,1243.50
1296.280,1244.20
1297.184,1209.07
1298.091,1194.47
1298.995,1217.77
1299.900,1222.00
1300.806,1247.50
1301.710,1240.73
1302.614,1206.23
1303.518,1233.80
1304.424,1239.10
1305.327,1220.00
1306.231,1190.00
1307.137,1243.13
1308.040,1205.87
1308.943,1182.77
1309.847,1189.10
1310.752,1202.50
1311.655,1186.90
1312.558,1171.20
1313.463,1147.57
1314.366,1171.10
1315.269,1127.43
1316.171,1175.23
1317.076,1150.03
1317.978,1176.80
1318.881,1148.57
1319.785,1144.90
1320.687,1161.33
1321.589,1146.60
1322.491,1154.77
1323.395,1130.10
1324.297,1157.93
1325.198,1134.60
1326.102,1140.23
1327.004,1144.17
1327.905,1132.33
1328.806,1113.37
1329.709,1111.77
1330.611,1117.67
1331.512,1107.67
1332.413,1122.93
1333.316,1100.83
1334.216,1077.97
1335.117,1089.87
1336.020,1078.33
1336.920,1087.27
1337.821,1080.90
1338.721,1080.83
1339.623,1062.90
1340.523,1073.30
1341.423,1078.60
1342.323,1092.87
1343.225,1072.17
1344.125,1086.80
1345.025,1080.70
1345.924,1065.33
1346.826,1023.13
1347.725,1024.63
1348.624,1063.17
1349.524,1055.30
1350.425,1042.97
1351.324,1056.87
1352.223,1051.33
1353.121,1038.17
1354.022,1018.53
1354.921,1049.07
1355.819,1038.47
1356.718,1023.83
1357.618,1000.47
1358.516,1005.47
1359.415,1007.57
1360.313,1002.23
1361.213,1007.50
1362.111,976.00
1363.008,1000.13
1363.906,981.63
1364.806,968.53
1365.703,987.43
1366.601,959.17
1367.498,976.63
1368.397,1007.17
1369.295,959.97
1370.192,987.33
1371.089,965.53
1371.987,973.20
1372.884,957.90
1373.781,959.73
1374.678,960.60
1375.574,971.93
1376.473,970.13
1377.369,978.40
1378.265,946.80
1379.161,956.83
1380.059,927.00
1380.955,936.60
1381.851,973.47
1382.747,959.37
1383.643,935.10
1384.540,942.07
1385.436,934.43
1386.331,897.80
1387.227,919.73
1388.124,925.33
1389.019,928.23
1389.914,919.97
1390.809,908.10
1391.704,912.00
1392.601,928.83
1393.495,943.50
1394.390,977.20
1395.285,952.13
1396.179,918.70
1397.075,933.87
1397.969,902.53
1398.864,902.03
1399.758,871.80
1400.652,877.27
1401.547,913.20
1402.441,910.27
1403.335,905.67
1404.229,911.20
1405.122,885.57
1406.017,859.10
1406.911,900.07
1407.804,865.80
1408.697,893.63
1409.590,865.27
1410.485,907.87
1411.378,903.07
1412.271,878.23
1413.163,845.70
1414.056,868.53
1414.949,857.33
1415.843,831.53
1416.735,873.47
1417.627,930.87
1418.520,871.10
1419.412,877.40
1420.306,881.67
1421.197,839.93
1422.089,882.13
1422.981,890.20
1423.873,864.00
1424.764,863.67
1425.657,877.87
1426.549,848.93
1427.440,881.83
1428.331,855.70
1429.222,845.67
1430.113,852.17
1431.006,861.67
1431.897,845.33
1432.787,874.70
1433.678,836.27
1434.568,839.17
1435.459,871.00
1436.351,844.60
1437.241,826.50
1438.131,848.67
1439.021,801.33
1439.911,827.30
1440.801,809.37
1441.693,841.00
1442.583,807.70
1443.472,840.30
1444.362,816.87
1445.251,821.90
1446.140,852.37
1447.030,797.27
1447.921,836.63
1448.810,827.50
1449.699,805.50
1450.588,833.00
1451.476,854.30
1452.365,854.73
1453.254,850.00
1454.144,807.90
1455.032,845.10
1455.921,800.67
1456.809,834.20
1457.697,817.43
1458.585,795.67
1459.473,789.43
1460.361,813.83
1461.251,823.20
1462.138,819.67
1463.026,827.40
1463.913,805.33
1464.801,792.70
1465.688,773.70
1466.575,815.93
1467.463,794.93
1468.351,806.47
1469.238,796.87
1470.125,791.50
1471.012,738.83
1471.899,804.77
1472.785,793.10
1473.672,781.27
1474.558,760.50
1475.446,775.17
1476.333,753.03
1477.219,772.00
1478.105,802.03
1478.991,806.57
1479.877,777.30
1480.762,811.17
1481.648,758.67
1482.534,809.27
1483.419,775.30
1484.307,733.07
1485.192,817.87
1486.077,778.90
1486.962,756.30
1487.847,738.77
1488.732,761.23
1489.617,779.17
1490.502,768.97
1491.387,761.57
1492.271,736.20
1493.156,755.20
1494.042,737.00
1494.927,725.77
1495.811,732.20
1496.695,772.57
1497.579,765.20
1498.463,735.90
1499.347,754.90
1500.231,725.83
1501.114,741.07
1501.998,752.13
1502.881,742.53
1503.765,767.53
1504.648,757.47
1505.533,770.37
1506.417,755.33
1507.300,715.00
1508.183,750.93
1509.066,767.17
1509.948,744.30
1510.831,721.10
1511.714,719.13
1512.596,716.07
1513.479,740.60
1514.361,723.40
1515.243,715.47
1516.125,736.27
1517.008,722.43
1517.890,770.53
1518.771,735.23
1519.655,727.17
1520.537,749.70
1521.419,748.67
1522.300,699.47
1523.182,750.10
1524.063,708.87
1524.944,714.07
1525.825,725.70
1526.707,709.53
1527.588,712.37
1528.468,685.57
1529.349,719.93
1530.230,705.97
1531.111,754.60
1531.991,703.37
1532.872,705.13
1533.752,716.80
1534.632,713.23
1535.513,692.47
1536.393,701.47
1537.273,727.37
1538.153,697.40
1539.032,693.50
1539.912,732.70
1540.792,707.97
1541.672,722.73
1542.551,696.33
1543.430,702.43
1544.310,711.07
1545.189,694.50
1546.068,676.70
1546.947,703.73
1547.826,697.73
1548.705,719.03
1549.584,733.70
1550.462,728.50
1551.341,705.77
1552.219,714.07
1553.098,703.23
1553.976,698.87
1554.854,699.33
1555.733,730.23
1556.611,676.70
1557.489,669.60
1558.367,693.97
1559.244,704.93
1560.122,707.53
1561.000,684.80
1561.877,679.97
1562.755,701.97
1563.632,643.93
1564.509,663.97
1565.386,652.53
1566.264,737.27
1567.141,685.67
1568.017,690.10
1568.894,683.20
1569.771,671.93
1570.648,655.40
1571.524,660.83
1572.401,668.30
1573.277,656.83
1574.153,661.23
1575.029,660.27
1575.906,662.50
1576.781,673.37
1577.657,646.90
1578.533,677.93
1579.409,680.50
1580.285,683.87
1581.160,651.93
1582.036,655.23
1582.911,631.60
1583.786,692.17
1584.662,654.80
1585.537,658.80
1586.412,650.13
1587.287,672.53
1588.160,665.33
1589.035,651.60
1589.909,685.37
1590.784,676.53
1591.658,637.27
1592.533,642.77
1593.407,665.10
1594.281,664.23
1595.155,651.93
1596.029,670.13
1596.903,636.97
1597.777,647.37
1598.651,688.70
1599.525,655.73
1600.398,653.30
1601.272,631.73
1602.144,675.00
1603.017,688.03
1603.890,670.17
1604.763,685.67
1605.636,675.60
1606.509,648.77
1607.382,649.87
1608.255,660.13
1609.128,667.83
1610.000,648.13
1610.873,659.87
1611.746,665.80
1612.616,648.20
1613.488,650.13
1614.361,694.17
1615.233,651.37
1616.105,687.50
1616.977,657.90
1617.849,662.03
1618.720,637.20
1619.592,681.80
1620.464,647.07
1621.333,662.60
1622.205,664.23
1623.076,631.27
1623.947,668.07
1624.818,643.60
1625.689,632.37
1626.560,623.33
1627.431,673.47
1628.302,669.73
1629.171,635.73
1630.042,656.33
1630.912,645.97
1631.782,646.93
1632.653,638.33
1633.523,624.03
1634.393,696.07
1635.263,608.27
1636.131,619.00
1637.001,642.63
1637.871,641.97
1638.741,619.03
1639.611,633.20
1640.480,652.43
1641.350,632.03
1642.219,639.53
1643.087,641.17
1643.956,630.13
1644.825,636.20
1645.694,667.37
1646.563,621.67
1647.432,663.63
1648.299,646.17
1649.167,609.40
1650.036,598.90
1650.904,624.97
1651.773,614.13
1652.641,607.60
1653.509,635.97
1654.376,588.33
1655.244,604.03
1656.112,655.43
1656.980,657.33
1657.847,607.03
1658.715,600.60
1659.581,618.17
1660.448,613.00
1661.316,608.40
1662.183,599.00
1663.051,609.83
1663.918,604.33
1664.783,614.10
1665.650,592.77
1666.517,577.67
1667.384,624.00
1668.251,628.17
1669.115,585.43
1669.982,610.23
1670.849,612.77
1671.715,643.13
1672.581,589.93
1673.446,610.57
1674.312,611.93
1675.178,610.37
1676.044,658.30
1676.910,599.77
1677.774,601.53
1678.639,594.70
1679.505,600.73
1680.370,588.40
1681.236,591.87
1682.099,602.67
1682.965,609.33
1683.830,588.40
1684.695,613.37
1685.560,633.60
1686.423,619.23
1687.288,613.93
1688.153,619.60
1689.017,673.90
1689.880,638.83
1690.745,629.57
1691.609,623.07
1692.473,661.00
1693.338,576.17
1694.200,617.27
1695.064,558.43
1695.928,607.77
1696.792,627.23
1697.654,584.13
1698.517,595.47
1699.381,630.03
1700.245,566.50
1701.106,588.73
1701.969,584.03
1702.833,639.63
1703.696,605.53
1704.557,605.63
1705.420,623.63
1706.283,613.23
1707.146,603.03
1708.007,578.27
1708.870,599.97
1709.732,587.90
1710.595,627.30
1711.455,551.07
1712.318,579.20
1713.180,602.43
1714.040,577.27
1714.902,576.10
1715.764,617.90
1716.626,585.77
1717.486,578.87
1718.348,578.60
1719.209,1139.03
1720.071,547.93
1720.930,569.50
1721.792,576.20
1722.653,567.20
1723.512,597.87
1724.374,595.90
1725.234,566.67
1726.095,590.90
1726.954,575.80
1727.815,584.50
1728.676,579.53
1729.535,586.67
1730.395,579.87
1731.256,562.57
1732.114,588.17
1732.974,563.20
1733.834,587.43
1734.693,590.33
1735.553,573.80
1736.413,553.67
1737.272,569.50
1738.130,582.37
1738.990,599.20
1739.849,586.57
1740.707,600.53
1741.566,583.53
1742.426,576.20
1743.283,580.60
1744.142,553.40
1745.001,582.67
1745.858,571.90
1746.717,570.40
1747.576,597.70
1748.433,596.03
1749.292,595.70
1750.150,576.50
1751.007,578.83
1751.865,588.37
1752.723,605.60
1753.579,588.20
1754.438,544.57
1755.296,567.37
1756.152,569.87
1757.010,578.97
1757.865,588.37
1758.723,562.37
1759.581,559.07
1760.436,549.50
1761.294,563.33
1762.151,569.07
1763.006,585.17
1763.864,561.13
1764.721,590.93
1765.576,554.03
1766.433,574.47
1767.288,585.90
1768.144,558.77
1769.001,555.70
1769.856,567.67
1770.712,564.67
1771.568,606.73
1772.423,568.77
1773.279,550.23
1774.133,594.07
1774.989,532.23
1775.845,567.00
1776.699,580.83
1777.555,548.10
1778.409,535.37
1779.265,606.80
1780.120,556.47
1780.974,566.23
1781.829,579.10
1782.682,533.27
1783.538,579.10
1784.393,591.20
1785.246,560.40
1786.101,561.57
1786.954,578.43
1787.808,554.67
1788.661,552.53
1789.516,544.13
1790.370,543.17
1791.223,573.87
1792.077,551.47
1792.930,545.50
1793.784,539.23
1794.636,563.77
1795.490,576.03
1796.344,567.47
1797.196,534.57
1798.049,550.47
1798.901,540.30
1799.755,544.87
1800.606,522.80
1801.460,574.10
1802.311,591.70
1803.165,564.77
1804.018,548.17
1804.869,620.87
1805.722,592.17
1806.573,515.17
1807.426,571.97
1808.276,563.27
1809.129,559.70
1809.980,546.17
1810.832,570.53
1811.683,588.27
1812.535,556.83
1813.385,564.93
1814.237,609.23
1815.089,521.20
1815.940,562.97
1816.791,544.13
1817.641,582.13
1818.493,531.47
1819.343,585.60
1820.194,544.43
1821.044,539.07
1821.895,564.07
1822.745,561.80
1823.596,543.50
1824.445,559.43
1825.296,530.03
1826.145,556.10
1826.996,554.00
1827.845,540.67
1828.695,539.13
1829.544,604.40
1830.395,547.90
1831.243,530.83
1832.094,574.60
1832.942,548.43
1833.792,571.93
1834.640,578.47
1835.490,538.73
1836.338,564.80
1837.186,534.97
1838.036,550.40
1838.884,535.27
1839.733,542.17
1840.581,555.80
1841.430,548.97
1842.278,543.77
1843.127,547.20
1843.974,556.57
1844.823,551.33
1845.671,512.03
1846.519,541.67
1847.366,537.97
1848.213,540.10
1849.062,541.20
1849.909,551.30
1850.757,513.70
1851.604,510.23
1852.452,553.73
1853.298,537.37
1854.146,533.53
1854.993,543.80
1855.839,537.77
1856.687,535.13
1857.532,566.47
1858.380,560.60
1859.226,528.73
1860.073,517.93
1860.919,589.83
1861.765,564.20
1862.612,523.83
1863.457,545.67
1864.304,540.73
1865.150,565.47
1865.995,530.67
1866.842,506.03
1867.686,513.67
1868.533,545.03
1869.378,539.27
1870.223,551.67
1871.069,499.40
1871.914,549.10
1872.760,514.37
1873.604,521.47
1874.448,553.07
1875.294,541.57
1876.139,530.73
1876.984,543.63
1877.828,518.50
1878.672,515.33
1879.518,568.63
1880.361,535.43
1881.205,555.13
1882.050,548.07
1882.894,539.57
1883.739,545.37
1884.582,528.00
1885.425,528.63
1886.270,491.83
1887.113,508.60
1887.956,530.93
1888.801,534.90
1889.644,511.30
1890.486,518.20
1891.331,520.77
1892.173,529.50
1893.017,558.57
1893.860,532.40
1894.702,502.50
1895.546,502.30
1896.388,544.63
1897.230,562.43
1898.074,515.00
1898.916,484.20
1899.757,531.70
1900.601,515.83
1901.443,533.63
1902.284,552.17
1903.125,582.50
1903.969,512.40
1904.810,546.00
1905.651,540.63
1906.494,490.90
1907.335,476.90
1908.176,514.83
1909.018,547.30
1909.859,508.40
1910.700,514.53
1911.542,573.77
1912.383,535.23
1913.223,521.43
1914.064,537.67
1914.906,514.90
1915.746,503.80
1916.586,512.70
1917.428,510.20
1918.268,531.70
1919.107,530.83
1919.947,517.27
1920.789,499.60
1921.628,549.13
1922.468,537.30
1923.309,511.50
1924.148,507.30
1924.988,546.70
1925.827,521.43
1926.667,520.27
1927.507,552.40
1928.345,495.47
1929.184,485.77
1930.025,501.30
1930.864,494.00
1931.702,523.70
1932.541,538.80
1933.381,528.77
1934.219,517.20
1935.057,514.47
1935.896,508.13
1936.735,518.93
1937.573,495.50
1938.411,492.07
1939.249,533.37
1940.089,490.87
1940.927,469.60
1941.764,561.23
1942.602,510.40
1943.439,494.10
1944.278,508.53
1945.115,569.50
1945.953,528.13
1946.790,491.97
1947.628,523.70
1948.465,540.93
1949.302,528.03
1950.139,513.20
1950.976,509.23
1951.814,489.70
1952.651,522.70
1953.487,508.03
1954.323,501.13
1955.160,497.97
1955.998,507.97
1956.834,532.93
1957.670,481.03
1958.506,506.60
1959.342,523.07
1960.177,522.53
1961.015,450.27
1961.850,527.60
1962.686,507.37
1963.521,520.67
1964.357,545.97
1965.192,504.30
1966.029,537.43
1966.864,507.37
1967.699,494.13
1968.534,463.00
1969.369,505.90
1970.204,531.97
1971.040,526.73
1971.875,524.27
1972.709,488.73
1973.544,496.50
1974.378,515.77
1975.212,517.07
1976.047,493.87
1976.882,473.20
1977.716,502.20
1978.550,505.10
1979.384,498.67
1980.218,500.60
1981.052,482.97
1981.885,504.20
1982.719,529.67
1983.554,510.80
1984.388,525.87
1985.221,495.77
1986.054,508.90
1986.887,495.50
1987.720,510.80
1988.553,507.97
1989.386,507.97
1990.219,496.17
1991.053,469.73
1991.886,488.43
1992.719,493.63
1993.551,533.47
1994.383,494.80
1995.216,513.40
1996.048,526.60
1996.880,532.13
1997.712,486.60
1998.544,486.87
1999.376,532.30
2000.208,502.00
2000.208,502.00

Max Intensity Wave.,218.899
Max Intensity Data,5896.93
Min Intensity Wave.,1961.015
Min Intensity Data,450.27
FWHM Wave.,596.434
FWHM Value,45.11
Pressure Wave.,684.671
Pressure Value [GPa],-24.91530
G/D Ratio,0.59180
G/D Gband Wave.,1566.370
G/D Gband Intensity,738.27
G/D Dband Wave.,1300.806
G/D Dband Intensity,1247.50

<< BACKGROUND SPECTRUM >>
Wave[dcm-1],No204
146.591,2252.00
147.626,2056.00
148.664,2041.00
149.699,2493.00
150.737,2249.00
151.772,2388.00
152.809,2393.00
153.846,2302.00
154.881,2398.00
155.918,1982.00
156.953,2268.00
157.989,2642.00
159.026,2480.00
160.060,2644.00
161.096,2832.00
162.130,2485.00
163.167,2561.00
164.200,2445.00
165.236,2653.00
166.272,2653.00
167.305,2262.00
168.341,2546.00
169.374,2770.00
170.409,2807.00
171.445,2715.00
172.477,2533.00
173.512,2376.00
174.545,2637.00
175.580,2839.00
176.614,3014.00
177.647,2818.00
178.681,3013.00
179.713,3307.00
180.747,2823.00
181.781,2732.00
182.813,2992.00
183.847,3062.00
184.878,2715.00
185.912,2967.00
186.945,3105.00
187.976,3025.00
189.010,2709.00
190.043,2835.00
191.073,2931.00
192.106,2711.00
193.137,3154.00
194.170,2518.00
195.202,2898.00
196.232,2714.00
197.265,2974.00
198.297,3048.00
199.327,2745.00
200.359,2980.00
201.388,3288.00
202.420,2908.00
203.452,3089.00
204.481,2718.00
205.512,3316.00
206.544,3061.00
207.573,3069.00
208.604,3363.00
209.635,3484.00
210.663,2937.00
211.694,2955.00
212.725,2830.00
213.753,2763.00
214.783,3417.00
215.813,3250.00
216.841,2951.00
217.871,3161.00
218.899,2911.00
219.929,3142.00
220.959,2852.00
221.986,3146.00
223.016,2759.00
224.045,3151.00
225.072,3068.00
226.101,3188.00
227.130,3252.00
228.157,2803.00
229.185,2346.00
230.214,3149.00
231.241,2792.00
232.269,2432.00
233.297,2691.00
234.323,3180.00
235.351,2819.00
236.379,3089.00
237.407,2756.00
238.433,2910.00
239.460,3101.00
240.488,3106.00
241.513,3147.00
242.540,3089.00
243.568,3220.00
244.592,3231.00
245.619,3192.00
246.646,2887.00
247.671,2954.00
248.697,2788.00
249.724,3007.00
250.748,2981.00
251.774,2987.00
252.801,3260.00
253.827,3113.00
254.850,3030.00
255.876,2634.00
256.902,3162.00
257.925,2949.00
258.951,2726.00
259.976,2749.00
260.999,3077.00
262.024,2740.00
263.049,3642.00
264.074,3100.00
265.097,2950.00
266.122,3071.00
267.146,3064.00
268.168,3180.00
269.193,2840.00
270.217,3176.00
271.241,2743.00
272.263,2856.00
273.287,3201.00
274.311,2788.00
275.332,3272.00
276.356,2863.00
277.379,3108.00
278.402,3111.00
279.424,2913.00
280.447,2881.00
281.470,2722.00
282.492,3048.00
283.513,2915.00
284.536,3107.00
285.558,3150.00
286.581,3101.00
287.601,2860.00
288.623,2767.00
289.645,3074.00
290.665,3121.00
291.687,3103.00
292.709,3125.00
293.730,3410.00
294.750,2872.00
295.771,2738.00
296.792,3018.00
297.813,2879.00
298.832,3012.00
299.853,2717.00
300.874,2968.00
301.895,2932.00
302.913,2978.00
303.934,3284.00
304.954,3054.00
305.975,4248.00
306.993,2721.00
308.013,3105.00
309.033,3068.00
310.052,2941.00
311.072,2896.00
312.090,3042.00
313.109,3242.00
314.129,3444.00
315.148,2995.00
316.165,3048.00
317.184,3240.00
318.203,2733.00
319.222,2765.00
320.238,3135.00
321.257,2796.00
322.275,2684.00
323.294,2951.00
324.312,3151.00
325.328,3262.00
326.346,3260.00
327.364,3192.00
328.382,3183.00
329.397,3135.00
330.415,3213.00
331.432,3188.00
332.450,3249.00
333.467,3407.00
334.482,2603.00
335.499,3331.00
336.516,2872.00
337.533,2562.00
338.547,2794.00
339.564,2839.00
340.580,3062.00
341.597,2941.00
342.613,3372.00
343.627,2964.00
344.643,3039.00
345.659,3080.00
346.675,2971.00
347.690,2856.00
348.704,3028.00
349.719,2871.00
350.735,2761.00
351.750,3191.00
352.765,2996.00
353.778,2973.00
354.793,3135.00
355.808,2858.00
356.822,3206.00
357.837,2621.00
358.851,3242.00
359.864,2946.00
360.878,2681.00
361.892,2949.00
362.906,3207.00
363.920,2600.00
364.932,3077.00
365.945,3074.00
366.959,3002.00
367.972,2886.00
368.986,2701.00
369.999,3378.00
371.010,2837.00
372.023,3353.00
373.036,2977.00
374.049,3378.00
375.061,3073.00
376.072,3027.00
377.084,2878.00
378.097,2738.00
379.109,3197.00
380.121,2986.00
381.133,2695.00
382.143,3128.00
383.155,2676.00
384.166,2902.00
385.178,3097.00
386.189,3174.00
387.201,2668.00
388.212,2877.00
389.221,2897.00
390.232,3010.00
391.243,2900.00
392.254,3000.00
393.264,2811.00
394.275,3214.00
395.283,3145.00
396.294,3581.00
397.304,3508.00
398.314,3107.00
399.324,3048.00
400.334,2642.00
401.344,3127.00
402.351,2653.00
403.361,3199.00
404.370,2969.00
405.380,2920.00
406.389,3347.00
407.398,3106.00
408.407,3079.00
409.414,3158.00
410.423,3340.00
411.431,2754.00
412.440,2693.00
413.448,3282.00
414.457,2844.00
415.465,2776.00
416.471,2861.00
417.479,2991.00
418.487,2788.00
419.495,3312.00
420.503,3133.00
421.510,2614.00
422.518,3175.00
423.525,3145.00
424.530,3389.00
425.537,2910.00
426.544,3261.00
427.551,2839.00
428.558,3550.00
429.565,3415.00
430.571,2856.00
431.578,2870.00
432.582,2866.00
433.588,2920.00
434.595,2627.00
435.601,3305.00
436.607,3237.00
437.612,2765.00
438.618,3348.00
439.624,2954.00
440.627,2942.00
441.633,3106.00
442.638,3598.00
443.643,3037.00
444.648,2985.00
445.653,3136.00
446.658,2900.00
447.663,3033.00
448.667,2850.00
449.672,2890.00
450.674,2964.00
451.678,2704.00
452.682,2866.00
453.687,2849.00
454.690,3568.00
455.694,3253.00
456.698,2588.00
457.702,2677.00
458.705,2802.00
459.709,2824.00
460.710,2855.00
461.713,3060.00
462.716,3062.00
463.719,3040.00
464.722,3173.00
465.725,2943.00
466.727,2881.00
467.730,3072.00
468.732,2749.00
469.735,3231.00
470.737,2871.00
471.737,2858.00
472.739,2913.00
473.741,2838.00
474.742,3083.00
475.744,3046.00
476.746,3021.00
477.747,2974.00
478.748,3148.00
479.750,2954.00
480.751,2976.00
481.752,3735.00
482.753,3076.00
483.751,3545.00
484.752,2620.00
485.753,2940.00
486.753,2866.00
487.753,2989.00
488.754,3399.00
489.754,2704.00
490.754,3301.00
491.754,3101.00
492.754,2671.00
493.753,2991.00
494.753,2881.00
495.752,3335.00
496.752,3026.00
497.749,2995.00
498.748,2802.00
499.747,3342.00
500.746,3058.00
501.745,2772.00
502.744,2739.00
503.742,3317.00
504.741,2941.00
505.739,2460.00
506.737,2897.00
507.735,3138.00
508.734,3410.00
509.732,3098.00
510.729,3309.00
511.727,2871.00
512.725,2916.00
513.720,2753.00
514.718,3256.00
515.715,2666.00
516.712,2615.00
517.709,2992.00
518.706,2894.00
519.703,3057.00
520.700,3176.00
521.696,3359.00
522.693,2885.00
523.689,2857.00
524.686,3162.00
525.682,2760.00
526.678,3462.00
527.674,2930.00
528.670,2574.00
529.666,3520.00
530.661,3437.00
531.657,3640.00
532.652,3121.00
533.648,3024.00
534.641,3169.00
535.636,3039.00
536.631,3080.00
537.626,3142.00
538.621,2745.00
539.616,2595.00
540.610,2507.00
541.605,2985.00
542.599,3072.00
543.593,2954.00
544.587,3855.00
545.581,2843.00
546.575,3026.00
547.569,3009.00
548.563,2673.00
549.557,2655.00
550.550,2774.00
551.543,2704.00
552.537,3146.00
553.530,2775.00
554.523,2811.00
555.516,3136.00
556.509,2960.00
557.502,2633.00
558.494,3215.00
559.487,2942.00
560.479,3149.00
561.472,3220.00
562.464,3167.00
563.456,3299.00
564.448,2980.00
565.440,2955.00
566.432,3389.00
567.423,2859.00
568.415,2882.00
569.404,3093.00
570.396,2763.00
571.387,3119.00
572.378,3039.00
573.369,3969.00
574.360,3655.00
575.351,2954.00
576.341,2842.00
577.332,2834.00
578.323,2702.00
579.313,2886.00
580.303,3221.00
581.293,3129.00
582.283,2952.00
583.273,3089.00
584.263,3024.00
585.253,3054.00
586.243,3174.00
587.232,2644.00
588.222,2946.00
589.211,3133.00
590.200,3096.00
591.189,2896.00
592.178,2973.00
593.167,3385.00
594.156,3242.00
595.145,2917.00
596.133,3441.00
597.122,3090.00
598.110,3191.00
599.098,3057.00
600.086,3007.00
601.074,3130.00
602.062,2828.00
603.050,2742.00
604.038,3119.00
605.025,2790.00
606.013,3188.00
607.000,3360.00
607.987,3004.00
608.975,3007.00
609.962,2741.00
610.949,3153.00
611.936,3216.00
612.922,3172.00
613.909,2691.00
614.895,3343.00
615.882,2847.00
616.868,2965.00
617.854,2745.00
618.841,3014.00
619.826,3127.00
620.812,2975.00
621.798,2763.00
622.784,3187.00
623.769,3081.00
624.755,2715.00
625.740,3042.00
626.725,2726.00
627.711,2838.00
628.698,3098.00
629.683,2811.00
630.667,3185.00
631.652,2741.00
632.637,2940.00
633.621,3133.00
634.606,2895.00
635.590,3074.00
636.574,2918.00
637.558,3044.00
638.542,3042.00
639.526,2846.00
640.510,2648.00
641.493,3032.00
642.477,3004.00
643.460,2709.00
644.444,3188.00
645.427,3196.00
646.410,2673.00
647.393,2956.00
648.376,3058.00
649.359,2885.00
650.341,3065.00
651.324,3043.00
652.307,3040.00
653.289,2944.00
654.271,2839.00
655.253,2914.00
656.235,3114.00
657.217,3180.00
658.199,2656.00
659.181,2718.00
660.163,3021.00
661.144,2857.00
662.126,2873.00
663.107,2844.00
664.088,6156.00
665.069,3242.00
666.050,2815.00
667.033,2719.00
668.014,3056.00
668.995,2560.00
669.975,2952.00
670.956,2966.00
671.936,3155.00
672.916,2941.00
673.896,3100.00
674.876,2905.00
675.856,2825.00
676.836,2727.00
677.816,2326.00
678.795,2801.00
679.775,2658.00
680.754,3035.00
681.734,3150.00
682.713,3149.00
683.692,2802.00
684.671,2644.00
685.650,2743.00
686.629,2876.00
687.607,2743.00
688.586,2776.00
689.564,2865.00
690.543,3215.00
691.523,2380.00
692.501,2806.00
693.479,2944.00
694.457,2803.00
695.435,2871.00
696.413,2676.00
697.390,2517.00
698.368,2700.00
699.345,3118.00
700.322,2919.00
701.300,3096.00
702.277,3019.00
703.254,3261.00
704.231,2565.00
705.207,2971.00
706.184,2740.00
707.161,2663.00
708.137,2830.00
709.113,2787.00
710.090,2759.00
711.068,2581.00
712.044,2631.00
713.020,2876.00
713.996,2575.00
714.971,2775.00
715.947,2859.00
716.922,2794.00
717.898,2768.00
718.873,2907.00
719.848,2682.00
720.823,2667.00
721.798,2993.00
722.773,2725.00
723.748,2546.00
724.723,3001.00
725.697,2906.00
726.672,2742.00
727.646,2551.00
728.622,2920.00
729.596,2598.00
730.570,2724.00
731.544,3072.00
732.518,3231.00
733.492,2836.00
734.466,2868.00
735.439,2965.00
736.413,3112.00
737.386,2403.00
738.359,2405.00
739.332,2532.00
740.305,2875.00
741.278,3292.00
742.251,2911.00
743.224,2711.00
744.196,2553.00
745.171,3107.00
746.143,3017.00
747.115,2759.00
748.087,2714.00
749.059,3047.00
750.031,2894.00
751.003,3679.00
751.975,3267.00
752.947,2669.00
753.918,3094.00
754.890,2588.00
755.861,2778.00
756.832,3014.00
757.803,2831.00
758.774,2873.00
759.747,2588.00
760.718,3188.00
761.689,2737.00
762.659,2578.00
763.630,3131.00
764.600,2541.00
765.570,3081.00
766.540,3123.00
767.510,2905.00
768.480,3071.00
769.450,2711.00
770.420,2871.00
771.390,2639.00
772.359,2770.00
773.329,2655.00
774.300,2506.00
775.269,2730.00
776.238,2995.00
777.207,3156.00
778.176,2487.00
779.145,2800.00
780.114,2697.00
781.083,2574.00
782.051,2756.00
783.019,2683.00
783.988,3089.00
784.956,2847.00
785.924,2973.00
786.894,2848.00
787.862,2695.00
788.830,3151.00
789.797,2622.00
790.765,2615.00
791.732,2817.00
792.700,2642.00
793.667,2607.00
794.634,2777.00
795.601,2762.00
796.568,2806.00
797.535,2837.00
798.502,3443.00
799.468,2935.00
800.437,2369.00
801.403,2656.00
802.370,3247.00
803.336,3026.00
804.302,2846.00
805.268,2450.00
806.234,2561.00
807.200,2730.00
808.166,2760.00
809.131,2589.00
810.097,2948.00
811.062,3639.00
812.027,3021.00
812.994,2604.00
813.960,2634.00
814.925,2909.00
815.889,2542.00
816.854,2983.00
817.819,2637.00
818.783,2728.00
819.748,3098.00
820.712,2736.00
821.677,2678.00
822.641,2718.00
823.605,2732.00
824.571,3128.00
825.534,2713.00
826.498,2664.00
827.462,2805.00
828.425,2640.00
829.389,3053.00
830.352,2811.00
831.315,2877.00
832.279,2490.00
833.242,2737.00
834.204,2638.00
835.167,2642.00
836.132,3071.00
837.095,2521.00
838.057,2727.00
839.020,2821.00
839.982,2864.00
840.944,2727.00
841.906,2599.00
842.868,2935.00
843.830,2538.00
844.792,3036.00
845.753,2670.00
846.715,2427.00
847.679,2575.00
848.640,2617.00
849.601,2701.00
850.562,3224.00
851.523,2691.00
852.484,2462.00
853.445,2974.00
854.406,2719.00
855.367,2724.00
856.327,3051.00
857.288,2501.00
858.248,2693.00
859.210,2714.00
860.170,2541.00
861.130,2987.00
862.090,2426.00
863.050,2603.00
864.010,2660.00
864.969,2910.00
865.929,2575.00
866.888,2528.00
867.848,2835.00
868.807,2656.00
869.766,2861.00
870.727,2735.00
871.686,3016.00
872.645,2967.00
873.604,3261.00
874.562,2787.00
875.521,2787.00
876.479,3368.00
877.437,2594.00
878.396,2599.00
879.354,3171.00
880.312,2586.00
881.270,2677.00
882.229,3109.00
883.187,2635.00
884.145,2623.00
885.102,2945.00
886.059,2774.00
887.017,2919.00
887.974,2966.00
888.931,3107.00
889.888,2519.00
890.845,2421.00
891.802,2375.00
892.758,2668.00
893.717,2443.00
894.673,2555.00
895.630,2655.00
896.586,2931.00
897.542,2673.00
898.498,2523.00
899.454,2875.00
900.410,2650.00
901.366,2678.00
902.321,2623.00
903.277,2666.00
904.232,2727.00
905.189,2477.00
906.145,2636.00
907.100,2207.00
908.055,2737.00
909.010,2946.00
909.965,2306.00
910.919,2813.00
911.874,2571.00
912.828,2778.00
913.783,2769.00
914.737,2393.00
915.693,2766.00
916.648,2962.00
917.602,2949.00
918.555,2778.00
919.509,2874.00
920.463,2729.00
921.417,2732.00
922.370,2566.00
923.324,2689.00
924.277,2645.00
925.230,2711.00
926.183,2405.00
927.138,2684.00
928.091,2959.00
929.044,2815.00
929.996,2623.00
930.949,2671.00
931.902,2829.00
932.854,2818.00
933.806,2574.00
934.758,2943.00
935.711,2982.00
936.663,2799.00
937.614,2777.00
938.568,2724.00
939.520,2410.00
940.471,2752.00
941.423,2782.00
942.374,2911.00
943.326,2737.00
944.277,2564.00
945.228,2856.00
946.179,2720.00
947.130,3010.00
948.080,2678.00
949.031,2580.00
949.984,2696.00
950.934,2717.00
951.884,2472.00
952.835,2696.00
953.785,2765.00
954.735,2592.00
955.685,2366.00
956.635,2624.00
957.585,2613.00
958.534,2606.00
959.484,2717.00
960.433,2649.00
961.383,2460.00
962.334,2974.00
963.283,2796.00
964.232,2867.00
965.181,2723.00
966.130,2792.00
967.079,2613.00
968.027,2736.00
968.976,2787.00
969.924,2586.00
970.873,2805.00
971.821,2746.00
972.769,2929.00
973.719,2846.00
974.667,2472.00
975.615,2694.00
976.562,2725.00
977.510,2422.00
978.458,2641.00
979.405,2876.00
980.352,2737.00
981.300,2975.00
982.247,2821.00
983.194,2571.00
984.141,2613.00
985.088,2726.00
986.036,2814.00
986.983,3034.00
987.930,3102.00
988.876,2346.00
989.822,2949.00
990.769,2580.00
991.715,2609.00
992.661,2425.00
993.607,2813.00
994.553,3271.00
995.498,2608.00
996.444,2283.00
997.389,2766.00
998.337,2515.00
999.282,2850.00
1000.227,2628.00
1001.173,2734.00
1002.118,2440.00
1003.062,2923.00
1004.007,2700.00
1004.952,3000.00
1005.897,2949.00
1006.841,2684.00
1007.786,2410.00
1008.730,2464.00
1009.674,3173.00
1010.618,2671.00
1011.564,2525.00
1012.508,2368.00
1013.452,2965.00
1014.396,2718.00
1015.339,2630.00
1016.283,2703.00
1017.226,2772.00
1018.170,2706.00
1019.113,2888.00
1020.056,2712.00
1020.999,2703.00
1021.942,2604.00
1022.885,2877.00
1023.828,2976.00
1024.770,2473.00
1025.715,2766.00
1026.657,2692.00
1027.600,2726.00
1028.542,2929.00
1029.484,2730.00
1030.426,2865.00
1031.368,2796.00
1032.310,2601.00
1033.251,2535.00
1034.193,2664.00
1035.135,2487.00
1036.076,2592.00
1037.017,2542.00
1037.959,2826.00
1038.900,2781.00
1039.843,2802.00
1040.784,2729.00
1041.725,2800.00
1042.665,2621.00
1043.606,2754.00
1044.547,2748.00
1045.487,2394.00
1046.427,2676.00
1047.368,2815.00
1048.308,2264.00
1049.248,2525.00
1050.188,2700.00
1051.128,2609.00
1052.067,2643.00
1053.007,2413.00
1053.947,2383.00
1054.886,2584.00
1055.827,2519.00
1056.766,2859.00
1057.706,2503.00
1058.645,2699.00
1059.584,2756.00
1060.522,2942.00
1061.461,2442.00
1062.400,2446.00
1063.338,2651.00
1064.277,2504.00
1065.215,2489.00
1066.154,2401.00
1067.092,2601.00
1068.030,2634.00
1068.968,2848.00
1069.906,3010.00
1070.843,2966.00
1071.781,2735.00
1072.720,2856.00
1073.658,2841.00
1074.595,2605.00
1075.533,2548.00
1076.470,2571.00
1077.407,2965.00
1078.344,2795.00
1079.281,2783.00
1080.217,2313.00
1081.154,2679.00
1082.091,2743.00
1083.027,2454.00
1083.964,2974.00
1084.900,2574.00
1085.836,2579.00
1086.772,2890.00
1087.708,2465.00
1088.644,2845.00
1089.580,2692.00
1090.515,2755.00
1091.451,2608.00
1092.388,2715.00
1093.324,2470.00
1094.259,3237.00
1095.194,2779.00
1096.129,2625.00
1097.064,2579.00
1097.999,2805.00
1098.934,2566.00
1099.869,2547.00
1100.803,2679.00
1101.738,2722.00
1102.672,2371.00
1103.607,2805.00
1104.541,2566.00
1105.475,2535.00
1106.409,2460.00
1107.343,2567.00
1108.277,2482.00
1109.210,2700.00
1110.144,2706.00
1111.078,2636.00
1112.011,2430.00
1112.944,2805.00
1113.878,2732.00
1114.811,2177.00
1115.744,2625.00
1116.678,2309.00
1117.611,2547.00
1118.544,2609.00
1119.477,2759.00
1120.409,2543.00
1121.342,3111.00
1122.274,2742.00
1123.206,3099.00
1124.138,2663.00
1125.070,2987.00
1126.002,2807.00
1126.934,2297.00
1127.866,2586.00
1128.798,2347.00
1129.729,2390.00
1130.661,2670.00
1131.592,2570.00
1132.523,2717.00
1133.454,2775.00
1134.385,2305.00
1135.317,2660.00
1136.247,2553.00
1137.178,2874.00
1138.109,2406.00
1139.039,3035.00
1139.970,2864.00
1140.900,2562.00
1141.831,2337.00
1142.761,2212.00
1143.691,2802.00
1144.621,2661.00
1145.551,2745.00
1146.480,2682.00
1147.410,2841.00
1148.340,2285.00
1149.269,2358.00
1150.199,2575.00
1151.128,3064.00
1152.057,2474.00
1152.979,2594.00
1153.898,2625.00
1154.819,2703.00
1155.739,2632.00
1156.658,2545.00
1157.579,2681.00
1158.498,2647.00
1159.419,2163.00
1160.338,2684.00
1161.256,2714.00
1162.177,2511.00
1163.095,2627.00
1164.016,2723.00
1164.934,2913.00
1165.852,2796.00
1166.772,2618.00
1167.690,2667.00
1168.610,2694.00
1169.528,2651.00
1170.446,2181.00
1171.365,2548.00
1172.283,2494.00
1173.202,2633.00
1174.120,2703.00
1175.037,2503.00
1175.956,2424.00
1176.873,2505.00
1177.792,2519.00
1178.709,3071.00
1179.626,2547.00
1180.544,2857.00
1181.461,2491.00
1182.379,2735.00
1183.296,2602.00
1184.212,2270.00
1185.130,2483.00
1186.046,2946.00
1186.962,2638.00
1187.880,2909.00
1188.796,2649.00
1189.714,2447.00
1190.629,2765.00
1191.545,2672.00
1192.462,2559.00
1193.378,2611.00
1194.295,2363.00
1195.210,2654.00
1196.125,2765.00
1197.042,2739.00
1197.957,2646.00
1198.872,2506.00
1199.788,2553.00
1200.703,2978.00
1201.619,2638.00
1202.534,2505.00
1203.448,2712.00
1204.364,2562.00
1205.278,2293.00
1206.192,2657.00
1207.108,3123.00
1208.022,3021.00
1208.938,2476.00
1209.851,2778.00
1210.765,2879.00
1211.680,2574.00
1212.594,2398.00
1213.507,2557.00
1214.422,3017.00
1215.335,2734.00
1216.248,2541.00
1217.163,2661.00
1218.076,3231.00
1218.990,2767.00
1219.903,2365.00
1220.816,2470.00
1221.730,2590.00
1222.642,2491.00
1223.554,2559.00
1224.469,2715.00
1225.380,2593.00
1226.292,2336.00
1227.206,2754.00
1228.118,2955.00
1229.032,2266.00
1229.943,2466.00
1230.855,2597.00
1231.768,2377.00
1232.679,2691.00
1233.590,2593.00
1234.503,2848.00
1235.414,2518.00
1236.325,2519.00
1237.238,2718.00
1238.149,2699.00
1239.059,2429.00
1239.972,2828.00
1240.882,2455.00
1241.793,2749.00
1242.705,2978.00
1243.615,2578.00
1244.525,2724.00
1245.437,2210.00
1246.347,2706.00
1247.259,2808.00
1248.168,3064.00
1249.078,2873.00
1249.989,2909.00
1250.899,2452.00
1251.808,2540.00
1252.719,2560.00
1253.628,2514.00
1254.537,3010.00
1255.448,2440.00
1256.357,2484.00
1257.266,2641.00
1258.176,2409.00
1259.085,2320.00
1259.993,2448.00
1260.904,2465.00
1261.812,2450.00
1262.720,3219.00
1263.630,2797.00
1264.538,2496.00
1265.446,2738.00
1266.356,2620.00
1267.263,2855.00
1268.171,2427.00
1269.080,2701.00
1269.988,2816.00
1270.895,2572.00
1271.804,2587.00
1272.711,2786.00
1273.619,2783.00
1274.527,2432.00
1275.434,2737.00
1276.341,2434.00
1277.248,2641.00
1278.156,2902.00
1279.063,2505.00
1279.969,2719.00
1280.877,3548.00
1281.783,2822.00
1282.690,2696.00
1283.598,2582.00
1284.503,2495.00
1285.409,2472.00
1286.317,2980.00
1287.223,2992.00
1288.128,2665.00
1289.036,2483.00
1289.941,2596.00
1290.846,2593.00
1291.751,2465.00
1292.658,2539.00
1293.563,3054.00
1294.468,2597.00
1295.375,2790.00
1296.280,2854.00
1297.184,3358.00
1298.091,2752.00
1298.995,2807.00
1299.900,3008.00
1300.806,2509.00
1301.710,2365.00
1302.614,2224.00
1303.518,2854.00
1304.424,2552.00
1305.327,2811.00
1306.231,2623.00
1307.137,2740.00
1308.040,2680.00
1308.943,2668.00
1309.847,2859.00
1310.752,2810.00
1311.655,2292.00
1312.558,2416.00
1313.463,2600.00
1314.366,2518.00
1315.269,2724.00
1316.171,2601.00
1317.076,2532.00
1317.978,2409.00
1318.881,2252.00
1319.785,2489.00
1320.687,2494.00
1321.589,2252.00
1322.491,2462.00
1323.395,2708.00
1324.297,3158.00
1325.198,2757.00
1326.102,2441.00
1327.004,2441.00
1327.905,3005.00
1328.806,2597.00
1329.709,2702.00
1330.611,2562.00
1331.512,2450.00
1332.413,3066.00
1333.316,2675.00
1334.216,2825.00
1335.117,2365.00
1336.020,2680.00
1336.920,2636.00
1337.821,2518.00
1338.721,2902.00
1339.623,2703.00
1340.523,2604.00
1341.423,2493.00
1342.323,2889.00
1343.225,2701.00
1344.125,2434.00
1345.025,2484.00
1345.924,2294.00
1346.826,2999.00
1347.725,3058.00
1348.624,2848.00
1349.524,2481.00
1350.425,2580.00
1351.324,2706.00
1352.223,2776.00
1353.121,2609.00
1354.022,2823.00
1354.921,2997.00
1355.819,2733.00
1356.718,2677.00
1357.618,2399.00
1358.516,2754.00
1359.415,3014.00
1360.313,2718.00
1361.213,2575.00
1362.111,2934.00
1363.008,3261.00
1363.906,2613.00
1364.806,2664.00
1365.703,2715.00
1366.601,2480.00
1367.498,2467.00
1368.397,2786.00
1369.295,2712.00
1370.192,2458.00
1371.089,2721.00
1371.987,2614.00
1372.884,2917.00
1373.781,2444.00
1374.678,2637.00
1375.574,2455.00
1376.473,2740.00
1377.369,2823.00
1378.265,2481.00
1379.161,2578.00
1380.059,2351.00
1380.955,2760.00
1381.851,2383.00
1382.747,2506.00
1383.643,2568.00
1384.540,2438.00
1385.436,2520.00
1386.331,2718.00
1387.227,2809.00
1388.124,2736.00
1389.019,2453.00
1389.914,2609.00
1390.809,2285.00
1391.704,3046.00
1392.601,2524.00
1393.495,2887.00
1394.390,2727.00
1395.285,2838.00
1396.179,2676.00
1397.075,2561.00
1397.969,2698.00
1398.864,2323.00
1399.758,2641.00
1400.652,2680.00
1401.547,2438.00
1402.441,2401.00
1403.335,2951.00
1404.229,2654.00
1405.122,2712.00
1406.017,2636.00
1406.911,2751.00
1407.804,3043.00
1408.697,2609.00
1409.590,2481.00
1410.485,2784.00
1411.378,2667.00
1412.271,2351.00
1413.163,2722.00
1414.056,2782.00
1414.949,3024.00
1415.843,2718.00
1416.735,2594.00
1417.627,2585.00
1418.520,2605.00
1419.412,2836.00
1420.306,2788.00
1421.197,2929.00
1422.089,2822.00
1422.981,3055.00
1423.873,2800.00
1424.764,2732.00
1425.657,2643.00
1426.549,2781.00
1427.440,2799.00
1428.331,2544.00
1429.222,2337.00
1430.113,2683.00
1431.006,2802.00
1431.897,2551.00
1432.787,2632.00
1433.678,2574.00
1434.568,2463.00
1435.459,2833.00
1436.351,2807.00
1437.241,2792.00
1438.131,2780.00
1439.021,2430.00
1439.911,2622.00
1440.801,2722.00
1441.693,2849.00
1442.583,2669.00
1443.472,2628.00
1444.362,2764.00
1445.251,2597.00
1446.140,2535.00
1447.030,2859.00
1447.921,2817.00
1448.810,2469.00
1449.699,3019.00
1450.588,2662.00
1451.476,2515.00
1452.365,2711.00
1453.254,2519.00
1454.144,2531.00
1455.032,2748.00
1455.921,2402.00
1456.809,2907.00
1457.697,2434.00
1458.585,2610.00
1459.473,2608.00
1460.361,2473.00
1461.251,2687.00
1462.138,2709.00
1463.026,2584.00
1463.913,2869.00
1464.801,2559.00
1465.688,2759.00
1466.575,2642.00
1467.463,3089.00
1468.351,2503.00
1469.238,2614.00
1470.125,2255.00
1471.012,2745.00
1471.899,2706.00
1472.785,2462.00
1473.672,2637.00
1474.558,2890.00
1475.446,2782.00
1476.333,2833.00
1477.219,2461.00
1478.105,2603.00
1478.991,2585.00
1479.877,2940.00
1480.762,2602.00
1481.648,2538.00
1482.534,2750.00
1483.419,2710.00
1484.307,2800.00
1485.192,2577.00
1486.077,2484.00
1486.962,2532.00
1487.847,2441.00
1488.732,2493.00
1489.617,2646.00
1490.502,2901.00
1491.387,2772.00
1492.271,2514.00
1493.156,2491.00
1494.042,2477.00
1494.927,2879.00
1495.811,2565.00
1496.695,2776.00
1497.579,2922.00
1498.463,2667.00
1499.347,2690.00
1500.231,2702.00
1501.114,2713.00
1501.998,2901.00
1502.881,2687.00
1503.765,2912.00
1504.648,3032.00
1505.533,2738.00
1506.417,2655.00
1507.300,2638.00
1508.183,2709.00
1509.066,2120.00
1509.948,2872.00
1510.831,3011.00
1511.714,2465.00
1512.596,2798.00
1513.479,2876.00
1514.361,2856.00
1515.243,2694.00
1516.125,2806.00
1517.008,2912.00
1517.890,2564.00
1518.771,2677.00
1519.655,2881.00
1520.537,2584.00
1521.419,2460.00
1522.300,2720.00
1523.182,2758.00
1524.063,2798.00
1524.944,2944.00
1525.825,2833.00
1526.707,2481.00
1527.588,2437.00
1528.468,2761.00
1529.349,2324.00
1530.230,2575.00
1531.111,2798.00
1531.991,2711.00
1532.872,2383.00
1533.752,2620.00
1534.632,2518.00
1535.513,2548.00
1536.393,2799.00
1537.273,2923.00
1538.153,3321.00
1539.032,2412.00
1539.912,2604.00
1540.792,2659.00
1541.672,2642.00
1542.551,2787.00
1543.430,3232.00
1544.310,2681.00
1545.189,2566.00
1546.068,3089.00
1546.947,2766.00
1547.826,2972.00
1548.705,2635.00
1549.584,2844.00
1550.462,2586.00
1551.341,2804.00
1552.219,2700.00
1553.098,2799.00
1553.976,2864.00
1554.854,3064.00
1555.733,2828.00
1556.611,2605.00
1557.489,2487.00
1558.367,2656.00
1559.244,2805.00
1560.122,2625.00
1561.000,2731.00
1561.877,2958.00
1562.755,2529.00
1563.632,2658.00
1564.509,2934.00
1565.386,3050.00
1566.264,2364.00
1567.141,2287.00
1568.017,2800.00
1568.894,2653.00
1569.771,2716.00
1570.648,2800.00
1571.524,2698.00
1572.401,2433.00
1573.277,2459.00
1574.153,2717.00
1575.029,2541.00
1575.906,3368.00
1576.781,2830.00
1577.657,2630.00
1578.533,2890.00
1579.409,2298.00
1580.285,2613.00
1581.160,3088.00
1582.036,2836.00
1582.911,2521.00
1583.786,2969.00
1584.662,2478.00
1585.537,2636.00
1586.412,2716.00
1587.287,2483.00
1588.160,2839.00
1589.035,2336.00
1589.909,2660.00
1590.784,2621.00
1591.658,2499.00
1592.533,2743.00
1593.407,2680.00
1594.281,2557.00
1595.155,3071.00
1596.029,2570.00
1596.903,2631.00
1597.777,2592.00
1598.651,2883.00
1599.525,2382.00
1600.398,2689.00
1601.272,2642.00
1602.144,3176.00
1603.017,2582.00
1603.890,2893.00
1604.763,2734.00
1605.636,2792.00
1606.509,2388.00
1607.382,2505.00
1608.255,2731.00
1609.128,2876.00
1610.000,2617.00
1610.873,2360.00
1611.746,2551.00
1612.616,2599.00
1613.488,2244.00
1614.361,2619.00
1615.233,2616.00
1616.105,2858.00
1616.977,2575.00
1617.849,2485.00
1618.720,2982.00
1619.592,2932.00
1620.464,2741.00
1621.333,3099.00
1622.205,2650.00
1623.076,2648.00
1623.947,2624.00
1624.818,2907.00
1625.689,2794.00
1626.560,2593.00
1627.431,2676.00
1628.302,3009.00
1629.171,2795.00
1630.042,2956.00
1630.912,3266.00
1631.782,3241.00
1632.653,2467.00
1633.523,2830.00
1634.393,2833.00
1635.263,2572.00
1636.131,2666.00
1637.001,2578.00
1637.871,2301.00
1638.741,2330.00
1639.611,2408.00
1640.480,2772.00
1641.350,2521.00
1642.219,2498.00
1643.087,2172.00
1643.956,3084.00
1644.825,2901.00
1645.694,2831.00
1646.563,2836.00
1647.432,2684.00
1648.299,2665.00
1649.167,2819.00
1650.036,2502.00
1650.904,2865.00
1651.773,2904.00
1652.641,2695.00
1653.509,2859.00
1654.376,2572.00
1655.244,2726.00
1656.112,2685.00
1656.980,2647.00
1657.847,2547.00
1658.715,2852.00
1659.581,2573.00
1660.448,2898.00
1661.316,2199.00
1662.183,2726.00
1663.051,2720.00
1663.918,2710.00
1664.783,2685.00
1665.650,2787.00
1666.517,2872.00
1667.384,2677.00
1668.251,2692.00
1669.115,2903.00
1669.982,2635.00
1670.849,2944.00
1671.715,2610.00
1672.581,2837.00
1673.446,2787.00
1674.312,2694.00
1675.178,3065.00
1676.044,2712.00
1676.910,2763.00
1677.774,2715.00
1678.639,2348.00
1679.505,2671.00
1680.370,2820.00
1681.236,3322.00
1682.099,2614.00
1682.965,2692.00
1683.830,2295.00
1684.695,2493.00
1685.560,2577.00
1686.423,2793.00
1687.288,2797.00
1688.153,2710.00
1689.017,2535.00
1689.880,2714.00
1690.745,2794.00
1691.609,2495.00
1692.473,2793.00
1693.338,2927.00
1694.200,2921.00
1695.064,2709.00
1695.928,2570.00
1696.792,2659.00
1697.654,3186.00
1698.517,2702.00
1699.381,2399.00
1700.245,2365.00
1701.106,2974.00
1701.969,2584.00
1702.833,2772.00
1703.696,2575.00
1704.557,2639.00
1705.420,2524.00
1706.283,2677.00
1707.146,2817.00
1708.007,2494.00
1708.870,2471.00
1709.732,2368.00
1710.595,2534.00
1711.455,2490.00
1712.318,2605.00
1713.180,2934.00
1714.040,2736.00
1714.902,2861.00
1715.764,2664.00
1716.626,2466.00
1717.486,2636.00
1718.348,2956.00
1719.209,4347.00
1720.071,2377.00
1720.930,2448.00
1721.792,2533.00
1722.653,2552.00
1723.512,2551.00
1724.374,2610.00
1725.234,2744.00
1726.095,2691.00
1726.954,2681.00
1727.815,2802.00
1728.676,2677.00
1729.535,2892.00
1730.395,2650.00
1731.256,2618.00
1732.114,2721.00
1732.974,2187.00
1733.834,3028.00
1734.693,2836.00
1735.553,2696.00
1736.413,3118.00
1737.272,2583.00
1738.130,2617.00
1738.990,2741.00
1739.849,2564.00
1740.707,3645.00
1741.566,2707.00
1742.426,2727.00
1743.283,3075.00
1744.142,2592.00
1745.001,2355.00
1745.858,2858.00
1746.717,2747.00
1747.576,2759.00
1748.433,2824.00
1749.292,3222.00
1750.150,3293.00
1751.007,2879.00
1751.865,2883.00
1752.723,2676.00
1753.579,2605.00
1754.438,2931.00
1755.296,2903.00
1756.152,2262.00
1757.010,2368.00
1757.865,2866.00
1758.723,2350.00
1759.581,3002.00
1760.436,2672.00
1761.294,3065.00
1762.151,2664.00
1763.006,2592.00
1763.864,2345.00
1764.721,2860.00
1765.576,2715.00
1766.433,2829.00
1767.288,2577.00
1768.144,2739.00
1769.001,2653.00
1769.856,2770.00
1770.712,2906.00
1771.568,2439.00
1772.423,2582.00
1773.279,2614.00
1774.133,2560.00
1774.989,3104.00
1775.845,3238.00
1776.699,2912.00
1777.555,2681.00
1778.409,3237.00
1779.265,2597.00
1780.120,2648.00
1780.974,2664.00
1781.829,2278.00
1782.682,2774.00
1783.538,2491.00
1784.393,2701.00
1785.246,2580.00
1786.101,2792.00
1786.954,2797.00
1787.808,2906.00
1788.661,2422.00
1789.516,2613.00
1790.370,2644.00
1791.223,2851.00
1792.077,2696.00
1792.930,2784.00
1793.784,2582.00
1794.636,2697.00
1795.490,2639.00
1796.344,2689.00
1797.196,2696.00
1798.049,2856.00
1798.901,2599.00
1799.755,2914.00
1800.606,2514.00
1801.460,3184.00
1802.311,2945.00
1803.165,3075.00
1804.018,3033.00
1804.869,2709.00
1805.722,3113.00
1806.573,2762.00
1807.426,2502.00
1808.276,2671.00
1809.129,2591.00
1809.980,2887.00
1810.832,2957.00
1811.683,2572.00
1812.535,3007.00
1813.385,2622.00
1814.237,2915.00
1815.089,2758.00
1815.940,2956.00
1816.791,2651.00
1817.641,2536.00
1818.493,2867.00
1819.343,2736.00
1820.194,2564.00
1821.044,2810.00
1821.895,2889.00
1822.745,2419.00
1823.596,2584.00
1824.445,3089.00
1825.296,2805.00
1826.145,2654.00
1826.996,2891.00
1827.845,2748.00
1828.695,2767.00
1829.544,2623.00
1830.395,2736.00
1831.243,2619.00
1832.094,2413.00
1832.942,3299.00
1833.792,2787.00
1834.640,2724.00
1835.490,2711.00
1836.338,2730.00
1837.186,2599.00
1838.036,2551.00
1838.884,2689.00
1839.733,3015.00
1840.581,2856.00
1841.430,2814.00
1842.278,3026.00
1843.127,2582.00
1843.974,2374.00
1844.823,3113.00
1845.671,2880.00
1846.519,2704.00
1847.366,2768.00
1848.213,2348.00
1849.062,2507.00
1849.909,2428.00
1850.757,3356.00
1851.604,2840.00
1852.452,2616.00
1853.298,2878.00
1854.146,2760.00
1854.993,2740.00
1855.839,3205.00
1856.687,2824.00
1857.532,2801.00
1858.380,2693.00
1859.226,2772.00
1860.073,2835.00
1860.919,2477.00
1861.765,2563.00
1862.612,2942.00
1863.457,2912.00
1864.304,2642.00
1865.150,2783.00
1865.995,2686.00
1866.842,2837.00
1867.686,2964.00
1868.533,2765.00
1869.378,2750.00
1870.223,2716.00
1871.069,2626.00
1871.914,2713.00
1872.760,2711.00
1873.604,2509.00
1874.448,2848.00
1875.294,2876.00
1876.139,2578.00
1876.984,2818.00
1877.828,2387.00
1878.672,2240.00
1879.518,2540.00
1880.361,2884.00
1881.205,2828.00
1882.050,2502.00
1882.894,3200.00
1883.739,2573.00
1884.582,2489.00
1885.425,2529.00
1886.270,2997.00
1887.113,2492.00
1887.956,2795.00
1888.801,2750.00
1889.644,2538.00
1890.486,2322.00
1891.331,2637.00
1892.173,2751.00
1893.017,2736.00
1893.860,2981.00
1894.702,3025.00
1895.546,2743.00
1896.388,3370.00
1897.230,3020.00
1898.074,2626.00
1898.916,2538.00
1899.757,2535.00
1900.601,3373.00
1901.443,2993.00
1902.284,2976.00
1903.125,3116.00
1903.969,2906.00
1904.810,2918.00
1905.651,2786.00
1906.494,3060.00
1907.335,3208.00
1908.176,2837.00
1909.018,2772.00
1909.859,2681.00
1910.700,2588.00
1911.542,3201.00
1912.383,2775.00
1913.223,2348.00
1914.064,2826.00
1914.906,2981.00
1915.746,3058.00
1916.586,3178.00
1917.428,2712.00
1918.268,2741.00
1919.107,2607.00
1919.947,2489.00
1920.789,2661.00
1921.628,2921.00
1922.468,2683.00
1923.309,2570.00
1924.148,3030.00
1924.988,2762.00
1925.827,2691.00
1926.667,2607.00
1927.507,2729.00
1928.345,2576.00
1929.184,2901.00
1930.025,2558.00
1930.864,2982.00
1931.702,3014.00
1932.541,2608.00
1933.381,2838.00
1934.219,2873.00
1935.057,3017.00
1935.896,2440.00
1936.735,2672.00
1937.573,2656.00
1938.411,2543.00
1939.249,2870.00
1940.089,2628.00
1940.927,3013.00
1941.764,2952.00
1942.602,2650.00
1943.439,2629.00
1944.278,2693.00
1945.115,2591.00
1945.953,2448.00
1946.790,2817.00
1947.628,3055.00
1948.465,2798.00
1949.302,2854.00
1950.139,2853.00
1950.976,2603.00
1951.814,2907.00
1952.651,2764.00
1953.487,2528.00
1954.323,2994.00
1955.160,2718.00
1955.998,3082.00
1956.834,2681.00
1957.670,2813.00
1958.506,2949.00
1959.342,2809.00
1960.177,2752.00
1961.015,2906.00
1961.850,2743.00
1962.686,2775.00
1963.521,2759.00
1964.357,2965.00
1965.192,2517.00
1966.029,2839.00
1966.864,2654.00
1967.699,2971.00
1968.534,2803.00
1969.369,3007.00
1970.204,2666.00
1971.040,2753.00
1971.875,2651.00
1972.709,2782.00
1973.544,2586.00
1974.378,2620.00
1975.212,2815.00
1976.047,2639.00
1976.882,2629.00
1977.716,3113.00
1978.550,2445.00
1979.384,2691.00
1980.218,2695.00
1981.052,2686.00
1981.885,2754.00
1982.719,2707.00
1983.554,2870.00
1984.388,3006.00
1985.221,2809.00
1986.054,2976.00
1986.887,2790.00
1987.720,2584.00
1988.553,3024.00
1989.386,2814.00
1990.219,2872.00
1991.053,3069.00
1991.886,2640.00
1992.719,2944.00
1993.551,2240.00
1994.383,2881.00
1995.216,2651.00
1996.048,2452.00
1996.880,2869.00
1997.712,2637.00
1998.544,2762.00
1999.376,2791.00
2000.208,3009.00
