RamanScope Measure Spectrum Data V3.72

<< MEASURE CONDITION >>
Exposure Type,Aver
Exposure Time [sec],15
Exposure Count,30
Measure Time,2023/07/05 09:44:32
Data Name,""
Data Comment,""
Rayleigh Wave[nm],532.0

<< SAMPLE SPECTRUM >>
Wave[dcm-1],No323
146.591,470.33
147.626,527.90
148.664,654.87
149.699,758.43
150.737,824.37
151.772,961.97
152.809,1000.93
153.846,1136.70
154.881,1193.60
155.918,1271.23
156.953,1341.07
157.989,1413.80
159.026,1429.47
160.060,1480.70
161.096,1525.97
162.130,1539.43
163.167,1590.73
164.200,1621.90
165.236,1615.70
166.272,1642.87
167.305,1694.37
168.341,1710.27
169.374,1724.77
170.409,1779.93
171.445,1787.73
172.477,1811.83
173.512,1841.37
174.545,1899.80
175.580,1899.07
176.614,1906.07
177.647,1913.83
178.681,1960.67
179.713,1894.83
180.747,1954.90
181.781,1945.23
182.813,1916.90
183.847,1947.63
184.878,1986.90
185.912,1991.73
186.945,1998.53
187.976,1972.27
189.010,2017.33
190.043,2044.17
191.073,2077.83
192.106,2119.33
193.137,2160.73
194.170,2195.97
195.202,2238.17
196.232,2267.53
197.265,2317.37
198.297,2362.40
199.327,2404.77
200.359,2495.97
201.388,2534.40
202.420,2574.97
203.452,2671.33
204.481,2764.33
205.512,2842.33
206.544,2946.77
207.573,3030.50
208.604,3216.90
209.635,3388.20
210.663,3551.93
211.694,3766.43
212.725,3939.67
213.753,4178.00
214.783,4412.97
215.813,4613.63
216.841,4792.43
217.871,4969.03
218.899,5044.10
219.929,5162.40
220.959,5160.13
221.986,5101.43
223.016,4902.90
224.045,4753.60
225.072,4555.67
226.101,4389.67
227.130,4101.00
228.157,3940.23
229.185,3759.87
230.214,3658.47
231.241,3469.30
232.269,3370.17
233.297,3268.97
234.323,3203.73
235.351,3145.03
236.379,3100.70
237.407,3006.57
238.433,2934.03
239.460,2901.83
240.488,2919.73
241.513,2885.80
242.540,2891.13
243.568,2895.17
244.592,2919.63
245.619,2928.73
246.646,2926.30
247.671,2919.47
248.697,2912.50
249.724,2961.50
250.748,2963.13
251.774,2959.70
252.801,2990.50
253.827,3040.97
254.850,3053.30
255.876,3098.97
256.902,3152.00
257.925,3168.00
258.951,3206.80
259.976,3247.67
260.999,3331.17
262.024,3350.77
263.049,3418.03
264.074,3508.93
265.097,3583.80
266.122,3684.83
267.146,3754.87
268.168,3829.80
269.193,3902.07
270.217,4051.37
271.241,4070.33
272.263,4146.10
273.287,4184.97
274.311,4278.17
275.332,4340.40
276.356,4407.43
277.379,4396.47
278.402,4389.23
279.424,4384.40
280.447,4413.43
281.470,4413.53
282.492,4301.40
283.513,4235.43
284.536,4173.93
285.558,4092.80
286.581,4076.73
287.601,3959.77
288.623,3851.37
289.645,3780.47
290.665,3672.63
291.687,3599.67
292.709,3471.27
293.730,3389.43
294.750,3325.40
295.771,3213.17
296.792,3174.43
297.813,3095.50
298.832,2983.27
299.853,2919.73
300.874,2860.90
301.895,2779.97
302.913,2725.13
303.934,2634.07
304.954,2591.83
305.975,2741.70
306.993,2494.47
308.013,2491.77
309.033,2424.93
310.052,2377.93
311.072,2329.03
312.090,2298.13
313.109,2285.57
314.129,2278.47
315.148,2212.40
316.165,2211.53
317.184,2186.00
318.203,2132.67
319.222,2105.03
320.238,2095.20
321.257,2100.37
322.275,2071.60
323.294,2071.70
324.312,2082.57
325.328,2017.80
326.346,2017.67
327.364,2034.53
328.382,1971.80
329.397,1967.00
330.415,2024.03
331.432,1965.17
332.450,1997.80
333.467,1984.13
334.482,1962.03
335.499,1978.47
336.516,1938.57
337.533,1947.23
338.547,1935.37
339.564,1932.30
340.580,1949.43
341.597,1949.17
342.613,1955.37
343.627,1955.37
344.643,1927.27
345.659,1949.83
346.675,1918.53
347.690,1912.73
348.704,1976.13
349.719,1933.50
350.735,1938.93
351.750,1988.53
352.765,1929.50
353.778,1995.87
354.793,1958.13
355.808,2001.67
356.822,1968.57
357.837,1980.40
358.851,2045.00
359.864,2003.13
360.878,2027.13
361.892,2068.17
362.906,2052.70
363.920,2040.17
364.932,2079.33
365.945,2041.87
366.959,2068.20
367.972,2098.83
368.986,2101.50
369.999,2130.07
371.010,2145.87
372.023,2142.70
373.036,2132.33
374.049,2154.80
375.061,2179.13
376.072,2216.40
377.084,2211.47
378.097,2235.57
379.109,2240.00
380.121,2252.40
381.133,2295.50
382.143,2288.23
383.155,2284.40
384.166,2307.50
385.178,2307.57
386.189,2315.40
387.201,2302.13
388.212,2309.33
389.221,2256.70
390.232,2300.53
391.243,2296.53
392.254,2230.17
393.264,2258.37
394.275,2256.17
395.283,2254.10
396.294,2205.77
397.304,2217.20
398.314,2187.03
399.324,2156.90
400.334,2160.07
401.344,2143.30
402.351,2109.83
403.361,2117.97
404.370,2093.77
405.380,2083.90
406.389,2013.07
407.398,1989.40
408.407,2010.70
409.414,2046.57
410.423,1945.17
411.431,1919.43
412.440,1923.50
413.448,1883.03
414.457,1915.67
415.465,1895.10
416.471,1879.50
417.479,1829.97
418.487,1799.93
419.495,1831.73
420.503,1780.40
421.510,1759.37
422.518,1780.53
423.525,1752.70
424.530,1761.40
425.537,1724.33
426.544,1794.20
427.551,1760.17
428.558,1712.97
429.565,1735.50
430.571,1742.40
431.578,1740.30
432.582,1711.10
433.588,1705.10
434.595,1681.20
435.601,1702.20
436.607,1673.87
437.612,1731.90
438.618,1673.03
439.624,1682.20
440.627,1680.47
441.633,1680.40
442.638,1669.57
443.643,1720.13
444.648,1682.47
445.653,1725.17
446.658,1707.77
447.663,1687.27
448.667,1666.87
449.672,1693.30
450.674,1733.13
451.678,1684.53
452.682,1716.87
453.687,1644.63
454.690,1679.50
455.694,1679.47
456.698,1709.40
457.702,1705.80
458.705,1727.23
459.709,1698.13
460.710,1687.27
461.713,1717.83
462.716,1753.63
463.719,1710.50
464.722,1687.97
465.725,1728.97
466.727,1782.70
467.730,1704.13
468.732,1732.03
469.735,1730.23
470.737,1748.43
471.737,1714.80
472.739,1749.77
473.741,1741.63
474.742,1768.70
475.744,1737.37
476.746,1755.83
477.747,1758.17
478.748,1762.20
479.750,1748.67
480.751,1739.37
481.752,1754.80
482.753,1732.67
483.751,1726.73
484.752,1756.00
485.753,1737.40
486.753,1802.10
487.753,1746.57
488.754,1759.97
489.754,1756.13
490.754,1743.87
491.754,1713.80
492.754,1789.27
493.753,1741.37
494.753,1766.43
495.752,1713.17
496.752,1731.03
497.749,1721.53
498.748,1715.93
499.747,1654.07
500.746,1708.57
501.745,1724.37
502.744,1702.23
503.742,1704.70
504.741,1697.03
505.739,1711.07
506.737,1667.50
507.735,1681.63
508.734,1693.20
509.732,1661.83
510.729,1615.37
511.727,1655.23
512.725,1666.67
513.720,1676.40
514.718,1700.30
515.715,1634.80
516.712,1668.07
517.709,1659.77
518.706,1681.77
519.703,1647.43
520.700,1670.00
521.696,1660.60
522.693,1665.17
523.689,1663.00
524.686,1652.40
525.682,1674.07
526.678,1646.50
527.674,1667.90
528.670,1694.23
529.666,1625.73
530.661,1651.63
531.657,1661.53
532.652,1653.43
533.648,1661.97
534.641,1679.70
535.636,1690.07
536.631,1700.80
537.626,1678.37
538.621,1703.93
539.616,1705.97
540.610,1693.90
541.605,1699.40
542.599,1675.47
543.593,1725.27
544.587,1736.83
545.581,1706.60
546.575,1710.73
547.569,1715.80
548.563,1720.87
549.557,1694.87
550.550,1724.00
551.543,1736.03
552.537,1736.30
553.530,1768.23
554.523,1775.97
555.516,1752.27
556.509,1733.77
557.502,1744.33
558.494,1769.63
559.487,1776.07
560.479,1801.53
561.472,1796.83
562.464,1795.50
563.456,1756.60
564.448,1795.33
565.440,1798.73
566.432,1816.67
567.423,1809.27
568.415,1766.40
569.404,1825.17
570.396,1832.73
571.387,1848.47
572.378,1866.50
573.369,1853.87
574.360,1848.27
575.351,1872.10
576.341,1875.23
577.332,1891.10
578.323,1866.07
579.313,1874.73
580.303,1884.90
581.293,1864.70
582.283,1907.33
583.273,1887.87
584.263,1891.17
585.253,1893.80
586.243,1899.23
587.232,1857.40
588.222,1896.87
589.211,1880.57
590.200,1892.67
591.189,1880.60
592.178,1830.70
593.167,1833.53
594.156,1850.97
595.145,1832.83
596.133,1802.73
597.122,1838.27
598.110,1827.83
599.098,1805.00
600.086,1808.83
601.074,1781.93
602.062,1770.23
603.050,1791.57
604.038,1748.13
605.025,1747.33
606.013,1770.53
607.000,1744.40
607.987,1700.40
608.975,1724.57
609.962,1676.20
610.949,1721.70
611.936,1686.30
612.922,1695.67
613.909,1672.53
614.895,1642.70
615.882,1633.47
616.868,1655.03
617.854,1668.63
618.841,1652.90
619.826,1632.20
620.812,1611.70
621.798,1648.30
622.784,1635.43
623.769,1599.97
624.755,1577.47
625.740,1568.23
626.725,1590.67
627.711,1584.70
628.698,1540.17
629.683,1516.87
630.667,1545.57
631.652,1525.57
632.637,1510.20
633.621,1541.40
634.606,1492.10
635.590,1486.30
636.574,1526.37
637.558,1517.70
638.542,1476.83
639.526,1476.67
640.510,1465.50
641.493,1458.53
642.477,1470.97
643.460,1494.93
644.444,1427.07
645.427,1460.13
646.410,1395.17
647.393,1457.23
648.376,1412.90
649.359,1410.63
650.341,1398.60
651.324,1402.77
652.307,1398.13
653.289,1426.50
654.271,1381.03
655.253,1433.37
656.235,1365.93
657.217,1368.03
658.199,1382.97
659.181,1387.50
660.163,1398.33
661.144,1355.60
662.126,1364.40
663.107,1375.97
664.088,1348.27
665.069,1365.97
666.050,1363.03
667.033,1312.10
668.014,1296.37
668.995,1333.17
669.975,1317.10
670.956,1334.27
671.936,1310.73
672.916,1268.20
673.896,1308.30
674.876,1327.60
675.856,1255.70
676.836,1291.57
677.816,1287.03
678.795,1258.27
679.775,1243.27
680.754,1262.83
681.734,1272.23
682.713,1213.50
683.692,1229.53
684.671,1245.77
685.650,1234.10
686.629,1233.53
687.607,1192.87
688.586,1189.50
689.564,1215.30
690.543,1186.23
691.523,1184.27
692.501,1188.20
693.479,1215.60
694.457,1202.23
695.435,1164.73
696.413,1205.27
697.390,1139.10
698.368,1187.83
699.345,1168.93
700.322,1180.20
701.300,1174.53
702.277,1140.37
703.254,1168.80
704.231,1195.20
705.207,1165.53
706.184,1166.23
707.161,1151.97
708.137,1128.33
709.113,1158.00
710.090,1124.93
711.068,1131.33
712.044,1138.80
713.020,1153.17
713.996,1147.10
714.971,1126.10
715.947,1173.17
716.922,1152.83
717.898,1093.77
718.873,1129.67
719.848,1091.10
720.823,1120.97
721.798,1118.63
722.773,1115.00
723.748,1079.70
724.723,1115.50
725.697,1112.60
726.672,1118.47
727.646,1116.50
728.622,1068.67
729.596,1090.33
730.570,1105.33
731.544,1109.10
732.518,1055.07
733.492,1123.60
734.466,1083.57
735.439,1097.40
736.413,1074.80
737.386,1098.60
738.359,1109.83
739.332,1104.90
740.305,1089.70
741.278,1126.33
742.251,1131.80
743.224,1067.83
744.196,1048.30
745.171,1038.90
746.143,1043.20
747.115,1060.70
748.087,1075.73
749.059,1086.70
750.031,1059.43
751.003,1080.80
751.975,1045.87
752.947,1054.70
753.918,1057.53
754.890,1067.13
755.861,1048.07
756.832,1090.53
757.803,1032.93
758.774,1059.97
759.747,1054.60
760.718,1032.00
761.689,1062.97
762.659,1034.37
763.630,1050.03
764.600,1037.87
765.570,983.63
766.540,1018.43
767.510,1050.17
768.480,1001.20
769.450,1035.00
770.420,1060.70
771.390,1010.03
772.359,1024.67
773.329,1008.67
774.300,1017.93
775.269,1040.00
776.238,1014.13
777.207,1029.17
778.176,1014.60
779.145,1015.20
780.114,1014.03
781.083,1007.87
782.051,1014.93
783.019,1024.20
783.988,1040.20
784.956,1035.07
785.924,990.70
786.894,1005.97
787.862,1036.57
788.830,1017.03
789.797,999.53
790.765,1025.13
791.732,980.07
792.700,1036.53
793.667,971.47
794.634,989.77
795.601,1006.43
796.568,974.47
797.535,956.70
798.502,971.43
799.468,977.67
800.437,1017.83
801.403,990.07
802.370,1001.00
803.336,980.10
804.302,935.70
805.268,952.53
806.234,973.03
807.200,977.63
808.166,978.67
809.131,964.50
810.097,933.40
811.062,945.70
812.027,985.67
812.994,951.83
813.960,971.83
814.925,964.33
815.889,941.43
816.854,944.23
817.819,960.87
818.783,907.67
819.748,955.67
820.712,955.73
821.677,948.37
822.641,925.63
823.605,968.93
824.571,911.47
825.534,952.90
826.498,958.20
827.462,975.97
828.425,928.00
829.389,935.73
830.352,944.67
831.315,950.37
832.279,949.27
833.242,925.23
834.204,912.30
835.167,928.30
836.132,932.77
837.095,923.33
838.057,906.47
839.020,929.90
839.982,931.30
840.944,904.17
841.906,931.63
842.868,883.70
843.830,912.50
844.792,910.43
845.753,892.20
846.715,902.40
847.679,897.63
848.640,940.20
849.601,953.23
850.562,962.70
851.523,919.97
852.484,913.30
853.445,902.43
854.406,899.90
855.367,927.60
856.327,893.30
857.288,910.60
858.248,920.50
859.210,863.67
860.170,890.90
861.130,920.57
862.090,885.13
863.050,896.20
864.010,898.47
864.969,901.70
865.929,861.97
866.888,874.97
867.848,881.87
868.807,890.80
869.766,869.83
870.727,890.27
871.686,899.23
872.645,875.03
873.604,898.37
874.562,890.53
875.521,930.27
876.479,863.93
877.437,868.50
878.396,850.10
879.354,890.80
880.312,849.40
881.270,868.03
882.229,877.83
883.187,860.27
884.145,871.80
885.102,866.53
886.059,898.47
887.017,922.87
887.974,852.80
888.931,869.23
889.888,885.57
890.845,882.37
891.802,890.43
892.758,887.97
893.717,892.73
894.673,827.37
895.630,894.27
896.586,870.17
897.542,882.87
898.498,881.47
899.454,891.63
900.410,851.27
901.366,902.83
902.321,854.60
903.277,840.20
904.232,859.17
905.189,874.10
906.145,881.30
907.100,853.57
908.055,875.77
909.010,845.97
909.965,851.90
910.919,869.50
911.874,862.57
912.828,861.87
913.783,826.07
914.737,894.13
915.693,833.90
916.648,855.30
917.602,877.53
918.555,837.07
919.509,831.10
920.463,893.43
921.417,884.20
922.370,830.23
923.324,840.47
924.277,841.80
925.230,873.80
926.183,893.07
927.138,876.80
928.091,870.43
929.044,865.23
929.996,880.57
930.949,877.47
931.902,877.60
932.854,888.47
933.806,905.30
934.758,858.83
935.711,900.90
936.663,854.03
937.614,861.30
938.568,879.90
939.520,841.53
940.471,862.53
941.423,871.37
942.374,860.40
943.326,893.70
944.277,868.93
945.228,900.27
946.179,860.13
947.130,865.87
948.080,886.47
949.031,853.33
949.984,829.80
950.934,869.20
951.884,867.03
952.835,844.17
953.785,846.17
954.735,848.10
955.685,869.90
956.635,867.57
957.585,874.73
958.534,860.27
959.484,859.73
960.433,875.43
961.383,852.43
962.334,871.30
963.283,865.83
964.232,819.83
965.181,837.93
966.130,877.03
967.079,886.47
968.027,867.67
968.976,828.17
969.924,854.33
970.873,812.33
971.821,852.43
972.769,846.93
973.719,858.87
974.667,868.83
975.615,864.83
976.562,866.23
977.510,851.40
978.458,849.00
979.405,867.07
980.352,863.77
981.300,892.67
982.247,872.20
983.194,879.23
984.141,861.97
985.088,890.37
986.036,873.80
986.983,849.47
987.930,871.20
988.876,844.93
989.822,889.17
990.769,845.60
991.715,861.60
992.661,846.73
993.607,853.80
994.553,880.60
995.498,862.23
996.444,834.07
997.389,850.27
998.337,873.80
999.282,868.97
1000.227,867.90
1001.173,881.27
1002.118,888.70
1003.062,852.77
1004.007,863.70
1004.952,888.63
1005.897,849.50
1006.841,857.60
1007.786,903.80
1008.730,841.87
1009.674,866.00
1010.618,871.60
1011.564,883.00
1012.508,834.27
1013.452,851.90
1014.396,871.73
1015.339,867.73
1016.283,868.90
1017.226,866.73
1018.170,887.80
1019.113,876.80
1020.056,909.67
1020.999,877.07
1021.942,868.47
1022.885,876.97
1023.828,882.23
1024.770,880.67
1025.715,908.20
1026.657,880.40
1027.600,934.23
1028.542,857.57
1029.484,905.03
1030.426,893.57
1031.368,875.83
1032.310,887.83
1033.251,875.90
1034.193,918.23
1035.135,879.03
1036.076,890.23
1037.017,901.00
1037.959,887.70
1038.900,913.90
1039.843,882.43
1040.784,946.77
1041.725,887.50
1042.665,885.23
1043.606,894.43
1044.547,864.43
1045.487,893.10
1046.427,893.80
1047.368,878.13
1048.308,928.30
1049.248,920.67
1050.188,896.20
1051.128,900.13
1052.067,926.50
1053.007,904.70
1053.947,886.83
1054.886,889.80
1055.827,919.47
1056.766,913.93
1057.706,907.90
1058.645,932.83
1059.584,947.77
1060.522,945.03
1061.461,914.53
1062.400,894.93
1063.338,936.67
1064.277,926.63
1065.215,918.57
1066.154,921.03
1067.092,925.47
1068.030,968.13
1068.968,943.13
1069.906,946.00
1070.843,921.67
1071.781,921.03
1072.720,954.60
1073.658,938.33
1074.595,971.57
1075.533,939.17
1076.470,938.63
1077.407,953.00
1078.344,959.63
1079.281,962.17
1080.217,992.47
1081.154,955.53
1082.091,970.20
1083.027,949.97
1083.964,936.77
1084.900,970.40
1085.836,979.97
1086.772,952.17
1087.708,950.77
1088.644,969.53
1089.580,958.60
1090.515,967.17
1091.451,975.47
1092.388,941.13
1093.324,975.57
1094.259,933.13
1095.194,970.10
1096.129,932.57
1097.064,960.13
1097.999,928.47
1098.934,931.00
1099.869,969.70
1100.803,945.73
1101.738,962.50
1102.672,919.40
1103.607,916.40
1104.541,941.97
1105.475,952.67
1106.409,983.83
1107.343,924.87
1108.277,932.20
1109.210,954.20
1110.144,915.63
1111.078,961.30
1112.011,933.33
1112.944,897.77
1113.878,927.93
1114.811,928.80
1115.744,939.90
1116.678,954.03
1117.611,910.53
1118.544,922.40
1119.477,916.33
1120.409,916.27
1121.342,948.93
1122.274,884.20
1123.206,902.03
1124.138,929.87
1125.070,910.90
1126.002,920.17
1126.934,905.20
1127.866,917.00
1128.798,940.63
1129.729,889.43
1130.661,885.07
1131.592,898.77
1132.523,889.50
1133.454,903.30
1134.385,891.80
1135.317,872.97
1136.247,898.27
1137.178,892.07
1138.109,884.30
1139.039,885.37
1139.970,903.23
1140.900,900.43
1141.831,903.10
1142.761,865.70
1143.691,907.63
1144.621,883.77
1145.551,914.43
1146.480,878.13
1147.410,902.63
1148.340,910.20
1149.269,883.90
1150.199,869.83
1151.128,878.20
1152.057,905.47
1152.979,875.73
1153.898,898.33
1154.819,888.37
1155.739,918.37
1156.658,851.57
1157.579,913.43
1158.498,859.47
1159.419,871.30
1160.338,819.43
1161.256,875.30
1162.177,888.00
1163.095,857.13
1164.016,857.60
1164.934,887.70
1165.852,920.37
1166.772,859.37
1167.690,899.53
1168.610,884.60
1169.528,888.30
1170.446,898.23
1171.365,870.47
1172.283,901.93
1173.202,895.33
1174.120,887.60
1175.037,926.13
1175.956,868.60
1176.873,886.87
1177.792,918.23
1178.709,895.77
1179.626,848.77
1180.544,895.93
1181.461,859.50
1182.379,889.20
1183.296,896.90
1184.212,878.67
1185.130,909.60
1186.046,904.17
1186.962,895.67
1187.880,901.37
1188.796,896.20
1189.714,909.30
1190.629,868.43
1191.545,867.67
1192.462,914.53
1193.378,881.33
1194.295,863.93
1195.210,914.87
1196.125,923.13
1197.042,918.73
1197.957,904.47
1198.872,861.07
1199.788,901.27
1200.703,914.70
1201.619,906.83
1202.534,945.90
1203.448,930.10
1204.364,875.73
1205.278,893.23
1206.192,910.13
1207.108,917.00
1208.022,935.70
1208.938,955.63
1209.851,904.20
1210.765,939.47
1211.680,923.50
1212.594,926.63
1213.507,928.90
1214.422,952.03
1215.335,931.77
1216.248,905.03
1217.163,939.70
1218.076,921.23
1218.990,933.83
1219.903,966.17
1220.816,978.57
1221.730,943.23
1222.642,937.77
1223.554,934.27
1224.469,924.73
1225.380,1012.20
1226.292,963.63
1227.206,990.40
1228.118,955.97
1229.032,947.23
1229.943,932.47
1230.855,960.40
1231.768,957.80
1232.679,965.33
1233.590,948.73
1234.503,989.97
1235.414,958.43
1236.325,966.57
1237.238,944.73
1238.149,986.67
1239.059,968.47
1239.972,975.83
1240.882,985.77
1241.793,968.90
1242.705,992.07
1243.615,954.80
1244.525,992.20
1245.437,956.37
1246.347,1020.27
1247.259,973.47
1248.168,1005.23
1249.078,978.70
1249.989,1013.80
1250.899,994.13
1251.808,999.20
1252.719,1003.53
1253.628,1043.33
1254.537,1009.47
1255.448,1001.53
1256.357,978.73
1257.266,988.30
1258.176,997.90
1259.085,1016.97
1259.993,1030.17
1260.904,1001.97
1261.812,1043.43
1262.720,1036.40
1263.630,996.93
1264.538,1011.07
1265.446,1025.73
1266.356,1023.33
1267.263,1034.33
1268.171,1024.57
1269.080,1030.87
1269.988,1007.93
1270.895,1014.13
1271.804,1049.83
1272.711,1023.87
1273.619,1026.60
1274.527,1017.57
1275.434,1024.47
1276.341,995.47
1277.248,1017.97
1278.156,998.00
1279.063,1012.87
1279.969,1011.33
1280.877,990.77
1281.783,972.37
1282.690,1014.03
1283.598,1017.80
1284.503,1034.67
1285.409,1037.37
1286.317,958.47
1287.223,1015.33
1288.128,979.23
1289.036,1001.33
1289.941,986.87
1290.846,1021.67
1291.751,975.60
1292.658,1006.33
1293.563,1028.80
1294.468,984.97
1295.375,976.33
1296.280,991.27
1297.184,1007.67
1298.091,926.80
1298.995,993.07
1299.900,980.63
1300.806,972.13
1301.710,955.13
1302.614,924.90
1303.518,971.23
1304.424,949.03
1305.327,953.33
1306.231,937.90
1307.137,933.17
1308.040,914.43
1308.943,923.23
1309.847,944.37
1310.752,906.80
1311.655,925.77
1312.558,886.43
1313.463,897.33
1314.366,878.30
1315.269,903.70
1316.171,888.27
1317.076,891.00
1317.978,934.23
1318.881,868.87
1319.785,857.33
1320.687,872.17
1321.589,893.47
1322.491,852.43
1323.395,849.23
1324.297,891.53
1325.198,866.33
1326.102,887.27
1327.004,895.57
1327.905,873.00
1328.806,839.37
1329.709,836.20
1330.611,870.83
1331.512,883.47
1332.413,871.30
1333.316,816.10
1334.216,857.77
1335.117,815.73
1336.020,813.17
1336.920,834.40
1337.821,811.97
1338.721,802.43
1339.623,795.33
1340.523,803.20
1341.423,791.57
1342.323,811.53
1343.225,809.57
1344.125,800.90
1345.025,776.70
1345.924,785.67
1346.826,799.43
1347.725,740.23
1348.624,787.80
1349.524,826.80
1350.425,783.17
1351.324,763.77
1352.223,788.67
1353.121,764.93
1354.022,746.63
1354.921,757.90
1355.819,767.97
1356.718,760.13
1357.618,735.83
1358.516,768.00
1359.415,750.33
1360.313,718.53
1361.213,746.63
1362.111,711.47
1363.008,695.27
1363.906,723.60
1364.806,751.47
1365.703,745.57
1366.601,715.43
1367.498,726.37
1368.397,730.70
1369.295,740.80
1370.192,737.67
1371.089,738.90
1371.987,713.87
1372.884,692.83
1373.781,718.73
1374.678,702.00
1375.574,702.63
1376.473,718.90
1377.369,718.77
1378.265,704.27
1379.161,695.83
1380.059,682.53
1380.955,724.07
1381.851,709.70
1382.747,691.27
1383.643,667.10
1384.540,692.23
1385.436,708.60
1386.331,653.43
1387.227,718.37
1388.124,710.63
1389.019,706.67
1389.914,668.07
1390.809,683.27
1391.704,640.07
1392.601,654.53
1393.495,669.83
1394.390,656.00
1395.285,672.77
1396.179,650.10
1397.075,665.60
1397.969,605.20
1398.864,668.27
1399.758,669.17
1400.652,660.00
1401.547,650.90
1402.441,654.17
1403.335,631.53
1404.229,664.20
1405.122,638.70
1406.017,624.97
1406.911,668.30
1407.804,652.50
1408.697,639.93
1409.590,649.53
1410.485,642.53
1411.378,632.13
1412.271,622.27
1413.163,661.73
1414.056,620.33
1414.949,671.00
1415.843,616.57
1416.735,600.80
1417.627,615.43
1418.520,615.87
1419.412,644.93
1420.306,606.97
1421.197,613.53
1422.089,638.10
1422.981,641.57
1423.873,585.83
1424.764,603.80
1425.657,634.03
1426.549,631.03
1427.440,636.83
1428.331,641.27
1429.222,611.93
1430.113,622.40
1431.006,598.27
1431.897,600.87
1432.787,612.53
1433.678,620.60
1434.568,634.00
1435.459,636.87
1436.351,596.27
1437.241,602.67
1438.131,603.97
1439.021,607.33
1439.911,589.10
1440.801,601.83
1441.693,584.67
1442.583,564.13
1443.472,591.77
1444.362,571.77
1445.251,602.83
1446.140,585.87
1447.030,597.63
1447.921,600.07
1448.810,582.43
1449.699,596.60
1450.588,609.60
1451.476,592.03
1452.365,598.73
1453.254,571.13
1454.144,593.03
1455.032,561.93
1455.921,583.00
1456.809,583.23
1457.697,582.27
1458.585,557.80
1459.473,584.63
1460.361,578.57
1461.251,568.07
1462.138,549.67
1463.026,590.87
1463.913,552.27
1464.801,581.47
1465.688,566.83
1466.575,565.43
1467.463,579.37
1468.351,534.57
1469.238,569.13
1470.125,568.37
1471.012,542.33
1471.899,608.20
1472.785,577.50
1473.672,568.83
1474.558,550.00
1475.446,585.50
1476.333,565.93
1477.219,558.27
1478.105,609.90
1478.991,597.03
1479.877,573.80
1480.762,550.63
1481.648,548.67
1482.534,530.77
1483.419,575.97
1484.307,598.93
1485.192,530.90
1486.077,570.30
1486.962,545.40
1487.847,535.00
1488.732,524.73
1489.617,558.57
1490.502,621.77
1491.387,515.47
1492.271,550.47
1493.156,543.17
1494.042,561.13
1494.927,544.43
1495.811,564.60
1496.695,555.40
1497.579,531.00
1498.463,559.13
1499.347,526.33
1500.231,536.03
1501.114,563.50
1501.998,550.07
1502.881,544.00
1503.765,566.23
1504.648,547.63
1505.533,549.23
1506.417,527.63
1507.300,545.67
1508.183,541.60
1509.066,512.63
1509.948,558.07
1510.831,581.93
1511.714,516.27
1512.596,529.17
1513.479,563.73
1514.361,517.87
1515.243,576.67
1516.125,517.13
1517.008,569.23
1517.890,509.60
1518.771,544.60
1519.655,533.10
1520.537,524.80
1521.419,513.27
1522.300,505.53
1523.182,558.70
1524.063,487.73
1524.944,547.33
1525.825,549.67
1526.707,521.10
1527.588,517.10
1528.468,516.63
1529.349,541.50
1530.230,548.97
1531.111,538.73
1531.991,516.57
1532.872,519.77
1533.752,516.87
1534.632,541.07
1535.513,530.03
1536.393,556.67
1537.273,546.93
1538.153,547.37
1539.032,497.03
1539.912,512.07
1540.792,519.57
1541.672,522.80
1542.551,553.40
1543.430,542.90
1544.310,509.60
1545.189,536.90
1546.068,486.17
1546.947,515.73
1547.826,535.50
1548.705,535.20
1549.584,530.37
1550.462,491.67
1551.341,553.70
1552.219,538.33
1553.098,520.33
1553.976,510.13
1554.854,484.37
1555.733,499.87
1556.611,521.93
1557.489,518.13
1558.367,512.73
1559.244,502.47
1560.122,508.43
1561.000,497.17
1561.877,496.80
1562.755,527.13
1563.632,540.77
1564.509,529.73
1565.386,475.17
1566.264,525.30
1567.141,503.03
1568.017,515.67
1568.894,516.63
1569.771,495.67
1570.648,517.60
1571.524,532.47
1572.401,503.87
1573.277,477.83
1574.153,546.07
1575.029,490.20
1575.906,499.70
1576.781,469.77
1577.657,512.87
1578.533,527.70
1579.409,494.30
1580.285,491.13
1581.160,498.97
1582.036,481.47
1582.911,477.97
1583.786,529.43
1584.662,523.53
1585.537,486.07
1586.412,509.77
1587.287,514.83
1588.160,516.63
1589.035,489.80
1589.909,455.83
1590.784,487.40
1591.658,498.60
1592.533,467.90
1593.407,481.00
1594.281,514.33
1595.155,486.00
1596.029,482.47
1596.903,457.80
1597.777,463.63
1598.651,472.77
1599.525,474.47
1600.398,507.93
1601.272,455.53
1602.144,495.40
1603.017,479.37
1603.890,502.00
1604.763,477.77
1605.636,509.87
1606.509,477.07
1607.382,489.43
1608.255,497.70
1609.128,520.57
1610.000,552.33
1610.873,489.37
1611.746,495.87
1612.616,522.00
1613.488,495.57
1614.361,489.97
1615.233,526.33
1616.105,355.63
1616.977,490.30
1617.849,511.80
1618.720,483.03
1619.592,511.87
1620.464,483.63
1621.333,484.43
1622.205,512.93
1623.076,494.97
1623.947,511.70
1624.818,529.97
1625.689,478.70
1626.560,504.47
1627.431,530.10
1628.302,441.17
1629.171,461.77
1630.042,486.73
1630.912,252.33
1631.782,528.43
1632.653,485.63
1633.523,454.20
1634.393,468.17
1635.263,440.40
1636.131,483.03
1637.001,471.90
1637.871,528.77
1638.741,493.47
1639.611,505.83
1640.480,525.27
1641.350,486.87
1642.219,493.80
1643.087,485.63
1643.956,502.47
1644.825,460.70
1645.694,485.27
1646.563,502.17
1647.432,511.87
1648.299,523.00
1649.167,495.73
1650.036,492.90
1650.904,490.97
1651.773,526.73
1652.641,482.57
1653.509,494.33
1654.376,493.70
1655.244,473.70
1656.112,457.03
1656.980,498.57
1657.847,475.73
1658.715,517.47
1659.581,481.07
1660.448,458.27
1661.316,488.10
1662.183,466.73
1663.051,457.00
1663.918,472.70
1664.783,455.37
1665.650,475.13
1666.517,462.73
1667.384,448.97
1668.251,471.10
1669.115,486.53
1669.982,471.83
1670.849,488.77
1671.715,467.63
1672.581,467.27
1673.446,465.70
1674.312,454.07
1675.178,500.27
1676.044,469.27
1676.910,492.37
1677.774,485.37
1678.639,460.83
1679.505,478.57
1680.370,502.37
1681.236,461.70
1682.099,454.77
1682.965,469.20
1683.830,489.23
1684.695,455.23
1685.560,492.83
1686.423,436.87
1687.288,474.90
1688.153,472.17
1689.017,462.50
1689.880,470.27
1690.745,487.30
1691.609,481.60
1692.473,452.97
1693.338,441.20
1694.200,426.13
1695.064,413.00
1695.928,475.87
1696.792,452.07
1697.654,484.80
1698.517,468.03
1699.381,414.70
1700.245,457.10
1701.106,445.00
1701.969,435.20
1702.833,474.67
1703.696,427.57
1704.557,489.47
1705.420,455.90
1706.283,457.93
1707.146,473.83
1708.007,493.50
1708.870,450.63
1709.732,466.33
1710.595,441.47
1711.455,477.83
1712.318,456.10
1713.180,471.33
1714.040,482.27
1714.902,487.03
1715.764,476.73
1716.626,436.33
1717.486,466.70
1718.348,476.60
1719.209,317.87
1720.071,472.67
1720.930,462.37
1721.792,468.63
1722.653,475.47
1723.512,453.77
1724.374,457.77
1725.234,478.17
1726.095,459.63
1726.954,469.93
1727.815,458.63
1728.676,446.87
1729.535,454.97
1730.395,448.47
1731.256,468.47
1732.114,441.70
1732.974,474.57
1733.834,475.17
1734.693,437.10
1735.553,459.50
1736.413,451.20
1737.272,473.63
1738.130,431.83
1738.990,440.03
1739.849,478.23
1740.707,466.37
1741.566,442.70
1742.426,467.40
1743.283,484.27
1744.142,445.50
1745.001,441.23
1745.858,469.37
1746.717,467.87
1747.576,433.40
1748.433,484.63
1749.292,441.10
1750.150,471.73
1751.007,433.93
1751.865,471.63
1752.723,495.33
1753.579,463.10
1754.438,427.33
1755.296,449.57
1756.152,460.87
1757.010,448.57
1757.865,451.70
1758.723,472.90
1759.581,469.93
1760.436,457.67
1761.294,423.80
1762.151,478.30
1763.006,442.77
1763.864,454.67
1764.721,488.57
1765.576,410.00
1766.433,497.63
1767.288,439.93
1768.144,451.53
1769.001,471.03
1769.856,461.30
1770.712,495.77
1771.568,448.63
1772.423,472.17
1773.279,473.67
1774.133,437.63
1774.989,466.67
1775.845,479.87
1776.699,465.00
1777.555,429.73
1778.409,459.30
1779.265,428.70
1780.120,474.70
1780.974,465.83
1781.829,446.57
1782.682,448.17
1783.538,456.40
1784.393,433.33
1785.246,453.97
1786.101,465.23
1786.954,426.93
1787.808,475.60
1788.661,458.03
1789.516,461.87
1790.370,463.23
1791.223,488.67
1792.077,464.70
1792.930,441.40
1793.784,432.03
1794.636,489.30
1795.490,444.63
1796.344,437.63
1797.196,456.43
1798.049,449.43
1798.901,435.57
1799.755,434.33
1800.606,402.40
1801.460,473.47
1802.311,458.10
1803.165,492.97
1804.018,485.70
1804.869,474.83
1805.722,484.43
1806.573,428.67
1807.426,430.60
1808.276,451.70
1809.129,430.33
1809.980,453.97
1810.832,449.10
1811.683,440.97
1812.535,453.97
1813.385,468.00
1814.237,439.70
1815.089,434.13
1815.940,474.77
1816.791,458.87
1817.641,458.90
1818.493,443.60
1819.343,448.17
1820.194,435.53
1821.044,460.00
1821.895,448.03
1822.745,436.47
1823.596,449.23
1824.445,437.47
1825.296,429.03
1826.145,460.53
1826.996,442.70
1827.845,461.37
1828.695,448.60
1829.544,443.00
1830.395,447.43
1831.243,435.63
1832.094,464.17
1832.942,421.93
1833.792,452.00
1834.640,455.63
1835.490,421.37
1836.338,410.60
1837.186,478.87
1838.036,419.97
1838.884,456.30
1839.733,475.80
1840.581,464.27
1841.430,420.77
1842.278,468.73
1843.127,441.10
1843.974,450.17
1844.823,397.63
1845.671,436.57
1846.519,441.13
1847.366,455.30
1848.213,419.40
1849.062,433.97
1849.909,463.57
1850.757,463.53
1851.604,422.67
1852.452,398.80
1853.298,460.43
1854.146,438.87
1854.993,445.27
1855.839,458.00
1856.687,433.43
1857.532,443.93
1858.380,430.07
1859.226,470.47
1860.073,404.37
1860.919,470.07
1861.765,434.67
1862.612,467.87
1863.457,456.80
1864.304,435.77
1865.150,425.70
1865.995,421.30
1866.842,429.53
1867.686,475.97
1868.533,410.60
1869.378,448.27
1870.223,495.40
1871.069,452.90
1871.914,437.13
1872.760,474.67
1873.604,429.83
1874.448,455.63
1875.294,451.27
1876.139,448.37
1876.984,455.03
1877.828,445.83
1878.672,453.23
1879.518,448.83
1880.361,416.90
1881.205,444.87
1882.050,438.10
1882.894,438.23
1883.739,449.40
1884.582,443.23
1885.425,434.80
1886.270,459.10
1887.113,429.47
1887.956,429.27
1888.801,448.00
1889.644,432.13
1890.486,425.00
1891.331,461.80
1892.173,426.30
1893.017,414.40
1893.860,481.40
1894.702,455.93
1895.546,447.90
1896.388,437.87
1897.230,467.90
1898.074,449.07
1898.916,428.77
1899.757,440.67
1900.601,461.10
1901.443,450.27
1902.284,456.00
1903.125,434.40
1903.969,422.77
1904.810,395.27
1905.651,428.70
1906.494,468.63
1907.335,432.63
1908.176,413.03
1909.018,473.37
1909.859,436.63
1910.700,403.23
1911.542,411.17
1912.383,417.37
1913.223,490.40
1914.064,404.70
1914.906,454.17
1915.746,442.27
1916.586,472.13
1917.428,447.90
1918.268,452.90
1919.107,429.87
1919.947,439.07
1920.789,456.03
1921.628,489.70
1922.468,456.33
1923.309,445.97
1924.148,449.37
1924.988,435.17
1925.827,428.90
1926.667,430.80
1927.507,460.93
1928.345,451.20
1929.184,441.90
1930.025,452.63
1930.864,442.77
1931.702,437.33
1932.541,418.27
1933.381,460.20
1934.219,444.53
1935.057,437.03
1935.896,435.97
1936.735,452.33
1937.573,418.17
1938.411,462.60
1939.249,431.70
1940.089,439.77
1940.927,426.53
1941.764,449.60
1942.602,471.27
1943.439,444.07
1944.278,457.63
1945.115,455.90
1945.953,424.77
1946.790,427.73
1947.628,455.17
1948.465,408.70
1949.302,447.33
1950.139,419.93
1950.976,436.13
1951.814,466.03
1952.651,453.93
1953.487,431.87
1954.323,452.10
1955.160,469.00
1955.998,411.23
1956.834,440.73
1957.670,416.87
1958.506,424.27
1959.342,454.40
1960.177,436.30
1961.015,417.90
1961.850,433.40
1962.686,447.17
1963.521,447.37
1964.357,434.80
1965.192,419.67
1966.029,426.00
1966.864,416.77
1967.699,451.87
1968.534,447.10
1969.369,448.80
1970.204,441.33
1971.040,426.43
1971.875,425.00
1972.709,446.03
1973.544,409.77
1974.378,456.13
1975.212,420.33
1976.047,435.37
1976.882,423.30
1977.716,430.60
1978.550,462.37
1979.384,390.97
1980.218,401.47
1981.052,470.33
1981.885,414.13
1982.719,424.40
1983.554,473.50
1984.388,463.63
1985.221,419.93
1986.054,431.37
1986.887,448.03
1987.720,458.30
1988.553,439.10
1989.386,448.00
1990.219,466.10
1991.053,479.77
1991.886,463.10
1992.719,448.90
1993.551,426.67
1994.383,448.80
1995.216,429.17
1996.048,450.93
1996.880,469.57
1997.712,417.60
1998.544,451.27
1999.376,417.20
2000.208,444.97
2001.040,421.13
2001.873,432.33
2002.705,431.97
2003.536,466.60
2004.367,456.17
2005.199,490.20
2006.030,418.87
2006.861,413.07
2007.692,446.70
2008.523,471.90
2009.354,417.10
2010.185,435.90
2011.016,469.73
2011.846,445.73
2012.677,424.13
2013.507,455.63
2014.338,405.53
2015.168,416.27
2015.999,464.20
2016.829,447.80
2017.659,442.90
2018.489,492.53
2019.319,439.93
2020.149,442.57
2020.980,446.63
2021.810,474.93
2022.639,418.70
2023.469,434.07
2024.298,465.40
2025.128,410.53
2025.957,467.87
2026.786,435.27
2027.615,441.20
2028.444,445.03
2029.273,471.17
2030.102,419.57
2030.931,476.60
2031.758,445.37
2032.586,448.17
2033.415,449.47
2034.243,407.47
2035.072,452.57
2035.900,464.13
2036.728,474.80
2037.556,455.97
2038.385,456.37
2039.213,456.47
2040.040,430.30
2040.868,501.93
2041.696,428.83
2042.524,446.70
2043.351,410.70
2044.179,495.97
2045.006,455.43
2045.006,455.43

Max Intensity Wave.,219.929
Max Intensity Data,5162.40
Min Intensity Wave.,1630.912
Min Intensity Data,252.33
FWHM Wave.,387.345
FWHM Value,26.55
Pressure Wave.,684.671
Pressure Value [GPa],-24.91530
G/D Ratio,0.57319
G/D Gband Wave.,1551.606
G/D Gband Intensity,557.21
G/D Dband Wave.,1300.806
G/D Dband Intensity,972.13

<< BACKGROUND SPECTRUM >>
Wave[dcm-1],No323
146.591,2272.00
147.626,2144.00
148.664,2062.00
149.699,2524.00
150.737,2291.00
151.772,2396.00
152.809,2453.00
153.846,2308.00
154.881,2424.00
155.918,1987.00
156.953,2304.00
157.989,2610.00
159.026,2485.00
160.060,2649.00
161.096,2866.00
162.130,2529.00
163.167,2569.00
164.200,2458.00
165.236,2679.00
166.272,2704.00
167.305,2283.00
168.341,2558.00
169.374,2804.00
170.409,2790.00
171.445,2744.00
172.477,2543.00
173.512,2413.00
174.545,2657.00
175.580,2852.00
176.614,3053.00
177.647,2834.00
178.681,3050.00
179.713,3426.00
180.747,2821.00
181.781,2750.00
182.813,3049.00
183.847,3136.00
184.878,2724.00
185.912,2999.00
186.945,3157.00
187.976,3114.00
189.010,2761.00
190.043,2876.00
191.073,2950.00
192.106,2746.00
193.137,3184.00
194.170,2567.00
195.202,2917.00
196.232,2701.00
197.265,2988.00
198.297,3077.00
199.327,2795.00
200.359,2934.00
201.388,3334.00
202.420,2937.00
203.452,3119.00
204.481,2707.00
205.512,3336.00
206.544,3105.00
207.573,3110.00
208.604,3426.00
209.635,3542.00
210.663,2969.00
211.694,2966.00
212.725,2852.00
213.753,2804.00
214.783,3396.00
215.813,3251.00
216.841,3009.00
217.871,3165.00
218.899,2956.00
219.929,3145.00
220.959,2875.00
221.986,3122.00
223.016,2810.00
224.045,3193.00
225.072,3158.00
226.101,3191.00
227.130,3292.00
228.157,2852.00
229.185,2383.00
230.214,3184.00
231.241,2863.00
232.269,2489.00
233.297,2713.00
234.323,3242.00
235.351,2832.00
236.379,3095.00
237.407,2795.00
238.433,2991.00
239.460,3176.00
240.488,3140.00
241.513,3251.00
242.540,3134.00
243.568,3222.00
244.592,3224.00
245.619,3216.00
246.646,2938.00
247.671,2981.00
248.697,2845.00
249.724,3036.00
250.748,3016.00
251.774,3029.00
252.801,3315.00
253.827,3115.00
254.850,3093.00
255.876,2676.00
256.902,3127.00
257.925,2987.00
258.951,2758.00
259.976,2814.00
260.999,3104.00
262.024,2834.00
263.049,3686.00
264.074,3128.00
265.097,3049.00
266.122,3073.00
267.146,3048.00
268.168,3228.00
269.193,2860.00
270.217,3195.00
271.241,2723.00
272.263,2909.00
273.287,3213.00
274.311,2797.00
275.332,3306.00
276.356,2842.00
277.379,3111.00
278.402,3166.00
279.424,2974.00
280.447,2885.00
281.470,2693.00
282.492,3106.00
283.513,2929.00
284.536,3180.00
285.558,3191.00
286.581,3106.00
287.601,2857.00
288.623,2806.00
289.645,3069.00
290.665,3127.00
291.687,3144.00
292.709,3142.00
293.730,3412.00
294.750,2903.00
295.771,2806.00
296.792,3068.00
297.813,2929.00
298.832,3064.00
299.853,2766.00
300.874,3000.00
301.895,2981.00
302.913,2994.00
303.934,3305.00
304.954,3076.00
305.975,3236.00
306.993,2779.00
308.013,3105.00
309.033,3034.00
310.052,2944.00
311.072,2933.00
312.090,3075.00
313.109,3286.00
314.129,3400.00
315.148,3037.00
316.165,3062.00
317.184,3267.00
318.203,2788.00
319.222,2797.00
320.238,3151.00
321.257,2829.00
322.275,2730.00
323.294,3009.00
324.312,3142.00
325.328,3311.00
326.346,3326.00
327.364,3244.00
328.382,3218.00
329.397,3184.00
330.415,3219.00
331.432,3261.00
332.450,3264.00
333.467,3481.00
334.482,2608.00
335.499,3351.00
336.516,2919.00
337.533,2612.00
338.547,2882.00
339.564,2892.00
340.580,3106.00
341.597,2979.00
342.613,3424.00
343.627,2985.00
344.643,3053.00
345.659,3128.00
346.675,3043.00
347.690,2940.00
348.704,3094.00
349.719,2934.00
350.735,2792.00
351.750,3191.00
352.765,3077.00
353.778,2985.00
354.793,3196.00
355.808,2829.00
356.822,3227.00
357.837,2679.00
358.851,3247.00
359.864,2988.00
360.878,2755.00
361.892,2947.00
362.906,3195.00
363.920,2626.00
364.932,3116.00
365.945,3130.00
366.959,3030.00
367.972,2951.00
368.986,2740.00
369.999,3392.00
371.010,2852.00
372.023,3368.00
373.036,2991.00
374.049,3425.00
375.061,3113.00
376.072,3004.00
377.084,2889.00
378.097,2739.00
379.109,3234.00
380.121,3030.00
381.133,2669.00
382.143,3158.00
383.155,2734.00
384.166,2905.00
385.178,3109.00
386.189,3206.00
387.201,2729.00
388.212,2929.00
389.221,2991.00
390.232,3034.00
391.243,2928.00
392.254,3086.00
393.264,2850.00
394.275,3259.00
395.283,3189.00
396.294,3657.00
397.304,3484.00
398.314,3117.00
399.324,3067.00
400.334,2674.00
401.344,3154.00
402.351,2685.00
403.361,3186.00
404.370,2963.00
405.380,2900.00
406.389,3376.00
407.398,3150.00
408.407,3097.00
409.414,3166.00
410.423,3344.00
411.431,2796.00
412.440,2676.00
413.448,3370.00
414.457,2852.00
415.465,2821.00
416.471,2889.00
417.479,3053.00
418.487,2852.00
419.495,3321.00
420.503,3159.00
421.510,2674.00
422.518,3178.00
423.525,3221.00
424.530,3426.00
425.537,2951.00
426.544,3224.00
427.551,2864.00
428.558,3618.00
429.565,3452.00
430.571,2891.00
431.578,2901.00
432.582,2897.00
433.588,2973.00
434.595,2660.00
435.601,3314.00
436.607,3290.00
437.612,2739.00
438.618,3387.00
439.624,2981.00
440.627,2973.00
441.633,3153.00
442.638,3623.00
443.643,3086.00
444.648,3031.00
445.653,3179.00
446.658,2899.00
447.663,3050.00
448.667,2913.00
449.672,2922.00
450.674,2962.00
451.678,2746.00
452.682,2869.00
453.687,2895.00
454.690,3633.00
455.694,3313.00
456.698,2581.00
457.702,2679.00
458.705,2791.00
459.709,2846.00
460.710,2918.00
461.713,3066.00
462.716,3054.00
463.719,3018.00
464.722,3248.00
465.725,2976.00
466.727,2812.00
467.730,3080.00
468.732,2797.00
469.735,3316.00
470.737,2920.00
471.737,2937.00
472.739,2913.00
473.741,2834.00
474.742,3068.00
475.744,3124.00
476.746,3059.00
477.747,2986.00
478.748,3184.00
479.750,2945.00
480.751,3056.00
481.752,3762.00
482.753,3133.00
483.751,3596.00
484.752,2639.00
485.753,3016.00
486.753,2849.00
487.753,3022.00
488.754,3425.00
489.754,2694.00
490.754,3321.00
491.754,3166.00
492.754,2657.00
493.753,3019.00
494.753,2893.00
495.752,3350.00
496.752,3049.00
497.749,3003.00
498.748,2879.00
499.747,3466.00
500.746,3112.00
501.745,2767.00
502.744,2791.00
503.742,3335.00
504.741,2965.00
505.739,2468.00
506.737,2938.00
507.735,3147.00
508.734,3391.00
509.732,3190.00
510.729,3400.00
511.727,2909.00
512.725,2931.00
513.720,2810.00
514.718,3248.00
515.715,2721.00
516.712,2635.00
517.709,3014.00
518.706,2893.00
519.703,3065.00
520.700,3195.00
521.696,3367.00
522.693,2929.00
523.689,2863.00
524.686,3190.00
525.682,2806.00
526.678,3483.00
527.674,2914.00
528.670,2574.00
529.666,3545.00
530.661,3501.00
531.657,3163.00
532.652,3201.00
533.648,3045.00
534.641,3226.00
535.636,3042.00
536.631,3099.00
537.626,3182.00
538.621,2755.00
539.616,2600.00
540.610,2528.00
541.605,3019.00
542.599,3085.00
543.593,2990.00
544.587,3897.00
545.581,2861.00
546.575,3058.00
547.569,3039.00
548.563,2701.00
549.557,2707.00
550.550,2798.00
551.543,2761.00
552.537,3158.00
553.530,2759.00
554.523,2767.00
555.516,3128.00
556.509,2991.00
557.502,2657.00
558.494,3190.00
559.487,2922.00
560.479,3172.00
561.472,3242.00
562.464,3135.00
563.456,3328.00
564.448,2969.00
565.440,3020.00
566.432,3396.00
567.423,2887.00
568.415,2957.00
569.404,3126.00
570.396,2829.00
571.387,3128.00
572.378,3018.00
573.369,3955.00
574.360,3704.00
575.351,2959.00
576.341,2861.00
577.332,2865.00
578.323,2699.00
579.313,2901.00
580.303,3270.00
581.293,3167.00
582.283,2967.00
583.273,3127.00
584.263,3018.00
585.253,3096.00
586.243,3170.00
587.232,2686.00
588.222,2955.00
589.211,3192.00
590.200,3061.00
591.189,2948.00
592.178,3008.00
593.167,3447.00
594.156,3277.00
595.145,2930.00
596.133,3504.00
597.122,3120.00
598.110,3202.00
599.098,3079.00
600.086,2996.00
601.074,3192.00
602.062,2861.00
603.050,2752.00
604.038,3134.00
605.025,2804.00
606.013,3192.00
607.000,3390.00
607.987,3056.00
608.975,3061.00
609.962,2813.00
610.949,3117.00
611.936,3276.00
612.922,3161.00
613.909,2714.00
614.895,3362.00
615.882,2870.00
616.868,3001.00
617.854,2730.00
618.841,3012.00
619.826,3100.00
620.812,3009.00
621.798,2779.00
622.784,3161.00
623.769,3105.00
624.755,2728.00
625.740,3066.00
626.725,2731.00
627.711,2863.00
628.698,3119.00
629.683,2856.00
630.667,3176.00
631.652,2790.00
632.637,2983.00
633.621,3170.00
634.606,2960.00
635.590,3145.00
636.574,2933.00
637.558,3070.00
638.542,3056.00
639.526,2852.00
640.510,2659.00
641.493,3070.00
642.477,3005.00
643.460,2680.00
644.444,3273.00
645.427,3235.00
646.410,2724.00
647.393,2963.00
648.376,3105.00
649.359,2935.00
650.341,3118.00
651.324,3113.00
652.307,3059.00
653.289,2950.00
654.271,2898.00
655.253,2872.00
656.235,3147.00
657.217,3270.00
658.199,2641.00
659.181,2752.00
660.163,2980.00
661.144,2899.00
662.126,2889.00
663.107,2771.00
664.088,6228.00
665.069,3233.00
666.050,2794.00
667.033,2754.00
668.014,3094.00
668.995,2608.00
669.975,3018.00
670.956,2973.00
671.936,3140.00
672.916,3016.00
673.896,3089.00
674.876,2905.00
675.856,2906.00
676.836,2737.00
677.816,2308.00
678.795,2855.00
679.775,2726.00
680.754,3048.00
681.734,3142.00
682.713,3192.00
683.692,2807.00
684.671,2661.00
685.650,2764.00
686.629,2873.00
687.607,2789.00
688.586,2823.00
689.564,2863.00
690.543,3288.00
691.523,2418.00
692.501,2858.00
693.479,2939.00
694.457,2807.00
695.435,2900.00
696.413,2676.00
697.390,2572.00
698.368,2682.00
699.345,3114.00
700.322,2949.00
701.300,3080.00
702.277,3077.00
703.254,3261.00
704.231,2549.00
705.207,2966.00
706.184,2780.00
707.161,2674.00
708.137,2858.00
709.113,2802.00
710.090,2833.00
711.068,2616.00
712.044,2624.00
713.020,2877.00
713.996,2624.00
714.971,2831.00
715.947,2828.00
716.922,2797.00
717.898,2787.00
718.873,2888.00
719.848,2758.00
720.823,2708.00
721.798,2987.00
722.773,2775.00
723.748,2577.00
724.723,3025.00
725.697,2828.00
726.672,2763.00
727.646,2515.00
728.622,3038.00
729.596,2610.00
730.570,2732.00
731.544,3067.00
732.518,3311.00
733.492,2789.00
734.466,2885.00
735.439,2996.00
736.413,3138.00
737.386,2451.00
738.359,2395.00
739.332,2518.00
740.305,2852.00
741.278,3261.00
742.251,2866.00
743.224,2751.00
744.196,2576.00
745.171,3157.00
746.143,3059.00
747.115,2784.00
748.087,2715.00
749.059,3065.00
750.031,2911.00
751.003,3675.00
751.975,3273.00
752.947,2702.00
753.918,3102.00
754.890,2586.00
755.861,2778.00
756.832,2994.00
757.803,2868.00
758.774,2836.00
759.747,2621.00
760.718,3209.00
761.689,2728.00
762.659,2609.00
763.630,3148.00
764.600,2547.00
765.570,3115.00
766.540,3157.00
767.510,2939.00
768.480,3084.00
769.450,2727.00
770.420,2799.00
771.390,2671.00
772.359,2767.00
773.329,2693.00
774.300,2527.00
775.269,2739.00
776.238,3003.00
777.207,3154.00
778.176,2518.00
779.145,2798.00
780.114,2679.00
781.083,2583.00
782.051,2749.00
783.019,2676.00
783.988,3065.00
784.956,2823.00
785.924,2999.00
786.894,2867.00
787.862,2676.00
788.830,3127.00
789.797,2627.00
790.765,2582.00
791.732,2779.00
792.700,2612.00
793.667,2626.00
794.634,2759.00
795.601,2728.00
796.568,2794.00
797.535,2865.00
798.502,3456.00
799.468,2918.00
800.437,2369.00
801.403,2649.00
802.370,3251.00
803.336,2980.00
804.302,2897.00
805.268,2467.00
806.234,2558.00
807.200,2734.00
808.166,2769.00
809.131,2574.00
810.097,3010.00
811.062,3665.00
812.027,2993.00
812.994,2618.00
813.960,2597.00
814.925,2940.00
815.889,2538.00
816.854,3018.00
817.819,2629.00
818.783,2778.00
819.748,3089.00
820.712,2732.00
821.677,2680.00
822.641,2722.00
823.605,2693.00
824.571,3162.00
825.534,2732.00
826.498,2665.00
827.462,2773.00
828.425,2626.00
829.389,3053.00
830.352,2812.00
831.315,2895.00
832.279,2495.00
833.242,2781.00
834.204,2670.00
835.167,2653.00
836.132,3047.00
837.095,2523.00
838.057,2727.00
839.020,2812.00
839.982,2842.00
840.944,2706.00
841.906,2634.00
842.868,2999.00
843.830,2552.00
844.792,3053.00
845.753,2708.00
846.715,2449.00
847.679,2615.00
848.640,2605.00
849.601,2706.00
850.562,3201.00
851.523,2691.00
852.484,2475.00
853.445,2999.00
854.406,2716.00
855.367,2695.00
856.327,3055.00
857.288,2510.00
858.248,2666.00
859.210,2741.00
860.170,2534.00
861.130,2982.00
862.090,2445.00
863.050,2629.00
864.010,2683.00
864.969,2896.00
865.929,2624.00
866.888,2543.00
867.848,2847.00
868.807,2670.00
869.766,2872.00
870.727,2729.00
871.686,2974.00
872.645,3014.00
873.604,3288.00
874.562,2772.00
875.521,2750.00
876.479,3380.00
877.437,2600.00
878.396,2625.00
879.354,3176.00
880.312,2636.00
881.270,2684.00
882.229,3109.00
883.187,2642.00
884.145,2673.00
885.102,2944.00
886.059,2832.00
887.017,2855.00
887.974,2984.00
888.931,3083.00
889.888,2504.00
890.845,2424.00
891.802,2339.00
892.758,2633.00
893.717,2415.00
894.673,2629.00
895.630,2624.00
896.586,2910.00
897.542,2674.00
898.498,2519.00
899.454,2843.00
900.410,2697.00
901.366,2636.00
902.321,2637.00
903.277,2750.00
904.232,2763.00
905.189,2470.00
906.145,2656.00
907.100,2246.00
908.055,2708.00
909.010,2939.00
909.965,2357.00
910.919,2804.00
911.874,2580.00
912.828,2773.00
913.783,2819.00
914.737,2331.00
915.693,2785.00
916.648,2933.00
917.602,2939.00
918.555,2815.00
919.509,2870.00
920.463,2722.00
921.417,2742.00
922.370,2618.00
923.324,2706.00
924.277,2684.00
925.230,2753.00
926.183,2396.00
927.138,2673.00
928.091,2941.00
929.044,2809.00
929.996,2638.00
930.949,2636.00
931.902,2818.00
932.854,2810.00
933.806,2554.00
934.758,2969.00
935.711,2945.00
936.663,2792.00
937.614,2809.00
938.568,2729.00
939.520,2438.00
940.471,2719.00
941.423,2777.00
942.374,2886.00
943.326,2722.00
944.277,2588.00
945.228,2811.00
946.179,2719.00
947.130,3025.00
948.080,2640.00
949.031,2585.00
949.984,2722.00
950.934,2698.00
951.884,2475.00
952.835,2720.00
953.785,2775.00
954.735,2624.00
955.685,2341.00
956.635,2630.00
957.585,2633.00
958.534,2643.00
959.484,2744.00
960.433,2594.00
961.383,2477.00
962.334,2946.00
963.283,2771.00
964.232,2885.00
965.181,2744.00
966.130,2766.00
967.079,2596.00
968.027,2715.00
968.976,2766.00
969.924,2616.00
970.873,2845.00
971.821,2753.00
972.769,2950.00
973.719,2852.00
974.667,2472.00
975.615,2718.00
976.562,2723.00
977.510,2416.00
978.458,2629.00
979.405,2825.00
980.352,2765.00
981.300,2939.00
982.247,2793.00
983.194,2534.00
984.141,2626.00
985.088,2707.00
986.036,2767.00
986.983,3026.00
987.930,3121.00
988.876,2380.00
989.822,2935.00
990.769,2578.00
991.715,2604.00
992.661,2446.00
993.607,2797.00
994.553,3262.00
995.498,2596.00
996.444,2320.00
997.389,2805.00
998.337,2515.00
999.282,2865.00
1000.227,2653.00
1001.173,2716.00
1002.118,2427.00
1003.062,2923.00
1004.007,2702.00
1004.952,2971.00
1005.897,2965.00
1006.841,2707.00
1007.786,2422.00
1008.730,2465.00
1009.674,3179.00
1010.618,2667.00
1011.564,2507.00
1012.508,2424.00
1013.452,2967.00
1014.396,2714.00
1015.339,2631.00
1016.283,2702.00
1017.226,2752.00
1018.170,2706.00
1019.113,2889.00
1020.056,2711.00
1020.999,2724.00
1021.942,2613.00
1022.885,2869.00
1023.828,3006.00
1024.770,2506.00
1025.715,2729.00
1026.657,2698.00
1027.600,2707.00
1028.542,2945.00
1029.484,2724.00
1030.426,2831.00
1031.368,2796.00
1032.310,2582.00
1033.251,2551.00
1034.193,2668.00
1035.135,2510.00
1036.076,2636.00
1037.017,2532.00
1037.959,2831.00
1038.900,2756.00
1039.843,2817.00
1040.784,2700.00
1041.725,2809.00
1042.665,2627.00
1043.606,2768.00
1044.547,2786.00
1045.487,2381.00
1046.427,2678.00
1047.368,2795.00
1048.308,2212.00
1049.248,2504.00
1050.188,2714.00
1051.128,2624.00
1052.067,2646.00
1053.007,2417.00
1053.947,2416.00
1054.886,2601.00
1055.827,2484.00
1056.766,2896.00
1057.706,2478.00
1058.645,2649.00
1059.584,2719.00
1060.522,2953.00
1061.461,2465.00
1062.400,2508.00
1063.338,2631.00
1064.277,2510.00
1065.215,2534.00
1066.154,2399.00
1067.092,2597.00
1068.030,2595.00
1068.968,2845.00
1069.906,2988.00
1070.843,2963.00
1071.781,2754.00
1072.720,2799.00
1073.658,2822.00
1074.595,2581.00
1075.533,2554.00
1076.470,2584.00
1077.407,2966.00
1078.344,2756.00
1079.281,2791.00
1080.217,2273.00
1081.154,2669.00
1082.091,2705.00
1083.027,2453.00
1083.964,2939.00
1084.900,2547.00
1085.836,2582.00
1086.772,2883.00
1087.708,2466.00
1088.644,2807.00
1089.580,2675.00
1090.515,2744.00
1091.451,2587.00
1092.388,2733.00
1093.324,2427.00
1094.259,3255.00
1095.194,2744.00
1096.129,2635.00
1097.064,2566.00
1097.999,2838.00
1098.934,2558.00
1099.869,2529.00
1100.803,2715.00
1101.738,2701.00
1102.672,2409.00
1103.607,2841.00
1104.541,2551.00
1105.475,2531.00
1106.409,2391.00
1107.343,2615.00
1108.277,2435.00
1109.210,2702.00
1110.144,2699.00
1111.078,2654.00
1112.011,2446.00
1112.944,2803.00
1113.878,2737.00
1114.811,2186.00
1115.744,2573.00
1116.678,2281.00
1117.611,2590.00
1118.544,2598.00
1119.477,2749.00
1120.409,2559.00
1121.342,3099.00
1122.274,2776.00
1123.206,2997.00
1124.138,2663.00
1125.070,2974.00
1126.002,2827.00
1126.934,2297.00
1127.866,2562.00
1128.798,2295.00
1129.729,2389.00
1130.661,2674.00
1131.592,2567.00
1132.523,2736.00
1133.454,2762.00
1134.385,2302.00
1135.317,2673.00
1136.247,2574.00
1137.178,2868.00
1138.109,2392.00
1139.039,3008.00
1139.970,2810.00
1140.900,2565.00
1141.831,2337.00
1142.761,2256.00
1143.691,2773.00
1144.621,2653.00
1145.551,2675.00
1146.480,2695.00
1147.410,2829.00
1148.340,2286.00
1149.269,2367.00
1150.199,2595.00
1151.128,3043.00
1152.057,2427.00
1152.979,2581.00
1153.898,2610.00
1154.819,2723.00
1155.739,2598.00
1156.658,2583.00
1157.579,2646.00
1158.498,2656.00
1159.419,2198.00
1160.338,2733.00
1161.256,2695.00
1162.177,2481.00
1163.095,2644.00
1164.016,2733.00
1164.934,2891.00
1165.852,2775.00
1166.772,2651.00
1167.690,2621.00
1168.610,2699.00
1169.528,2639.00
1170.446,2175.00
1171.365,2566.00
1172.283,2491.00
1173.202,2623.00
1174.120,2666.00
1175.037,2451.00
1175.956,2469.00
1176.873,2507.00
1177.792,2491.00
1178.709,3104.00
1179.626,2571.00
1180.544,2842.00
1181.461,2535.00
1182.379,2718.00
1183.296,2620.00
1184.212,2283.00
1185.130,2464.00
1186.046,2959.00
1186.962,2625.00
1187.880,2896.00
1188.796,2671.00
1189.714,2421.00
1190.629,2794.00
1191.545,2719.00
1192.462,2541.00
1193.378,2626.00
1194.295,2382.00
1195.210,2633.00
1196.125,2746.00
1197.042,2695.00
1197.957,2629.00
1198.872,2552.00
1199.788,2551.00
1200.703,2957.00
1201.619,2647.00
1202.534,2467.00
1203.448,2684.00
1204.364,2595.00
1205.278,2314.00
1206.192,2687.00
1207.108,3139.00
1208.022,2969.00
1208.938,2435.00
1209.851,2793.00
1210.765,2846.00
1211.680,2531.00
1212.594,2399.00
1213.507,2567.00
1214.422,2995.00
1215.335,2749.00
1216.248,2594.00
1217.163,2646.00
1218.076,3231.00
1218.990,2751.00
1219.903,2382.00
1220.816,2425.00
1221.730,2600.00
1222.642,2506.00
1223.554,2551.00
1224.469,2720.00
1225.380,2518.00
1226.292,2284.00
1227.206,2728.00
1228.118,2943.00
1229.032,2268.00
1229.943,2540.00
1230.855,2581.00
1231.768,2380.00
1232.679,2710.00
1233.590,2620.00
1234.503,2824.00
1235.414,2506.00
1236.325,2516.00
1237.238,2724.00
1238.149,2712.00
1239.059,2457.00
1239.972,2813.00
1240.882,2436.00
1241.793,2761.00
1242.705,2968.00
1243.615,2614.00
1244.525,2714.00
1245.437,2245.00
1246.347,2662.00
1247.259,2809.00
1248.168,3056.00
1249.078,2889.00
1249.989,2870.00
1250.899,2448.00
1251.808,2494.00
1252.719,2573.00
1253.628,2450.00
1254.537,3001.00
1255.448,2464.00
1256.357,2481.00
1257.266,2666.00
1258.176,2381.00
1259.085,2354.00
1259.993,2425.00
1260.904,2482.00
1261.812,2424.00
1262.720,3207.00
1263.630,2809.00
1264.538,2462.00
1265.446,2716.00
1266.356,2608.00
1267.263,2883.00
1268.171,2418.00
1269.080,2681.00
1269.988,2801.00
1270.895,2549.00
1271.804,2563.00
1272.711,2788.00
1273.619,2766.00
1274.527,2446.00
1275.434,2738.00
1276.341,2455.00
1277.248,2660.00
1278.156,2921.00
1279.063,2493.00
1279.969,2721.00
1280.877,3527.00
1281.783,2864.00
1282.690,2687.00
1283.598,2582.00
1284.503,2443.00
1285.409,2435.00
1286.317,3024.00
1287.223,2998.00
1288.128,2696.00
1289.036,2515.00
1289.941,2574.00
1290.846,2609.00
1291.751,2473.00
1292.658,2516.00
1293.563,3011.00
1294.468,2645.00
1295.375,2795.00
1296.280,2854.00
1297.184,3304.00
1298.091,2762.00
1298.995,2762.00
1299.900,2987.00
1300.806,2520.00
1301.710,2392.00
1302.614,2233.00
1303.518,2852.00
1304.424,2571.00
1305.327,2813.00
1306.231,2613.00
1307.137,2783.00
1308.040,2697.00
1308.943,2670.00
1309.847,2822.00
1310.752,2830.00
1311.655,2274.00
1312.558,2447.00
1313.463,2580.00
1314.366,2544.00
1315.269,2688.00
1316.171,2624.00
1317.076,2522.00
1317.978,2400.00
1318.881,2261.00
1319.785,2513.00
1320.687,2505.00
1321.589,2224.00
1322.491,2481.00
1323.395,2730.00
1324.297,3171.00
1325.198,2771.00
1326.102,2413.00
1327.004,2419.00
1327.905,3001.00
1328.806,2619.00
1329.709,2703.00
1330.611,2543.00
1331.512,2410.00
1332.413,3058.00
1333.316,2698.00
1334.216,2783.00
1335.117,2382.00
1336.020,2681.00
1336.920,2628.00
1337.821,2505.00
1338.721,2902.00
1339.623,2705.00
1340.523,2606.00
1341.423,2508.00
1342.323,2899.00
1343.225,2708.00
1344.125,2459.00
1345.025,2521.00
1345.924,2305.00
1346.826,2959.00
1347.725,3089.00
1348.624,2859.00
1349.524,2443.00
1350.425,2575.00
1351.324,2731.00
1352.223,2783.00
1353.121,2623.00
1354.022,2846.00
1354.921,3022.00
1355.819,2738.00
1356.718,2682.00
1357.618,2407.00
1358.516,2728.00
1359.415,3009.00
1360.313,2749.00
1361.213,2581.00
1362.111,2939.00
1363.008,3312.00
1363.906,2618.00
1364.806,2631.00
1365.703,2711.00
1366.601,2470.00
1367.498,2461.00
1368.397,2809.00
1369.295,2666.00
1370.192,2447.00
1371.089,2693.00
1371.987,2618.00
1372.884,2907.00
1373.781,2429.00
1374.678,2630.00
1375.574,2463.00
1376.473,2732.00
1377.369,2843.00
1378.265,2470.00
1379.161,2593.00
1380.059,2359.00
1380.955,2721.00
1381.851,2383.00
1382.747,2517.00
1383.643,2583.00
1384.540,2431.00
1385.436,2494.00
1386.331,2714.00
1387.227,2751.00
1388.124,2706.00
1389.019,2423.00
1389.914,2613.00
1390.809,2264.00
1391.704,3082.00
1392.601,2549.00
1393.495,2902.00
1394.390,2815.00
1395.285,2861.00
1396.179,2728.00
1397.075,2594.00
1397.969,2745.00
1398.864,2311.00
1399.758,2562.00
1400.652,2648.00
1401.547,2457.00
1402.441,2406.00
1403.335,2982.00
1404.229,2657.00
1405.122,2724.00
1406.017,2638.00
1406.911,2757.00
1407.804,3021.00
1408.697,2619.00
1409.590,2449.00
1410.485,2812.00
1411.378,2699.00
1412.271,2359.00
1413.163,2679.00
1414.056,2798.00
1414.949,2981.00
1415.843,2690.00
1416.735,2626.00
1417.627,2655.00
1418.520,2625.00
1419.412,2839.00
1420.306,2821.00
1421.197,2929.00
1422.089,2830.00
1422.981,3062.00
1423.873,2843.00
1424.764,2759.00
1425.657,2663.00
1426.549,2769.00
1427.440,2824.00
1428.331,2530.00
1429.222,2335.00
1430.113,2674.00
1431.006,2838.00
1431.897,2573.00
1432.787,2661.00
1433.678,2558.00
1434.568,2449.00
1435.459,2833.00
1436.351,2827.00
1437.241,2787.00
1438.131,2800.00
1439.021,2410.00
1439.911,2631.00
1440.801,2698.00
1441.693,2882.00
1442.583,2685.00
1443.472,2660.00
1444.362,2771.00
1445.251,2596.00
1446.140,2576.00
1447.030,2835.00
1447.921,2840.00
1448.810,2486.00
1449.699,3000.00
1450.588,2657.00
1451.476,2554.00
1452.365,2741.00
1453.254,2564.00
1454.144,2528.00
1455.032,2811.00
1455.921,2385.00
1456.809,2942.00
1457.697,2453.00
1458.585,2609.00
1459.473,2590.00
1460.361,2482.00
1461.251,2724.00
1462.138,2746.00
1463.026,2603.00
1463.913,2901.00
1464.801,2556.00
1465.688,2748.00
1466.575,2669.00
1467.463,3099.00
1468.351,2547.00
1469.238,2617.00
1470.125,2272.00
1471.012,2718.00
1471.899,2694.00
1472.785,2466.00
1473.672,2651.00
1474.558,2884.00
1475.446,2769.00
1476.333,2800.00
1477.219,2472.00
1478.105,2583.00
1478.991,2573.00
1479.877,2930.00
1480.762,2657.00
1481.648,2536.00
1482.534,2815.00
1483.419,2706.00
1484.307,2729.00
1485.192,2655.00
1486.077,2496.00
1486.962,2530.00
1487.847,2424.00
1488.732,2522.00
1489.617,2654.00
1490.502,2848.00
1491.387,2824.00
1492.271,2497.00
1493.156,2505.00
1494.042,2453.00
1494.927,2860.00
1495.811,2533.00
1496.695,2794.00
1497.579,2954.00
1498.463,2646.00
1499.347,2721.00
1500.231,2698.00
1501.114,2704.00
1501.998,2908.00
1502.881,2696.00
1503.765,2927.00
1504.648,3056.00
1505.533,2761.00
1506.417,2677.00
1507.300,2608.00
1508.183,2738.00
1509.066,2176.00
1509.948,2879.00
1510.831,2967.00
1511.714,2465.00
1512.596,2796.00
1513.479,2872.00
1514.361,2883.00
1515.243,2666.00
1516.125,2830.00
1517.008,2880.00
1517.890,2644.00
1518.771,2675.00
1519.655,2877.00
1520.537,2617.00
1521.419,2513.00
1522.300,2724.00
1523.182,2770.00
1524.063,2838.00
1524.944,2923.00
1525.825,2826.00
1526.707,2493.00
1527.588,2449.00
1528.468,2748.00
1529.349,2322.00
1530.230,2556.00
1531.111,2839.00
1531.991,2718.00
1532.872,2380.00
1533.752,2633.00
1534.632,2505.00
1535.513,2531.00
1536.393,2785.00
1537.273,2932.00
1538.153,3282.00
1539.032,2438.00
1539.912,2659.00
1540.792,2682.00
1541.672,2656.00
1542.551,2737.00
1543.430,3236.00
1544.310,2695.00
1545.189,2544.00
1546.068,3113.00
1546.947,2775.00
1547.826,2965.00
1548.705,2647.00
1549.584,2877.00
1550.462,2650.00
1551.341,2786.00
1552.219,2702.00
1553.098,2806.00
1553.976,2887.00
1554.854,3113.00
1555.733,2872.00
1556.611,2581.00
1557.489,2465.00
1558.367,2670.00
1559.244,2838.00
1560.122,2656.00
1561.000,2743.00
1561.877,2974.00
1562.755,2533.00
1563.632,2608.00
1564.509,2912.00
1565.386,3066.00
1566.264,2416.00
1567.141,2303.00
1568.017,2816.00
1568.894,2648.00
1569.771,2729.00
1570.648,2776.00
1571.524,2662.00
1572.401,2428.00
1573.277,2481.00
1574.153,2675.00
1575.029,2549.00
1575.906,3385.00
1576.781,2877.00
1577.657,2598.00
1578.533,2879.00
1579.409,2311.00
1580.285,2655.00
1581.160,3086.00
1582.036,2856.00
1582.911,2527.00
1583.786,2971.00
1584.662,2462.00
1585.537,2648.00
1586.412,2700.00
1587.287,2491.00
1588.160,2831.00
1589.035,2336.00
1589.909,2740.00
1590.784,2648.00
1591.658,2474.00
1592.533,2755.00
1593.407,2709.00
1594.281,2549.00
1595.155,3081.00
1596.029,2605.00
1596.903,2655.00
1597.777,2627.00
1598.651,2951.00
1599.525,2402.00
1600.398,2691.00
1601.272,2671.00
1602.144,3206.00
1603.017,2634.00
1603.890,2908.00
1604.763,2786.00
1605.636,2810.00
1606.509,2397.00
1607.382,2509.00
1608.255,2741.00
1609.128,2869.00
1610.000,2585.00
1610.873,2378.00
1611.746,2562.00
1612.616,2590.00
1613.488,2255.00
1614.361,2674.00
1615.233,2592.00
1616.105,3025.00
1616.977,2592.00
1617.849,2490.00
1618.720,2981.00
1619.592,2968.00
1620.464,2766.00
1621.333,3128.00
1622.205,2644.00
1623.076,2646.00
1623.947,2629.00
1624.818,2877.00
1625.689,2805.00
1626.560,2576.00
1627.431,2684.00
1628.302,3099.00
1629.171,2834.00
1630.042,2994.00
1630.912,3657.00
1631.782,3212.00
1632.653,2507.00
1633.523,2860.00
1634.393,2929.00
1635.263,2603.00
1636.131,2653.00
1637.001,2606.00
1637.871,2265.00
1638.741,2306.00
1639.611,2399.00
1640.480,2759.00
1641.350,2541.00
1642.219,2510.00
1643.087,2184.00
1643.956,3090.00
1644.825,2947.00
1645.694,2882.00
1646.563,2824.00
1647.432,2689.00
1648.299,2665.00
1649.167,2799.00
1650.036,2489.00
1650.904,2900.00
1651.773,2862.00
1652.641,2703.00
1653.509,2875.00
1654.376,2534.00
1655.244,2732.00
1656.112,2749.00
1656.980,2686.00
1657.847,2550.00
1658.715,2800.00
1659.581,2580.00
1660.448,2935.00
1661.316,2192.00
1662.183,2732.00
1663.051,2749.00
1663.918,2717.00
1664.783,2723.00
1665.650,2776.00
1666.517,2861.00
1667.384,2734.00
1668.251,2723.00
1669.115,2887.00
1669.982,2644.00
1670.849,2947.00
1671.715,2669.00
1672.581,2839.00
1673.446,2798.00
1674.312,2709.00
1675.178,3051.00
1676.044,2771.00
1676.910,2758.00
1677.774,2713.00
1678.639,2346.00
1679.505,2675.00
1680.370,2786.00
1681.236,3341.00
1682.099,2651.00
1682.965,2713.00
1683.830,2274.00
1684.695,2529.00
1685.560,2591.00
1686.423,2870.00
1687.288,2810.00
1688.153,2725.00
1689.017,2627.00
1689.880,2762.00
1690.745,2825.00
1691.609,2516.00
1692.473,2854.00
1693.338,2935.00
1694.200,3000.00
1695.064,2751.00
1695.928,2585.00
1696.792,2716.00
1697.654,3167.00
1698.517,2724.00
1699.381,2490.00
1700.245,2358.00
1701.106,3004.00
1701.969,2619.00
1702.833,2828.00
1703.696,2632.00
1704.557,2629.00
1705.420,2569.00
1706.283,2722.00
1707.146,2821.00
1708.007,2476.00
1708.870,2499.00
1709.732,2371.00
1710.595,2596.00
1711.455,2454.00
1712.318,2613.00
1713.180,2951.00
1714.040,2715.00
1714.902,2833.00
1715.764,2692.00
1716.626,2507.00
1717.486,2655.00
1718.348,2943.00
1719.209,4747.00
1720.071,2344.00
1720.930,2446.00
1721.792,2534.00
1722.653,2539.00
1723.512,2594.00
1724.374,2645.00
1725.234,2720.00
1726.095,2716.00
1726.954,2691.00
1727.815,2821.00
1728.676,2706.00
1729.535,2916.00
1730.395,2669.00
1731.256,2602.00
1732.114,2763.00
1732.974,2172.00
1733.834,3040.00
1734.693,2875.00
1735.553,2704.00
1736.413,3122.00
1737.272,2568.00
1738.130,2652.00
1738.990,2794.00
1739.849,2576.00
1740.707,3672.00
1741.566,2745.00
1742.426,2729.00
1743.283,3069.00
1744.142,2597.00
1745.001,2376.00
1745.858,2855.00
1746.717,2750.00
1747.576,2819.00
1748.433,2815.00
1749.292,3288.00
1750.150,3298.00
1751.007,2900.00
1751.865,2890.00
1752.723,2679.00
1753.579,2616.00
1754.438,2945.00
1755.296,2928.00
1756.152,2272.00
1757.010,2394.00
1757.865,2897.00
1758.723,2343.00
1759.581,3001.00
1760.436,2672.00
1761.294,3092.00
1762.151,2662.00
1763.006,2630.00
1763.864,2346.00
1764.721,2868.00
1765.576,2780.00
1766.433,2813.00
1767.288,2620.00
1768.144,2745.00
1769.001,2641.00
1769.856,2780.00
1770.712,2882.00
1771.568,2500.00
1772.423,2595.00
1773.279,2603.00
1774.133,2620.00
1774.989,3084.00
1775.845,3073.00
1776.699,2947.00
1777.555,2703.00
1778.409,3228.00
1779.265,2677.00
1780.120,2639.00
1780.974,2678.00
1781.829,2318.00
1782.682,2764.00
1783.538,2515.00
1784.393,2763.00
1785.246,2597.00
1786.101,2796.00
1786.954,2860.00
1787.808,2895.00
1788.661,2419.00
1789.516,2618.00
1790.370,2621.00
1791.223,2852.00
1792.077,2695.00
1792.930,2794.00
1793.784,2600.00
1794.636,2683.00
1795.490,2681.00
1796.344,2743.00
1797.196,2689.00
1798.049,2873.00
1798.901,2611.00
1799.755,2946.00
1800.606,2543.00
1801.460,3207.00
1802.311,2999.00
1803.165,3070.00
1804.018,3024.00
1804.869,2767.00
1805.722,3138.00
1806.573,2766.00
1807.426,2560.00
1808.276,2705.00
1809.129,2638.00
1809.980,2904.00
1810.832,3000.00
1811.683,2632.00
1812.535,3035.00
1813.385,2620.00
1814.237,3001.00
1815.089,2760.00
1815.940,2960.00
1816.791,2643.00
1817.641,2568.00
1818.493,2862.00
1819.343,2785.00
1820.194,2596.00
1821.044,2807.00
1821.895,2925.00
1822.745,2448.00
1823.596,2603.00
1824.445,3128.00
1825.296,2847.00
1826.145,2671.00
1826.996,2913.00
1827.845,2746.00
1828.695,2780.00
1829.544,2707.00
1830.395,2751.00
1831.243,2647.00
1832.094,2444.00
1832.942,3356.00
1833.792,2819.00
1834.640,2763.00
1835.490,2758.00
1836.338,2816.00
1837.186,2576.00
1838.036,2594.00
1838.884,2703.00
1839.733,3013.00
1840.581,2876.00
1841.430,2864.00
1842.278,3033.00
1843.127,2606.00
1843.974,2395.00
1844.823,3193.00
1845.671,2877.00
1846.519,2735.00
1847.366,2769.00
1848.213,2387.00
1849.062,2538.00
1849.909,2438.00
1850.757,3351.00
1851.604,2854.00
1852.452,2682.00
1853.298,2884.00
1854.146,2777.00
1854.993,2754.00
1855.839,3228.00
1856.687,2856.00
1857.532,2845.00
1858.380,2743.00
1859.226,2761.00
1860.073,2877.00
1860.919,2537.00
1861.765,2614.00
1862.612,2938.00
1863.457,2927.00
1864.304,2687.00
1865.150,2854.00
1865.995,2721.00
1866.842,2849.00
1867.686,2930.00
1868.533,2843.00
1869.378,2781.00
1870.223,2703.00
1871.069,2610.00
1871.914,2745.00
1872.760,2682.00
1873.604,2531.00
1874.448,2854.00
1875.294,2896.00
1876.139,2594.00
1876.984,2829.00
1877.828,2391.00
1878.672,2236.00
1879.518,2597.00
1880.361,2925.00
1881.205,2878.00
1882.050,2531.00
1882.894,3228.00
1883.739,2595.00
1884.582,2495.00
1885.425,2560.00
1886.270,2954.00
1887.113,2501.00
1887.956,2838.00
1888.801,2771.00
1889.644,2549.00
1890.486,2344.00
1891.331,2643.00
1892.173,2792.00
1893.017,2822.00
1893.860,2970.00
1894.702,3020.00
1895.546,2739.00
1896.388,3413.00
1897.230,3057.00
1898.074,2629.00
1898.916,2541.00
1899.757,2558.00
1900.601,3383.00
1901.443,3031.00
1902.284,3015.00
1903.125,3207.00
1903.969,2944.00
1904.810,3007.00
1905.651,2831.00
1906.494,3019.00
1907.335,3190.00
1908.176,2881.00
1909.018,2786.00
1909.859,2694.00
1910.700,2643.00
1911.542,3297.00
1912.383,2834.00
1913.223,2324.00
1914.064,2900.00
1914.906,2987.00
1915.746,3071.00
1916.586,3164.00
1917.428,2709.00
1918.268,2765.00
1919.107,2642.00
1919.947,2495.00
1920.789,2652.00
1921.628,2926.00
1922.468,2707.00
1923.309,2580.00
1924.148,3030.00
1924.988,2820.00
1925.827,2736.00
1926.667,2638.00
1927.507,2768.00
1928.345,2565.00
1929.184,2904.00
1930.025,2553.00
1930.864,2988.00
1931.702,3048.00
1932.541,2675.00
1933.381,2853.00
1934.219,2899.00
1935.057,3044.00
1935.896,2453.00
1936.735,2687.00
1937.573,2671.00
1938.411,2523.00
1939.249,2913.00
1940.089,2626.00
1940.927,2999.00
1941.764,3014.00
1942.602,2631.00
1943.439,2627.00
1944.278,2705.00
1945.115,2650.00
1945.953,2488.00
1946.790,2834.00
1947.628,3067.00
1948.465,2887.00
1949.302,2884.00
1950.139,2904.00
1950.976,2625.00
1951.814,2879.00
1952.651,2795.00
1953.487,2553.00
1954.323,2997.00
1955.160,2703.00
1955.998,3138.00
1956.834,2735.00
1957.670,2843.00
1958.506,2990.00
1959.342,2831.00
1960.177,2797.00
1961.015,2907.00
1961.850,2795.00
1962.686,2784.00
1963.521,2787.00
1964.357,3039.00
1965.192,2558.00
1966.029,2914.00
1966.864,2696.00
1967.699,2975.00
1968.534,2774.00
1969.369,3024.00
1970.204,2712.00
1971.040,2793.00
1971.875,2702.00
1972.709,2780.00
1973.544,2617.00
1974.378,2636.00
1975.212,2866.00
1976.047,2649.00
1976.882,2637.00
1977.716,3154.00
1978.550,2441.00
1979.384,2756.00
1980.218,2750.00
1981.052,2663.00
1981.885,2808.00
1982.719,2766.00
1983.554,2868.00
1984.388,3036.00
1985.221,2842.00
1986.054,3017.00
1986.887,2801.00
1987.720,2585.00
1988.553,3061.00
1989.386,2828.00
1990.219,2870.00
1991.053,3034.00
1991.886,2610.00
1992.719,2951.00
1993.551,2293.00
1994.383,2896.00
1995.216,2684.00
1996.048,2468.00
1996.880,2894.00
1997.712,2670.00
1998.544,2757.00
1999.376,2848.00
2000.208,3041.00
2001.040,3204.00
2001.873,2592.00
2002.705,2590.00
2003.536,2781.00
2004.367,2803.00
2005.199,2749.00
2006.030,2664.00
2006.861,2585.00
2007.692,2767.00
2008.523,2586.00
2009.354,2819.00
2010.185,2572.00
2011.016,2887.00
2011.846,2954.00
2012.677,2717.00
2013.507,3095.00
2014.338,3036.00
2015.168,2718.00
2015.999,3264.00
2016.829,2695.00
2017.659,2987.00
2018.489,3233.00
2019.319,2581.00
2020.149,2928.00
2020.980,2787.00
2021.810,2554.00
2022.639,2663.00
2023.469,2646.00
2024.298,2436.00
2025.128,2423.00
2025.957,2376.00
2026.786,2231.00
2027.615,2429.00
2028.444,2624.00
2029.273,2762.00
2030.102,2409.00
2030.931,2583.00
2031.758,2894.00
2032.586,2556.00
2033.415,2621.00
2034.243,2290.00
2035.072,2043.00
2035.900,2500.00
2036.728,2313.00
2037.556,2371.00
2038.385,2392.00
2039.213,2203.00
2040.040,2213.00
2040.868,2115.00
2041.696,2243.00
2042.524,2248.00
2043.351,2467.00
2044.179,2182.00
2045.006,2007.00
