RamanScope Measure Spectrum Data V3.72

<< MEASURE CONDITION >>
Exposure Type,Aver
Exposure Time [sec],15
Exposure Count,30
Measure Time,2023/07/04 15:22:45
Data Name,""
Data Comment,""
Rayleigh Wave[nm],532.0

<< SAMPLE SPECTRUM >>
Wave[dcm-1],No263
146.591,509.07
147.626,570.60
148.664,699.30
149.699,803.77
150.737,983.00
151.772,1089.13
152.809,1220.37
153.846,1391.60
154.881,1459.00
155.918,1618.77
156.953,1680.20
157.989,1779.03
159.026,1859.13
160.060,1956.43
161.096,2009.53
162.130,2048.53
163.167,2069.27
164.200,2146.23
165.236,2232.53
166.272,2239.50
167.305,2251.37
168.341,2262.73
169.374,2303.90
170.409,2341.97
171.445,2368.30
172.477,2371.03
173.512,2422.77
174.545,2480.07
175.580,2503.20
176.614,2482.57
177.647,2495.67
178.681,2554.43
179.713,2545.23
180.747,2583.60
181.781,2577.40
182.813,2550.10
183.847,2576.70
184.878,2623.87
185.912,2591.93
186.945,2592.97
187.976,2621.07
189.010,2642.67
190.043,2665.13
191.073,2657.60
192.106,2687.23
193.137,2714.17
194.170,2711.27
195.202,2687.87
196.232,2736.80
197.265,2779.70
198.297,2785.23
199.327,2763.63
200.359,2827.30
201.388,2840.50
202.420,2838.13
203.452,2857.03
204.481,2924.93
205.512,2956.30
206.544,2937.70
207.573,2987.33
208.604,3001.73
209.635,3074.33
210.663,3144.53
211.694,3210.80
212.725,3249.30
213.753,3317.93
214.783,3407.80
215.813,3520.03
216.841,3653.60
217.871,3765.03
218.899,3974.20
219.929,4190.80
220.959,4447.17
221.986,4723.67
223.016,4949.23
224.045,5283.60
225.072,5562.77
226.101,5736.60
227.130,5791.97
228.157,5750.43
229.185,5568.70
230.214,5271.83
231.241,4996.47
232.269,4660.47
233.297,4363.37
234.323,4154.93
235.351,3971.93
236.379,3813.97
237.407,3728.87
238.433,3593.10
239.460,3578.77
240.488,3562.53
241.513,3489.53
242.540,3510.23
243.568,3474.23
244.592,3502.27
245.619,3493.50
246.646,3536.67
247.671,3581.20
248.697,3590.47
249.724,3560.40
250.748,3592.17
251.774,3589.07
252.801,3565.83
253.827,3526.07
254.850,3475.63
255.876,3484.73
256.902,3488.60
257.925,3458.23
258.951,3468.43
259.976,3458.73
260.999,3470.97
262.024,3503.13
263.049,3538.40
264.074,3517.87
265.097,3562.30
266.122,3578.47
267.146,3570.80
268.168,3614.87
269.193,3598.90
270.217,3655.47
271.241,3655.90
272.263,3666.30
273.287,3740.20
274.311,3814.83
275.332,3921.63
276.356,3985.77
277.379,4119.37
278.402,4183.60
279.424,4286.63
280.447,4390.80
281.470,4462.53
282.492,4657.10
283.513,4797.30
284.536,4874.10
285.558,4971.63
286.581,5080.80
287.601,5120.10
288.623,5169.83
289.645,5195.13
290.665,5092.00
291.687,5044.57
292.709,4988.40
293.730,4878.93
294.750,4765.73
295.771,4633.33
296.792,4538.77
297.813,4404.17
298.832,4337.07
299.853,4218.07
300.874,4067.73
301.895,3996.30
302.913,3870.77
303.934,3760.33
304.954,3667.93
305.975,3538.30
306.993,3434.80
308.013,3426.17
309.033,3322.87
310.052,3226.30
311.072,3199.33
312.090,3133.73
313.109,3111.07
314.129,3054.90
315.148,2951.47
316.165,2924.13
317.184,2923.33
318.203,2890.20
319.222,2843.73
320.238,2779.60
321.257,2762.40
322.275,2745.37
323.294,2688.90
324.312,2669.47
325.328,2672.77
326.346,2677.63
327.364,2653.90
328.382,2679.47
329.397,2671.17
330.415,2608.63
331.432,2589.63
332.450,2606.30
333.467,2606.67
334.482,2558.30
335.499,2538.13
336.516,2530.27
337.533,2545.10
338.547,2533.60
339.564,2540.70
340.580,2509.50
341.597,2531.47
342.613,2447.77
343.627,2511.10
344.643,2480.07
345.659,2478.97
346.675,2453.23
347.690,2460.10
348.704,2489.40
349.719,2477.23
350.735,2444.33
351.750,2452.43
352.765,2434.13
353.778,2438.27
354.793,2471.67
355.808,2455.77
356.822,2440.90
357.837,2443.43
358.851,2452.17
359.864,2453.07
360.878,2466.77
361.892,2433.17
362.906,2430.77
363.920,2474.50
364.932,2475.93
365.945,2453.07
366.959,2447.83
367.972,2494.10
368.986,2515.70
369.999,2499.37
371.010,2506.67
372.023,2508.53
373.036,2499.60
374.049,2514.60
375.061,2585.57
376.072,2602.87
377.084,2615.43
378.097,2657.03
379.109,2672.60
380.121,2740.50
381.133,2718.33
382.143,2784.43
383.155,2761.67
384.166,2831.70
385.178,2828.10
386.189,2883.37
387.201,2921.13
388.212,2992.40
389.221,3003.87
390.232,3056.47
391.243,3103.07
392.254,3071.17
393.264,3161.43
394.275,3171.63
395.283,3248.67
396.294,3220.97
397.304,3264.37
398.314,3276.73
399.324,3329.23
400.334,3329.27
401.344,3276.60
402.351,3337.33
403.361,3303.50
404.370,3264.13
405.380,3274.50
406.389,3252.57
407.398,3177.90
408.407,3098.77
409.414,3296.93
410.423,3036.20
411.431,3049.00
412.440,3009.93
413.448,2941.33
414.457,2876.40
415.465,2847.47
416.471,2826.60
417.479,2809.90
418.487,2797.43
419.495,2734.37
420.503,2693.90
421.510,2706.53
422.518,2673.73
423.525,2633.43
424.530,2636.30
425.537,2638.00
426.544,2579.30
427.551,2604.37
428.558,2578.97
429.565,2563.77
430.571,2547.33
431.578,2535.00
432.582,2522.13
433.588,2493.43
434.595,2476.53
435.601,2498.20
436.607,2465.63
437.612,2471.60
438.618,2485.60
439.624,2463.70
440.627,2445.33
441.633,2463.07
442.638,2487.40
443.643,2449.97
444.648,2432.10
445.653,2452.57
446.658,2437.03
447.663,2436.10
448.667,2459.53
449.672,2419.53
450.674,2391.17
451.678,2386.17
452.682,2396.03
453.687,2420.53
454.690,2417.33
455.694,2456.50
456.698,2408.60
457.702,2417.40
458.705,2426.73
459.709,2418.47
460.710,2385.20
461.713,2406.70
462.716,2395.73
463.719,2438.47
464.722,2432.67
465.725,2423.47
466.727,2435.73
467.730,2426.13
468.732,2451.50
469.735,2452.43
470.737,2449.83
471.737,2457.60
472.739,2448.00
473.741,2444.70
474.742,2457.20
475.744,2466.70
476.746,2429.33
477.747,2480.63
478.748,2520.83
479.750,2486.67
480.751,2485.93
481.752,2413.30
482.753,2482.07
483.751,2516.67
484.752,2527.70
485.753,2496.20
486.753,2494.17
487.753,2501.10
488.754,2534.53
489.754,2498.70
490.754,2455.37
491.754,2471.87
492.754,2505.77
493.753,2530.93
494.753,2497.17
495.752,2491.00
496.752,2461.00
497.749,2453.10
498.748,2490.43
499.747,2465.40
500.746,2446.00
501.745,2460.30
502.744,2448.43
503.742,2434.83
504.741,2402.97
505.739,2408.57
506.737,2421.07
507.735,2403.17
508.734,2391.37
509.732,2381.03
510.729,2369.37
511.727,2317.87
512.725,2332.33
513.720,2355.03
514.718,2326.37
515.715,2314.97
516.712,2299.03
517.709,2312.07
518.706,2299.77
519.703,2328.67
520.700,2339.40
521.696,2313.50
522.693,2281.90
523.689,2304.63
524.686,2311.57
525.682,2284.03
526.678,2285.07
527.674,2290.73
528.670,2309.07
529.666,2294.97
530.661,2310.03
531.657,2343.00
532.652,2319.53
533.648,2342.87
534.641,2383.37
535.636,2385.17
536.631,2331.93
537.626,2370.23
538.621,2402.40
539.616,2391.90
540.610,2371.67
541.605,2335.77
542.599,2408.70
543.593,2423.17
544.587,2414.17
545.581,2436.90
546.575,2412.60
547.569,2434.47
548.563,2415.80
549.557,2425.70
550.550,2441.63
551.543,2456.47
552.537,2486.77
553.530,2446.30
554.523,2470.30
555.516,2464.67
556.509,2515.50
557.502,2477.23
558.494,2461.60
559.487,2470.00
560.479,2518.33
561.472,2493.33
562.464,2524.97
563.456,2453.20
564.448,2513.70
565.440,2505.57
566.432,2505.83
567.423,2535.73
568.415,2550.07
569.404,2536.60
570.396,2491.17
571.387,2529.40
572.378,2578.87
573.369,2574.50
574.360,2525.10
575.351,2579.30
576.341,2616.37
577.332,2605.20
578.323,2642.27
579.313,2615.67
580.303,2602.13
581.293,2626.57
582.283,2649.43
583.273,2710.40
584.263,2699.23
585.253,2732.57
586.243,2758.67
587.232,2749.13
588.222,2760.90
589.211,2799.57
590.200,2785.57
591.189,2795.67
592.178,2797.90
593.167,2795.50
594.156,2847.80
595.145,2827.40
596.133,2802.63
597.122,2839.07
598.110,2868.03
599.098,2804.87
600.086,2780.03
601.074,2847.40
602.062,2823.00
603.050,2763.30
604.038,2780.27
605.025,2746.80
606.013,2795.87
607.000,2765.30
607.987,2748.47
608.975,2715.57
609.962,2679.73
610.949,2651.20
611.936,2619.43
612.922,2682.37
613.909,2650.77
614.895,2645.47
615.882,2633.10
616.868,2603.27
617.854,2653.97
618.841,2579.03
619.826,2615.53
620.812,2578.13
621.798,2561.43
622.784,2552.37
623.769,2558.13
624.755,2565.60
625.740,2512.97
626.725,2518.67
627.711,2513.97
628.698,2484.57
629.683,2443.53
630.667,2419.83
631.652,2449.73
632.637,2419.33
633.621,2406.40
634.606,2401.60
635.590,2374.13
636.574,2340.30
637.558,2362.43
638.542,2312.37
639.526,2313.03
640.510,2316.93
641.493,2278.37
642.477,2278.20
643.460,2228.17
644.444,2283.63
645.427,2232.53
646.410,2234.67
647.393,2240.33
648.376,2235.60
649.359,2181.00
650.341,2205.30
651.324,2172.73
652.307,2157.97
653.289,2175.67
654.271,2154.73
655.253,2156.20
656.235,2150.13
657.217,2131.00
658.199,2131.20
659.181,2127.07
660.163,2145.20
661.144,2080.17
662.126,2060.23
663.107,2101.97
664.088,2082.47
665.069,2055.97
666.050,2056.33
667.033,2076.40
668.014,2040.13
668.995,2002.63
669.975,2015.47
670.956,2032.27
671.936,1966.17
672.916,2026.93
673.896,2014.67
674.876,1967.53
675.856,2012.47
676.836,1989.37
677.816,1984.73
678.795,1943.07
679.775,1940.17
680.754,1966.60
681.734,1937.60
682.713,1926.57
683.692,1949.80
684.671,1903.13
685.650,1913.47
686.629,1909.83
687.607,1899.83
688.586,1868.27
689.564,1912.87
690.543,1880.10
691.523,1887.40
692.501,1869.67
693.479,1866.00
694.457,1839.53
695.435,1819.60
696.413,1833.63
697.390,1816.27
698.368,1789.87
699.345,1847.97
700.322,1823.67
701.300,1819.50
702.277,1820.70
703.254,1827.07
704.231,1785.53
705.207,1774.57
706.184,1740.67
707.161,1787.97
708.137,1782.90
709.113,1724.87
710.090,1782.57
711.068,1754.93
712.044,1768.50
713.020,1780.70
713.996,1746.33
714.971,1756.80
715.947,1759.23
716.922,1726.67
717.898,1727.13
718.873,1718.17
719.848,1737.73
720.823,1733.63
721.798,1691.10
722.773,1684.87
723.748,1709.47
724.723,1715.63
725.697,1678.17
726.672,1688.50
727.646,1691.30
728.622,1694.83
729.596,1687.47
730.570,1705.50
731.544,1687.13
732.518,1691.17
733.492,1635.23
734.466,1623.90
735.439,1646.83
736.413,1601.67
737.386,1666.73
738.359,1629.23
739.332,1613.40
740.305,1640.50
741.278,1593.63
742.251,1634.53
743.224,1598.00
744.196,1589.43
745.171,1631.77
746.143,1577.77
747.115,1587.23
748.087,1553.70
749.059,1604.60
750.031,1562.47
751.003,1545.00
751.975,1543.30
752.947,1538.30
753.918,1528.20
754.890,1517.60
755.861,1544.37
756.832,1477.50
757.803,1502.37
758.774,1507.33
759.747,1508.20
760.718,1538.70
761.689,1513.93
762.659,1502.70
763.630,1489.63
764.600,1512.50
765.570,1479.67
766.540,1506.97
767.510,1517.97
768.480,1475.43
769.450,1454.07
770.420,1453.27
771.390,1460.40
772.359,1468.30
773.329,1418.33
774.300,1456.00
775.269,1464.03
776.238,1441.77
777.207,1445.17
778.176,1411.43
779.145,1444.03
780.114,1430.60
781.083,1453.00
782.051,1448.73
783.019,1406.93
783.988,1407.60
784.956,1389.50
785.924,1403.67
786.894,1389.37
787.862,1420.20
788.830,1422.83
789.797,1425.57
790.765,1410.17
791.732,1420.27
792.700,1365.20
793.667,1366.37
794.634,1428.53
795.601,1368.60
796.568,1394.20
797.535,1326.40
798.502,1351.67
799.468,1359.70
800.437,1389.17
801.403,1371.10
802.370,1347.07
803.336,1342.00
804.302,1373.23
805.268,1363.67
806.234,1340.93
807.200,1320.50
808.166,1323.87
809.131,1324.50
810.097,1303.10
811.062,1365.10
812.027,1310.03
812.994,1332.20
813.960,1309.47
814.925,1284.80
815.889,1336.20
816.854,1230.20
817.819,1313.43
818.783,1340.07
819.748,1265.00
820.712,1309.77
821.677,1295.80
822.641,1254.07
823.605,1287.33
824.571,1254.97
825.534,1306.37
826.498,1282.07
827.462,1296.70
828.425,1237.53
829.389,1265.73
830.352,1247.43
831.315,1266.70
832.279,1276.67
833.242,1253.00
834.204,1230.40
835.167,1271.50
836.132,1279.10
837.095,1211.40
838.057,1245.50
839.020,1238.77
839.982,1208.93
840.944,1222.90
841.906,1239.33
842.868,1232.20
843.830,1287.77
844.792,1251.57
845.753,1226.67
846.715,1228.57
847.679,1267.77
848.640,1256.83
849.601,1251.07
850.562,1262.57
851.523,1208.80
852.484,1225.53
853.445,1191.37
854.406,1259.17
855.367,1223.10
856.327,1212.10
857.288,1239.30
858.248,1222.23
859.210,1247.07
860.170,1234.20
861.130,1255.37
862.090,1174.70
863.050,1241.83
864.010,1236.30
864.969,1249.33
865.929,1226.37
866.888,1214.30
867.848,1220.23
868.807,1220.53
869.766,1220.43
870.727,1220.13
871.686,1248.10
872.645,1220.20
873.604,1162.53
874.562,1216.73
875.521,1256.73
876.479,1202.00
877.437,1227.83
878.396,1219.03
879.354,1177.10
880.312,1222.00
881.270,1233.73
882.229,1229.33
883.187,1230.53
884.145,1203.60
885.102,1217.57
886.059,1213.57
887.017,1193.50
887.974,1227.53
888.931,1179.43
889.888,1188.60
890.845,1224.50
891.802,1230.93
892.758,1222.07
893.717,1260.67
894.673,1217.47
895.630,1196.57
896.586,1208.60
897.542,1237.33
898.498,1225.63
899.454,1237.53
900.410,1192.53
901.366,1274.27
902.321,1216.37
903.277,1191.43
904.232,1193.87
905.189,1210.77
906.145,1210.77
907.100,1209.07
908.055,1233.77
909.010,1221.93
909.965,1213.50
910.919,1255.73
911.874,1218.87
912.828,1229.27
913.783,1211.00
914.737,1224.77
915.693,1234.60
916.648,1248.00
917.602,1245.63
918.555,1260.60
919.509,1188.57
920.463,1257.30
921.417,1252.80
922.370,1236.20
923.324,1224.30
924.277,1248.00
925.230,1225.87
926.183,1199.53
927.138,1273.03
928.091,1252.67
929.044,1241.90
929.996,1221.07
930.949,1226.47
931.902,1281.40
932.854,1254.40
933.806,1266.57
934.758,1276.67
935.711,1222.67
936.663,1267.63
937.614,1269.00
938.568,1298.97
939.520,1279.37
940.471,1288.13
941.423,1293.47
942.374,1276.10
943.326,1281.70
944.277,1244.30
945.228,1244.37
946.179,1283.23
947.130,1266.53
948.080,1244.03
949.031,1282.10
949.984,1270.80
950.934,1245.40
951.884,1246.37
952.835,1259.83
953.785,1324.47
954.735,1264.90
955.685,1295.83
956.635,1282.80
957.585,1256.00
958.534,1305.83
959.484,1243.20
960.433,1237.43
961.383,1295.63
962.334,1255.70
963.283,1251.67
964.232,1279.97
965.181,1284.90
966.130,1277.17
967.079,1248.13
968.027,1268.00
968.976,1260.93
969.924,1255.83
970.873,1287.67
971.821,1298.17
972.769,1301.87
973.719,1299.40
974.667,1278.30
975.615,1263.10
976.562,1321.17
977.510,1283.50
978.458,1269.87
979.405,1281.93
980.352,1258.90
981.300,1291.73
982.247,1338.50
983.194,1286.03
984.141,1280.50
985.088,1335.73
986.036,1296.53
986.983,1278.17
987.930,1287.30
988.876,1319.37
989.822,1303.20
990.769,1308.37
991.715,1338.97
992.661,1320.60
993.607,1294.87
994.553,1286.37
995.498,1309.70
996.444,1340.07
997.389,1307.10
998.337,1311.13
999.282,1320.83
1000.227,1302.40
1001.173,1302.90
1002.118,1357.57
1003.062,1321.27
1004.007,1330.20
1004.952,1379.30
1005.897,1351.70
1006.841,1332.97
1007.786,1363.20
1008.730,1332.37
1009.674,1340.57
1010.618,1358.03
1011.564,1353.00
1012.508,1350.40
1013.452,1337.03
1014.396,1400.97
1015.339,1361.17
1016.283,1368.83
1017.226,1374.43
1018.170,1380.60
1019.113,1370.47
1020.056,1374.70
1020.999,1380.83
1021.942,1410.07
1022.885,1373.93
1023.828,1364.23
1024.770,1368.37
1025.715,1389.83
1026.657,1395.17
1027.600,1382.17
1028.542,1406.53
1029.484,1395.87
1030.426,1386.00
1031.368,1440.00
1032.310,1422.50
1033.251,1424.70
1034.193,1430.63
1035.135,1405.77
1036.076,1454.77
1037.017,1414.93
1037.959,1442.20
1038.900,1444.73
1039.843,1455.50
1040.784,1428.10
1041.725,1460.27
1042.665,1466.03
1043.606,1451.00
1044.547,1433.83
1045.487,1440.63
1046.427,1444.00
1047.368,1423.20
1048.308,1497.87
1049.248,1432.37
1050.188,1474.10
1051.128,1504.57
1052.067,1492.57
1053.007,1513.37
1053.947,1522.83
1054.886,1474.37
1055.827,1516.33
1056.766,1504.13
1057.706,1516.13
1058.645,1510.50
1059.584,1532.17
1060.522,1508.53
1061.461,1502.10
1062.400,1537.30
1063.338,1514.97
1064.277,1561.80
1065.215,1553.03
1066.154,1565.60
1067.092,1541.33
1068.030,1558.87
1068.968,1569.70
1069.906,1568.60
1070.843,1559.80
1071.781,1593.10
1072.720,1544.77
1073.658,1568.57
1074.595,1628.80
1075.533,1654.13
1076.470,1593.47
1077.407,1628.83
1078.344,1611.50
1079.281,1630.87
1080.217,1642.90
1081.154,1608.50
1082.091,1594.50
1083.027,1638.40
1083.964,1636.90
1084.900,1624.00
1085.836,1654.10
1086.772,1646.07
1087.708,1645.07
1088.644,1649.33
1089.580,1649.20
1090.515,1634.53
1091.451,1673.47
1092.388,1638.63
1093.324,1625.20
1094.259,1662.67
1095.194,1702.00
1096.129,1663.10
1097.064,1668.37
1097.999,1641.87
1098.934,1659.97
1099.869,1669.90
1100.803,1659.83
1101.738,1659.07
1102.672,1632.23
1103.607,1609.07
1104.541,1612.70
1105.475,1596.80
1106.409,1623.00
1107.343,1618.47
1108.277,1618.33
1109.210,1549.43
1110.144,1589.47
1111.078,1610.73
1112.011,1588.23
1112.944,1544.00
1113.878,1560.67
1114.811,1564.10
1115.744,1531.23
1116.678,1556.80
1117.611,1553.37
1118.544,1516.70
1119.477,1476.50
1120.409,1545.53
1121.342,1539.30
1122.274,1532.80
1123.206,1539.10
1124.138,1522.33
1125.070,1498.73
1126.002,1466.40
1126.934,1500.07
1127.866,1518.77
1128.798,1509.80
1129.729,1454.00
1130.661,1468.37
1131.592,1470.73
1132.523,1465.23
1133.454,1442.70
1134.385,1451.47
1135.317,1415.33
1136.247,1427.63
1137.178,1455.07
1138.109,1422.83
1139.039,1444.87
1139.970,1453.07
1140.900,1430.27
1141.831,1370.90
1142.761,1383.77
1143.691,1335.20
1144.621,1391.60
1145.551,1393.23
1146.480,1401.77
1147.410,1402.93
1148.340,1365.30
1149.269,1361.90
1150.199,1338.60
1151.128,1382.27
1152.057,1366.97
1152.979,1370.47
1153.898,1329.43
1154.819,1322.03
1155.739,1334.50
1156.658,1338.93
1157.579,1314.97
1158.498,1366.10
1159.419,1353.70
1160.338,1323.77
1161.256,1371.67
1162.177,1330.70
1163.095,1335.43
1164.016,1321.07
1164.934,1359.73
1165.852,1329.73
1166.772,1314.80
1167.690,1326.80
1168.610,1318.37
1169.528,1285.57
1170.446,1278.27
1171.365,1328.47
1172.283,1285.33
1173.202,1296.67
1174.120,1278.60
1175.037,1311.37
1175.956,1283.60
1176.873,1319.83
1177.792,1294.87
1178.709,1301.23
1179.626,1300.17
1180.544,1239.70
1181.461,1286.47
1182.379,1287.87
1183.296,1348.93
1184.212,1248.73
1185.130,1290.63
1186.046,1253.90
1186.962,1292.47
1187.880,1283.43
1188.796,1282.57
1189.714,1259.40
1190.629,1284.50
1191.545,1275.60
1192.462,1287.90
1193.378,1261.50
1194.295,1252.93
1195.210,1256.30
1196.125,1270.63
1197.042,1306.67
1197.957,1259.20
1198.872,1272.50
1199.788,1304.50
1200.703,1268.53
1201.619,1268.27
1202.534,1275.80
1203.448,1283.57
1204.364,1291.87
1205.278,1279.27
1206.192,1295.30
1207.108,1319.47
1208.022,1318.57
1208.938,1278.33
1209.851,1288.40
1210.765,1311.27
1211.680,1290.77
1212.594,1287.20
1213.507,1281.30
1214.422,1319.17
1215.335,1315.57
1216.248,1305.47
1217.163,1313.17
1218.076,1317.07
1218.990,1339.30
1219.903,1316.03
1220.816,1285.33
1221.730,1332.73
1222.642,1364.93
1223.554,1351.73
1224.469,1330.67
1225.380,1321.27
1226.292,1355.23
1227.206,1401.27
1228.118,1356.27
1229.032,1354.00
1229.943,1349.67
1230.855,1377.03
1231.768,1398.27
1232.679,1386.47
1233.590,1382.90
1234.503,1375.03
1235.414,1427.53
1236.325,1395.07
1237.238,1377.93
1238.149,1415.37
1239.059,1413.00
1239.972,1429.70
1240.882,1376.90
1241.793,1444.83
1242.705,1462.80
1243.615,1425.77
1244.525,1424.97
1245.437,1479.93
1246.347,1429.77
1247.259,1432.57
1248.168,1499.00
1249.078,1450.27
1249.989,1493.63
1250.899,1479.67
1251.808,1534.33
1252.719,1501.63
1253.628,1496.83
1254.537,1504.13
1255.448,1515.77
1256.357,1513.20
1257.266,1506.23
1258.176,1539.30
1259.085,1537.60
1259.993,1572.83
1260.904,1550.27
1261.812,1579.47
1262.720,1564.73
1263.630,1550.10
1264.538,1575.10
1265.446,1545.73
1266.356,1597.53
1267.263,1604.20
1268.171,1637.73
1269.080,1621.63
1269.988,1625.97
1270.895,1654.00
1271.804,1622.50
1272.711,1619.60
1273.619,1650.00
1274.527,1644.10
1275.434,1663.70
1276.341,1652.97
1277.248,1669.83
1278.156,1637.27
1279.063,1648.37
1279.969,1661.13
1280.877,1659.23
1281.783,1650.50
1282.690,1663.77
1283.598,1689.43
1284.503,1654.23
1285.409,1705.37
1286.317,1698.87
1287.223,1679.20
1288.128,1687.90
1289.036,1703.33
1289.941,1684.07
1290.846,1702.83
1291.751,1657.70
1292.658,1708.70
1293.563,1702.10
1294.468,1674.00
1295.375,1707.90
1296.280,1672.03
1297.184,1698.70
1298.091,1672.13
1298.995,1683.53
1299.900,1670.87
1300.806,1662.27
1301.710,1629.17
1302.614,1656.13
1303.518,1617.83
1304.424,1646.53
1305.327,1640.90
1306.231,1601.20
1307.137,1575.50
1308.040,1627.07
1308.943,1604.13
1309.847,1611.30
1310.752,1561.70
1311.655,1592.13
1312.558,1557.90
1313.463,1570.33
1314.366,1547.63
1315.269,1554.93
1316.171,1569.90
1317.076,1506.63
1317.978,1512.63
1318.881,1560.47
1319.785,1503.20
1320.687,1537.50
1321.589,1515.53
1322.491,1478.07
1323.395,1465.63
1324.297,1458.37
1325.198,1433.47
1326.102,1502.47
1327.004,1489.50
1327.905,1457.90
1328.806,1425.73
1329.709,1413.60
1330.611,1438.37
1331.512,1393.13
1332.413,1416.03
1333.316,1446.07
1334.216,1378.33
1335.117,1392.00
1336.020,1360.40
1336.920,1371.03
1337.821,1386.27
1338.721,1323.63
1339.623,1346.47
1340.523,1352.57
1341.423,1341.43
1342.323,1299.73
1343.225,1338.40
1344.125,1326.43
1345.025,1277.80
1345.924,1269.50
1346.826,1264.27
1347.725,1270.67
1348.624,1293.83
1349.524,1255.97
1350.425,1245.97
1351.324,1270.23
1352.223,1217.77
1353.121,1240.47
1354.022,1240.17
1354.921,1250.47
1355.819,1238.80
1356.718,1207.50
1357.618,1203.13
1358.516,1202.60
1359.415,1196.73
1360.313,1202.00
1361.213,1196.77
1362.111,1211.47
1363.008,1233.70
1363.906,1205.60
1364.806,1206.60
1365.703,1132.50
1366.601,1217.90
1367.498,1141.20
1368.397,1158.80
1369.295,1154.10
1370.192,1174.47
1371.089,1185.63
1371.987,1163.87
1372.884,1139.17
1373.781,1155.53
1374.678,1178.03
1375.574,1162.57
1376.473,1168.90
1377.369,1164.70
1378.265,1145.43
1379.161,1150.80
1380.059,1104.63
1380.955,1154.63
1381.851,1128.80
1382.747,1157.50
1383.643,1103.67
1384.540,1146.27
1385.436,1126.60
1386.331,1141.93
1387.227,1150.87
1388.124,1139.17
1389.019,1151.43
1389.914,1126.13
1390.809,1180.30
1391.704,1129.93
1392.601,1122.27
1393.495,1155.67
1394.390,1132.80
1395.285,1117.83
1396.179,1111.53
1397.075,1136.63
1397.969,1135.93
1398.864,1133.77
1399.758,1100.47
1400.652,1118.63
1401.547,1117.43
1402.441,1120.10
1403.335,1124.40
1404.229,1155.03
1405.122,1093.40
1406.017,1093.93
1406.911,1085.43
1407.804,1088.00
1408.697,1117.20
1409.590,1138.10
1410.485,1069.63
1411.378,1093.23
1412.271,1120.63
1413.163,1120.60
1414.056,1129.10
1414.949,1100.77
1415.843,1090.93
1416.735,1085.37
1417.627,1089.93
1418.520,1062.40
1419.412,1088.40
1420.306,1113.47
1421.197,1015.50
1422.089,1065.67
1422.981,1047.10
1423.873,1066.40
1424.764,1022.30
1425.657,1093.10
1426.549,1019.17
1427.440,1067.23
1428.331,1061.97
1429.222,1081.33
1430.113,1081.97
1431.006,1082.97
1431.897,1040.17
1432.787,1034.60
1433.678,1053.07
1434.568,1017.73
1435.459,1018.93
1436.351,1024.97
1437.241,1005.37
1438.131,997.87
1439.021,972.07
1439.911,1006.43
1440.801,1033.80
1441.693,1001.13
1442.583,1008.63
1443.472,970.70
1444.362,957.07
1445.251,998.07
1446.140,1000.97
1447.030,943.97
1447.921,955.37
1448.810,935.33
1449.699,926.13
1450.588,922.53
1451.476,935.73
1452.365,927.23
1453.254,933.17
1454.144,918.57
1455.032,913.90
1455.921,906.90
1456.809,900.57
1457.697,896.43
1458.585,933.07
1459.473,898.80
1460.361,911.30
1461.251,874.00
1462.138,934.17
1463.026,903.90
1463.913,844.67
1464.801,875.27
1465.688,882.67
1466.575,890.60
1467.463,862.80
1468.351,901.23
1469.238,859.97
1470.125,867.70
1471.012,843.83
1471.899,858.30
1472.785,837.63
1473.672,857.83
1474.558,871.00
1475.446,864.73
1476.333,867.67
1477.219,831.90
1478.105,819.37
1478.991,838.70
1479.877,863.87
1480.762,839.70
1481.648,841.43
1482.534,850.57
1483.419,821.63
1484.307,825.53
1485.192,827.67
1486.077,807.10
1486.962,833.20
1487.847,797.07
1488.732,805.23
1489.617,813.00
1490.502,783.77
1491.387,829.00
1492.271,827.77
1493.156,789.33
1494.042,798.90
1494.927,812.07
1495.811,799.17
1496.695,822.50
1497.579,774.13
1498.463,799.37
1499.347,795.87
1500.231,811.83
1501.114,777.07
1501.998,804.40
1502.881,803.20
1503.765,760.50
1504.648,815.90
1505.533,773.97
1506.417,795.63
1507.300,764.30
1508.183,775.87
1509.066,783.77
1509.948,778.37
1510.831,784.90
1511.714,804.23
1512.596,756.73
1513.479,763.77
1514.361,758.47
1515.243,746.60
1516.125,781.67
1517.008,722.40
1517.890,766.57
1518.771,755.23
1519.655,760.20
1520.537,754.20
1521.419,769.50
1522.300,713.23
1523.182,745.40
1524.063,736.57
1524.944,708.63
1525.825,714.50
1526.707,721.87
1527.588,733.60
1528.468,739.27
1529.349,735.70
1530.230,706.00
1531.111,742.03
1531.991,687.93
1532.872,742.50
1533.752,737.87
1534.632,683.00
1535.513,708.27
1536.393,739.27
1537.273,689.73
1538.153,728.87
1539.032,706.67
1539.912,716.57
1540.792,744.23
1541.672,737.47
1542.551,714.17
1543.430,724.87
1544.310,703.70
1545.189,726.17
1546.068,688.77
1546.947,668.33
1547.826,697.73
1548.705,728.10
1549.584,718.27
1550.462,708.47
1551.341,691.67
1552.219,719.53
1553.098,669.03
1553.976,689.67
1554.854,703.70
1555.733,668.03
1556.611,703.40
1557.489,715.30
1558.367,666.77
1559.244,694.80
1560.122,690.63
1561.000,716.50
1561.877,692.30
1562.755,695.67
1563.632,682.30
1564.509,650.07
1565.386,648.80
1566.264,670.87
1567.141,688.50
1568.017,656.50
1568.894,680.87
1569.771,672.43
1570.648,684.13
1571.524,657.93
1572.401,719.10
1573.277,661.93
1574.153,683.47
1575.029,663.13
1575.906,661.87
1576.781,660.30
1577.657,654.70
1578.533,643.80
1579.409,670.33
1580.285,676.13
1581.160,676.00
1582.036,666.37
1582.911,636.57
1583.786,644.70
1584.662,617.90
1585.537,627.87
1586.412,687.90
1587.287,649.50
1588.160,658.00
1589.035,653.73
1589.909,642.13
1590.784,659.53
1591.658,677.63
1592.533,671.40
1593.407,660.87
1594.281,653.80
1595.155,670.33
1596.029,674.47
1596.903,648.27
1597.777,618.47
1598.651,679.50
1599.525,636.63
1600.398,630.80
1601.272,646.57
1602.144,645.50
1603.017,634.13
1603.890,654.73
1604.763,649.60
1605.636,680.10
1606.509,629.37
1607.382,613.73
1608.255,675.00
1609.128,649.87
1610.000,638.13
1610.873,613.00
1611.746,620.87
1612.616,646.73
1613.488,639.17
1614.361,649.40
1615.233,633.07
1616.105,677.57
1616.977,648.40
1617.849,599.00
1618.720,615.17
1619.592,631.53
1620.464,600.90
1621.333,621.33
1622.205,608.87
1623.076,619.87
1623.947,621.57
1624.818,647.33
1625.689,652.20
1626.560,644.50
1627.431,621.50
1628.302,644.63
1629.171,684.70
1630.042,603.10
1630.912,640.37
1631.782,636.37
1632.653,629.83
1633.523,615.50
1634.393,629.77
1635.263,619.80
1636.131,650.70
1637.001,631.63
1637.871,637.83
1638.741,656.43
1639.611,583.63
1640.480,655.33
1641.350,614.97
1642.219,597.80
1643.087,596.53
1643.956,632.83
1644.825,616.67
1645.694,615.63
1646.563,609.83
1647.432,620.20
1648.299,607.47
1649.167,668.20
1650.036,588.63
1650.904,622.30
1651.773,618.03
1652.641,630.93
1653.509,589.73
1654.376,572.93
1655.244,604.23
1656.112,642.43
1656.980,588.67
1657.847,646.93
1658.715,605.53
1659.581,618.17
1660.448,633.63
1661.316,586.10
1662.183,557.63
1663.051,606.07
1663.918,599.70
1664.783,615.10
1665.650,633.83
1666.517,609.50
1667.384,629.20
1668.251,628.53
1669.115,597.63
1669.982,612.73
1670.849,624.80
1671.715,573.60
1672.581,606.77
1673.446,609.03
1674.312,570.20
1675.178,593.17
1676.044,623.50
1676.910,560.43
1677.774,617.60
1678.639,622.70
1679.505,615.83
1680.370,601.93
1681.236,588.47
1682.099,615.73
1682.965,593.83
1683.830,585.43
1684.695,603.20
1685.560,593.07
1686.423,569.33
1687.288,573.83
1688.153,630.03
1689.017,592.80
1689.880,577.83
1690.745,601.40
1691.609,547.67
1692.473,592.50
1693.338,579.73
1694.200,579.03
1695.064,593.87
1695.928,588.60
1696.792,553.13
1697.654,590.23
1698.517,577.97
1699.381,575.47
1700.245,572.40
1701.106,628.60
1701.969,587.93
1702.833,587.27
1703.696,578.00
1704.557,542.30
1705.420,591.23
1706.283,595.40
1707.146,589.30
1708.007,566.17
1708.870,582.03
1709.732,579.07
1710.595,564.77
1711.455,569.47
1712.318,583.80
1713.180,549.83
1714.040,570.17
1714.902,575.13
1715.764,603.67
1716.626,602.97
1717.486,597.13
1718.348,599.73
1719.209,778.80
1720.071,593.97
1720.930,563.47
1721.792,560.87
1722.653,525.50
1723.512,575.40
1724.374,584.53
1725.234,572.77
1726.095,567.90
1726.954,553.17
1727.815,560.63
1728.676,542.20
1729.535,569.27
1730.395,614.67
1731.256,570.33
1732.114,592.97
1732.974,561.20
1733.834,575.33
1734.693,530.80
1735.553,567.03
1736.413,590.33
1737.272,526.27
1738.130,560.13
1738.990,585.80
1739.849,561.20
1740.707,588.00
1741.566,547.70
1742.426,595.53
1743.283,523.00
1744.142,520.47
1745.001,573.73
1745.858,568.93
1746.717,576.57
1747.576,603.43
1748.433,559.77
1749.292,561.47
1750.150,618.23
1751.007,558.50
1751.865,561.80
1752.723,552.03
1753.579,539.40
1754.438,538.27
1755.296,555.30
1756.152,554.00
1757.010,536.77
1757.865,571.03
1758.723,543.40
1759.581,558.50
1760.436,555.83
1761.294,565.73
1762.151,599.43
1763.006,581.93
1763.864,549.53
1764.721,573.37
1765.576,537.47
1766.433,568.40
1767.288,561.77
1768.144,537.83
1769.001,575.23
1769.856,537.67
1770.712,575.90
1771.568,568.47
1772.423,574.17
1773.279,539.23
1774.133,564.90
1774.989,570.90
1775.845,528.10
1776.699,583.87
1777.555,540.83
1778.409,572.20
1779.265,542.77
1780.120,551.70
1780.974,517.83
1781.829,556.07
1782.682,571.23
1783.538,555.13
1784.393,560.73
1785.246,533.90
1786.101,580.23
1786.954,527.87
1787.808,554.03
1788.661,589.13
1789.516,572.70
1790.370,540.27
1791.223,543.60
1792.077,564.67
1792.930,520.20
1793.784,505.37
1794.636,545.30
1795.490,520.63
1796.344,537.13
1797.196,548.80
1798.049,547.50
1798.901,508.23
1799.755,509.53
1800.606,529.60
1801.460,534.00
1802.311,578.70
1803.165,570.53
1804.018,531.37
1804.869,525.63
1805.722,569.60
1806.573,495.67
1807.426,534.20
1808.276,551.27
1809.129,515.77
1809.980,558.80
1810.832,574.77
1811.683,533.43
1812.535,560.20
1813.385,505.57
1814.237,543.57
1815.089,565.17
1815.940,542.47
1816.791,559.13
1817.641,536.43
1818.493,532.93
1819.343,546.43
1820.194,518.60
1821.044,510.47
1821.895,554.17
1822.745,513.73
1823.596,504.10
1824.445,515.57
1825.296,528.50
1826.145,520.60
1826.996,550.23
1827.845,504.70
1828.695,554.93
1829.544,535.17
1830.395,557.20
1831.243,547.33
1832.094,524.47
1832.942,474.43
1833.792,561.67
1834.640,504.83
1835.490,529.73
1836.338,554.50
1837.186,519.57
1838.036,508.73
1838.884,524.60
1839.733,552.50
1840.581,536.70
1841.430,551.20
1842.278,518.77
1843.127,533.27
1843.974,496.27
1844.823,553.47
1845.671,553.37
1846.519,561.90
1847.366,550.87
1848.213,490.67
1849.062,528.00
1849.909,499.67
1850.757,545.43
1851.604,534.73
1852.452,539.73
1853.298,511.83
1854.146,502.90
1854.993,539.53
1855.839,478.53
1856.687,520.83
1857.532,534.43
1858.380,529.10
1859.226,544.50
1860.073,527.90
1860.919,555.33
1861.765,549.47
1862.612,516.63
1863.457,511.43
1864.304,499.80
1865.150,505.10
1865.995,526.23
1866.842,512.10
1867.686,480.73
1868.533,513.43
1869.378,487.57
1870.223,502.07
1871.069,471.57
1871.914,523.07
1872.760,550.53
1873.604,508.97
1874.448,534.03
1875.294,526.43
1876.139,531.37
1876.984,542.23
1877.828,529.80
1878.672,543.67
1879.518,490.93
1880.361,485.30
1881.205,503.03
1882.050,527.67
1882.894,514.37
1883.739,490.60
1884.582,504.57
1885.425,495.50
1886.270,509.63
1887.113,517.20
1887.956,523.73
1888.801,529.17
1889.644,477.17
1890.486,536.57
1891.331,477.63
1892.173,526.53
1893.017,530.37
1893.860,536.30
1894.702,480.63
1895.546,517.27
1896.388,501.27
1897.230,510.27
1898.074,506.90
1898.916,505.40
1899.757,494.93
1900.601,507.30
1901.443,544.10
1902.284,502.63
1903.125,487.70
1903.969,520.07
1904.810,496.23
1905.651,517.00
1906.494,539.97
1907.335,458.07
1908.176,477.00
1909.018,494.10
1909.859,514.63
1910.700,523.50
1911.542,539.80
1912.383,483.13
1913.223,473.77
1914.064,560.70
1914.906,509.97
1915.746,507.20
1916.586,561.70
1917.428,530.43
1918.268,511.53
1919.107,525.20
1919.947,501.43
1920.789,514.87
1921.628,496.30
1922.468,491.07
1923.309,512.97
1924.148,515.80
1924.988,483.53
1925.827,506.27
1926.667,483.27
1927.507,472.23
1928.345,517.80
1929.184,478.47
1930.025,509.00
1930.864,490.30
1931.702,527.97
1932.541,488.87
1933.381,512.90
1934.219,461.47
1935.057,487.37
1935.896,540.27
1936.735,489.27
1937.573,509.60
1938.411,518.17
1939.249,487.47
1940.089,470.53
1940.927,519.53
1941.764,485.47
1942.602,481.37
1943.439,501.07
1944.278,468.77
1945.115,431.90
1945.953,500.67
1946.790,494.37
1947.628,517.97
1948.465,526.57
1949.302,521.50
1950.139,479.37
1950.976,480.83
1951.814,490.80
1952.651,512.00
1953.487,481.57
1954.323,506.50
1955.160,505.47
1955.998,512.93
1956.834,488.43
1957.670,520.47
1958.506,504.67
1959.342,468.20
1960.177,507.07
1961.015,486.07
1961.850,517.20
1962.686,473.33
1963.521,502.03
1964.357,518.13
1965.192,469.03
1966.029,505.07
1966.864,483.27
1967.699,503.93
1968.534,520.10
1969.369,479.77
1970.204,503.50
1971.040,471.20
1971.875,487.20
1972.709,451.10
1973.544,500.20
1974.378,479.50
1975.212,468.40
1976.047,521.60
1976.882,476.23
1977.716,514.17
1978.550,480.60
1979.384,490.77
1980.218,508.43
1981.052,451.13
1981.885,491.57
1982.719,502.97
1983.554,499.20
1984.388,474.27
1985.221,468.57
1986.054,493.97
1986.887,462.93
1987.720,484.10
1988.553,482.10
1989.386,461.90
1990.219,490.13
1991.053,495.00
1991.886,471.77
1992.719,493.40
1993.551,466.97
1994.383,487.97
1995.216,535.03
1996.048,483.77
1996.880,472.57
1997.712,482.47
1998.544,480.60
1999.376,450.90
2000.208,444.43
2001.040,526.83
2001.873,463.63
2002.705,469.67
2003.536,476.47
2004.367,490.77
2005.199,473.07
2006.030,495.37
2006.861,473.93
2007.692,502.73
2008.523,474.80
2009.354,488.90
2010.185,472.50
2011.016,476.27
2011.846,499.83
2012.677,480.47
2013.507,466.87
2014.338,493.67
2015.168,487.43
2015.999,508.50
2016.829,490.70
2017.659,504.27
2018.489,519.63
2019.319,445.23
2020.149,503.57
2020.980,473.40
2021.810,485.67
2022.639,500.80
2023.469,487.93
2024.298,477.00
2025.128,494.90
2025.957,484.13
2026.786,497.57
2027.615,467.77
2028.444,514.53
2029.273,471.57
2030.102,475.67
2030.931,478.23
2031.758,537.83
2032.586,466.90
2033.415,480.37
2034.243,483.23
2035.072,506.97
2035.900,478.93
2036.728,512.20
2037.556,485.40
2038.385,512.33
2039.213,513.23
2040.040,510.77
2040.868,512.10
2041.696,468.37
2042.524,489.50
2043.351,463.17
2044.179,470.70
2045.006,476.83
2045.006,476.83

Max Intensity Wave.,227.130
Max Intensity Data,5791.97
Min Intensity Wave.,1945.115
Min Intensity Data,431.90
FWHM Wave.,402.602
FWHM Value,1.82
Pressure Wave.,685.885
Pressure Value [GPa],-21.74999
G/D Ratio,0.44772
G/D Gband Wave.,1540.792
G/D Gband Intensity,744.23
G/D Dband Wave.,1300.806
G/D Dband Intensity,1662.27

<< BACKGROUND SPECTRUM >>
Wave[dcm-1],No263
146.591,2212.00
147.626,2103.00
148.664,2041.00
149.699,2525.00
150.737,2219.00
151.772,2396.00
152.809,2383.00
153.846,2262.00
154.881,2406.00
155.918,1938.00
156.953,2284.00
157.989,2583.00
159.026,2445.00
160.060,2612.00
161.096,2817.00
162.130,2476.00
163.167,2574.00
164.200,2426.00
165.236,2589.00
166.272,2634.00
167.305,2257.00
168.341,2525.00
169.374,2749.00
170.409,2754.00
171.445,2705.00
172.477,2530.00
173.512,2370.00
174.545,2623.00
175.580,2816.00
176.614,3018.00
177.647,2788.00
178.681,2988.00
179.713,3303.00
180.747,2765.00
181.781,2681.00
182.813,2972.00
183.847,3057.00
184.878,2655.00
185.912,2939.00
186.945,3107.00
187.976,3004.00
189.010,2650.00
190.043,2782.00
191.073,2878.00
192.106,2703.00
193.137,3120.00
194.170,2500.00
195.202,2921.00
196.232,2685.00
197.265,2942.00
198.297,3028.00
199.327,2792.00
200.359,2918.00
201.388,3295.00
202.420,2897.00
203.452,3093.00
204.481,2668.00
205.512,3257.00
206.544,3087.00
207.573,3034.00
208.604,3374.00
209.635,3497.00
210.663,2918.00
211.694,2918.00
212.725,2801.00
213.753,2765.00
214.783,3351.00
215.813,3224.00
216.841,2960.00
217.871,3131.00
218.899,2859.00
219.929,3083.00
220.959,2861.00
221.986,3109.00
223.016,2766.00
224.045,3102.00
225.072,3050.00
226.101,3163.00
227.130,3210.00
228.157,2772.00
229.185,2309.00
230.214,3153.00
231.241,2778.00
232.269,2457.00
233.297,2692.00
234.323,3179.00
235.351,2767.00
236.379,3085.00
237.407,2734.00
238.433,2933.00
239.460,3063.00
240.488,3054.00
241.513,3202.00
242.540,3072.00
243.568,3174.00
244.592,3182.00
245.619,3184.00
246.646,2896.00
247.671,2904.00
248.697,2761.00
249.724,3005.00
250.748,2981.00
251.774,2957.00
252.801,3248.00
253.827,3086.00
254.850,3059.00
255.876,2642.00
256.902,3095.00
257.925,2965.00
258.951,2713.00
259.976,2763.00
260.999,3085.00
262.024,2775.00
263.049,3590.00
264.074,3095.00
265.097,2963.00
266.122,3019.00
267.146,3026.00
268.168,3160.00
269.193,2830.00
270.217,3151.00
271.241,2703.00
272.263,2909.00
273.287,3176.00
274.311,2765.00
275.332,3219.00
276.356,2830.00
277.379,3027.00
278.402,3092.00
279.424,2907.00
280.447,2859.00
281.470,2745.00
282.492,3055.00
283.513,2865.00
284.536,3139.00
285.558,3119.00
286.581,3099.00
287.601,2831.00
288.623,2778.00
289.645,3003.00
290.665,3111.00
291.687,3102.00
292.709,3082.00
293.730,3360.00
294.750,2879.00
295.771,2746.00
296.792,3036.00
297.813,2921.00
298.832,3009.00
299.853,2706.00
300.874,2949.00
301.895,2908.00
302.913,2950.00
303.934,3242.00
304.954,2996.00
305.975,3190.00
306.993,2760.00
308.013,3064.00
309.033,3008.00
310.052,2908.00
311.072,2848.00
312.090,3008.00
313.109,3200.00
314.129,3353.00
315.148,3012.00
316.165,3032.00
317.184,3188.00
318.203,2721.00
319.222,2735.00
320.238,3116.00
321.257,2792.00
322.275,2672.00
323.294,2986.00
324.312,3154.00
325.328,3249.00
326.346,3248.00
327.364,3189.00
328.382,3112.00
329.397,3057.00
330.415,3198.00
331.432,3173.00
332.450,3190.00
333.467,3389.00
334.482,2570.00
335.499,3333.00
336.516,2854.00
337.533,2545.00
338.547,2814.00
339.564,2824.00
340.580,3078.00
341.597,2901.00
342.613,3423.00
343.627,2940.00
344.643,3005.00
345.659,3080.00
346.675,2967.00
347.690,2862.00
348.704,3037.00
349.719,2842.00
350.735,2740.00
351.750,3170.00
352.765,3000.00
353.778,2967.00
354.793,3112.00
355.808,2793.00
356.822,3145.00
357.837,2609.00
358.851,3219.00
359.864,2924.00
360.878,2699.00
361.892,2942.00
362.906,3158.00
363.920,2546.00
364.932,3069.00
365.945,3075.00
366.959,3000.00
367.972,2881.00
368.986,2676.00
369.999,3338.00
371.010,2814.00
372.023,3328.00
373.036,2947.00
374.049,3392.00
375.061,3045.00
376.072,2984.00
377.084,2841.00
378.097,2678.00
379.109,3156.00
380.121,2938.00
381.133,2672.00
382.143,3094.00
383.155,2708.00
384.166,2840.00
385.178,3109.00
386.189,3192.00
387.201,2713.00
388.212,2860.00
389.221,2901.00
390.232,2991.00
391.243,2884.00
392.254,3058.00
393.264,2801.00
394.275,3207.00
395.283,3139.00
396.294,3636.00
397.304,3460.00
398.314,3095.00
399.324,2987.00
400.334,2634.00
401.344,3160.00
402.351,2613.00
403.361,3167.00
404.370,2939.00
405.380,2860.00
406.389,3284.00
407.398,3110.00
408.407,3107.00
409.414,3091.00
410.423,3316.00
411.431,2728.00
412.440,2633.00
413.448,3307.00
414.457,2862.00
415.465,2809.00
416.471,2892.00
417.479,2979.00
418.487,2771.00
419.495,3292.00
420.503,3111.00
421.510,2600.00
422.518,3139.00
423.525,3159.00
424.530,3352.00
425.537,2854.00
426.544,3216.00
427.551,2826.00
428.558,3538.00
429.565,3384.00
430.571,2853.00
431.578,2877.00
432.582,2857.00
433.588,2941.00
434.595,2633.00
435.601,3258.00
436.607,3238.00
437.612,2735.00
438.618,3306.00
439.624,2923.00
440.627,2921.00
441.633,3097.00
442.638,3527.00
443.643,3085.00
444.648,3002.00
445.653,3135.00
446.658,2866.00
447.663,3002.00
448.667,2823.00
449.672,2877.00
450.674,2983.00
451.678,2744.00
452.682,2884.00
453.687,2814.00
454.690,3559.00
455.694,3206.00
456.698,2560.00
457.702,2645.00
458.705,2768.00
459.709,2790.00
460.710,2876.00
461.713,3017.00
462.716,3078.00
463.719,2973.00
464.722,3149.00
465.725,2940.00
466.727,2807.00
467.730,3025.00
468.732,2742.00
469.735,3242.00
470.737,2857.00
471.737,2847.00
472.739,2875.00
473.741,2797.00
474.742,3057.00
475.744,3063.00
476.746,3042.00
477.747,2934.00
478.748,3106.00
479.750,2910.00
480.751,2983.00
481.752,3757.00
482.753,3064.00
483.751,3516.00
484.752,2576.00
485.753,2947.00
486.753,2842.00
487.753,2965.00
488.754,3373.00
489.754,2688.00
490.754,3314.00
491.754,3121.00
492.754,2646.00
493.753,2975.00
494.753,2888.00
495.752,3296.00
496.752,3035.00
497.749,2968.00
498.748,2822.00
499.747,3369.00
500.746,3080.00
501.745,2731.00
502.744,2708.00
503.742,3277.00
504.741,2946.00
505.739,2464.00
506.737,2863.00
507.735,3085.00
508.734,3343.00
509.732,3128.00
510.729,3305.00
511.727,2906.00
512.725,2898.00
513.720,2759.00
514.718,3253.00
515.715,2675.00
516.712,2637.00
517.709,2972.00
518.706,2887.00
519.703,3014.00
520.700,3155.00
521.696,3307.00
522.693,2905.00
523.689,2822.00
524.686,3129.00
525.682,2806.00
526.678,3470.00
527.674,2906.00
528.670,2576.00
529.666,3499.00
530.661,3477.00
531.657,3108.00
532.652,3137.00
533.648,2969.00
534.641,3143.00
535.636,2987.00
536.631,3120.00
537.626,3130.00
538.621,2683.00
539.616,2566.00
540.610,2526.00
541.605,3049.00
542.599,3033.00
543.593,2954.00
544.587,3864.00
545.581,2821.00
546.575,3062.00
547.569,3022.00
548.563,2696.00
549.557,2648.00
550.550,2775.00
551.543,2729.00
552.537,3101.00
553.530,2748.00
554.523,2753.00
555.516,3107.00
556.509,2915.00
557.502,2627.00
558.494,3181.00
559.487,2891.00
560.479,3131.00
561.472,3214.00
562.464,3090.00
563.456,3307.00
564.448,2903.00
565.440,2967.00
566.432,3365.00
567.423,2849.00
568.415,2838.00
569.404,3074.00
570.396,2835.00
571.387,3107.00
572.378,2979.00
573.369,3908.00
574.360,3684.00
575.351,2931.00
576.341,2810.00
577.332,2850.00
578.323,2644.00
579.313,2868.00
580.303,3246.00
581.293,3148.00
582.283,3000.00
583.273,3080.00
584.263,2976.00
585.253,3040.00
586.243,3105.00
587.232,2645.00
588.222,2932.00
589.211,3129.00
590.200,3041.00
591.189,2918.00
592.178,2951.00
593.167,3412.00
594.156,3223.00
595.145,2875.00
596.133,3448.00
597.122,3115.00
598.110,3136.00
599.098,3063.00
600.086,3027.00
601.074,3105.00
602.062,2802.00
603.050,2756.00
604.038,3086.00
605.025,2783.00
606.013,3135.00
607.000,3333.00
607.987,2992.00
608.975,3044.00
609.962,2774.00
610.949,3130.00
611.936,3262.00
612.922,3129.00
613.909,2688.00
614.895,3336.00
615.882,2816.00
616.868,2984.00
617.854,2683.00
618.841,3024.00
619.826,3052.00
620.812,2968.00
621.798,2788.00
622.784,3155.00
623.769,3072.00
624.755,2668.00
625.740,3033.00
626.725,2685.00
627.711,2807.00
628.698,3044.00
629.683,2817.00
630.667,3167.00
631.652,2718.00
632.637,2930.00
633.621,3140.00
634.606,2891.00
635.590,3099.00
636.574,2933.00
637.558,3021.00
638.542,3036.00
639.526,2834.00
640.510,2618.00
641.493,3035.00
642.477,2970.00
643.460,2713.00
644.444,3196.00
645.427,3241.00
646.410,2654.00
647.393,2928.00
648.376,3026.00
649.359,2905.00
650.341,3062.00
651.324,3084.00
652.307,3021.00
653.289,2917.00
654.271,2862.00
655.253,2881.00
656.235,3096.00
657.217,3211.00
658.199,2602.00
659.181,2728.00
660.163,2967.00
661.144,2868.00
662.126,2898.00
663.107,2736.00
664.088,6169.00
665.069,3223.00
666.050,2800.00
667.033,2680.00
668.014,3029.00
668.995,2595.00
669.975,2986.00
670.956,2968.00
671.936,3164.00
672.916,2919.00
673.896,3050.00
674.876,2929.00
675.856,2836.00
676.836,2724.00
677.816,2287.00
678.795,2817.00
679.775,2686.00
680.754,3004.00
681.734,3153.00
682.713,3155.00
683.692,2751.00
684.671,2661.00
685.650,2740.00
686.629,2858.00
687.607,2746.00
688.586,2770.00
689.564,2806.00
690.543,3229.00
691.523,2365.00
692.501,2816.00
693.479,2909.00
694.457,2768.00
695.435,2863.00
696.413,2654.00
697.390,2524.00
698.368,2698.00
699.345,3032.00
700.322,2895.00
701.300,3029.00
702.277,3016.00
703.254,3205.00
704.231,2552.00
705.207,2955.00
706.184,2807.00
707.161,2644.00
708.137,2811.00
709.113,2841.00
710.090,2771.00
711.068,2582.00
712.044,2596.00
713.020,2846.00
713.996,2603.00
714.971,2774.00
715.947,2824.00
716.922,2804.00
717.898,2756.00
718.873,2891.00
719.848,2692.00
720.823,2669.00
721.798,2984.00
722.773,2785.00
723.748,2534.00
724.723,2992.00
725.697,2843.00
726.672,2745.00
727.646,2498.00
728.622,2968.00
729.596,2581.00
730.570,2694.00
731.544,3035.00
732.518,3217.00
733.492,2824.00
734.466,2895.00
735.439,2980.00
736.413,3127.00
737.386,2418.00
738.359,2412.00
739.332,2534.00
740.305,2801.00
741.278,3287.00
742.251,2865.00
743.224,2725.00
744.196,2544.00
745.171,3071.00
746.143,3010.00
747.115,2750.00
748.087,2722.00
749.059,3033.00
750.031,2894.00
751.003,3676.00
751.975,3236.00
752.947,2697.00
753.918,3094.00
754.890,2601.00
755.861,2753.00
756.832,3064.00
757.803,2846.00
758.774,2829.00
759.747,2615.00
760.718,3166.00
761.689,2712.00
762.659,2576.00
763.630,3135.00
764.600,2538.00
765.570,3048.00
766.540,3093.00
767.510,2888.00
768.480,3023.00
769.450,2717.00
770.420,2825.00
771.390,2654.00
772.359,2732.00
773.329,2679.00
774.300,2503.00
775.269,2719.00
776.238,2980.00
777.207,3129.00
778.176,2510.00
779.145,2774.00
780.114,2675.00
781.083,2541.00
782.051,2707.00
783.019,2685.00
783.988,3057.00
784.956,2866.00
785.924,2982.00
786.894,2882.00
787.862,2674.00
788.830,3091.00
789.797,2589.00
790.765,2584.00
791.732,2728.00
792.700,2673.00
793.667,2594.00
794.634,2698.00
795.601,2732.00
796.568,2753.00
797.535,2866.00
798.502,3432.00
799.468,2897.00
800.437,2349.00
801.403,2642.00
802.370,3260.00
803.336,2980.00
804.302,2822.00
805.268,2418.00
806.234,2544.00
807.200,2748.00
808.166,2772.00
809.131,2549.00
810.097,2977.00
811.062,3605.00
812.027,3012.00
812.994,2593.00
813.960,2611.00
814.925,2951.00
815.889,2474.00
816.854,3069.00
817.819,2626.00
818.783,2675.00
819.748,3114.00
820.712,2708.00
821.677,2654.00
822.641,2729.00
823.605,2702.00
824.571,3136.00
825.534,2688.00
826.498,2669.00
827.462,2779.00
828.425,2645.00
829.389,3032.00
830.352,2836.00
831.315,2878.00
832.279,2475.00
833.242,2754.00
834.204,2676.00
835.167,2629.00
836.132,3013.00
837.095,2550.00
838.057,2709.00
839.020,2813.00
839.982,2875.00
840.944,2699.00
841.906,2628.00
842.868,2947.00
843.830,2490.00
844.792,3027.00
845.753,2674.00
846.715,2432.00
847.679,2566.00
848.640,2589.00
849.601,2715.00
850.562,3192.00
851.523,2709.00
852.484,2481.00
853.445,3011.00
854.406,2674.00
855.367,2720.00
856.327,3035.00
857.288,2487.00
858.248,2679.00
859.210,2669.00
860.170,2521.00
861.130,2966.00
862.090,2463.00
863.050,2599.00
864.010,2670.00
864.969,2871.00
865.929,2576.00
866.888,2522.00
867.848,2822.00
868.807,2640.00
869.766,2847.00
870.727,2721.00
871.686,2949.00
872.645,2985.00
873.604,3329.00
874.562,2750.00
875.521,2763.00
876.479,3359.00
877.437,2562.00
878.396,2582.00
879.354,3216.00
880.312,2590.00
881.270,2646.00
882.229,3084.00
883.187,2596.00
884.145,2664.00
885.102,2929.00
886.059,2820.00
887.017,2916.00
887.974,2928.00
888.931,3084.00
889.888,2547.00
890.845,2421.00
891.802,2329.00
892.758,2632.00
893.717,2389.00
894.673,2559.00
895.630,2642.00
896.586,2915.00
897.542,2665.00
898.498,2515.00
899.454,2831.00
900.410,2693.00
901.366,2610.00
902.321,2610.00
903.277,2714.00
904.232,2763.00
905.189,2495.00
906.145,2665.00
907.100,2240.00
908.055,2692.00
909.010,2923.00
909.965,2351.00
910.919,2763.00
911.874,2572.00
912.828,2764.00
913.783,2783.00
914.737,2350.00
915.693,2742.00
916.648,2888.00
917.602,2932.00
918.555,2750.00
919.509,2873.00
920.463,2732.00
921.417,2732.00
922.370,2573.00
923.324,2688.00
924.277,2650.00
925.230,2764.00
926.183,2457.00
927.138,2659.00
928.091,2936.00
929.044,2817.00
929.996,2665.00
930.949,2671.00
931.902,2798.00
932.854,2841.00
933.806,2583.00
934.758,2934.00
935.711,3018.00
936.663,2772.00
937.614,2806.00
938.568,2715.00
939.520,2385.00
940.471,2689.00
941.423,2760.00
942.374,2880.00
943.326,2743.00
944.277,2615.00
945.228,2867.00
946.179,2697.00
947.130,3028.00
948.080,2698.00
949.031,2562.00
949.984,2690.00
950.934,2730.00
951.884,2501.00
952.835,2716.00
953.785,2704.00
954.735,2621.00
955.685,2337.00
956.635,2618.00
957.585,2653.00
958.534,2588.00
959.484,2771.00
960.433,2642.00
961.383,2441.00
962.334,2971.00
963.283,2796.00
964.232,2847.00
965.181,2708.00
966.130,2787.00
967.079,2643.00
968.027,2720.00
968.976,2743.00
969.924,2629.00
970.873,2787.00
971.821,2718.00
972.769,2892.00
973.719,2838.00
974.667,2487.00
975.615,2734.00
976.562,2677.00
977.510,2412.00
978.458,2612.00
979.405,2831.00
980.352,2789.00
981.300,2966.00
982.247,2744.00
983.194,2545.00
984.141,2651.00
985.088,2686.00
986.036,2785.00
986.983,3032.00
987.930,3134.00
988.876,2362.00
989.822,2956.00
990.769,2558.00
991.715,2577.00
992.661,2432.00
993.607,2796.00
994.553,3293.00
995.498,2601.00
996.444,2275.00
997.389,2788.00
998.337,2529.00
999.282,2866.00
1000.227,2678.00
1001.173,2738.00
1002.118,2425.00
1003.062,2910.00
1004.007,2684.00
1004.952,2936.00
1005.897,2921.00
1006.841,2698.00
1007.786,2436.00
1008.730,2444.00
1009.674,3160.00
1010.618,2643.00
1011.564,2509.00
1012.508,2397.00
1013.452,2956.00
1014.396,2692.00
1015.339,2615.00
1016.283,2687.00
1017.226,2735.00
1018.170,2697.00
1019.113,2889.00
1020.056,2723.00
1020.999,2714.00
1021.942,2583.00
1022.885,2858.00
1023.828,3019.00
1024.770,2518.00
1025.715,2752.00
1026.657,2678.00
1027.600,2769.00
1028.542,2915.00
1029.484,2752.00
1030.426,2872.00
1031.368,2736.00
1032.310,2555.00
1033.251,2523.00
1034.193,2684.00
1035.135,2509.00
1036.076,2601.00
1037.017,2543.00
1037.959,2822.00
1038.900,2769.00
1039.843,2779.00
1040.784,2754.00
1041.725,2779.00
1042.665,2609.00
1043.606,2770.00
1044.547,2774.00
1045.487,2385.00
1046.427,2687.00
1047.368,2806.00
1048.308,2216.00
1049.248,2548.00
1050.188,2699.00
1051.128,2570.00
1052.067,2640.00
1053.007,2380.00
1053.947,2365.00
1054.886,2595.00
1055.827,2472.00
1056.766,2885.00
1057.706,2448.00
1058.645,2678.00
1059.584,2739.00
1060.522,2984.00
1061.461,2471.00
1062.400,2473.00
1063.338,2660.00
1064.277,2490.00
1065.215,2509.00
1066.154,2390.00
1067.092,2603.00
1068.030,2632.00
1068.968,2844.00
1069.906,3003.00
1070.843,2961.00
1071.781,2731.00
1072.720,2848.00
1073.658,2833.00
1074.595,2578.00
1075.533,2507.00
1076.470,2590.00
1077.407,2952.00
1078.344,2767.00
1079.281,2789.00
1080.217,2290.00
1081.154,2680.00
1082.091,2768.00
1083.027,2442.00
1083.964,2903.00
1084.900,2572.00
1085.836,2592.00
1086.772,2876.00
1087.708,2465.00
1088.644,2818.00
1089.580,2685.00
1090.515,2765.00
1091.451,2593.00
1092.388,2726.00
1093.324,2473.00
1094.259,3219.00
1095.194,2714.00
1096.129,2602.00
1097.064,2561.00
1097.999,2819.00
1098.934,2534.00
1099.869,2528.00
1100.803,2688.00
1101.738,2690.00
1102.672,2398.00
1103.607,2809.00
1104.541,2557.00
1105.475,2569.00
1106.409,2424.00
1107.343,2605.00
1108.277,2426.00
1109.210,2759.00
1110.144,2666.00
1111.078,2652.00
1112.011,2450.00
1112.944,2804.00
1113.878,2750.00
1114.811,2192.00
1115.744,2609.00
1116.678,2316.00
1117.611,2572.00
1118.544,2624.00
1119.477,2789.00
1120.409,2542.00
1121.342,3092.00
1122.274,2728.00
1123.206,4197.00
1124.138,2663.00
1125.070,2969.00
1126.002,2852.00
1126.934,2285.00
1127.866,2527.00
1128.798,2298.00
1129.729,2394.00
1130.661,2649.00
1131.592,2547.00
1132.523,2722.00
1133.454,2768.00
1134.385,2296.00
1135.317,2663.00
1136.247,2567.00
1137.178,2821.00
1138.109,2380.00
1139.039,2989.00
1139.970,2790.00
1140.900,2539.00
1141.831,2362.00
1142.761,2244.00
1143.691,3282.00
1144.621,2645.00
1145.551,2691.00
1146.480,2680.00
1147.410,2817.00
1148.340,2309.00
1149.269,2379.00
1150.199,2607.00
1151.128,3013.00
1152.057,2430.00
1152.979,2554.00
1153.898,2651.00
1154.819,2750.00
1155.739,2639.00
1156.658,2560.00
1157.579,2689.00
1158.498,2603.00
1159.419,2164.00
1160.338,2695.00
1161.256,2652.00
1162.177,2486.00
1163.095,2602.00
1164.016,2704.00
1164.934,2863.00
1165.852,2805.00
1166.772,2617.00
1167.690,2629.00
1168.610,2685.00
1169.528,2670.00
1170.446,2223.00
1171.365,2543.00
1172.283,2538.00
1173.202,2635.00
1174.120,2685.00
1175.037,2491.00
1175.956,2474.00
1176.873,2489.00
1177.792,2526.00
1178.709,3102.00
1179.626,2518.00
1180.544,2904.00
1181.461,2506.00
1182.379,2717.00
1183.296,2568.00
1184.212,2313.00
1185.130,2484.00
1186.046,2985.00
1186.962,2618.00
1187.880,2900.00
1188.796,2667.00
1189.714,2452.00
1190.629,2766.00
1191.545,2701.00
1192.462,2553.00
1193.378,2622.00
1194.295,2373.00
1195.210,2664.00
1196.125,2790.00
1197.042,2687.00
1197.957,2648.00
1198.872,2523.00
1199.788,2509.00
1200.703,2969.00
1201.619,2666.00
1202.534,2504.00
1203.448,2710.00
1204.364,2559.00
1205.278,2306.00
1206.192,2661.00
1207.108,3105.00
1208.022,2969.00
1208.938,2487.00
1209.851,2784.00
1210.765,2850.00
1211.680,2539.00
1212.594,2427.00
1213.507,2591.00
1214.422,3009.00
1215.335,2745.00
1216.248,2562.00
1217.163,2651.00
1218.076,3206.00
1218.990,2723.00
1219.903,2403.00
1220.816,2489.00
1221.730,2603.00
1222.642,2473.00
1223.554,2543.00
1224.469,2714.00
1225.380,2590.00
1226.292,2286.00
1227.206,2714.00
1228.118,2939.00
1229.032,2264.00
1229.943,2524.00
1230.855,2565.00
1231.768,2348.00
1232.679,2711.00
1233.590,2608.00
1234.503,2860.00
1235.414,2459.00
1236.325,2504.00
1237.238,2718.00
1238.149,2721.00
1239.059,2457.00
1239.972,2798.00
1240.882,2488.00
1241.793,2741.00
1242.705,2958.00
1243.615,2594.00
1244.525,2745.00
1245.437,2180.00
1246.347,2718.00
1247.259,2812.00
1248.168,3037.00
1249.078,2907.00
1249.989,2881.00
1250.899,2445.00
1251.808,2460.00
1252.719,2562.00
1253.628,2503.00
1254.537,3003.00
1255.448,2466.00
1256.357,2476.00
1257.266,2660.00
1258.176,2366.00
1259.085,2359.00
1259.993,2425.00
1260.904,2472.00
1261.812,2425.00
1262.720,3224.00
1263.630,2811.00
1264.538,2471.00
1265.446,2773.00
1266.356,2614.00
1267.263,2881.00
1268.171,2386.00
1269.080,2683.00
1269.988,2786.00
1270.895,2504.00
1271.804,2587.00
1272.711,2800.00
1273.619,2758.00
1274.527,2444.00
1275.434,2721.00
1276.341,2426.00
1277.248,2644.00
1278.156,2912.00
1279.063,2501.00
1279.969,2723.00
1280.877,3521.00
1281.783,2849.00
1282.690,2689.00
1283.598,2570.00
1284.503,2503.00
1285.409,2430.00
1286.317,2978.00
1287.223,3011.00
1288.128,2668.00
1289.036,2491.00
1289.941,2561.00
1290.846,2609.00
1291.751,2483.00
1292.658,2492.00
1293.563,3034.00
1294.468,2651.00
1295.375,2739.00
1296.280,2863.00
1297.184,3300.00
1298.091,2709.00
1298.995,2766.00
1299.900,2979.00
1300.806,2518.00
1301.710,2412.00
1302.614,2191.00
1303.518,2880.00
1304.424,2554.00
1305.327,2805.00
1306.231,2633.00
1307.137,2810.00
1308.040,2668.00
1308.943,2656.00
1309.847,2834.00
1310.752,2839.00
1311.655,2284.00
1312.558,2424.00
1313.463,2557.00
1314.366,2524.00
1315.269,2671.00
1316.171,2580.00
1317.076,2540.00
1317.978,2435.00
1318.881,2200.00
1319.785,2487.00
1320.687,2453.00
1321.589,2213.00
1322.491,2475.00
1323.395,2712.00
1324.297,3190.00
1325.198,2783.00
1326.102,2399.00
1327.004,2419.00
1327.905,3005.00
1328.806,2605.00
1329.709,2706.00
1330.611,2538.00
1331.512,2454.00
1332.413,3067.00
1333.316,2634.00
1334.216,2805.00
1335.117,2352.00
1336.020,2672.00
1336.920,2622.00
1337.821,2484.00
1338.721,2923.00
1339.623,2681.00
1340.523,2584.00
1341.423,2484.00
1342.323,2917.00
1343.225,2690.00
1344.125,2446.00
1345.025,2525.00
1345.924,2329.00
1346.826,2995.00
1347.725,3045.00
1348.624,2841.00
1349.524,2495.00
1350.425,2595.00
1351.324,2715.00
1352.223,2830.00
1353.121,2626.00
1354.022,2818.00
1354.921,3010.00
1355.819,2743.00
1356.718,2692.00
1357.618,2401.00
1358.516,2752.00
1359.415,3025.00
1360.313,2718.00
1361.213,2588.00
1362.111,2895.00
1363.008,3221.00
1363.906,2591.00
1364.806,2621.00
1365.703,2772.00
1366.601,2430.00
1367.498,2483.00
1368.397,2818.00
1369.295,2698.00
1370.192,2457.00
1371.089,2700.00
1371.987,2626.00
1372.884,2897.00
1373.781,2432.00
1374.678,2615.00
1375.574,2456.00
1376.473,2729.00
1377.369,2838.00
1378.265,2476.00
1379.161,2578.00
1380.059,2384.00
1380.955,2735.00
1381.851,2416.00
1382.747,2505.00
1383.643,2600.00
1384.540,2432.00
1385.436,2527.00
1386.331,2684.00
1387.227,2758.00
1388.124,2736.00
1389.019,2425.00
1389.914,2602.00
1390.809,2233.00
1391.704,3036.00
1392.601,2544.00
1393.495,2886.00
1394.390,2789.00
1395.285,2886.00
1396.179,2701.00
1397.075,2581.00
1397.969,2681.00
1398.864,2319.00
1399.758,2596.00
1400.652,2650.00
1401.547,2466.00
1402.441,2407.00
1403.335,2954.00
1404.229,2633.00
1405.122,2729.00
1406.017,2633.00
1406.911,2786.00
1407.804,3045.00
1408.697,2602.00
1409.590,2439.00
1410.485,2846.00
1411.378,2700.00
1412.271,2326.00
1413.163,2668.00
1414.056,2743.00
1414.949,2997.00
1415.843,2669.00
1416.735,2593.00
1417.627,2644.00
1418.520,2635.00
1419.412,2847.00
1420.306,2766.00
1421.197,2959.00
1422.089,2848.00
1422.981,3099.00
1423.873,2810.00
1424.764,2780.00
1425.657,2638.00
1426.549,2808.00
1427.440,2822.00
1428.331,2532.00
1429.222,2301.00
1430.113,2632.00
1431.006,2761.00
1431.897,2533.00
1432.787,2649.00
1433.678,2542.00
1434.568,2460.00
1435.459,2850.00
1436.351,2786.00
1437.241,2782.00
1438.131,2796.00
1439.021,2420.00
1439.911,2601.00
1440.801,2644.00
1441.693,2844.00
1442.583,2620.00
1443.472,2644.00
1444.362,2763.00
1445.251,2560.00
1446.140,2529.00
1447.030,2844.00
1447.921,2833.00
1448.810,2486.00
1449.699,3013.00
1450.588,2682.00
1451.476,2548.00
1452.365,2754.00
1453.254,2536.00
1454.144,2530.00
1455.032,2784.00
1455.921,2373.00
1456.809,2941.00
1457.697,2449.00
1458.585,2556.00
1459.473,2584.00
1460.361,2474.00
1461.251,2735.00
1462.138,2674.00
1463.026,2593.00
1463.913,2912.00
1464.801,2565.00
1465.688,2718.00
1466.575,2652.00
1467.463,3098.00
1468.351,2480.00
1469.238,2611.00
1470.125,2252.00
1471.012,2709.00
1471.899,2725.00
1472.785,2477.00
1473.672,2634.00
1474.558,2844.00
1475.446,2766.00
1476.333,2775.00
1477.219,2467.00
1478.105,2640.00
1478.991,2601.00
1479.877,2909.00
1480.762,2631.00
1481.648,2494.00
1482.534,2760.00
1483.419,2703.00
1484.307,2747.00
1485.192,2610.00
1486.077,2500.00
1486.962,2489.00
1487.847,2411.00
1488.732,2495.00
1489.617,2644.00
1490.502,2932.00
1491.387,2747.00
1492.271,2467.00
1493.156,2490.00
1494.042,2453.00
1494.927,2817.00
1495.811,2531.00
1496.695,2742.00
1497.579,2936.00
1498.463,2639.00
1499.347,2682.00
1500.231,2651.00
1501.114,2713.00
1501.998,2876.00
1502.881,2659.00
1503.765,2952.00
1504.648,2999.00
1505.533,2755.00
1506.417,2640.00
1507.300,2610.00
1508.183,2700.00
1509.066,2126.00
1509.948,2870.00
1510.831,2972.00
1511.714,2393.00
1512.596,2773.00
1513.479,2880.00
1514.361,2849.00
1515.243,2684.00
1516.125,2774.00
1517.008,2927.00
1517.890,2584.00
1518.771,2663.00
1519.655,2860.00
1520.537,2592.00
1521.419,2462.00
1522.300,2724.00
1523.182,2778.00
1524.063,2781.00
1524.944,2948.00
1525.825,2841.00
1526.707,2477.00
1527.588,2432.00
1528.468,2706.00
1529.349,2324.00
1530.230,2591.00
1531.111,2811.00
1531.991,2733.00
1532.872,2348.00
1533.752,2597.00
1534.632,2551.00
1535.513,2531.00
1536.393,2779.00
1537.273,2960.00
1538.153,3278.00
1539.032,2411.00
1539.912,2619.00
1540.792,2634.00
1541.672,2620.00
1542.551,2756.00
1543.430,3219.00
1544.310,2675.00
1545.189,2521.00
1546.068,3077.00
1546.947,2800.00
1547.826,2963.00
1548.705,2631.00
1549.584,2855.00
1550.462,2606.00
1551.341,2808.00
1552.219,2691.00
1553.098,2822.00
1553.976,2862.00
1554.854,3044.00
1555.733,2876.00
1556.611,2570.00
1557.489,2428.00
1558.367,2684.00
1559.244,2813.00
1560.122,2641.00
1561.000,2700.00
1561.877,2937.00
1562.755,2516.00
1563.632,2631.00
1564.509,2942.00
1565.386,3052.00
1566.264,2419.00
1567.141,2284.00
1568.017,2818.00
1568.894,2644.00
1569.771,2712.00
1570.648,2766.00
1571.524,2688.00
1572.401,2377.00
1573.277,2449.00
1574.153,2684.00
1575.029,2532.00
1575.906,3368.00
1576.781,2827.00
1577.657,2615.00
1578.533,2913.00
1579.409,2300.00
1580.285,2612.00
1581.160,3055.00
1582.036,2814.00
1582.911,2499.00
1583.786,3013.00
1584.662,2509.00
1585.537,2647.00
1586.412,2668.00
1587.287,2498.00
1588.160,2827.00
1589.035,2323.00
1589.909,2691.00
1590.784,2620.00
1591.658,2432.00
1592.533,2690.00
1593.407,2663.00
1594.281,2542.00
1595.155,3032.00
1596.029,2552.00
1596.903,2609.00
1597.777,2607.00
1598.651,2872.00
1599.525,2377.00
1600.398,2701.00
1601.272,2631.00
1602.144,3182.00
1603.017,2613.00
1603.890,2890.00
1604.763,2758.00
1605.636,2783.00
1606.509,2376.00
1607.382,2506.00
1608.255,2696.00
1609.128,2865.00
1610.000,2634.00
1610.873,2384.00
1611.746,2577.00
1612.616,2589.00
1613.488,2239.00
1614.361,2648.00
1615.233,2605.00
1616.105,2826.00
1616.977,2563.00
1617.849,2522.00
1618.720,2980.00
1619.592,2963.00
1620.464,2773.00
1621.333,3106.00
1622.205,2669.00
1623.076,2649.00
1623.947,2655.00
1624.818,2875.00
1625.689,2748.00
1626.560,2554.00
1627.431,2715.00
1628.302,3007.00
1629.171,2735.00
1630.042,2992.00
1630.912,3605.00
1631.782,3214.00
1632.653,2463.00
1633.523,2815.00
1634.393,2880.00
1635.263,2535.00
1636.131,2600.00
1637.001,2570.00
1637.871,2274.00
1638.741,2268.00
1639.611,2435.00
1640.480,2745.00
1641.350,2528.00
1642.219,2517.00
1643.087,2184.00
1643.956,3058.00
1644.825,2895.00
1645.694,2856.00
1646.563,2826.00
1647.432,2692.00
1648.299,2689.00
1649.167,2738.00
1650.036,2492.00
1650.904,2781.00
1651.773,2869.00
1652.641,2658.00
1653.509,2868.00
1654.376,2553.00
1655.244,2702.00
1656.112,2675.00
1656.980,2697.00
1657.847,2485.00
1658.715,2826.00
1659.581,2552.00
1660.448,2858.00
1661.316,2202.00
1662.183,2734.00
1663.051,2709.00
1663.918,2692.00
1664.783,2665.00
1665.650,2712.00
1666.517,2812.00
1667.384,2654.00
1668.251,2665.00
1669.115,2875.00
1669.982,2612.00
1670.849,2908.00
1671.715,2656.00
1672.581,2790.00
1673.446,2754.00
1674.312,2701.00
1675.178,3049.00
1676.044,2716.00
1676.910,2772.00
1677.774,2681.00
1678.639,2298.00
1679.505,2634.00
1680.370,2780.00
1681.236,3297.00
1682.099,2579.00
1682.965,2685.00
1683.830,2280.00
1684.695,2477.00
1685.560,2578.00
1686.423,2818.00
1687.288,2810.00
1688.153,2665.00
1689.017,2591.00
1689.880,2752.00
1690.745,2805.00
1691.609,2544.00
1692.473,2807.00
1693.338,2886.00
1694.200,2933.00
1695.064,2654.00
1695.928,2568.00
1696.792,2695.00
1697.654,3153.00
1698.517,2691.00
1699.381,2425.00
1700.245,2340.00
1701.106,2906.00
1701.969,2562.00
1702.833,2790.00
1703.696,2574.00
1704.557,2660.00
1705.420,2517.00
1706.283,2668.00
1707.146,2797.00
1708.007,2484.00
1708.870,2469.00
1709.732,2363.00
1710.595,2564.00
1711.455,2438.00
1712.318,2581.00
1713.180,2955.00
1714.040,2714.00
1714.902,2832.00
1715.764,2649.00
1716.626,2431.00
1717.486,2595.00
1718.348,2901.00
1719.209,4853.00
1720.071,2311.00
1720.930,2427.00
1721.792,2526.00
1722.653,2562.00
1723.512,2558.00
1724.374,2603.00
1725.234,2715.00
1726.095,2685.00
1726.954,2677.00
1727.815,2800.00
1728.676,2683.00
1729.535,2878.00
1730.395,2594.00
1731.256,2575.00
1732.114,2693.00
1732.974,2159.00
1733.834,3009.00
1734.693,2865.00
1735.553,2682.00
1736.413,3054.00
1737.272,2591.00
1738.130,2602.00
1738.990,2730.00
1739.849,2569.00
1740.707,3608.00
1741.566,2718.00
1742.426,2677.00
1743.283,3097.00
1744.142,2599.00
1745.001,2332.00
1745.858,2825.00
1746.717,2707.00
1747.576,2722.00
1748.433,2811.00
1749.292,3228.00
1750.150,3214.00
1751.007,2858.00
1751.865,2877.00
1752.723,2682.00
1753.579,2612.00
1754.438,2901.00
1755.296,2880.00
1756.152,2246.00
1757.010,2376.00
1757.865,2849.00
1758.723,2342.00
1759.581,2977.00
1760.436,2636.00
1761.294,3020.00
1762.151,2610.00
1763.006,2569.00
1763.864,2330.00
1764.721,2840.00
1765.576,2705.00
1766.433,2801.00
1767.288,2570.00
1768.144,2733.00
1769.001,2604.00
1769.856,2762.00
1770.712,2862.00
1771.568,2449.00
1772.423,2543.00
1773.279,2596.00
1774.133,2556.00
1774.989,3048.00
1775.845,3058.00
1776.699,2883.00
1777.555,2665.00
1778.409,3177.00
1779.265,2629.00
1780.120,2628.00
1780.974,2683.00
1781.829,2278.00
1782.682,2695.00
1783.538,2482.00
1784.393,2700.00
1785.246,2574.00
1786.101,2741.00
1786.954,2806.00
1787.808,2872.00
1788.661,2356.00
1789.516,2568.00
1790.370,2619.00
1791.223,2857.00
1792.077,2653.00
1792.930,2781.00
1793.784,2589.00
1794.636,2682.00
1795.490,2650.00
1796.344,2694.00
1797.196,2647.00
1798.049,2834.00
1798.901,2596.00
1799.755,2925.00
1800.606,2476.00
1801.460,3187.00
1802.311,2945.00
1803.165,3045.00
1804.018,3027.00
1804.869,2768.00
1805.722,3102.00
1806.573,2758.00
1807.426,2498.00
1808.276,2655.00
1809.129,2605.00
1809.980,2849.00
1810.832,2920.00
1811.683,2597.00
1812.535,2975.00
1813.385,2646.00
1814.237,2943.00
1815.089,2677.00
1815.940,2939.00
1816.791,2594.00
1817.641,2536.00
1818.493,2815.00
1819.343,2739.00
1820.194,2571.00
1821.044,2801.00
1821.895,2872.00
1822.745,2427.00
1823.596,2595.00
1824.445,3090.00
1825.296,2787.00
1826.145,2656.00
1826.996,2855.00
1827.845,2754.00
1828.695,2713.00
1829.544,2663.00
1830.395,2692.00
1831.243,2575.00
1832.094,2428.00
1832.942,3326.00
1833.792,2763.00
1834.640,2753.00
1835.490,2678.00
1836.338,2713.00
1837.186,2585.00
1838.036,2567.00
1838.884,2670.00
1839.733,2977.00
1840.581,2855.00
1841.430,2770.00
1842.278,3023.00
1843.127,2568.00
1843.974,2398.00
1844.823,3083.00
1845.671,2797.00
1846.519,2654.00
1847.366,2720.00
1848.213,2361.00
1849.062,2507.00
1849.909,2446.00
1850.757,3289.00
1851.604,2780.00
1852.452,2590.00
1853.298,2874.00
1854.146,2741.00
1854.993,2710.00
1855.839,3220.00
1856.687,2800.00
1857.532,2796.00
1858.380,2686.00
1859.226,2724.00
1860.073,2789.00
1860.919,2484.00
1861.765,2540.00
1862.612,2920.00
1863.457,2900.00
1864.304,2663.00
1865.150,2813.00
1865.995,2660.00
1866.842,2801.00
1867.686,2952.00
1868.533,2759.00
1869.378,2767.00
1870.223,2728.00
1871.069,2622.00
1871.914,2697.00
1872.760,2651.00
1873.604,2499.00
1874.448,2816.00
1875.294,2857.00
1876.139,2550.00
1876.984,2787.00
1877.828,2342.00
1878.672,2185.00
1879.518,2598.00
1880.361,2897.00
1881.205,2855.00
1882.050,2493.00
1882.894,3182.00
1883.739,2576.00
1884.582,2470.00
1885.425,2534.00
1886.270,2938.00
1887.113,2457.00
1887.956,2772.00
1888.801,2725.00
1889.644,2541.00
1890.486,2264.00
1891.331,2650.00
1892.173,2720.00
1893.017,2734.00
1893.860,2938.00
1894.702,3016.00
1895.546,2697.00
1896.388,3376.00
1897.230,3041.00
1898.074,2597.00
1898.916,2493.00
1899.757,2543.00
1900.601,3344.00
1901.443,2939.00
1902.284,2983.00
1903.125,3174.00
1903.969,2870.00
1904.810,2936.00
1905.651,2763.00
1906.494,2979.00
1907.335,3165.00
1908.176,2849.00
1909.018,2792.00
1909.859,2655.00
1910.700,2551.00
1911.542,3183.00
1912.383,2794.00
1913.223,2372.00
1914.064,2770.00
1914.906,2951.00
1915.746,3027.00
1916.586,3092.00
1917.428,2656.00
1918.268,2721.00
1919.107,2574.00
1919.947,2470.00
1920.789,2609.00
1921.628,2937.00
1922.468,2698.00
1923.309,2537.00
1924.148,2992.00
1924.988,2791.00
1925.827,2674.00
1926.667,2608.00
1927.507,2771.00
1928.345,2516.00
1929.184,2878.00
1930.025,2520.00
1930.864,2952.00
1931.702,2982.00
1932.541,2624.00
1933.381,2817.00
1934.219,2897.00
1935.057,2989.00
1935.896,2377.00
1936.735,2661.00
1937.573,2598.00
1938.411,2486.00
1939.249,2879.00
1940.089,2623.00
1940.927,2923.00
1941.764,2989.00
1942.602,2637.00
1943.439,2582.00
1944.278,2699.00
1945.115,2690.00
1945.953,2442.00
1946.790,2770.00
1947.628,3021.00
1948.465,2778.00
1949.302,2817.00
1950.139,2848.00
1950.976,2589.00
1951.814,2862.00
1952.651,2749.00
1953.487,2530.00
1954.323,2940.00
1955.160,2679.00
1955.998,3040.00
1956.834,2694.00
1957.670,2745.00
1958.506,2925.00
1959.342,2827.00
1960.177,2725.00
1961.015,2849.00
1961.850,2719.00
1962.686,2771.00
1963.521,2739.00
1964.357,2958.00
1965.192,2515.00
1966.029,2826.00
1966.864,2643.00
1967.699,2922.00
1968.534,2712.00
1969.369,2990.00
1970.204,2668.00
1971.040,2771.00
1971.875,2656.00
1972.709,2789.00
1973.544,2549.00
1974.378,2621.00
1975.212,2818.00
1976.047,2573.00
1976.882,2590.00
1977.716,3071.00
1978.550,2427.00
1979.384,2664.00
1980.218,2655.00
1981.052,2689.00
1981.885,2734.00
1982.719,2695.00
1983.554,2849.00
1984.388,3022.00
1985.221,2798.00
1986.054,2957.00
1986.887,2779.00
1987.720,2562.00
1988.553,3020.00
1989.386,2816.00
1990.219,2847.00
1991.053,3011.00
1991.886,2612.00
1992.719,2896.00
1993.551,2269.00
1994.383,2854.00
1995.216,2590.00
1996.048,2456.00
1996.880,2888.00
1997.712,2611.00
1998.544,2732.00
1999.376,2816.00
2000.208,3036.00
2001.040,3100.00
2001.873,2566.00
2002.705,2549.00
2003.536,2772.00
2004.367,2740.00
2005.199,2764.00
2006.030,2585.00
2006.861,2522.00
2007.692,2712.00
2008.523,2592.00
2009.354,2737.00
2010.185,2543.00
2011.016,2860.00
2011.846,2897.00
2012.677,2664.00
2013.507,3063.00
2014.338,2927.00
2015.168,2641.00
2015.999,3210.00
2016.829,2652.00
2017.659,2926.00
2018.489,3186.00
2019.319,2575.00
2020.149,2861.00
2020.980,2749.00
2021.810,2544.00
2022.639,2592.00
2023.469,2595.00
2024.298,2423.00
2025.128,2347.00
2025.957,2364.00
2026.786,2177.00
2027.615,2398.00
2028.444,2547.00
2029.273,2758.00
2030.102,2340.00
2030.931,2583.00
2031.758,2793.00
2032.586,2534.00
2033.415,2592.00
2034.243,2213.00
2035.072,2002.00
2035.900,2490.00
2036.728,2276.00
2037.556,2337.00
2038.385,2335.00
2039.213,2153.00
2040.040,2141.00
2040.868,2105.00
2041.696,2207.00
2042.524,2206.00
2043.351,2426.00
2044.179,2207.00
2045.006,1994.00
