RamanScope Measure Spectrum Data V3.72

<< MEASURE CONDITION >>
Exposure Type,Aver
Exposure Time [sec],15
Exposure Count,30
Measure Time,2023/07/14 21:25:28
Data Name,""
Data Comment,""
Rayleigh Wave[nm],532.0

<< SAMPLE SPECTRUM >>
Wave[dcm-1],No106
146.591,858.80
147.626,1036.13
148.664,1268.97
149.699,1488.97
150.737,1722.37
151.772,1968.97
152.809,2181.73
153.846,2418.90
154.881,2644.53
155.918,2834.27
156.953,3014.10
157.989,3155.90
159.026,3288.07
160.060,3395.47
161.096,3480.50
162.130,3537.23
163.167,3587.83
164.200,3696.10
165.236,3727.20
166.272,3812.23
167.305,3852.23
168.341,3896.30
169.374,4039.17
170.409,4045.10
171.445,4169.47
172.477,4273.63
173.512,4337.70
174.545,4404.83
175.580,4422.20
176.614,4477.20
177.647,4512.07
178.681,4512.07
179.713,4517.90
180.747,4464.60
181.781,4451.20
182.813,4401.80
183.847,4411.03
184.878,4423.33
185.912,4325.20
186.945,4392.07
187.976,4398.97
189.010,4420.17
190.043,4451.17
191.073,4461.10
192.106,4487.73
193.137,4557.80
194.170,4549.20
195.202,4579.77
196.232,4617.37
197.265,4605.07
198.297,4684.67
199.327,4764.93
200.359,4829.97
201.388,4916.47
202.420,4980.20
203.452,5014.97
204.481,5082.33
205.512,5173.17
206.544,5245.97
207.573,5334.80
208.604,5401.30
209.635,5518.40
210.663,5655.33
211.694,5751.97
212.725,5825.47
213.753,5912.50
214.783,6049.20
215.813,6096.03
216.841,6150.60
217.871,6226.53
218.899,6196.23
219.929,6265.13
220.959,6244.77
221.986,6172.93
223.016,6095.80
224.045,5989.43
225.072,5908.47
226.101,5957.17
227.130,5841.03
228.157,5773.87
229.185,5711.40
230.214,5683.30
231.241,5630.37
232.269,5596.70
233.297,5554.83
234.323,5566.73
235.351,5491.63
236.379,5518.70
237.407,5560.57
238.433,5529.03
239.460,5572.67
240.488,5582.50
241.513,5649.13
242.540,5631.27
243.568,5704.43
244.592,5690.97
245.619,5777.53
246.646,5827.93
247.671,5769.37
248.697,5759.67
249.724,5689.30
250.748,5659.03
251.774,5649.50
252.801,5614.47
253.827,5607.50
254.850,5569.03
255.876,5578.70
256.902,5636.80
257.925,5601.93
258.951,5632.73
259.976,5602.87
260.999,5684.57
262.024,5675.43
263.049,5665.03
264.074,5714.33
265.097,5710.30
266.122,5744.53
267.146,5813.73
268.168,5834.70
269.193,5884.97
270.217,5916.57
271.241,5930.23
272.263,5920.37
273.287,6026.93
274.311,6028.30
275.332,6069.80
276.356,6091.77
277.379,6097.20
278.402,6066.33
279.424,6014.53
280.447,5949.10
281.470,5917.23
282.492,5933.20
283.513,5803.50
284.536,5778.63
285.558,5701.60
286.581,5663.13
287.601,5575.47
288.623,5580.57
289.645,5460.47
290.665,5412.70
291.687,5362.23
292.709,5302.80
293.730,5266.53
294.750,5222.53
295.771,5134.37
296.792,5160.10
297.813,5113.70
298.832,5056.17
299.853,5036.53
300.874,4944.43
301.895,4943.93
302.913,4835.33
303.934,4860.03
304.954,4843.07
305.975,4789.50
306.993,4723.80
308.013,4689.20
309.033,4712.27
310.052,4676.97
311.072,4653.27
312.090,4632.47
313.109,4617.17
314.129,4565.30
315.148,4557.93
316.165,4534.27
317.184,4506.87
318.203,4517.80
319.222,4486.67
320.238,4452.67
321.257,4445.50
322.275,4439.77
323.294,4451.83
324.312,4427.07
325.328,4420.03
326.346,4404.93
327.364,4409.00
328.382,4401.30
329.397,4416.70
330.415,4354.27
331.432,4367.33
332.450,4343.63
333.467,4359.80
334.482,4352.27
335.499,4320.93
336.516,4304.87
337.533,4323.20
338.547,4336.43
339.564,4284.03
340.580,4318.07
341.597,4277.30
342.613,4263.57
343.627,4332.53
344.643,4264.63
345.659,4290.97
346.675,4259.83
347.690,4211.53
348.704,4243.60
349.719,4213.83
350.735,4216.37
351.750,4209.00
352.765,4150.37
353.778,4199.07
354.793,4179.10
355.808,4179.37
356.822,4193.53
357.837,4205.13
358.851,4189.37
359.864,4237.27
360.878,4194.20
361.892,4198.90
362.906,4192.00
363.920,4207.77
364.932,4151.07
365.945,4202.47
366.959,4188.00
367.972,4224.43
368.986,4210.73
369.999,4204.23
371.010,4241.93
372.023,4192.83
373.036,4159.50
374.049,4205.00
375.061,4284.33
376.072,4206.47
377.084,4277.20
378.097,4247.57
379.109,4274.20
380.121,4294.50
381.133,4248.60
382.143,4252.47
383.155,4226.30
384.166,4237.57
385.178,4221.13
386.189,4244.70
387.201,4270.67
388.212,4209.73
389.221,4224.33
390.232,4234.27
391.243,4196.80
392.254,4198.00
393.264,4167.10
394.275,4174.93
395.283,4199.43
396.294,4166.50
397.304,4163.63
398.314,4118.27
399.324,4115.23
400.334,4145.57
401.344,4106.80
402.351,4046.70
403.361,4091.53
404.370,4029.20
405.380,4077.47
406.389,4054.33
407.398,4029.53
408.407,4044.50
409.414,3983.10
410.423,4038.53
411.431,3991.93
412.440,3990.57
413.448,3950.13
414.457,3923.47
415.465,3880.23
416.471,3923.20
417.479,3883.40
418.487,3884.27
419.495,3893.33
420.503,3905.77
421.510,3904.77
422.518,3915.63
423.525,3907.30
424.530,3847.47
425.537,3866.53
426.544,3894.03
427.551,3856.83
428.558,3831.80
429.565,3816.23
430.571,3849.30
431.578,3824.67
432.582,3881.30
433.588,3788.73
434.595,3829.97
435.601,3827.63
436.607,3822.67
437.612,3820.73
438.618,3798.77
439.624,3780.80
440.627,3814.57
441.633,3809.37
442.638,3786.07
443.643,3792.23
444.648,3756.70
445.653,3759.63
446.658,3802.07
447.663,3768.60
448.667,3768.20
449.672,3783.80
450.674,3763.00
451.678,3799.23
452.682,3804.37
453.687,3817.53
454.690,3817.07
455.694,3767.33
456.698,3818.87
457.702,3825.63
458.705,3791.80
459.709,3763.10
460.710,3786.33
461.713,3825.93
462.716,3764.83
463.719,3797.70
464.722,3792.20
465.725,3747.87
466.727,3797.60
467.730,3810.07
468.732,3806.83
469.735,3769.77
470.737,3805.63
471.737,3781.23
472.739,3797.63
473.741,3830.37
474.742,3855.63
475.744,3831.97
476.746,3774.53
477.747,3859.27
478.748,3826.90
479.750,3817.87
480.751,3838.80
481.752,3819.63
482.753,3803.70
483.751,3813.87
484.752,3870.07
485.753,3862.83
486.753,3831.53
487.753,3829.30
488.754,3867.07
489.754,3830.40
490.754,3839.37
491.754,3840.73
492.754,3824.73
493.753,3851.33
494.753,3909.57
495.752,3839.70
496.752,3815.90
497.749,3852.00
498.748,3842.73
499.747,3825.53
500.746,3843.90
501.745,3786.93
502.744,3766.93
503.742,3761.40
504.741,3818.47
505.739,3797.47
506.737,3765.43
507.735,3740.03
508.734,3774.40
509.732,3763.77
510.729,3741.20
511.727,3663.33
512.725,3705.67
513.720,3670.73
514.718,3740.33
515.715,3703.70
516.712,3635.47
517.709,3628.33
518.706,3634.77
519.703,3641.97
520.700,3643.43
521.696,3611.33
522.693,3635.10
523.689,3632.77
524.686,3632.00
525.682,3687.27
526.678,3605.03
527.674,3612.40
528.670,3648.33
529.666,3674.23
530.661,3666.47
531.657,3656.50
532.652,3637.13
533.648,3614.40
534.641,3678.47
535.636,3642.87
536.631,3677.47
537.626,3633.13
538.621,3647.27
539.616,3603.00
540.610,3666.77
541.605,3637.80
542.599,3633.07
543.593,3609.67
544.587,3606.03
545.581,3623.57
546.575,3635.07
547.569,3633.13
548.563,3629.40
549.557,3621.27
550.550,3617.33
551.543,3620.23
552.537,3604.33
553.530,3576.73
554.523,3615.20
555.516,3637.00
556.509,3637.63
557.502,3601.67
558.494,3642.20
559.487,3611.97
560.479,3675.33
561.472,3709.87
562.464,3654.97
563.456,3627.60
564.448,3647.53
565.440,3611.93
566.432,3666.47
567.423,3710.20
568.415,3719.20
569.404,3686.77
570.396,3721.77
571.387,3698.07
572.378,3788.90
573.369,3718.30
574.360,3743.87
575.351,3780.50
576.341,3790.33
577.332,3857.47
578.323,3823.63
579.313,3816.20
580.303,3777.60
581.293,3804.53
582.283,3842.47
583.273,3902.00
584.263,3870.23
585.253,3855.87
586.243,3915.00
587.232,3959.53
588.222,3941.13
589.211,3941.07
590.200,3922.47
591.189,3959.60
592.178,3945.53
593.167,3990.20
594.156,4005.30
595.145,4018.37
596.133,3977.53
597.122,4018.20
598.110,4037.67
599.098,4040.53
600.086,3998.23
601.074,4025.00
602.062,4020.40
603.050,4074.00
604.038,4072.80
605.025,4010.53
606.013,4017.40
607.000,4017.60
607.987,4032.47
608.975,3998.43
609.962,3961.33
610.949,3916.73
611.936,3932.17
612.922,3964.13
613.909,3956.47
614.895,3900.37
615.882,3885.20
616.868,3856.13
617.854,3833.77
618.841,3865.17
619.826,3832.37
620.812,3776.83
621.798,3779.23
622.784,3745.70
623.769,3713.43
624.755,3714.40
625.740,3676.43
626.725,3652.10
627.711,3629.33
628.698,3641.23
629.683,3625.63
630.667,3562.93
631.652,3506.30
632.637,3500.03
633.621,3512.77
634.606,3504.77
635.590,3456.23
636.574,3439.60
637.558,3411.83
638.542,3430.70
639.526,3432.17
640.510,3390.50
641.493,3377.30
642.477,3373.73
643.460,3335.87
644.444,3363.67
645.427,3326.70
646.410,3335.10
647.393,3310.77
648.376,3283.73
649.359,3311.17
650.341,3266.13
651.324,3276.43
652.307,3242.90
653.289,3261.57
654.271,3298.20
655.253,3285.43
656.235,3184.60
657.217,3206.77
658.199,3254.20
659.181,3238.17
660.163,3240.87
661.144,3212.07
662.126,3224.00
663.107,3164.77
664.088,3210.70
665.069,3185.70
666.050,3222.13
667.033,3206.30
668.014,3171.77
668.995,3150.80
669.975,3215.53
670.956,3162.73
671.936,3145.43
672.916,3115.33
673.896,3099.30
674.876,3097.03
675.856,3051.30
676.836,3047.47
677.816,3025.33
678.795,2992.57
679.775,2974.50
680.754,3015.87
681.734,3021.40
682.713,2930.63
683.692,2944.37
684.671,2922.07
685.650,2919.70
686.629,2891.10
687.607,2851.37
688.586,2857.47
689.564,2873.80
690.543,2859.03
691.523,2839.57
692.501,2879.03
693.479,2846.97
694.457,2754.50
695.435,2775.63
696.413,2798.87
697.390,2828.90
698.368,2765.47
699.345,2761.70
700.322,2754.73
701.300,2762.40
702.277,2761.63
703.254,2756.03
704.231,2695.23
705.207,2694.43
706.184,2711.83
707.161,2696.27
708.137,2710.27
709.113,2659.17
710.090,2662.37
711.068,2716.43
712.044,2680.20
713.020,2681.63
713.996,2655.37
714.971,2643.37
715.947,2616.07
716.922,2648.67
717.898,2646.93
718.873,2655.10
719.848,2607.23
720.823,2604.27
721.798,2568.93
722.773,2653.30
723.748,2634.10
724.723,2590.67
725.697,2620.23
726.672,2578.67
727.646,2611.37
728.622,2545.60
729.596,2598.43
730.570,2574.00
731.544,2554.07
732.518,2555.10
733.492,2558.37
734.466,2580.50
735.439,2524.53
736.413,2548.17
737.386,2528.07
738.359,2548.70
739.332,2561.67
740.305,2524.73
741.278,2518.17
742.251,2535.27
743.224,2491.37
744.196,2520.07
745.171,2536.40
746.143,2463.17
747.115,2472.37
748.087,2495.43
749.059,2493.37
750.031,2484.93
751.003,2478.97
751.975,2503.67
752.947,2459.60
753.918,2432.07
754.890,2444.00
755.861,2431.27
756.832,2382.03
757.803,2402.70
758.774,2455.37
759.747,2413.43
760.718,2394.60
761.689,2359.63
762.659,2329.73
763.630,2343.73
764.600,2358.70
765.570,2364.50
766.540,2300.60
767.510,2337.67
768.480,2357.17
769.450,2314.27
770.420,2331.90
771.390,2308.87
772.359,2291.43
773.329,2338.33
774.300,2304.27
775.269,2313.33
776.238,2324.47
777.207,2285.60
778.176,2301.87
779.145,2294.93
780.114,2279.93
781.083,2272.70
782.051,2243.50
783.019,2252.83
783.988,2273.13
784.956,2270.10
785.924,2262.33
786.894,2255.13
787.862,2176.83
788.830,2221.90
789.797,2221.17
790.765,2219.50
791.732,2228.50
792.700,2193.13
793.667,2227.50
794.634,2212.00
795.601,2239.80
796.568,2200.13
797.535,2211.47
798.502,2202.93
799.468,2153.60
800.437,2183.73
801.403,2236.53
802.370,2174.67
803.336,2168.73
804.302,2151.27
805.268,2190.63
806.234,2180.17
807.200,2154.63
808.166,2143.30
809.131,2119.80
810.097,2124.30
811.062,2138.83
812.027,2136.50
812.994,2119.73
813.960,2115.67
814.925,2064.27
815.889,2107.30
816.854,2093.67
817.819,2149.10
818.783,2070.50
819.748,2126.87
820.712,2096.17
821.677,2085.23
822.641,2100.07
823.605,2082.97
824.571,2073.63
825.534,2071.33
826.498,2082.23
827.462,2129.10
828.425,2118.07
829.389,2100.13
830.352,2060.73
831.315,2022.83
832.279,2096.43
833.242,2072.93
834.204,2104.80
835.167,2005.80
836.132,2056.70
837.095,2093.67
838.057,2051.93
839.020,2044.70
839.982,2077.10
840.944,2025.73
841.906,2054.00
842.868,2035.07
843.830,2058.73
844.792,2012.97
845.753,2008.03
846.715,2033.60
847.679,2034.53
848.640,2048.27
849.601,2032.13
850.562,2013.37
851.523,2002.03
852.484,2020.47
853.445,1970.30
854.406,2046.03
855.367,2019.57
856.327,1983.53
857.288,2010.97
858.248,1972.97
859.210,1975.53
860.170,1958.40
861.130,1927.83
862.090,1954.80
863.050,1960.83
864.010,1952.67
864.969,1999.87
865.929,1956.37
866.888,1969.27
867.848,1966.93
868.807,1942.13
869.766,1979.97
870.727,1953.53
871.686,1929.27
872.645,1921.63
873.604,1917.00
874.562,1945.63
875.521,1940.53
876.479,1959.93
877.437,1943.80
878.396,1947.37
879.354,1970.97
880.312,1933.47
881.270,1921.00
882.229,1922.53
883.187,1925.73
884.145,1928.93
885.102,1923.63
886.059,1924.40
887.017,1877.70
887.974,1868.43
888.931,1894.27
889.888,1946.40
890.845,1873.30
891.802,1940.40
892.758,1914.00
893.717,1915.80
894.673,1901.07
895.630,1920.13
896.586,1899.17
897.542,1911.00
898.498,1904.17
899.454,1908.17
900.410,1920.93
901.366,1913.03
902.321,1900.33
903.277,1889.97
904.232,1869.10
905.189,1893.93
906.145,1865.50
907.100,1891.70
908.055,1905.20
909.010,1887.33
909.965,1901.10
910.919,1934.63
911.874,1873.57
912.828,1902.10
913.783,1866.10
914.737,1898.00
915.693,1878.30
916.648,1872.97
917.602,1941.47
918.555,1886.90
919.509,1900.23
920.463,1873.97
921.417,1903.70
922.370,1870.60
923.324,1880.20
924.277,1918.17
925.230,1895.30
926.183,1865.67
927.138,1919.93
928.091,1888.13
929.044,1870.73
929.996,1878.57
930.949,1869.43
931.902,1898.07
932.854,1920.77
933.806,1899.87
934.758,1872.97
935.711,1884.13
936.663,1868.70
937.614,1916.87
938.568,1914.80
939.520,1878.07
940.471,1886.03
941.423,1911.33
942.374,1896.77
943.326,1891.20
944.277,1876.57
945.228,1890.33
946.179,1872.67
947.130,1862.17
948.080,1936.50
949.031,1872.30
949.984,1891.77
950.934,1855.83
951.884,1880.90
952.835,1889.30
953.785,1912.60
954.735,1867.13
955.685,1880.50
956.635,1848.77
957.585,1896.73
958.534,1885.87
959.484,1862.10
960.433,1876.37
961.383,1907.60
962.334,1871.70
963.283,1877.83
964.232,1870.70
965.181,1859.50
966.130,1882.33
967.079,1865.30
968.027,1847.93
968.976,1864.73
969.924,1894.10
970.873,1864.57
971.821,1851.77
972.769,1853.53
973.719,1853.00
974.667,1882.47
975.615,1833.37
976.562,1885.17
977.510,1882.40
978.458,1853.23
979.405,1843.27
980.352,1825.97
981.300,1837.43
982.247,1869.07
983.194,1851.53
984.141,1882.13
985.088,1901.60
986.036,1864.43
986.983,1820.70
987.930,1836.70
988.876,1868.00
989.822,1857.37
990.769,1883.73
991.715,1828.60
992.661,1853.97
993.607,1840.17
994.553,1844.50
995.498,1872.33
996.444,1877.57
997.389,1850.17
998.337,1831.27
999.282,1840.73
1000.227,1848.20
1001.173,1862.93
1002.118,1848.50
1003.062,1823.53
1004.007,1847.63
1004.952,1840.73
1005.897,1848.73
1006.841,1837.83
1007.786,1862.40
1008.730,1783.40
1009.674,1827.33
1010.618,1788.57
1011.564,1847.03
1012.508,1847.13
1013.452,1796.13
1014.396,1811.90
1015.339,1814.20
1016.283,1841.90
1017.226,1811.07
1018.170,1786.83
1019.113,1783.90
1020.056,1812.03
1020.999,1803.40
1021.942,1795.03
1022.885,1827.50
1023.828,1834.40
1024.770,1808.17
1025.715,1779.20
1026.657,1806.60
1027.600,1838.27
1028.542,1793.20
1029.484,1783.67
1030.426,1826.30
1031.368,1785.87
1032.310,1837.60
1033.251,1816.77
1034.193,1768.90
1035.135,1774.23
1036.076,1777.30
1037.017,1797.90
1037.959,1824.93
1038.900,1816.97
1039.843,1782.00
1040.784,1793.40
1041.725,1822.20
1042.665,1832.03
1043.606,1815.63
1044.547,1799.53
1045.487,1783.60
1046.427,1796.80
1047.368,1789.20
1048.308,1826.97
1049.248,1789.73
1050.188,1805.53
1051.128,1769.37
1052.067,1769.67
1053.007,1811.40
1053.947,1816.07
1054.886,1814.07
1055.827,1785.47
1056.766,1817.70
1057.706,1826.90
1058.645,1804.30
1059.584,1822.93
1060.522,1787.13
1061.461,1783.30
1062.400,1808.77
1063.338,1809.20
1064.277,1804.23
1065.215,1838.43
1066.154,1812.70
1067.092,1786.93
1068.030,1811.50
1068.968,1814.70
1069.906,1792.80
1070.843,1776.83
1071.781,1836.67
1072.720,1812.33
1073.658,1827.10
1074.595,1827.23
1075.533,1796.60
1076.470,1858.97
1077.407,1811.30
1078.344,1822.47
1079.281,1814.57
1080.217,1836.00
1081.154,1814.30
1082.091,1811.93
1083.027,1793.60
1083.964,1809.90
1084.900,1801.03
1085.836,1817.03
1086.772,1804.70
1087.708,1815.47
1088.644,1798.27
1089.580,1818.67
1090.515,1819.33
1091.451,1832.30
1092.388,1803.70
1093.324,1830.67
1094.259,1809.73
1095.194,1836.23
1096.129,1809.27
1097.064,1804.37
1097.999,1818.20
1098.934,1834.73
1099.869,1767.20
1100.803,1825.23
1101.738,1824.67
1102.672,1772.63
1103.607,1817.57
1104.541,1768.57
1105.475,1799.30
1106.409,1798.50
1107.343,1788.00
1108.277,1822.80
1109.210,1775.13
1110.144,1791.50
1111.078,1786.33
1112.011,1767.87
1112.944,1751.37
1113.878,1766.67
1114.811,1768.37
1115.744,1780.53
1116.678,1772.87
1117.611,1804.37
1118.544,1747.50
1119.477,1714.33
1120.409,1752.20
1121.342,1766.50
1122.274,1777.27
1123.206,1775.67
1124.138,1703.60
1125.070,1746.93
1126.002,1798.17
1126.934,1719.43
1127.866,1732.70
1128.798,1747.07
1129.729,1724.40
1130.661,1742.83
1131.592,1728.80
1132.523,1675.27
1133.454,1761.33
1134.385,1713.80
1135.317,1688.67
1136.247,1716.17
1137.178,1718.00
1138.109,1754.90
1139.039,1711.83
1139.970,1709.13
1140.900,1694.20
1141.831,1744.20
1142.761,1688.33
1143.691,1745.33
1144.621,1688.97
1145.551,1707.93
1146.480,1700.87
1147.410,1744.37
1148.340,1690.27
1149.269,1704.83
1150.199,1677.40
1151.128,1655.50
1152.057,1702.17
1152.979,1659.73
1153.898,1688.33
1154.819,1702.70
1155.739,1717.07
1156.658,1674.27
1157.579,1673.57
1158.498,1681.67
1159.419,1689.50
1160.338,1654.57
1161.256,1658.17
1162.177,1691.33
1163.095,1657.90
1164.016,1697.70
1164.934,1703.47
1165.852,1676.90
1166.772,1668.17
1167.690,1666.57
1168.610,1708.90
1169.528,1710.57
1170.446,1706.67
1171.365,1657.83
1172.283,1689.27
1173.202,1665.53
1174.120,1710.13
1175.037,1672.97
1175.956,1646.33
1176.873,1671.60
1177.792,1656.80
1178.709,1675.67
1179.626,1689.13
1180.544,1680.57
1181.461,1685.60
1182.379,1664.77
1183.296,1695.00
1184.212,1667.23
1185.130,1662.97
1186.046,1650.77
1186.962,1692.60
1187.880,1676.50
1188.796,1635.53
1189.714,1647.63
1190.629,1654.93
1191.545,1658.63
1192.462,1645.60
1193.378,1645.93
1194.295,1641.53
1195.210,1684.93
1196.125,1700.07
1197.042,1641.27
1197.957,1661.10
1198.872,1638.07
1199.788,1675.13
1200.703,1669.90
1201.619,1656.93
1202.534,1686.00
1203.448,1669.80
1204.364,1623.20
1205.278,1650.43
1206.192,1680.07
1207.108,1650.70
1208.022,1673.33
1208.938,1679.23
1209.851,1648.23
1210.765,1663.50
1211.680,1639.37
1212.594,1645.33
1213.507,1657.30
1214.422,1647.07
1215.335,1693.40
1216.248,1666.10
1217.163,1693.07
1218.076,1633.27
1218.990,1701.83
1219.903,1691.20
1220.816,1621.50
1221.730,1648.63
1222.642,1649.40
1223.554,1672.00
1224.469,1698.17
1225.380,1675.67
1226.292,1632.67
1227.206,1689.03
1228.118,1660.63
1229.032,1660.47
1229.943,1698.20
1230.855,1641.30
1231.768,1680.90
1232.679,1675.83
1233.590,1669.00
1234.503,1676.00
1235.414,1660.43
1236.325,1671.37
1237.238,1685.27
1238.149,1690.97
1239.059,1680.07
1239.972,1642.00
1240.882,1682.23
1241.793,1683.77
1242.705,1681.33
1243.615,1711.07
1244.525,1661.60
1245.437,1694.73
1246.347,1698.73
1247.259,1677.23
1248.168,1660.87
1249.078,1695.13
1249.989,1696.80
1250.899,1688.37
1251.808,1728.13
1252.719,1639.87
1253.628,1689.53
1254.537,1669.10
1255.448,1687.30
1256.357,1657.93
1257.266,1681.30
1258.176,1686.20
1259.085,1674.63
1259.993,1652.37
1260.904,1679.03
1261.812,1660.97
1262.720,1659.90
1263.630,1665.73
1264.538,1682.67
1265.446,1705.23
1266.356,1682.67
1267.263,1666.87
1268.171,1701.23
1269.080,1662.60
1269.988,1703.57
1270.895,1666.10
1271.804,1684.87
1272.711,1697.17
1273.619,1659.87
1274.527,1707.00
1275.434,1681.30
1276.341,1665.20
1277.248,1647.90
1278.156,1650.60
1279.063,1660.33
1279.969,1665.93
1280.877,1695.53
1281.783,1660.63
1282.690,1671.43
1283.598,1671.43
1284.503,1662.47
1285.409,1647.20
1286.317,1659.43
1287.223,1663.33
1288.128,1651.63
1289.036,1701.70
1289.941,1660.33
1290.846,1660.80
1291.751,1658.10
1292.658,1647.83
1293.563,1641.97
1294.468,1684.57
1295.375,1624.13
1296.280,1655.50
1297.184,1676.83
1298.091,1640.57
1298.995,1644.10
1299.900,1645.53
1300.806,1663.03
1301.710,1637.90
1302.614,1656.73
1303.518,1658.63
1304.424,1632.07
1305.327,1615.77
1306.231,1645.27
1307.137,1635.93
1308.040,1625.83
1308.943,1634.43
1309.847,1614.07
1310.752,1612.27
1311.655,1621.87
1312.558,1606.80
1313.463,1632.47
1314.366,1607.50
1315.269,1611.97
1316.171,1592.83
1317.076,1597.80
1317.978,1602.03
1318.881,1601.13
1319.785,1591.63
1320.687,1584.00
1321.589,1603.10
1322.491,1585.37
1323.395,1616.17
1324.297,1606.93
1325.198,1593.10
1326.102,1599.87
1327.004,1615.40
1327.905,1577.87
1328.806,1611.07
1329.709,1597.67
1330.611,1569.37
1331.512,1581.37
1332.413,1584.40
1333.316,1570.63
1334.216,1585.37
1335.117,1545.20
1336.020,1594.83
1336.920,1577.53
1337.821,1522.43
1338.721,1567.20
1339.623,1565.80
1340.523,1541.13
1341.423,1537.40
1342.323,1566.23
1343.225,1541.93
1344.125,1525.17
1345.025,1566.13
1345.924,1545.23
1346.826,1518.23
1347.725,1485.03
1348.624,1543.77
1349.524,1541.77
1350.425,1535.83
1351.324,1563.77
1352.223,1552.97
1353.121,1518.87
1354.022,1514.67
1354.921,1541.10
1355.819,1535.83
1356.718,1544.17
1357.618,1506.43
1358.516,1479.60
1359.415,1547.37
1360.313,1524.13
1361.213,1530.13
1362.111,1510.10
1363.008,1490.80
1363.906,1499.33
1364.806,1504.80
1365.703,1461.33
1366.601,1451.17
1367.498,1478.00
1368.397,1487.37
1369.295,1493.27
1370.192,1488.50
1371.089,1514.07
1371.987,1497.70
1372.884,1495.27
1373.781,1503.43
1374.678,1482.20
1375.574,1474.13
1376.473,1496.50
1377.369,1528.30
1378.265,1474.30
1379.161,1491.07
1380.059,1452.00
1380.955,1479.37
1381.851,1453.97
1382.747,1434.80
1383.643,1445.10
1384.540,1493.73
1385.436,1453.47
1386.331,1457.23
1387.227,1443.20
1388.124,1461.40
1389.019,1453.00
1389.914,1465.40
1390.809,1431.37
1391.704,1430.60
1392.601,1443.83
1393.495,1440.50
1394.390,1457.70
1395.285,1464.57
1396.179,1442.60
1397.075,1440.50
1397.969,1414.57
1398.864,1434.43
1399.758,1446.40
1400.652,1395.40
1401.547,1456.37
1402.441,1478.87
1403.335,1455.97
1404.229,1419.60
1405.122,1430.67
1406.017,1416.07
1406.911,1441.13
1407.804,1404.13
1408.697,1405.70
1409.590,1419.80
1410.485,1433.87
1411.378,1419.43
1412.271,1422.93
1413.163,1385.83
1414.056,1432.23
1414.949,1442.50
1415.843,1438.87
1416.735,1414.80
1417.627,1412.27
1418.520,1463.93
1419.412,1438.70
1420.306,1420.57
1421.197,1412.23
1422.089,1422.77
1422.981,1402.83
1423.873,1431.13
1424.764,1378.70
1425.657,1393.00
1426.549,1440.53
1427.440,1456.83
1428.331,1371.00
1429.222,1420.67
1430.113,1430.57
1431.006,1356.30
1431.897,1402.33
1432.787,1389.50
1433.678,1388.53
1434.568,1429.60
1435.459,1395.00
1436.351,1419.23
1437.241,1396.50
1438.131,1400.93
1439.021,1438.83
1439.911,1391.63
1440.801,1390.80
1441.693,1361.47
1442.583,1382.47
1443.472,1392.90
1444.362,1377.57
1445.251,1415.50
1446.140,1356.50
1447.030,1347.13
1447.921,1358.43
1448.810,1361.10
1449.699,1378.30
1450.588,1354.83
1451.476,1377.90
1452.365,1384.53
1453.254,1417.40
1454.144,1360.63
1455.032,1386.77
1455.921,1361.67
1456.809,1379.63
1457.697,1371.57
1458.585,1394.03
1459.473,1370.07
1460.361,1346.77
1461.251,1362.13
1462.138,1363.03
1463.026,1410.17
1463.913,1330.67
1464.801,1347.63
1465.688,1386.33
1466.575,1346.50
1467.463,1344.20
1468.351,1360.57
1469.238,1357.43
1470.125,1349.17
1471.012,1309.67
1471.899,1337.80
1472.785,1346.27
1473.672,1313.43
1474.558,1336.87
1475.446,1309.73
1476.333,1358.87
1477.219,1328.03
1478.105,1354.87
1478.991,1332.10
1479.877,1319.07
1480.762,1350.63
1481.648,1310.43
1482.534,1348.10
1483.419,1301.23
1484.307,1330.73
1485.192,1335.73
1486.077,1283.77
1486.962,1322.43
1487.847,1316.80
1488.732,1348.13
1489.617,1332.97
1490.502,1351.77
1491.387,1313.57
1492.271,1309.20
1493.156,1325.23
1494.042,1315.90
1494.927,1332.53
1495.811,1323.27
1496.695,1286.23
1497.579,1353.93
1498.463,1273.27
1499.347,1318.07
1500.231,1269.93
1501.114,1280.77
1501.998,1337.00
1502.881,1309.57
1503.765,1328.33
1504.648,1260.63
1505.533,1266.93
1506.417,1291.13
1507.300,1294.97
1508.183,1285.77
1509.066,1275.10
1509.948,1267.97
1510.831,1266.90
1511.714,1295.53
1512.596,1291.40
1513.479,1285.60
1514.361,1290.60
1515.243,1297.03
1516.125,1317.43
1517.008,1293.13
1517.890,1326.77
1518.771,1271.33
1519.655,1317.27
1520.537,1264.37
1521.419,1279.33
1522.300,1253.47
1523.182,1258.60
1524.063,1283.73
1524.944,1289.70
1525.825,1281.00
1526.707,1285.03
1527.588,1271.37
1528.468,1265.47
1529.349,1228.67
1530.230,1302.27
1531.111,1257.57
1531.991,1299.63
1532.872,1224.83
1533.752,1302.03
1534.632,1274.77
1535.513,1247.90
1536.393,1227.70
1537.273,1296.80
1538.153,1229.53
1539.032,1206.90
1539.912,1239.10
1540.792,1273.40
1541.672,1249.17
1542.551,1284.73
1543.430,1280.80
1544.310,1264.30
1545.189,1251.13
1546.068,1244.93
1546.947,1242.73
1547.826,1229.40
1548.705,1283.30
1549.584,1253.17
1550.462,1280.07
1551.341,1234.97
1552.219,1244.83
1553.098,1252.30
1553.976,1263.93
1554.854,1280.07
1555.733,1253.53
1556.611,1282.37
1557.489,1243.97
1558.367,1220.03
1559.244,1217.17
1560.122,1237.03
1561.000,1246.73
1561.877,1252.00
1562.755,1223.03
1563.632,1235.57
1564.509,1255.53
1565.386,1237.77
1566.264,1216.00
1567.141,1245.80
1568.017,1240.57
1568.894,1246.73
1569.771,1238.67
1570.648,1233.27
1571.524,1237.97
1572.401,1219.60
1573.277,1236.30
1574.153,1234.67
1575.029,1204.77
1575.906,1203.30
1576.781,1244.33
1577.657,1245.50
1578.533,1235.13
1579.409,1222.70
1580.285,1257.13
1581.160,1207.23
1582.036,1239.60
1582.911,1245.13
1583.786,1224.83
1584.662,1216.10
1585.537,1201.90
1586.412,1196.23
1587.287,1187.07
1588.160,1236.10
1589.035,1203.37
1589.909,1233.63
1590.784,1218.70
1591.658,1221.83
1592.533,1219.17
1593.407,1228.40
1594.281,1192.23
1595.155,1195.80
1596.029,1176.40
1596.903,1204.60
1597.777,1226.17
1598.651,1209.73
1599.525,1216.37
1600.398,1181.30
1601.272,1222.63
1602.144,1228.10
1603.017,1181.33
1603.890,1216.10
1604.763,1220.70
1605.636,1223.23
1606.509,1165.93
1607.382,1222.80
1608.255,1207.47
1609.128,1201.20
1610.000,1211.83
1610.873,1200.43
1611.746,1214.90
1612.616,1224.67
1613.488,1190.53
1614.361,1212.27
1615.233,1202.67
1616.105,1195.77
1616.977,1213.67
1617.849,1210.20
1618.720,1209.90
1619.592,1194.10
1620.464,1228.53
1621.333,1166.53
1622.205,1215.93
1623.076,1182.70
1623.947,1205.63
1624.818,1206.27
1625.689,1199.87
1626.560,1224.80
1627.431,1201.43
1628.302,1215.87
1629.171,1228.13
1630.042,1179.23
1630.912,1189.93
1631.782,1231.30
1632.653,1192.13
1633.523,1185.50
1634.393,1180.30
1635.263,1161.60
1636.131,1187.17
1637.001,1198.90
1637.871,1190.10
1638.741,1186.10
1639.611,1214.83
1640.480,1205.60
1641.350,1218.00
1642.219,1199.50
1643.087,1182.27
1643.956,1206.87
1644.825,1200.00
1645.694,1197.97
1646.563,1180.00
1647.432,1185.60
1648.299,1220.30
1649.167,1170.03
1650.036,1156.80
1650.904,1146.37
1651.773,1184.80
1652.641,1216.47
1653.509,1160.87
1654.376,1167.27
1655.244,1189.43
1656.112,1155.10
1656.980,1179.20
1657.847,1181.07
1658.715,1155.60
1659.581,1213.70
1660.448,1181.97
1661.316,1157.10
1662.183,1173.90
1663.051,1169.57
1663.918,1183.53
1664.783,1186.17
1665.650,1179.17
1666.517,1175.13
1667.384,1139.53
1668.251,1154.03
1669.115,1171.73
1669.982,1164.83
1670.849,1179.33
1671.715,1174.93
1672.581,1155.40
1673.446,1135.67
1674.312,1147.20
1675.178,1153.87
1676.044,1145.27
1676.910,1161.10
1677.774,1188.57
1678.639,1160.87
1679.505,1145.70
1680.370,1190.23
1681.236,1169.97
1682.099,1160.00
1682.965,1150.13
1683.830,1163.93
1684.695,1144.10
1685.560,1136.13
1686.423,1155.43
1687.288,1141.67
1688.153,1167.00
1689.017,1176.70
1689.880,1140.97
1690.745,1144.33
1691.609,1161.40
1692.473,1134.57
1693.338,1156.33
1694.200,1145.60
1695.064,1165.90
1695.928,1176.00
1696.792,1151.67
1697.654,1158.83
1698.517,1144.70
1699.381,1148.30
1700.245,1182.70
1701.106,1156.67
1701.969,1197.13
1702.833,1120.07
1703.696,1135.40
1704.557,1172.73
1705.420,1173.13
1706.283,1145.57
1707.146,1136.20
1708.007,1140.23
1708.870,1145.30
1709.732,1174.60
1710.595,1145.93
1711.455,1147.93
1712.318,1181.27
1713.180,1167.00
1714.040,1134.77
1714.902,1179.60
1715.764,1171.40
1716.626,1137.40
1717.486,1196.27
1718.348,1186.80
1719.209,1167.10
1720.071,1154.57
1720.930,1123.23
1721.792,1119.73
1722.653,1167.23
1723.512,1138.70
1724.374,1175.47
1725.234,1131.50
1726.095,1177.90
1726.954,1146.67
1727.815,1108.80
1728.676,1147.63
1729.535,1133.57
1730.395,1151.03
1731.256,1143.57
1732.114,1157.30
1732.974,1124.37
1733.834,1141.43
1734.693,1110.23
1735.553,1140.33
1736.413,1111.77
1737.272,1171.63
1738.130,1146.27
1738.990,1111.23
1739.849,1131.83
1740.707,1130.70
1741.566,1138.53
1742.426,1096.53
1743.283,1129.70
1744.142,1135.43
1745.001,1148.50
1745.858,1126.57
1746.717,1140.27
1747.576,1163.40
1748.433,1166.70
1749.292,1128.47
1750.150,1132.97
1751.007,1157.40
1751.865,1138.77
1752.723,1131.27
1753.579,1162.37
1754.438,1157.07
1755.296,1128.23
1756.152,1169.13
1757.010,1118.47
1757.865,1159.53
1758.723,1128.57
1759.581,1155.07
1760.436,1130.17
1761.294,1150.53
1762.151,1110.30
1763.006,1138.23
1763.864,1164.60
1764.721,1163.87
1765.576,1155.80
1766.433,1146.83
1767.288,1158.77
1768.144,1169.20
1769.001,1139.77
1769.856,1114.80
1770.712,1131.93
1771.568,1155.87
1772.423,1132.13
1773.279,1156.57
1774.133,1107.80
1774.989,1110.90
1775.845,1124.63
1776.699,1162.03
1777.555,1145.90
1778.409,1194.57
1779.265,1135.43
1780.120,1160.00
1780.974,1149.03
1781.829,1159.13
1782.682,1104.67
1783.538,1127.20
1784.393,1124.50
1785.246,1121.87
1786.101,1136.47
1786.954,1164.97
1787.808,1074.50
1788.661,1142.97
1789.516,1134.90
1790.370,1139.67
1791.223,1147.83
1792.077,1124.50
1792.930,1146.87
1793.784,1118.90
1794.636,1159.00
1795.490,1135.00
1796.344,1132.40
1797.196,1123.97
1798.049,1104.50
1798.901,1099.57
1799.755,1156.73
1800.606,1137.20
1801.460,1087.77
1802.311,1120.63
1803.165,1126.07
1804.018,1144.03
1804.869,1126.70
1805.722,1116.10
1806.573,1111.83
1807.426,1128.70
1808.276,1094.47
1809.129,1121.20
1809.980,1135.33
1810.832,1074.43
1811.683,1161.80
1812.535,1209.63
1813.385,1093.40
1814.237,1155.67
1815.089,1156.60
1815.940,1093.13
1816.791,1093.33
1817.641,1141.07
1818.493,1147.97
1819.343,1108.57
1820.194,1119.57
1821.044,1150.17
1821.895,1118.77
1822.745,1119.40
1823.596,1112.33
1824.445,1123.90
1825.296,1134.23
1826.145,1140.37
1826.996,1120.67
1827.845,1119.20
1828.695,1073.27
1829.544,1149.13
1830.395,1132.47
1831.243,1151.27
1832.094,1123.10
1832.942,1125.53
1833.792,1165.77
1834.640,1123.37
1835.490,1125.60
1836.338,1150.03
1837.186,1122.43
1838.036,1120.87
1838.884,1080.63
1839.733,1137.33
1840.581,1100.83
1841.430,1097.73
1842.278,1086.50
1843.127,1114.00
1843.974,1119.93
1844.823,1107.90
1845.671,1142.23
1846.519,1107.37
1847.366,1122.00
1848.213,1134.90
1849.062,1117.43
1849.909,1124.87
1850.757,1123.43
1851.604,1140.43
1852.452,1106.13
1853.298,1150.67
1854.146,1120.90
1854.993,1118.97
1855.839,1107.30
1856.687,1084.90
1857.532,1129.33
1858.380,1090.00
1859.226,1088.17
1860.073,1107.90
1860.919,1080.93
1861.765,1075.33
1862.612,1127.17
1863.457,1116.17
1864.304,1112.47
1865.150,1129.30
1865.995,1089.07
1866.842,1120.63
1867.686,1099.20
1868.533,1102.07
1869.378,1118.60
1870.223,1088.03
1871.069,1156.93
1871.914,1101.63
1872.760,1097.60
1873.604,1139.80
1874.448,1108.63
1875.294,1153.70
1876.139,1083.10
1876.984,1138.27
1877.828,1106.60
1878.672,1130.83
1879.518,1100.60
1880.361,1104.43
1881.205,1120.53
1882.050,1123.33
1882.894,1100.23
1883.739,1119.50
1884.582,1132.43
1885.425,1100.10
1886.270,1070.93
1887.113,1092.37
1887.956,1093.87
1888.801,1120.80
1889.644,1091.50
1890.486,1113.67
1891.331,1126.57
1892.173,1129.50
1893.017,1095.90
1893.860,1072.03
1894.702,1104.57
1895.546,1101.93
1896.388,1094.60
1897.230,1124.27
1898.074,1108.07
1898.916,1119.27
1899.757,1078.77
1900.601,1100.33
1901.443,1113.70
1902.284,1078.57
1903.125,1075.60
1903.969,1085.13
1904.810,1071.07
1905.651,1106.10
1906.494,1103.23
1907.335,1090.47
1908.176,1112.00
1909.018,1055.77
1909.859,1170.93
1910.700,1119.23
1911.542,1108.23
1912.383,1124.50
1913.223,1106.73
1914.064,1127.47
1914.906,1101.47
1915.746,1081.90
1916.586,1041.00
1917.428,1105.73
1918.268,1102.50
1919.107,1083.40
1919.947,1097.73
1920.789,1104.73
1921.628,1081.80
1922.468,1112.90
1923.309,1146.90
1924.148,1114.27
1924.988,1086.17
1925.827,1089.83
1926.667,1085.77
1927.507,1082.40
1928.345,1090.83
1929.184,1135.37
1930.025,1152.37
1930.864,1063.03
1931.702,1081.33
1932.541,1078.60
1933.381,1134.07
1934.219,1137.53
1935.057,1079.47
1935.896,1096.07
1936.735,1097.63
1937.573,1065.53
1938.411,1100.47
1939.249,1087.60
1940.089,1075.40
1940.927,1108.33
1941.764,1111.60
1942.602,1097.27
1943.439,1111.17
1944.278,1102.77
1945.115,1105.47
1945.953,1124.00
1946.790,1121.20
1947.628,1109.17
1948.465,1113.47
1949.302,1073.50
1950.139,1104.47
1950.976,1114.30
1951.814,1116.80
1952.651,1074.27
1953.487,1114.10
1954.323,1092.73
1955.160,1103.47
1955.998,1140.77
1956.834,1113.67
1957.670,1127.23
1958.506,1080.63
1959.342,1052.07
1960.177,1115.10
1961.015,1041.37
1961.850,1126.87
1962.686,1114.10
1963.521,1063.77
1964.357,1129.57
1965.192,1092.20
1966.029,1076.23
1966.864,1130.77
1967.699,1109.00
1968.534,1118.87
1969.369,1121.63
1970.204,1117.10
1971.040,1092.07
1971.875,1079.20
1972.709,1118.43
1973.544,1099.33
1974.378,1110.57
1975.212,1078.77
1976.047,1100.53
1976.882,1102.60
1977.716,1109.10
1978.550,1075.17
1979.384,1107.37
1980.218,1092.37
1981.052,1094.60
1981.885,1108.33
1982.719,1065.03
1983.554,1066.90
1984.388,1083.37
1985.221,1083.07
1986.054,1092.30
1986.887,1101.67
1987.720,1069.17
1988.553,1093.57
1989.386,1078.27
1990.219,1111.60
1991.053,1105.73
1991.886,1095.27
1992.719,1086.73
1993.551,1077.37
1994.383,1101.13
1995.216,1084.57
1996.048,1109.00
1996.880,1098.93
1997.712,1093.50
1998.544,1109.63
1999.376,1123.17
2000.208,1126.07
2001.040,1114.73
2001.873,1099.90
2002.705,1081.87
2003.536,1073.43
2004.367,1099.13
2005.199,1114.97
2006.030,1093.70
2006.861,1100.63
2007.692,1111.83
2008.523,1077.13
2009.354,1064.07
2010.185,1098.17
2011.016,1089.73
2011.846,1145.87
2012.677,1123.03
2013.507,1063.67
2014.338,1160.37
2015.168,1105.17
2015.999,1113.57
2016.829,1098.23
2017.659,1121.77
2018.489,1062.80
2019.319,1126.27
2020.149,1093.67
2020.980,1086.47
2021.810,1096.60
2022.639,1096.77
2023.469,1094.73
2024.298,1103.03
2025.128,1085.70
2025.957,1111.30
2026.786,1091.33
2027.615,1108.33
2028.444,1160.40
2029.273,1143.93
2030.102,1119.73
2030.931,1111.43
2031.758,1124.20
2032.586,1162.07
2033.415,1144.60
2034.243,1109.27
2035.072,1119.43
2035.900,1093.30
2036.728,1147.17
2037.556,1102.27
2038.385,1132.87
2039.213,1160.90
2040.040,1144.93
2040.868,1133.47
2041.696,1162.97
2042.524,1100.07
2043.351,1102.37
2044.179,1115.97
2045.006,1100.63
2045.006,1100.63

Max Intensity Wave.,219.929
Max Intensity Data,6265.13
Min Intensity Wave.,146.591
Min Intensity Data,858.80
FWHM Wave.,400.274
FWHM Value,0.98
Pressure Wave.,684.671
Pressure Value [GPa],-24.91530
G/D Ratio,0.77443
G/D Gband Wave.,1542.903
G/D Gband Intensity,1287.90
G/D Dband Wave.,1300.806
G/D Dband Intensity,1663.03

<< BACKGROUND SPECTRUM >>
Wave[dcm-1],No106
146.591,2261.00
147.626,2124.00
148.664,2062.00
149.699,2542.00
150.737,2276.00
151.772,2390.00
152.809,2416.00
153.846,2316.00
154.881,2404.00
155.918,1961.00
156.953,2276.00
157.989,2612.00
159.026,2436.00
160.060,2636.00
161.096,2867.00
162.130,2505.00
163.167,2596.00
164.200,2449.00
165.236,2665.00
166.272,2683.00
167.305,2282.00
168.341,2580.00
169.374,2763.00
170.409,2838.00
171.445,2727.00
172.477,2513.00
173.512,2373.00
174.545,2682.00
175.580,2888.00
176.614,3038.00
177.647,2787.00
178.681,3043.00
179.713,3341.00
180.747,2828.00
181.781,2717.00
182.813,3014.00
183.847,3079.00
184.878,2706.00
185.912,3049.00
186.945,3139.00
187.976,3068.00
189.010,2722.00
190.043,2841.00
191.073,2938.00
192.106,2726.00
193.137,3136.00
194.170,2557.00
195.202,2926.00
196.232,2705.00
197.265,3065.00
198.297,3108.00
199.327,2787.00
200.359,2964.00
201.388,3347.00
202.420,2890.00
203.452,3112.00
204.481,2699.00
205.512,3340.00
206.544,3103.00
207.573,3069.00
208.604,3409.00
209.635,3555.00
210.663,2968.00
211.694,2975.00
212.725,2851.00
213.753,2815.00
214.783,3378.00
215.813,3277.00
216.841,3014.00
217.871,3143.00
218.899,2926.00
219.929,3120.00
220.959,2878.00
221.986,3168.00
223.016,2790.00
224.045,3185.00
225.072,3184.00
226.101,3173.00
227.130,3241.00
228.157,2841.00
229.185,2354.00
230.214,3193.00
231.241,2842.00
232.269,2462.00
233.297,2687.00
234.323,3192.00
235.351,2842.00
236.379,3120.00
237.407,2748.00
238.433,2922.00
239.460,3096.00
240.488,3145.00
241.513,3212.00
242.540,3137.00
243.568,3185.00
244.592,3269.00
245.619,3198.00
246.646,2912.00
247.671,2946.00
248.697,2795.00
249.724,3018.00
250.748,3033.00
251.774,3021.00
252.801,3312.00
253.827,3107.00
254.850,3088.00
255.876,2698.00
256.902,3122.00
257.925,3005.00
258.951,2722.00
259.976,2797.00
260.999,3076.00
262.024,2797.00
263.049,3666.00
264.074,3105.00
265.097,3026.00
266.122,3116.00
267.146,3030.00
268.168,3216.00
269.193,2842.00
270.217,3204.00
271.241,2725.00
272.263,2961.00
273.287,3185.00
274.311,2801.00
275.332,3264.00
276.356,2843.00
277.379,3063.00
278.402,3123.00
279.424,2939.00
280.447,2912.00
281.470,2738.00
282.492,3074.00
283.513,2946.00
284.536,3163.00
285.558,3160.00
286.581,3125.00
287.601,2889.00
288.623,2785.00
289.645,3099.00
290.665,3124.00
291.687,3162.00
292.709,3146.00
293.730,3427.00
294.750,2915.00
295.771,2797.00
296.792,3065.00
297.813,2941.00
298.832,3055.00
299.853,2715.00
300.874,2998.00
301.895,2951.00
302.913,3031.00
303.934,3278.00
304.954,3015.00
305.975,3176.00
306.993,2763.00
308.013,3166.00
309.033,3029.00
310.052,2927.00
311.072,2873.00
312.090,3047.00
313.109,3293.00
314.129,3451.00
315.148,3015.00
316.165,3082.00
317.184,3262.00
318.203,2766.00
319.222,2778.00
320.238,3170.00
321.257,2832.00
322.275,2724.00
323.294,2992.00
324.312,3168.00
325.328,3276.00
326.346,3289.00
327.364,3224.00
328.382,3184.00
329.397,3120.00
330.415,3256.00
331.432,3215.00
332.450,3260.00
333.467,3469.00
334.482,2581.00
335.499,3380.00
336.516,2895.00
337.533,2577.00
338.547,2838.00
339.564,2887.00
340.580,3085.00
341.597,2971.00
342.613,3482.00
343.627,2956.00
344.643,3030.00
345.659,3087.00
346.675,2983.00
347.690,2937.00
348.704,3096.00
349.719,2920.00
350.735,2790.00
351.750,3202.00
352.765,3063.00
353.778,3009.00
354.793,3185.00
355.808,2864.00
356.822,3169.00
357.837,2634.00
358.851,3278.00
359.864,2963.00
360.878,2757.00
361.892,2946.00
362.906,3165.00
363.920,2608.00
364.932,3174.00
365.945,3103.00
366.959,3012.00
367.972,2911.00
368.986,2704.00
369.999,3401.00
371.010,2827.00
372.023,3364.00
373.036,2995.00
374.049,3404.00
375.061,3071.00
376.072,3026.00
377.084,2845.00
378.097,2699.00
379.109,3188.00
380.121,2975.00
381.133,2692.00
382.143,3146.00
383.155,2726.00
384.166,2897.00
385.178,3146.00
386.189,3224.00
387.201,2712.00
388.212,2940.00
389.221,2935.00
390.232,3025.00
391.243,2960.00
392.254,3044.00
393.264,2857.00
394.275,3231.00
395.283,3174.00
396.294,3629.00
397.304,3468.00
398.314,3126.00
399.324,3046.00
400.334,2644.00
401.344,3151.00
402.351,2724.00
403.361,3196.00
404.370,2980.00
405.380,2900.00
406.389,3355.00
407.398,3149.00
408.407,3069.00
409.414,3181.00
410.423,3272.00
411.431,2798.00
412.440,2678.00
413.448,3355.00
414.457,2902.00
415.465,2880.00
416.471,2904.00
417.479,3061.00
418.487,2834.00
419.495,3300.00
420.503,3124.00
421.510,2636.00
422.518,3135.00
423.525,3165.00
424.530,3433.00
425.537,2904.00
426.544,3221.00
427.551,2874.00
428.558,3591.00
429.565,3450.00
430.571,2873.00
431.578,2915.00
432.582,2848.00
433.588,2995.00
434.595,2589.00
435.601,3295.00
436.607,3238.00
437.612,2772.00
438.618,3327.00
439.624,2943.00
440.627,2923.00
441.633,3112.00
442.638,3625.00
443.643,3110.00
444.648,3055.00
445.653,3198.00
446.658,2877.00
447.663,3043.00
448.667,2888.00
449.672,2903.00
450.674,2984.00
451.678,2706.00
452.682,2890.00
453.687,2820.00
454.690,3579.00
455.694,3272.00
456.698,2540.00
457.702,2660.00
458.705,2808.00
459.709,2818.00
460.710,2876.00
461.713,3009.00
462.716,3117.00
463.719,2996.00
464.722,3205.00
465.725,2993.00
466.727,2839.00
467.730,3055.00
468.732,2784.00
469.735,3327.00
470.737,2902.00
471.737,2914.00
472.739,2923.00
473.741,2829.00
474.742,3038.00
475.744,3080.00
476.746,3064.00
477.747,2931.00
478.748,3187.00
479.750,2944.00
480.751,2988.00
481.752,3744.00
482.753,3123.00
483.751,3575.00
484.752,2617.00
485.753,2952.00
486.753,2865.00
487.753,3011.00
488.754,3431.00
489.754,2739.00
490.754,3297.00
491.754,3111.00
492.754,2715.00
493.753,3018.00
494.753,2879.00
495.752,3346.00
496.752,3043.00
497.749,2983.00
498.748,2864.00
499.747,3418.00
500.746,3096.00
501.745,2779.00
502.744,2794.00
503.742,3372.00
504.741,2920.00
505.739,2473.00
506.737,2895.00
507.735,3160.00
508.734,3369.00
509.732,3129.00
510.729,3335.00
511.727,2935.00
512.725,2905.00
513.720,2799.00
514.718,3211.00
515.715,2655.00
516.712,2655.00
517.709,3011.00
518.706,2906.00
519.703,3055.00
520.700,3202.00
521.696,3366.00
522.693,2903.00
523.689,2837.00
524.686,3183.00
525.682,2768.00
526.678,3509.00
527.674,2934.00
528.670,2591.00
529.666,3486.00
530.661,3456.00
531.657,3659.00
532.652,3161.00
533.648,3034.00
534.641,3205.00
535.636,3077.00
536.631,3086.00
537.626,3171.00
538.621,2753.00
539.616,2638.00
540.610,2519.00
541.605,3025.00
542.599,3074.00
543.593,3026.00
544.587,3929.00
545.581,2875.00
546.575,3059.00
547.569,3025.00
548.563,2689.00
549.557,2659.00
550.550,2778.00
551.543,2759.00
552.537,3186.00
553.530,2810.00
554.523,2782.00
555.516,3121.00
556.509,2958.00
557.502,2672.00
558.494,3164.00
559.487,2940.00
560.479,3154.00
561.472,3205.00
562.464,3144.00
563.456,3328.00
564.448,2944.00
565.440,3052.00
566.432,3406.00
567.423,2893.00
568.415,2873.00
569.404,3124.00
570.396,2817.00
571.387,3165.00
572.378,3006.00
573.369,3999.00
574.360,3689.00
575.351,2959.00
576.341,2855.00
577.332,2848.00
578.323,2690.00
579.313,2890.00
580.303,3294.00
581.293,3167.00
582.283,3021.00
583.273,3089.00
584.263,2996.00
585.253,3124.00
586.243,3155.00
587.232,2623.00
588.222,2955.00
589.211,3164.00
590.200,3076.00
591.189,2938.00
592.178,2990.00
593.167,3398.00
594.156,3233.00
595.145,2868.00
596.133,3472.00
597.122,3108.00
598.110,3216.00
599.098,3054.00
600.086,3008.00
601.074,3168.00
602.062,2861.00
603.050,2733.00
604.038,3093.00
605.025,2824.00
606.013,3201.00
607.000,3395.00
607.987,3026.00
608.975,3070.00
609.962,2796.00
610.949,3190.00
611.936,3290.00
612.922,3164.00
613.909,2705.00
614.895,3369.00
615.882,2833.00
616.868,3008.00
617.854,2788.00
618.841,2991.00
619.826,3095.00
620.812,2967.00
621.798,2764.00
622.784,3160.00
623.769,3090.00
624.755,2695.00
625.740,3035.00
626.725,2696.00
627.711,2857.00
628.698,3065.00
629.683,2807.00
630.667,3179.00
631.652,2781.00
632.637,2982.00
633.621,3166.00
634.606,2942.00
635.590,3139.00
636.574,2967.00
637.558,3089.00
638.542,3061.00
639.526,2845.00
640.510,2623.00
641.493,3050.00
642.477,2966.00
643.460,2731.00
644.444,3234.00
645.427,3286.00
646.410,2668.00
647.393,2969.00
648.376,3079.00
649.359,2892.00
650.341,3105.00
651.324,3084.00
652.307,3054.00
653.289,2947.00
654.271,2848.00
655.253,2886.00
656.235,3189.00
657.217,3257.00
658.199,2607.00
659.181,2748.00
660.163,3017.00
661.144,2899.00
662.126,2886.00
663.107,2823.00
664.088,4665.00
665.069,3262.00
666.050,2810.00
667.033,2712.00
668.014,3030.00
668.995,2591.00
669.975,2953.00
670.956,3001.00
671.936,3145.00
672.916,2977.00
673.896,3118.00
674.876,2923.00
675.856,2898.00
676.836,2759.00
677.816,2327.00
678.795,2817.00
679.775,2714.00
680.754,3017.00
681.734,3131.00
682.713,3174.00
683.692,2754.00
684.671,2641.00
685.650,2766.00
686.629,2883.00
687.607,2777.00
688.586,2788.00
689.564,2830.00
690.543,3244.00
691.523,2403.00
692.501,2787.00
693.479,2908.00
694.457,2837.00
695.435,2885.00
696.413,2670.00
697.390,2487.00
698.368,2700.00
699.345,3098.00
700.322,2942.00
701.300,3076.00
702.277,3054.00
703.254,3256.00
704.231,2593.00
705.207,2972.00
706.184,2784.00
707.161,2692.00
708.137,2845.00
709.113,2826.00
710.090,2809.00
711.068,2565.00
712.044,2616.00
713.020,2866.00
713.996,2612.00
714.971,2803.00
715.947,2862.00
716.922,2812.00
717.898,2736.00
718.873,2864.00
719.848,2734.00
720.823,2697.00
721.798,3024.00
722.773,2713.00
723.748,2512.00
724.723,3009.00
725.697,2802.00
726.672,2765.00
727.646,2498.00
728.622,3052.00
729.596,2606.00
730.570,2733.00
731.544,3071.00
732.518,3276.00
733.492,2836.00
734.466,2849.00
735.439,3018.00
736.413,3091.00
737.386,2464.00
738.359,2413.00
739.332,2519.00
740.305,2845.00
741.278,3302.00
742.251,2912.00
743.224,2750.00
744.196,2547.00
745.171,3106.00
746.143,3041.00
747.115,2761.00
748.087,2697.00
749.059,3091.00
750.031,2892.00
751.003,3667.00
751.975,3194.00
752.947,2695.00
753.918,3102.00
754.890,2572.00
755.861,2759.00
756.832,3069.00
757.803,2839.00
758.774,2801.00
759.747,2608.00
760.718,3211.00
761.689,2742.00
762.659,2630.00
763.630,3171.00
764.600,2572.00
765.570,3051.00
766.540,3172.00
767.510,2945.00
768.480,3027.00
769.450,2757.00
770.420,2831.00
771.390,2677.00
772.359,2791.00
773.329,2639.00
774.300,2518.00
775.269,2763.00
776.238,2982.00
777.207,3166.00
778.176,2486.00
779.145,2789.00
780.114,2682.00
781.083,2576.00
782.051,2769.00
783.019,2680.00
783.988,3063.00
784.956,2837.00
785.924,2961.00
786.894,2866.00
787.862,2753.00
788.830,3142.00
789.797,2634.00
790.765,2606.00
791.732,2760.00
792.700,2666.00
793.667,2568.00
794.634,2748.00
795.601,2720.00
796.568,2772.00
797.535,2800.00
798.502,3401.00
799.468,2924.00
800.437,2409.00
801.403,2608.00
802.370,3281.00
803.336,2971.00
804.302,2865.00
805.268,2430.00
806.234,2529.00
807.200,2738.00
808.166,2774.00
809.131,2583.00
810.097,2992.00
811.062,3647.00
812.027,3009.00
812.994,2613.00
813.960,2622.00
814.925,2988.00
815.889,2530.00
816.854,3047.00
817.819,2627.00
818.783,2757.00
819.748,3060.00
820.712,2740.00
821.677,2634.00
822.641,2702.00
823.605,2723.00
824.571,3148.00
825.534,2757.00
826.498,2681.00
827.462,2784.00
828.425,2603.00
829.389,3044.00
830.352,2830.00
831.315,2962.00
832.279,2489.00
833.242,2766.00
834.204,2641.00
835.167,2705.00
836.132,3056.00
837.095,2491.00
838.057,2700.00
839.020,2839.00
839.982,2830.00
840.944,2684.00
841.906,2623.00
842.868,2972.00
843.830,2527.00
844.792,3076.00
845.753,2693.00
846.715,2434.00
847.679,2592.00
848.640,2594.00
849.601,2732.00
850.562,3246.00
851.523,2721.00
852.484,2476.00
853.445,3029.00
854.406,2676.00
855.367,2705.00
856.327,3047.00
857.288,2485.00
858.248,2703.00
859.210,2717.00
860.170,2558.00
861.130,3059.00
862.090,2446.00
863.050,2626.00
864.010,2710.00
864.969,2881.00
865.929,2598.00
866.888,2505.00
867.848,2813.00
868.807,2669.00
869.766,2843.00
870.727,2712.00
871.686,2998.00
872.645,3014.00
873.604,3311.00
874.562,2767.00
875.521,2796.00
876.479,3328.00
877.437,2581.00
878.396,2571.00
879.354,3134.00
880.312,2613.00
881.270,2677.00
882.229,3102.00
883.187,2607.00
884.145,2664.00
885.102,2930.00
886.059,2838.00
887.017,2933.00
887.974,2987.00
888.931,3084.00
889.888,2488.00
890.845,2481.00
891.802,2326.00
892.758,2634.00
893.717,2425.00
894.673,2569.00
895.630,2623.00
896.586,2912.00
897.542,2685.00
898.498,2523.00
899.454,2835.00
900.410,2670.00
901.366,2661.00
902.321,3759.00
903.277,2699.00
904.232,2771.00
905.189,2501.00
906.145,2686.00
907.100,2231.00
908.055,2714.00
909.010,2935.00
909.965,2326.00
910.919,2772.00
911.874,2595.00
912.828,2777.00
913.783,2803.00
914.737,2341.00
915.693,2776.00
916.648,2926.00
917.602,2911.00
918.555,2798.00
919.509,2838.00
920.463,2780.00
921.417,2772.00
922.370,2594.00
923.324,2692.00
924.277,2645.00
925.230,2756.00
926.183,2440.00
927.138,2677.00
928.091,2952.00
929.044,2846.00
929.996,2672.00
930.949,2684.00
931.902,2843.00
932.854,2840.00
933.806,2605.00
934.758,2996.00
935.711,2996.00
936.663,2819.00
937.614,2784.00
938.568,2738.00
939.520,2412.00
940.471,2721.00
941.423,2778.00
942.374,2893.00
943.326,2760.00
944.277,2625.00
945.228,2830.00
946.179,2713.00
947.130,3078.00
948.080,2628.00
949.031,2598.00
949.984,2689.00
950.934,2738.00
951.884,2465.00
952.835,2708.00
953.785,2729.00
954.735,2626.00
955.685,2364.00
956.635,2654.00
957.585,2620.00
958.534,2627.00
959.484,2769.00
960.433,2604.00
961.383,2424.00
962.334,2956.00
963.283,2775.00
964.232,2858.00
965.181,2741.00
966.130,2773.00
967.079,2625.00
968.027,2739.00
968.976,2732.00
969.924,2595.00
970.873,2810.00
971.821,2747.00
972.769,2938.00
973.719,2864.00
974.667,2470.00
975.615,2756.00
976.562,2703.00
977.510,2404.00
978.458,2629.00
979.405,2840.00
980.352,2813.00
981.300,2998.00
982.247,2792.00
983.194,2559.00
984.141,2609.00
985.088,2683.00
986.036,2760.00
986.983,3029.00
987.930,3134.00
988.876,2366.00
989.822,2955.00
990.769,2528.00
991.715,2626.00
992.661,2436.00
993.607,2800.00
994.553,3275.00
995.498,2568.00
996.444,2273.00
997.389,2768.00
998.337,2557.00
999.282,2862.00
1000.227,2660.00
1001.173,2674.00
1002.118,2436.00
1003.062,2911.00
1004.007,2660.00
1004.952,2969.00
1005.897,2916.00
1006.841,2692.00
1007.786,2427.00
1008.730,2464.00
1009.674,3147.00
1010.618,2685.00
1011.564,2485.00
1012.508,2386.00
1013.452,2949.00
1014.396,2722.00
1015.339,2619.00
1016.283,2682.00
1017.226,2753.00
1018.170,2711.00
1019.113,2921.00
1020.056,2723.00
1020.999,2712.00
1021.942,2623.00
1022.885,2834.00
1023.828,2975.00
1024.770,2498.00
1025.715,2781.00
1026.657,2691.00
1027.600,2729.00
1028.542,2927.00
1029.484,2760.00
1030.426,2810.00
1031.368,2803.00
1032.310,2547.00
1033.251,2518.00
1034.193,2721.00
1035.135,2513.00
1036.076,2643.00
1037.017,2527.00
1037.959,2808.00
1038.900,2755.00
1039.843,2806.00
1040.784,2750.00
1041.725,2767.00
1042.665,2596.00
1043.606,2750.00
1044.547,2752.00
1045.487,2380.00
1046.427,2667.00
1047.368,2784.00
1048.308,2225.00
1049.248,2533.00
1050.188,2688.00
1051.128,2643.00
1052.067,2697.00
1053.007,2415.00
1053.947,2390.00
1054.886,2557.00
1055.827,2507.00
1056.766,2943.00
1057.706,2443.00
1058.645,2665.00
1059.584,2719.00
1060.522,3003.00
1061.461,2478.00
1062.400,2483.00
1063.338,2650.00
1064.277,2527.00
1065.215,2491.00
1066.154,2409.00
1067.092,2614.00
1068.030,2632.00
1068.968,2866.00
1069.906,3042.00
1070.843,2995.00
1071.781,2716.00
1072.720,2816.00
1073.658,2820.00
1074.595,2604.00
1075.533,2590.00
1076.470,2552.00
1077.407,2989.00
1078.344,2756.00
1079.281,2816.00
1080.217,2305.00
1081.154,2672.00
1082.091,2742.00
1083.027,2481.00
1083.964,2932.00
1084.900,2575.00
1085.836,2609.00
1086.772,2897.00
1087.708,2459.00
1088.644,2841.00
1089.580,2691.00
1090.515,2742.00
1091.451,2590.00
1092.388,2726.00
1093.324,2435.00
1094.259,3238.00
1095.194,2729.00
1096.129,2620.00
1097.064,2581.00
1097.999,2814.00
1098.934,2513.00
1099.869,2574.00
1100.803,2696.00
1101.738,2694.00
1102.672,2421.00
1103.607,2786.00
1104.541,2573.00
1105.475,2548.00
1106.409,2432.00
1107.343,2602.00
1108.277,2400.00
1109.210,2714.00
1110.144,2652.00
1111.078,2660.00
1112.011,2476.00
1112.944,2780.00
1113.878,2729.00
1114.811,2185.00
1115.744,2577.00
1116.678,2309.00
1117.611,2548.00
1118.544,2615.00
1119.477,2798.00
1120.409,2554.00
1121.342,3114.00
1122.274,2728.00
1123.206,4235.00
1124.138,2721.00
1125.070,2985.00
1126.002,2789.00
1126.934,2316.00
1127.866,2571.00
1128.798,2318.00
1129.729,2371.00
1130.661,2634.00
1131.592,2565.00
1132.523,2782.00
1133.454,2733.00
1134.385,2306.00
1135.317,2669.00
1136.247,2586.00
1137.178,2864.00
1138.109,2343.00
1139.039,3004.00
1139.970,2834.00
1140.900,2584.00
1141.831,2312.00
1142.761,2251.00
1143.691,2737.00
1144.621,2657.00
1145.551,2692.00
1146.480,2693.00
1147.410,2807.00
1148.340,2318.00
1149.269,2371.00
1150.199,2604.00
1151.128,3082.00
1152.057,2426.00
1152.979,2604.00
1153.898,2635.00
1154.819,2716.00
1155.739,2609.00
1156.658,2557.00
1157.579,2689.00
1158.498,2643.00
1159.419,2188.00
1160.338,2702.00
1161.256,2715.00
1162.177,2491.00
1163.095,2631.00
1164.016,2688.00
1164.934,2868.00
1165.852,2831.00
1166.772,2626.00
1167.690,2658.00
1168.610,2672.00
1169.528,2616.00
1170.446,2178.00
1171.365,2553.00
1172.283,2488.00
1173.202,2641.00
1174.120,2640.00
1175.037,2485.00
1175.956,2486.00
1176.873,2496.00
1177.792,2530.00
1178.709,3104.00
1179.626,2510.00
1180.544,2836.00
1181.461,2488.00
1182.379,2737.00
1183.296,2589.00
1184.212,2284.00
1185.130,2481.00
1186.046,2973.00
1186.962,2599.00
1187.880,2886.00
1188.796,2701.00
1189.714,2446.00
1190.629,2763.00
1191.545,2698.00
1192.462,2577.00
1193.378,2602.00
1194.295,2356.00
1195.210,2638.00
1196.125,2728.00
1197.042,2727.00
1197.957,2636.00
1198.872,2529.00
1199.788,2512.00
1200.703,2949.00
1201.619,2658.00
1202.534,2473.00
1203.448,2706.00
1204.364,2605.00
1205.278,2307.00
1206.192,2660.00
1207.108,3138.00
1208.022,2969.00
1208.938,2462.00
1209.851,2786.00
1210.765,2840.00
1211.680,2568.00
1212.594,2431.00
1213.507,2588.00
1214.422,3033.00
1215.335,2713.00
1216.248,2557.00
1217.163,2618.00
1218.076,3248.00
1218.990,2710.00
1219.903,2402.00
1220.816,2499.00
1221.730,2616.00
1222.642,2521.00
1223.554,2533.00
1224.469,2677.00
1225.380,2579.00
1226.292,2316.00
1227.206,2739.00
1228.118,2951.00
1229.032,2287.00
1229.943,2482.00
1230.855,2605.00
1231.768,2374.00
1232.679,2711.00
1233.590,2618.00
1234.503,2825.00
1235.414,2483.00
1236.325,2517.00
1237.238,2691.00
1238.149,2717.00
1239.059,2443.00
1239.972,2846.00
1240.882,2430.00
1241.793,2738.00
1242.705,2983.00
1243.615,2566.00
1244.525,2729.00
1245.437,2193.00
1246.347,2652.00
1247.259,2795.00
1248.168,3077.00
1249.078,2851.00
1249.989,2887.00
1250.899,2425.00
1251.808,2455.00
1252.719,2594.00
1253.628,2495.00
1254.537,3026.00
1255.448,2454.00
1256.357,2474.00
1257.266,2628.00
1258.176,2358.00
1259.085,2356.00
1259.993,2472.00
1260.904,2464.00
1261.812,2464.00
1262.720,3217.00
1263.630,2821.00
1264.538,2469.00
1265.446,2725.00
1266.356,2612.00
1267.263,2907.00
1268.171,2415.00
1269.080,2719.00
1269.988,2783.00
1270.895,2569.00
1271.804,2587.00
1272.711,2791.00
1273.619,2795.00
1274.527,2419.00
1275.434,2742.00
1276.341,2443.00
1277.248,2686.00
1278.156,2927.00
1279.063,2506.00
1279.969,2741.00
1280.877,3486.00
1281.783,2829.00
1282.690,2702.00
1283.598,2601.00
1284.503,2498.00
1285.409,2484.00
1286.317,2987.00
1287.223,3024.00
1288.128,2686.00
1289.036,2484.00
1289.941,2564.00
1290.846,2630.00
1291.751,2472.00
1292.658,2548.00
1293.563,3072.00
1294.468,2616.00
1295.375,2808.00
1296.280,2856.00
1297.184,3312.00
1298.091,2733.00
1298.995,2784.00
1299.900,3001.00
1300.806,2509.00
1301.710,2385.00
1302.614,2203.00
1303.518,2872.00
1304.424,2579.00
1305.327,2834.00
1306.231,2602.00
1307.137,2770.00
1308.040,2689.00
1308.943,2642.00
1309.847,2853.00
1310.752,2812.00
1311.655,2289.00
1312.558,2422.00
1313.463,2545.00
1314.366,2514.00
1315.269,2673.00
1316.171,2618.00
1317.076,2521.00
1317.978,2434.00
1318.881,2245.00
1319.785,2490.00
1320.687,2516.00
1321.589,2230.00
1322.491,2472.00
1323.395,2682.00
1324.297,3164.00
1325.198,2756.00
1326.102,2421.00
1327.004,2424.00
1327.905,3037.00
1328.806,2576.00
1329.709,2681.00
1330.611,2563.00
1331.512,2441.00
1332.413,3059.00
1333.316,2684.00
1334.216,2791.00
1335.117,2406.00
1336.020,2642.00
1336.920,2630.00
1337.821,2524.00
1338.721,2883.00
1339.623,2668.00
1340.523,2605.00
1341.423,2509.00
1342.323,2881.00
1343.225,2706.00
1344.125,2488.00
1345.025,2490.00
1345.924,2291.00
1346.826,2991.00
1347.725,3085.00
1348.624,2849.00
1349.524,2488.00
1350.425,2587.00
1351.324,2690.00
1352.223,2774.00
1353.121,2615.00
1354.022,2816.00
1354.921,3006.00
1355.819,2724.00
1356.718,2648.00
1357.618,2383.00
1358.516,2773.00
1359.415,2985.00
1360.313,2712.00
1361.213,2565.00
1362.111,2894.00
1363.008,3258.00
1363.906,2611.00
1364.806,2640.00
1365.703,2747.00
1366.601,2492.00
1367.498,2485.00
1368.397,2819.00
1369.295,2680.00
1370.192,2459.00
1371.089,2693.00
1371.987,2607.00
1372.884,2867.00
1373.781,2412.00
1374.678,2634.00
1375.574,2475.00
1376.473,2743.00
1377.369,2799.00
1378.265,2480.00
1379.161,2576.00
1380.059,2355.00
1380.955,2742.00
1381.851,2414.00
1382.747,2544.00
1383.643,2584.00
1384.540,2375.00
1385.436,2529.00
1386.331,2696.00
1387.227,2788.00
1388.124,2733.00
1389.019,2443.00
1389.914,2602.00
1390.809,2305.00
1391.704,3060.00
1392.601,2550.00
1393.495,2915.00
1394.390,2772.00
1395.285,2862.00
1396.179,2708.00
1397.075,2609.00
1397.969,2702.00
1398.864,2328.00
1399.758,2577.00
1400.652,2693.00
1401.547,2447.00
1402.441,2365.00
1403.335,2964.00
1404.229,2794.00
1405.122,2710.00
1406.017,2635.00
1406.911,2766.00
1407.804,3052.00
1408.697,2636.00
1409.590,2473.00
1410.485,2786.00
1411.378,2712.00
1412.271,2356.00
1413.163,2712.00
1414.056,2775.00
1414.949,2989.00
1415.843,2656.00
1416.735,2600.00
1417.627,2664.00
1418.520,2575.00
1419.412,2834.00
1420.306,2777.00
1421.197,2916.00
1422.089,2820.00
1422.981,3111.00
1423.873,2792.00
1424.764,2774.00
1425.657,2684.00
1426.549,2741.00
1427.440,2787.00
1428.331,2580.00
1429.222,2316.00
1430.113,2664.00
1431.006,2859.00
1431.897,2534.00
1432.787,2653.00
1433.678,2592.00
1434.568,2437.00
1435.459,2866.00
1436.351,2796.00
1437.241,2779.00
1438.131,2785.00
1439.021,2359.00
1439.911,2596.00
1440.801,2705.00
1441.693,2898.00
1442.583,2682.00
1443.472,2630.00
1444.362,2757.00
1445.251,2566.00
1446.140,2597.00
1447.030,2864.00
1447.921,2865.00
1448.810,2487.00
1449.699,2996.00
1450.588,2694.00
1451.476,2552.00
1452.365,2743.00
1453.254,2510.00
1454.144,2541.00
1455.032,2757.00
1455.921,2397.00
1456.809,2919.00
1457.697,2456.00
1458.585,2566.00
1459.473,2587.00
1460.361,2490.00
1461.251,2714.00
1462.138,2724.00
1463.026,2568.00
1463.913,2903.00
1464.801,2569.00
1465.688,2705.00
1466.575,2685.00
1467.463,3092.00
1468.351,2491.00
1469.238,2610.00
1470.125,2258.00
1471.012,2735.00
1471.899,2745.00
1472.785,2471.00
1473.672,2688.00
1474.558,2865.00
1475.446,2814.00
1476.333,2790.00
1477.219,2475.00
1478.105,2608.00
1478.991,2606.00
1479.877,2944.00
1480.762,2621.00
1481.648,2546.00
1482.534,2777.00
1483.419,2740.00
1484.307,2757.00
1485.192,2614.00
1486.077,2548.00
1486.962,2523.00
1487.847,2400.00
1488.732,2478.00
1489.617,2644.00
1490.502,2876.00
1491.387,2787.00
1492.271,2481.00
1493.156,2480.00
1494.042,2465.00
1494.927,2837.00
1495.811,2531.00
1496.695,2827.00
1497.579,2896.00
1498.463,2674.00
1499.347,2687.00
1500.231,2703.00
1501.114,2739.00
1501.998,2876.00
1502.881,2689.00
1503.765,2902.00
1504.648,3086.00
1505.533,2794.00
1506.417,2676.00
1507.300,2611.00
1508.183,2737.00
1509.066,2168.00
1509.948,2904.00
1510.831,3032.00
1511.714,2439.00
1512.596,2783.00
1513.479,2900.00
1514.361,2849.00
1515.243,2648.00
1516.125,2782.00
1517.008,2903.00
1517.890,2580.00
1518.771,2690.00
1519.655,2832.00
1520.537,2621.00
1521.419,2494.00
1522.300,2720.00
1523.182,2809.00
1524.063,2781.00
1524.944,2930.00
1525.825,2832.00
1526.707,2464.00
1527.588,2451.00
1528.468,2751.00
1529.349,2372.00
1530.230,2541.00
1531.111,2828.00
1531.991,2675.00
1532.872,2418.00
1533.752,2588.00
1534.632,2503.00
1535.513,2525.00
1536.393,2838.00
1537.273,2936.00
1538.153,3308.00
1539.032,2450.00
1539.912,2655.00
1540.792,2649.00
1541.672,2689.00
1542.551,2741.00
1543.430,3212.00
1544.310,2682.00
1545.189,2563.00
1546.068,3082.00
1546.947,2771.00
1547.826,2992.00
1548.705,2625.00
1549.584,2879.00
1550.462,2592.00
1551.341,2834.00
1552.219,2733.00
1553.098,2791.00
1553.976,2850.00
1554.854,3020.00
1555.733,2848.00
1556.611,2550.00
1557.489,2474.00
1558.367,2685.00
1559.244,2853.00
1560.122,2657.00
1561.000,2728.00
1561.877,2945.00
1562.755,2551.00
1563.632,2638.00
1564.509,2899.00
1565.386,3040.00
1566.264,2455.00
1567.141,2287.00
1568.017,2813.00
1568.894,2647.00
1569.771,2704.00
1570.648,2771.00
1571.524,2683.00
1572.401,2435.00
1573.277,2438.00
1574.153,2721.00
1575.029,2547.00
1575.906,3395.00
1576.781,2818.00
1577.657,2588.00
1578.533,2906.00
1579.409,2315.00
1580.285,2610.00
1581.160,3096.00
1582.036,2813.00
1582.911,2457.00
1583.786,3002.00
1584.662,2461.00
1585.537,2648.00
1586.412,2734.00
1587.287,2534.00
1588.160,2824.00
1589.035,2330.00
1589.909,2664.00
1590.784,2648.00
1591.658,2453.00
1592.533,2720.00
1593.407,2680.00
1594.281,2589.00
1595.155,3097.00
1596.029,2618.00
1596.903,2617.00
1597.777,2569.00
1598.651,2915.00
1599.525,2374.00
1600.398,2724.00
1601.272,2615.00
1602.144,3187.00
1603.017,2659.00
1603.890,2909.00
1604.763,2749.00
1605.636,2794.00
1606.509,2407.00
1607.382,2498.00
1608.255,2735.00
1609.128,2886.00
1610.000,2629.00
1610.873,2386.00
1611.746,2569.00
1612.616,2602.00
1613.488,2284.00
1614.361,2666.00
1615.233,2621.00
1616.105,2898.00
1616.977,2568.00
1617.849,2508.00
1618.720,2964.00
1619.592,2974.00
1620.464,2728.00
1621.333,3169.00
1622.205,2661.00
1623.076,2664.00
1623.947,2661.00
1624.818,2905.00
1625.689,2790.00
1626.560,2567.00
1627.431,2720.00
1628.302,3054.00
1629.171,2766.00
1630.042,3004.00
1630.912,3315.00
1631.782,3216.00
1632.653,2493.00
1633.523,2841.00
1634.393,2933.00
1635.263,2570.00
1636.131,2660.00
1637.001,2599.00
1637.871,2299.00
1638.741,2323.00
1639.611,2408.00
1640.480,2768.00
1641.350,2514.00
1642.219,2495.00
1643.087,2186.00
1643.956,3088.00
1644.825,2912.00
1645.694,2872.00
1646.563,2834.00
1647.432,2733.00
1648.299,2668.00
1649.167,2821.00
1650.036,2516.00
1650.904,2829.00
1651.773,2894.00
1652.641,2660.00
1653.509,2866.00
1654.376,2560.00
1655.244,2702.00
1656.112,2748.00
1656.980,2693.00
1657.847,2533.00
1658.715,2876.00
1659.581,2549.00
1660.448,2901.00
1661.316,2203.00
1662.183,2718.00
1663.051,2724.00
1663.918,2695.00
1664.783,2675.00
1665.650,2755.00
1666.517,2844.00
1667.384,2728.00
1668.251,2738.00
1669.115,2902.00
1669.982,2655.00
1670.849,2940.00
1671.715,2657.00
1672.581,2833.00
1673.446,2813.00
1674.312,2730.00
1675.178,3100.00
1676.044,2794.00
1676.910,2767.00
1677.774,2695.00
1678.639,2360.00
1679.505,2689.00
1680.370,2804.00
1681.236,3310.00
1682.099,2639.00
1682.965,2712.00
1683.830,2287.00
1684.695,2528.00
1685.560,2636.00
1686.423,2831.00
1687.288,2832.00
1688.153,2719.00
1689.017,2604.00
1689.880,2773.00
1690.745,2834.00
1691.609,2512.00
1692.473,2850.00
1693.338,2904.00
1694.200,2950.00
1695.064,2696.00
1695.928,2573.00
1696.792,2701.00
1697.654,3177.00
1698.517,2729.00
1699.381,2437.00
1700.245,2330.00
1701.106,2971.00
1701.969,2542.00
1702.833,2871.00
1703.696,2615.00
1704.557,2629.00
1705.420,2547.00
1706.283,2716.00
1707.146,2862.00
1708.007,2511.00
1708.870,2503.00
1709.732,2346.00
1710.595,2588.00
1711.455,2453.00
1712.318,2583.00
1713.180,2939.00
1714.040,2748.00
1714.902,2832.00
1715.764,2674.00
1716.626,2491.00
1717.486,2626.00
1718.348,2924.00
1719.209,4777.00
1720.071,2356.00
1720.930,2458.00
1721.792,2560.00
1722.653,2508.00
1723.512,2599.00
1724.374,2616.00
1725.234,2752.00
1726.095,2681.00
1726.954,2696.00
1727.815,2859.00
1728.676,2656.00
1729.535,2920.00
1730.395,2663.00
1731.256,2589.00
1732.114,2735.00
1732.974,2193.00
1733.834,3049.00
1734.693,2871.00
1735.553,2714.00
1736.413,3126.00
1737.272,2550.00
1738.130,2610.00
1738.990,2799.00
1739.849,2601.00
1740.707,3696.00
1741.566,2732.00
1742.426,2780.00
1743.283,3095.00
1744.142,2599.00
1745.001,2368.00
1745.858,2888.00
1746.717,2768.00
1747.576,2778.00
1748.433,2815.00
1749.292,3280.00
1750.150,3321.00
1751.007,2868.00
1751.865,2896.00
1752.723,2719.00
1753.579,2600.00
1754.438,2898.00
1755.296,2925.00
1756.152,2236.00
1757.010,2403.00
1757.865,2880.00
1758.723,2369.00
1759.581,2990.00
1760.436,2688.00
1761.294,3019.00
1762.151,2709.00
1763.006,2623.00
1763.864,2316.00
1764.721,2865.00
1765.576,2695.00
1766.433,2847.00
1767.288,2570.00
1768.144,2728.00
1769.001,2650.00
1769.856,2810.00
1770.712,2911.00
1771.568,2472.00
1772.423,2609.00
1773.279,2572.00
1774.133,2624.00
1774.989,3110.00
1775.845,3077.00
1776.699,2910.00
1777.555,2673.00
1778.409,3157.00
1779.265,2641.00
1780.120,2631.00
1780.974,2680.00
1781.829,2282.00
1782.682,2783.00
1783.538,2530.00
1784.393,2742.00
1785.246,2588.00
1786.101,2796.00
1786.954,2798.00
1787.808,2964.00
1788.661,2417.00
1789.516,2609.00
1790.370,2617.00
1791.223,2868.00
1792.077,2697.00
1792.930,2770.00
1793.784,2590.00
1794.636,2690.00
1795.490,2653.00
1796.344,2715.00
1797.196,2692.00
1798.049,2884.00
1798.901,2625.00
1799.755,2906.00
1800.606,2494.00
1801.460,3257.00
1802.311,3009.00
1803.165,3107.00
1804.018,3033.00
1804.869,2784.00
1805.722,3150.00
1806.573,2762.00
1807.426,2531.00
1808.276,2719.00
1809.129,2597.00
1809.980,2897.00
1810.832,3029.00
1811.683,2599.00
1812.535,2938.00
1813.385,2667.00
1814.237,2946.00
1815.089,2703.00
1815.940,3002.00
1816.791,2684.00
1817.641,2555.00
1818.493,2829.00
1819.343,2779.00
1820.194,2585.00
1821.044,2776.00
1821.895,2914.00
1822.745,2435.00
1823.596,2614.00
1824.445,3118.00
1825.296,2793.00
1826.145,2645.00
1826.996,2907.00
1827.845,2740.00
1828.695,2801.00
1829.544,2687.00
1830.395,2730.00
1831.243,2595.00
1832.094,2449.00
1832.942,3302.00
1833.792,2778.00
1834.640,2769.00
1835.490,2699.00
1836.338,2734.00
1837.186,2596.00
1838.036,2572.00
1838.884,2738.00
1839.733,2994.00
1840.581,2908.00
1841.430,2848.00
1842.278,3073.00
1843.127,2605.00
1843.974,2400.00
1844.823,3144.00
1845.671,2840.00
1846.519,2734.00
1847.366,2774.00
1848.213,2344.00
1849.062,2525.00
1849.909,2440.00
1850.757,3348.00
1851.604,2804.00
1852.452,2644.00
1853.298,2858.00
1854.146,2749.00
1854.993,2753.00
1855.839,3224.00
1856.687,2853.00
1857.532,2820.00
1858.380,2735.00
1859.226,2806.00
1860.073,2833.00
1860.919,2586.00
1861.765,2637.00
1862.612,2934.00
1863.457,2920.00
1864.304,2655.00
1865.150,2813.00
1865.995,2703.00
1866.842,2828.00
1867.686,2952.00
1868.533,2786.00
1869.378,2755.00
1870.223,2750.00
1871.069,2573.00
1871.914,2752.00
1872.760,2721.00
1873.604,2478.00
1874.448,2861.00
1875.294,2843.00
1876.139,2608.00
1876.984,2818.00
1877.828,2369.00
1878.672,2215.00
1879.518,2610.00
1880.361,2892.00
1881.205,2857.00
1882.050,2511.00
1882.894,3218.00
1883.739,2576.00
1884.582,2468.00
1885.425,2558.00
1886.270,3002.00
1887.113,2476.00
1887.956,2829.00
1888.801,2757.00
1889.644,2545.00
1890.486,2309.00
1891.331,2636.00
1892.173,2743.00
1893.017,2798.00
1893.860,3026.00
1894.702,3010.00
1895.546,2736.00
1896.388,3414.00
1897.230,3057.00
1898.074,2609.00
1898.916,2504.00
1899.757,2581.00
1900.601,3380.00
1901.443,3015.00
1902.284,3039.00
1903.125,3204.00
1903.969,2926.00
1904.810,2980.00
1905.651,2811.00
1906.494,3039.00
1907.335,3177.00
1908.176,2828.00
1909.018,2849.00
1909.859,2619.00
1910.700,2574.00
1911.542,3235.00
1912.383,2772.00
1913.223,2358.00
1914.064,2838.00
1914.906,2989.00
1915.746,3075.00
1916.586,3249.00
1917.428,2712.00
1918.268,2761.00
1919.107,2643.00
1919.947,2491.00
1920.789,2667.00
1921.628,2976.00
1922.468,2719.00
1923.309,2535.00
1924.148,3011.00
1924.988,2814.00
1925.827,2724.00
1926.667,2631.00
1927.507,2786.00
1928.345,2578.00
1929.184,2852.00
1930.025,2512.00
1930.864,2998.00
1931.702,3049.00
1932.541,2656.00
1933.381,2821.00
1934.219,2852.00
1935.057,3049.00
1935.896,2451.00
1936.735,2704.00
1937.573,2655.00
1938.411,2528.00
1939.249,2902.00
1940.089,2647.00
1940.927,2964.00
1941.764,3014.00
1942.602,2652.00
1943.439,2628.00
1944.278,2706.00
1945.115,2660.00
1945.953,2457.00
1946.790,2789.00
1947.628,3068.00
1948.465,2828.00
1949.302,2908.00
1950.139,2855.00
1950.976,2603.00
1951.814,2893.00
1952.651,2817.00
1953.487,2524.00
1954.323,2991.00
1955.160,2706.00
1955.998,3058.00
1956.834,2703.00
1957.670,2773.00
1958.506,2978.00
1959.342,2876.00
1960.177,2776.00
1961.015,2926.00
1961.850,2755.00
1962.686,2773.00
1963.521,2813.00
1964.357,2988.00
1965.192,2520.00
1966.029,2906.00
1966.864,2634.00
1967.699,2950.00
1968.534,2757.00
1969.369,2981.00
1970.204,2677.00
1971.040,2777.00
1971.875,2693.00
1972.709,2751.00
1973.544,2567.00
1974.378,2626.00
1975.212,2863.00
1976.047,2634.00
1976.882,2603.00
1977.716,3119.00
1978.550,2460.00
1979.384,2666.00
1980.218,2696.00
1981.052,2683.00
1981.885,2763.00
1982.719,2788.00
1983.554,2913.00
1984.388,3061.00
1985.221,2831.00
1986.054,2990.00
1986.887,2788.00
1987.720,2602.00
1988.553,3051.00
1989.386,2850.00
1990.219,2856.00
1991.053,3025.00
1991.886,2604.00
1992.719,2954.00
1993.551,2293.00
1994.383,2884.00
1995.216,2679.00
1996.048,2449.00
1996.880,2909.00
1997.712,2627.00
1998.544,2729.00
1999.376,2790.00
2000.208,2994.00
2001.040,3162.00
2001.873,2574.00
2002.705,2586.00
2003.536,2813.00
2004.367,2788.00
2005.199,2776.00
2006.030,2637.00
2006.861,2549.00
2007.692,2747.00
2008.523,2624.00
2009.354,2821.00
2010.185,2562.00
2011.016,2891.00
2011.846,2903.00
2012.677,2669.00
2013.507,3126.00
2014.338,2913.00
2015.168,2658.00
2015.999,3254.00
2016.829,2703.00
2017.659,2956.00
2018.489,3306.00
2019.319,2541.00
2020.149,2941.00
2020.980,2795.00
2021.810,2576.00
2022.639,2648.00
2023.469,2654.00
2024.298,2458.00
2025.128,2399.00
2025.957,2381.00
2026.786,2228.00
2027.615,2401.00
2028.444,2561.00
2029.273,2747.00
2030.102,2371.00
2030.931,2620.00
2031.758,2879.00
2032.586,2503.00
2033.415,2598.00
2034.243,2238.00
2035.072,2029.00
2035.900,2531.00
2036.728,2315.00
2037.556,2397.00
2038.385,2384.00
2039.213,2162.00
2040.040,2171.00
2040.868,2158.00
2041.696,2186.00
2042.524,2252.00
2043.351,2441.00
2044.179,2227.00
2045.006,2033.00
