RamanScope Measure Spectrum Data V3.72

<< MEASURE CONDITION >>
Exposure Type,Aver
Exposure Time [sec],15
Exposure Count,30
Measure Time,2023/07/04 16:01:56
Data Name,""
Data Comment,""
Rayleigh Wave[nm],532.0

<< SAMPLE SPECTRUM >>
Wave[dcm-1],No276
146.591,461.87
147.626,531.77
148.664,649.23
149.699,794.23
150.737,884.30
151.772,1026.77
152.809,1168.53
153.846,1258.33
154.881,1407.87
155.918,1508.30
156.953,1591.93
157.989,1657.43
159.026,1760.87
160.060,1800.53
161.096,1862.17
162.130,1908.20
163.167,1975.53
164.200,1972.83
165.236,2043.10
166.272,2055.50
167.305,2119.03
168.341,2128.20
169.374,2160.93
170.409,2204.77
171.445,2204.63
172.477,2209.80
173.512,2303.67
174.545,2311.80
175.580,2343.50
176.614,2347.03
177.647,2362.90
178.681,2387.83
179.713,2340.50
180.747,2407.77
181.781,2398.13
182.813,2383.63
183.847,2356.40
184.878,2434.80
185.912,2455.70
186.945,2448.57
187.976,2462.47
189.010,2487.70
190.043,2477.40
191.073,2504.63
192.106,2500.07
193.137,2566.37
194.170,2522.10
195.202,2581.07
196.232,2598.27
197.265,2629.73
198.297,2672.47
199.327,2651.00
200.359,2710.87
201.388,2775.43
202.420,2749.90
203.452,2805.43
204.481,2830.13
205.512,2878.47
206.544,2955.27
207.573,2957.67
208.604,3042.23
209.635,3114.80
210.663,3229.07
211.694,3300.67
212.725,3421.03
213.753,3583.80
214.783,3676.43
215.813,3864.43
216.841,4035.50
217.871,4259.10
218.899,4504.53
219.929,4845.33
220.959,5186.70
221.986,5404.13
223.016,5722.13
224.045,5930.10
225.072,6142.27
226.101,6156.60
227.130,6068.13
228.157,5844.57
229.185,5576.10
230.214,5289.87
231.241,4996.90
232.269,4619.97
233.297,4390.73
234.323,4145.00
235.351,3949.03
236.379,3823.40
237.407,3710.80
238.433,3601.47
239.460,3522.00
240.488,3502.77
241.513,3440.03
242.540,3440.83
243.568,3391.60
244.592,3347.83
245.619,3366.63
246.646,3438.50
247.671,3402.10
248.697,3421.10
249.724,3469.27
250.748,3436.50
251.774,3478.17
252.801,3396.80
253.827,3377.73
254.850,3353.47
255.876,3315.40
256.902,3347.77
257.925,3373.30
258.951,3360.60
259.976,3357.63
260.999,3393.53
262.024,3434.47
263.049,3434.30
264.074,3499.93
265.097,3519.60
266.122,3535.80
267.146,3599.63
268.168,3656.77
269.193,3716.47
270.217,3759.47
271.241,3831.13
272.263,3933.90
273.287,4052.30
274.311,4112.23
275.332,4150.90
276.356,4324.20
277.379,4470.40
278.402,4575.83
279.424,4747.13
280.447,4837.60
281.470,4952.83
282.492,5127.90
283.513,5182.17
284.536,5255.50
285.558,5279.27
286.581,5334.23
287.601,5302.97
288.623,5332.97
289.645,5208.97
290.665,5189.97
291.687,5081.03
292.709,4971.80
293.730,4860.27
294.750,4722.23
295.771,4569.27
296.792,4465.47
297.813,4333.93
298.832,4279.57
299.853,4103.30
300.874,3997.77
301.895,3896.03
302.913,3804.97
303.934,3716.67
304.954,3549.57
305.975,3460.70
306.993,3355.90
308.013,3318.87
309.033,3196.40
310.052,3095.60
311.072,3044.40
312.090,3018.57
313.109,2959.03
314.129,2916.57
315.148,2838.20
316.165,2846.60
317.184,2771.33
318.203,2754.13
319.222,2694.40
320.238,2649.50
321.257,2621.20
322.275,2620.07
323.294,2545.30
324.312,2606.30
325.328,2532.97
326.346,2523.33
327.364,2469.93
328.382,2500.07
329.397,2465.87
330.415,2445.77
331.432,2431.43
332.450,2462.90
333.467,2433.37
334.482,2457.37
335.499,2351.50
336.516,2381.57
337.533,2401.40
338.547,2407.33
339.564,2391.13
340.580,2444.93
341.597,2360.40
342.613,2374.27
343.627,2422.33
344.643,2391.60
345.659,2383.43
346.675,2333.13
347.690,2313.00
348.704,2380.33
349.719,2347.50
350.735,2359.17
351.750,2345.80
352.765,2352.90
353.778,2320.63
354.793,2377.40
355.808,2359.73
356.822,2389.20
357.837,2302.77
358.851,2331.37
359.864,2354.90
360.878,2374.93
361.892,2379.07
362.906,2417.10
363.920,2398.33
364.932,2387.00
365.945,2444.50
366.959,2371.20
367.972,2389.80
368.986,2474.17
369.999,2425.13
371.010,2477.30
372.023,2497.77
373.036,2513.60
374.049,2573.03
375.061,2547.33
376.072,2581.90
377.084,2598.03
378.097,2634.37
379.109,2666.13
380.121,2672.83
381.133,2767.50
382.143,2766.33
383.155,2794.40
384.166,2858.07
385.178,2866.37
386.189,2890.47
387.201,2902.07
388.212,2955.80
389.221,3001.20
390.232,3039.87
391.243,3035.43
392.254,3097.87
393.264,3063.53
394.275,3102.47
395.283,3143.53
396.294,3135.97
397.304,3103.17
398.314,3169.13
399.324,3117.53
400.334,3158.57
401.344,3146.10
402.351,3072.70
403.361,3065.07
404.370,3030.57
405.380,2992.47
406.389,2980.17
407.398,2912.43
408.407,2883.00
409.414,2799.03
410.423,2804.27
411.431,2745.47
412.440,2742.77
413.448,2705.00
414.457,2664.07
415.465,2586.10
416.471,2594.70
417.479,2547.73
418.487,2520.10
419.495,2505.43
420.503,2462.93
421.510,2494.33
422.518,2484.13
423.525,2385.40
424.530,2357.00
425.537,2378.57
426.544,2331.57
427.551,2338.83
428.558,2315.90
429.565,2294.27
430.571,2264.70
431.578,2306.60
432.582,2313.70
433.588,2250.30
434.595,2276.17
435.601,2219.23
436.607,2239.70
437.612,2257.87
438.618,2232.57
439.624,2231.90
440.627,2208.77
441.633,2221.20
442.638,2209.70
443.643,2248.00
444.648,2198.50
445.653,2183.43
446.658,2226.20
447.663,2207.17
448.667,2197.50
449.672,2217.73
450.674,2191.47
451.678,2188.80
452.682,2170.70
453.687,2191.83
454.690,2227.27
455.694,2218.53
456.698,2224.43
457.702,2204.63
458.705,2224.97
459.709,2216.73
460.710,2218.87
461.713,2212.27
462.716,2234.27
463.719,2228.70
464.722,2219.90
465.725,2233.77
466.727,2256.03
467.730,2286.13
468.732,2295.97
469.735,2275.93
470.737,2258.50
471.737,2273.83
472.739,2289.50
473.741,2276.93
474.742,2309.43
475.744,2289.63
476.746,2338.20
477.747,2298.93
478.748,2297.00
479.750,2311.73
480.751,2309.87
481.752,2343.37
482.753,2323.37
483.751,2311.37
484.752,2337.70
485.753,2360.10
486.753,2298.77
487.753,2345.03
488.754,2362.60
489.754,2373.93
490.754,2328.00
491.754,2327.70
492.754,2309.93
493.753,2304.90
494.753,2325.17
495.752,2340.83
496.752,2333.40
497.749,2297.33
498.748,2281.10
499.747,2281.63
500.746,2320.63
501.745,2271.17
502.744,2279.57
503.742,2253.17
504.741,2276.97
505.739,2259.63
506.737,2255.40
507.735,2182.93
508.734,2277.00
509.732,2252.83
510.729,2181.10
511.727,2214.90
512.725,2172.20
513.720,2202.83
514.718,2211.77
515.715,2222.53
516.712,2186.00
517.709,2171.30
518.706,2169.37
519.703,2181.37
520.700,2168.93
521.696,2163.70
522.693,2179.50
523.689,2162.57
524.686,2142.13
525.682,2193.67
526.678,2159.93
527.674,2120.83
528.670,2146.37
529.666,2186.10
530.661,2241.67
531.657,2192.70
532.652,2196.83
533.648,2162.93
534.641,2174.13
535.636,2195.47
536.631,2203.83
537.626,2242.33
538.621,2225.30
539.616,2227.53
540.610,2198.60
541.605,2232.37
542.599,2259.17
543.593,2272.63
544.587,2251.60
545.581,2255.37
546.575,2299.33
547.569,2263.70
548.563,2285.60
549.557,2284.33
550.550,2280.03
551.543,2280.40
552.537,2293.23
553.530,2281.73
554.523,2321.23
555.516,2297.97
556.509,2325.43
557.502,2327.13
558.494,2291.83
559.487,2297.63
560.479,2301.80
561.472,2331.20
562.464,2332.63
563.456,2337.57
564.448,2305.00
565.440,2355.57
566.432,2364.27
567.423,2344.50
568.415,2376.73
569.404,2407.07
570.396,2357.67
571.387,2420.73
572.378,2452.83
573.369,2418.60
574.360,2434.33
575.351,2471.73
576.341,2454.53
577.332,2482.43
578.323,2487.13
579.313,2507.30
580.303,2504.67
581.293,2563.90
582.283,2530.63
583.273,2548.10
584.263,2526.53
585.253,2580.37
586.243,2625.30
587.232,2622.50
588.222,2600.33
589.211,2688.23
590.200,2591.27
591.189,2618.00
592.178,2623.80
593.167,2620.73
594.156,2629.73
595.145,2637.40
596.133,2638.93
597.122,2650.77
598.110,2656.40
599.098,2608.53
600.086,2605.90
601.074,2644.07
602.062,2596.50
603.050,2623.97
604.038,2641.90
605.025,2536.37
606.013,2579.93
607.000,2516.07
607.987,2545.60
608.975,2507.73
609.962,2540.37
610.949,2479.57
611.936,2459.43
612.922,2501.23
613.909,2468.27
614.895,2487.30
615.882,2445.50
616.868,2413.93
617.854,2428.10
618.841,2422.03
619.826,2450.93
620.812,2390.57
621.798,2378.20
622.784,2382.40
623.769,2390.23
624.755,2379.17
625.740,2341.27
626.725,2298.07
627.711,2340.53
628.698,2319.30
629.683,2277.10
630.667,2288.67
631.652,2241.03
632.637,2269.37
633.621,2275.67
634.606,2261.27
635.590,2225.33
636.574,2176.63
637.558,2198.63
638.542,2159.27
639.526,2179.47
640.510,2145.20
641.493,2147.20
642.477,2124.77
643.460,2126.03
644.444,2154.07
645.427,2099.27
646.410,2103.63
647.393,2067.33
648.376,2034.10
649.359,2038.33
650.341,2028.80
651.324,2025.50
652.307,2029.27
653.289,2019.70
654.271,1982.07
655.253,1998.80
656.235,1987.40
657.217,1987.77
658.199,1943.87
659.181,1949.60
660.163,1969.63
661.144,1941.97
662.126,1912.63
663.107,1910.23
664.088,1928.63
665.069,1912.10
666.050,1896.03
667.033,1871.47
668.014,1888.67
668.995,1882.10
669.975,1866.87
670.956,1896.23
671.936,1808.83
672.916,1849.03
673.896,1840.83
674.876,1830.90
675.856,1863.13
676.836,1811.43
677.816,1802.20
678.795,1784.80
679.775,1774.23
680.754,1798.80
681.734,1782.83
682.713,1741.77
683.692,1755.80
684.671,1693.33
685.650,1721.67
686.629,1728.23
687.607,1725.97
688.586,1700.10
689.564,1705.20
690.543,1680.87
691.523,1728.63
692.501,1701.27
693.479,1624.70
694.457,1677.63
695.435,1614.43
696.413,1633.07
697.390,1643.20
698.368,1628.13
699.345,1663.10
700.322,1578.80
701.300,1606.43
702.277,1606.57
703.254,1588.27
704.231,1561.40
705.207,1598.63
706.184,1572.57
707.161,1581.17
708.137,1584.83
709.113,1568.10
710.090,1583.30
711.068,1539.73
712.044,1532.13
713.020,1542.07
713.996,1491.60
714.971,1534.00
715.947,1478.23
716.922,1514.07
717.898,1511.23
718.873,1496.20
719.848,1486.63
720.823,1464.10
721.798,1484.47
722.773,1524.43
723.748,1486.80
724.723,1471.87
725.697,1452.53
726.672,1477.83
727.646,1457.80
728.622,1460.60
729.596,1484.07
730.570,1491.97
731.544,1422.90
732.518,1450.83
733.492,1437.40
734.466,1442.93
735.439,1434.77
736.413,1439.07
737.386,1419.93
738.359,1419.77
739.332,1436.40
740.305,1411.63
741.278,1397.83
742.251,1413.83
743.224,1407.77
744.196,1401.40
745.171,1431.13
746.143,1392.50
747.115,1376.10
748.087,1428.93
749.059,1370.10
750.031,1381.30
751.003,1406.30
751.975,1346.90
752.947,1382.63
753.918,1374.57
754.890,1393.00
755.861,1385.73
756.832,1374.93
757.803,1343.07
758.774,1420.20
759.747,1389.10
760.718,1369.53
761.689,1349.33
762.659,1331.20
763.630,1396.33
764.600,1363.63
765.570,1372.17
766.540,1396.37
767.510,1381.20
768.480,1375.10
769.450,1340.90
770.420,1344.43
771.390,1330.87
772.359,1338.63
773.329,1318.27
774.300,1322.83
775.269,1337.27
776.238,1326.90
777.207,1339.67
778.176,1313.77
779.145,1348.03
780.114,1318.67
781.083,1287.90
782.051,1326.17
783.019,1310.87
783.988,1293.47
784.956,1294.77
785.924,1309.13
786.894,1281.87
787.862,1291.63
788.830,1300.50
789.797,1274.97
790.765,1308.33
791.732,1265.63
792.700,1291.60
793.667,1296.10
794.634,1245.67
795.601,1221.67
796.568,1292.93
797.535,1306.47
798.502,1243.63
799.468,1252.73
800.437,1241.50
801.403,1250.83
802.370,1231.70
803.336,1249.80
804.302,1215.50
805.268,1245.60
806.234,1212.43
807.200,1236.77
808.166,1226.80
809.131,1215.80
810.097,1231.90
811.062,1224.27
812.027,1225.03
812.994,1198.87
813.960,1140.57
814.925,1204.57
815.889,1167.90
816.854,1207.17
817.819,1238.73
818.783,1184.10
819.748,1197.43
820.712,1157.53
821.677,1201.77
822.641,1184.87
823.605,1194.33
824.571,1192.73
825.534,1176.10
826.498,1212.77
827.462,1146.80
828.425,1144.27
829.389,1159.17
830.352,1165.10
831.315,1178.57
832.279,1201.77
833.242,1185.90
834.204,1177.93
835.167,1193.90
836.132,1157.33
837.095,1146.40
838.057,1187.00
839.020,1144.77
839.982,1169.97
840.944,1191.77
841.906,1146.90
842.868,1177.80
843.830,1155.53
844.792,1140.17
845.753,1114.23
846.715,1135.67
847.679,1142.63
848.640,1146.17
849.601,1143.83
850.562,1111.67
851.523,1136.30
852.484,1149.70
853.445,1123.63
854.406,1121.13
855.367,1139.33
856.327,1098.73
857.288,1134.90
858.248,1174.87
859.210,1149.30
860.170,1142.77
861.130,1139.40
862.090,1149.37
863.050,1113.60
864.010,1115.23
864.969,1144.93
865.929,1121.97
866.888,1158.23
867.848,1096.40
868.807,1126.00
869.766,1139.80
870.727,1133.07
871.686,1127.97
872.645,1105.30
873.604,1112.43
874.562,1123.43
875.521,1146.13
876.479,1109.00
877.437,1127.60
878.396,1129.80
879.354,1112.00
880.312,1111.40
881.270,1095.70
882.229,1110.47
883.187,1130.77
884.145,1123.53
885.102,1110.07
886.059,1132.13
887.017,1085.00
887.974,1072.37
888.931,1114.53
889.888,1083.03
890.845,1134.27
891.802,1106.27
892.758,1086.57
893.717,1097.33
894.673,1136.13
895.630,1086.93
896.586,1138.63
897.542,1097.03
898.498,1076.50
899.454,1110.50
900.410,1106.63
901.366,1095.63
902.321,1129.10
903.277,1101.97
904.232,1094.03
905.189,1108.93
906.145,1103.97
907.100,1121.53
908.055,1085.40
909.010,1147.30
909.965,1109.07
910.919,1118.40
911.874,1103.33
912.828,1097.53
913.783,1088.70
914.737,1102.53
915.693,1126.27
916.648,1091.80
917.602,1128.47
918.555,1137.93
919.509,1124.40
920.463,1105.77
921.417,1086.63
922.370,1113.50
923.324,1125.87
924.277,1112.13
925.230,1090.13
926.183,1125.83
927.138,1117.37
928.091,1169.37
929.044,1117.97
929.996,1125.27
930.949,1131.30
931.902,1124.17
932.854,1154.57
933.806,1130.90
934.758,1147.17
935.711,1167.03
936.663,1186.70
937.614,1142.53
938.568,1111.43
939.520,1124.90
940.471,1120.27
941.423,1118.63
942.374,1144.03
943.326,1150.13
944.277,1090.20
945.228,1133.67
946.179,1168.37
947.130,1108.53
948.080,1151.13
949.031,1149.37
949.984,1181.97
950.934,1129.03
951.884,1146.87
952.835,1164.07
953.785,1186.50
954.735,1109.10
955.685,1123.63
956.635,1148.67
957.585,1116.07
958.534,1143.80
959.484,1181.77
960.433,1129.77
961.383,1138.33
962.334,1130.40
963.283,1136.20
964.232,1122.07
965.181,1122.50
966.130,1129.57
967.079,1137.67
968.027,1147.23
968.976,1150.23
969.924,1163.70
970.873,1177.57
971.821,1077.03
972.769,1147.87
973.719,1134.87
974.667,1127.87
975.615,1183.13
976.562,1127.27
977.510,1133.57
978.458,1169.10
979.405,1143.50
980.352,1109.50
981.300,1148.43
982.247,1177.77
983.194,1120.73
984.141,1170.33
985.088,1183.70
986.036,1155.47
986.983,1184.00
987.930,1156.63
988.876,1133.97
989.822,1173.63
990.769,1163.90
991.715,1142.80
992.661,1157.33
993.607,1158.60
994.553,1190.03
995.498,1132.03
996.444,1181.20
997.389,1154.70
998.337,1196.83
999.282,1206.20
1000.227,1181.57
1001.173,1156.67
1002.118,1193.03
1003.062,1169.73
1004.007,1168.63
1004.952,1198.33
1005.897,1210.70
1006.841,1170.70
1007.786,1196.47
1008.730,1170.60
1009.674,1148.70
1010.618,1161.93
1011.564,1191.17
1012.508,1177.20
1013.452,1196.83
1014.396,1252.27
1015.339,1225.60
1016.283,1190.90
1017.226,1247.93
1018.170,1196.43
1019.113,1205.27
1020.056,1211.67
1020.999,1210.13
1021.942,1204.63
1022.885,1211.40
1023.828,1208.17
1024.770,1200.23
1025.715,1215.63
1026.657,1216.30
1027.600,1227.73
1028.542,1205.37
1029.484,1221.07
1030.426,1226.63
1031.368,1253.83
1032.310,1239.27
1033.251,1200.00
1034.193,1229.70
1035.135,1276.83
1036.076,1294.53
1037.017,1219.33
1037.959,1265.57
1038.900,1253.80
1039.843,1245.97
1040.784,1252.50
1041.725,1214.17
1042.665,1299.50
1043.606,1287.97
1044.547,1267.30
1045.487,1295.13
1046.427,1303.03
1047.368,1310.80
1048.308,1299.83
1049.248,1302.33
1050.188,1262.23
1051.128,1297.97
1052.067,1306.30
1053.007,1295.70
1053.947,1277.33
1054.886,1358.27
1055.827,1289.23
1056.766,1314.80
1057.706,1320.63
1058.645,1332.87
1059.584,1324.53
1060.522,1333.63
1061.461,1322.63
1062.400,1336.93
1063.338,1333.40
1064.277,1290.00
1065.215,1338.97
1066.154,1364.03
1067.092,1348.03
1068.030,1366.73
1068.968,1349.97
1069.906,1418.13
1070.843,1362.87
1071.781,1398.93
1072.720,1361.73
1073.658,1379.57
1074.595,1384.10
1075.533,1411.30
1076.470,1360.47
1077.407,1372.83
1078.344,1399.57
1079.281,1379.10
1080.217,1403.10
1081.154,1402.67
1082.091,1412.63
1083.027,1385.43
1083.964,1427.83
1084.900,1429.13
1085.836,1415.03
1086.772,1388.70
1087.708,1390.13
1088.644,1411.80
1089.580,1401.20
1090.515,1374.23
1091.451,1444.80
1092.388,1417.43
1093.324,1427.37
1094.259,1415.13
1095.194,1386.63
1096.129,1430.37
1097.064,1463.37
1097.999,1413.53
1098.934,1441.13
1099.869,1405.50
1100.803,1423.90
1101.738,1442.30
1102.672,1403.13
1103.607,1383.67
1104.541,1415.77
1105.475,1387.37
1106.409,1404.77
1107.343,1366.87
1108.277,1409.97
1109.210,1391.47
1110.144,1346.37
1111.078,1356.50
1112.011,1356.33
1112.944,1353.23
1113.878,1365.47
1114.811,1340.53
1115.744,1341.20
1116.678,1319.43
1117.611,1329.40
1118.544,1354.50
1119.477,1331.47
1120.409,1354.90
1121.342,1338.83
1122.274,1296.47
1123.206,1302.80
1124.138,1310.93
1125.070,1274.17
1126.002,1289.00
1126.934,1294.40
1127.866,1281.20
1128.798,1307.30
1129.729,1290.23
1130.661,1282.73
1131.592,1265.13
1132.523,1269.17
1133.454,1267.70
1134.385,1277.70
1135.317,1291.03
1136.247,1252.33
1137.178,1248.50
1138.109,1256.17
1139.039,1226.27
1139.970,1261.07
1140.900,1235.43
1141.831,1232.43
1142.761,1243.27
1143.691,1234.20
1144.621,1220.13
1145.551,1247.40
1146.480,1216.33
1147.410,1203.20
1148.340,1241.70
1149.269,1216.80
1150.199,1206.27
1151.128,1253.83
1152.057,1249.97
1152.979,1200.77
1153.898,1222.23
1154.819,1223.97
1155.739,1247.47
1156.658,1209.00
1157.579,1182.53
1158.498,1188.23
1159.419,1181.20
1160.338,1186.50
1161.256,1174.00
1162.177,1181.73
1163.095,1202.03
1164.016,1196.63
1164.934,1235.77
1165.852,1148.37
1166.772,1147.70
1167.690,1229.17
1168.610,1189.97
1169.528,1216.30
1170.446,1219.23
1171.365,1175.80
1172.283,1186.97
1173.202,1165.30
1174.120,1194.50
1175.037,1191.87
1175.956,1188.00
1176.873,1186.20
1177.792,1180.77
1178.709,1194.60
1179.626,1211.07
1180.544,1176.97
1181.461,1143.50
1182.379,1146.80
1183.296,1165.20
1184.212,1179.03
1185.130,1169.80
1186.046,1169.43
1186.962,1188.93
1187.880,1157.97
1188.796,1180.60
1189.714,1196.63
1190.629,1194.60
1191.545,1154.30
1192.462,1163.67
1193.378,1225.03
1194.295,1175.17
1195.210,1210.30
1196.125,1196.47
1197.042,1168.73
1197.957,1197.70
1198.872,1184.80
1199.788,1224.53
1200.703,1200.13
1201.619,1231.93
1202.534,1231.27
1203.448,1184.37
1204.364,1189.17
1205.278,1214.00
1206.192,1217.43
1207.108,1217.53
1208.022,1200.47
1208.938,1213.07
1209.851,1221.73
1210.765,1223.97
1211.680,1218.00
1212.594,1226.83
1213.507,1230.97
1214.422,1233.43
1215.335,1258.37
1216.248,1242.87
1217.163,1231.40
1218.076,1237.60
1218.990,1265.93
1219.903,1241.20
1220.816,1270.03
1221.730,1235.27
1222.642,1264.60
1223.554,1252.63
1224.469,1280.87
1225.380,1230.87
1226.292,1262.67
1227.206,1290.63
1228.118,1249.33
1229.032,1303.43
1229.943,1297.70
1230.855,1299.07
1231.768,1343.03
1232.679,1320.77
1233.590,1303.10
1234.503,1317.10
1235.414,1348.53
1236.325,1326.27
1237.238,1351.13
1238.149,1350.37
1239.059,1377.27
1239.972,1362.73
1240.882,1379.23
1241.793,1340.73
1242.705,1367.80
1243.615,1411.47
1244.525,1386.07
1245.437,1400.80
1246.347,1377.83
1247.259,1387.20
1248.168,1437.13
1249.078,1434.43
1249.989,1413.70
1250.899,1422.87
1251.808,1443.40
1252.719,1421.40
1253.628,1394.00
1254.537,1447.30
1255.448,1439.77
1256.357,1461.77
1257.266,1482.73
1258.176,1465.30
1259.085,1473.43
1259.993,1454.40
1260.904,1497.33
1261.812,1487.57
1262.720,1488.00
1263.630,1473.50
1264.538,1505.43
1265.446,1486.07
1266.356,1540.77
1267.263,1504.43
1268.171,1529.47
1269.080,1508.87
1269.988,1518.90
1270.895,1523.60
1271.804,1562.10
1272.711,1542.67
1273.619,1511.00
1274.527,1543.77
1275.434,1569.40
1276.341,1545.80
1277.248,1553.93
1278.156,1563.63
1279.063,1552.83
1279.969,1559.93
1280.877,1530.80
1281.783,1581.20
1282.690,1530.53
1283.598,1549.33
1284.503,1566.37
1285.409,1598.67
1286.317,1540.30
1287.223,1534.40
1288.128,1583.73
1289.036,1586.27
1289.941,1559.70
1290.846,1568.40
1291.751,1560.87
1292.658,1529.33
1293.563,1534.80
1294.468,1535.63
1295.375,1531.53
1296.280,1521.73
1297.184,1542.87
1298.091,1546.33
1298.995,1529.87
1299.900,1476.60
1300.806,1497.50
1301.710,1529.23
1302.614,1512.87
1303.518,1472.17
1304.424,1474.03
1305.327,1499.87
1306.231,1500.37
1307.137,1480.60
1308.040,1464.67
1308.943,1453.00
1309.847,1409.93
1310.752,1430.93
1311.655,1463.73
1312.558,1416.37
1313.463,1381.53
1314.366,1404.20
1315.269,1419.57
1316.171,1421.40
1317.076,1392.30
1317.978,1362.83
1318.881,1361.13
1319.785,1323.83
1320.687,1396.03
1321.589,1349.13
1322.491,1337.57
1323.395,1345.87
1324.297,1347.57
1325.198,1330.63
1326.102,1317.30
1327.004,1273.40
1327.905,1308.23
1328.806,1326.13
1329.709,1290.93
1330.611,1249.83
1331.512,1307.00
1332.413,1306.87
1333.316,1214.70
1334.216,1247.20
1335.117,1240.30
1336.020,1236.97
1336.920,1184.20
1337.821,1240.33
1338.721,1225.63
1339.623,1208.03
1340.523,1169.37
1341.423,1183.57
1342.323,1198.00
1343.225,1178.20
1344.125,1155.17
1345.025,1167.43
1345.924,1159.13
1346.826,1111.20
1347.725,1118.40
1348.624,1116.83
1349.524,1100.13
1350.425,1113.77
1351.324,1132.37
1352.223,1114.47
1353.121,1100.13
1354.022,1111.63
1354.921,1077.53
1355.819,1084.43
1356.718,1096.23
1357.618,1053.17
1358.516,1045.67
1359.415,1066.77
1360.313,1076.77
1361.213,1010.37
1362.111,1042.93
1363.008,1050.20
1363.906,987.13
1364.806,1030.00
1365.703,1055.67
1366.601,1006.17
1367.498,1030.50
1368.397,1003.00
1369.295,993.37
1370.192,1006.77
1371.089,960.90
1371.987,991.03
1372.884,975.93
1373.781,984.33
1374.678,964.97
1375.574,940.27
1376.473,924.10
1377.369,956.23
1378.265,959.17
1379.161,923.20
1380.059,913.00
1380.955,926.83
1381.851,962.83
1382.747,931.90
1383.643,926.27
1384.540,904.97
1385.436,918.77
1386.331,892.20
1387.227,915.77
1388.124,963.57
1389.019,881.90
1389.914,902.67
1390.809,936.83
1391.704,862.80
1392.601,889.50
1393.495,919.73
1394.390,909.97
1395.285,907.43
1396.179,875.20
1397.075,868.67
1397.969,895.83
1398.864,902.17
1399.758,871.97
1400.652,878.80
1401.547,854.50
1402.441,861.10
1403.335,883.83
1404.229,878.07
1405.122,869.00
1406.017,851.03
1406.911,848.57
1407.804,901.30
1408.697,851.57
1409.590,846.33
1410.485,862.33
1411.378,841.80
1412.271,825.07
1413.163,834.37
1414.056,861.20
1414.949,847.90
1415.843,835.63
1416.735,823.23
1417.627,836.13
1418.520,840.30
1419.412,848.57
1420.306,775.10
1421.197,822.60
1422.089,821.67
1422.981,811.37
1423.873,791.63
1424.764,823.57
1425.657,816.20
1426.549,800.30
1427.440,813.70
1428.331,812.70
1429.222,839.60
1430.113,787.13
1431.006,811.20
1431.897,835.80
1432.787,794.00
1433.678,786.47
1434.568,780.27
1435.459,783.37
1436.351,776.00
1437.241,741.23
1438.131,790.13
1439.021,775.23
1439.911,753.30
1440.801,761.90
1441.693,784.87
1442.583,737.53
1443.472,736.30
1444.362,770.47
1445.251,777.97
1446.140,744.33
1447.030,766.43
1447.921,744.30
1448.810,745.70
1449.699,737.73
1450.588,722.13
1451.476,731.17
1452.365,710.80
1453.254,761.93
1454.144,715.90
1455.032,757.53
1455.921,678.27
1456.809,701.30
1457.697,737.23
1458.585,735.47
1459.473,738.73
1460.361,698.50
1461.251,725.83
1462.138,734.70
1463.026,710.20
1463.913,730.90
1464.801,701.37
1465.688,661.97
1466.575,730.43
1467.463,739.13
1468.351,664.30
1469.238,674.27
1470.125,700.37
1471.012,683.80
1471.899,692.00
1472.785,680.63
1473.672,680.17
1474.558,733.87
1475.446,697.63
1476.333,694.67
1477.219,698.07
1478.105,702.57
1478.991,674.63
1479.877,688.23
1480.762,683.30
1481.648,659.83
1482.534,683.07
1483.419,660.40
1484.307,681.80
1485.192,677.87
1486.077,680.83
1486.962,662.97
1487.847,682.63
1488.732,681.33
1489.617,666.70
1490.502,659.93
1491.387,650.60
1492.271,652.40
1493.156,674.53
1494.042,639.07
1494.927,641.43
1495.811,642.17
1496.695,650.20
1497.579,647.53
1498.463,648.70
1499.347,653.00
1500.231,653.77
1501.114,664.20
1501.998,675.10
1502.881,692.33
1503.765,632.17
1504.648,652.90
1505.533,675.27
1506.417,626.97
1507.300,631.77
1508.183,656.23
1509.066,622.27
1509.948,582.80
1510.831,648.30
1511.714,624.10
1512.596,617.47
1513.479,598.17
1514.361,662.63
1515.243,628.27
1516.125,614.37
1517.008,608.47
1517.890,620.63
1518.771,624.70
1519.655,675.07
1520.537,620.00
1521.419,635.57
1522.300,616.43
1523.182,621.07
1524.063,626.33
1524.944,639.10
1525.825,589.70
1526.707,607.17
1527.588,591.83
1528.468,615.20
1529.349,593.47
1530.230,629.80
1531.111,604.07
1531.991,607.87
1532.872,626.50
1533.752,578.63
1534.632,617.47
1535.513,620.73
1536.393,594.07
1537.273,608.00
1538.153,508.97
1539.032,588.13
1539.912,569.43
1540.792,597.47
1541.672,583.00
1542.551,611.37
1543.430,595.17
1544.310,569.77
1545.189,592.83
1546.068,597.10
1546.947,584.00
1547.826,602.93
1548.705,576.67
1549.584,598.03
1550.462,572.60
1551.341,604.47
1552.219,608.90
1553.098,595.47
1553.976,593.13
1554.854,623.47
1555.733,559.63
1556.611,618.80
1557.489,574.87
1558.367,571.77
1559.244,592.47
1560.122,563.77
1561.000,531.23
1561.877,591.63
1562.755,586.23
1563.632,572.23
1564.509,630.20
1565.386,580.67
1566.264,567.73
1567.141,575.83
1568.017,599.03
1568.894,525.13
1569.771,533.97
1570.648,569.37
1571.524,562.97
1572.401,605.50
1573.277,575.30
1574.153,608.20
1575.029,600.70
1575.906,618.77
1576.781,576.67
1577.657,573.07
1578.533,566.63
1579.409,574.27
1580.285,564.50
1581.160,555.77
1582.036,584.43
1582.911,529.27
1583.786,545.80
1584.662,546.33
1585.537,534.23
1586.412,558.87
1587.287,547.40
1588.160,570.63
1589.035,529.10
1589.909,522.63
1590.784,568.97
1591.658,559.93
1592.533,520.93
1593.407,552.93
1594.281,564.57
1595.155,530.17
1596.029,586.20
1596.903,561.93
1597.777,560.87
1598.651,539.93
1599.525,547.87
1600.398,588.50
1601.272,532.93
1602.144,518.77
1603.017,554.80
1603.890,561.43
1604.763,578.43
1605.636,552.33
1606.509,508.77
1607.382,522.33
1608.255,535.73
1609.128,548.43
1610.000,577.90
1610.873,541.83
1611.746,534.07
1612.616,527.13
1613.488,512.70
1614.361,521.47
1615.233,549.07
1616.105,539.87
1616.977,531.83
1617.849,527.20
1618.720,567.40
1619.592,531.83
1620.464,499.40
1621.333,535.67
1622.205,519.87
1623.076,538.27
1623.947,513.10
1624.818,551.00
1625.689,545.83
1626.560,528.60
1627.431,530.07
1628.302,530.07
1629.171,489.80
1630.042,485.93
1630.912,540.83
1631.782,510.30
1632.653,540.43
1633.523,539.77
1634.393,567.03
1635.263,543.60
1636.131,502.57
1637.001,515.23
1637.871,522.13
1638.741,530.00
1639.611,550.63
1640.480,522.53
1641.350,499.23
1642.219,536.37
1643.087,521.73
1643.956,526.90
1644.825,513.10
1645.694,539.23
1646.563,544.23
1647.432,548.60
1648.299,475.77
1649.167,501.77
1650.036,470.20
1650.904,572.83
1651.773,493.17
1652.641,507.97
1653.509,525.93
1654.376,504.93
1655.244,502.27
1656.112,487.97
1656.980,555.20
1657.847,509.97
1658.715,492.07
1659.581,500.00
1660.448,460.97
1661.316,511.63
1662.183,539.67
1663.051,517.40
1663.918,485.60
1664.783,505.80
1665.650,506.83
1666.517,508.70
1667.384,523.83
1668.251,523.47
1669.115,442.23
1669.982,512.40
1670.849,521.63
1671.715,497.23
1672.581,484.10
1673.446,475.80
1674.312,493.60
1675.178,509.10
1676.044,507.53
1676.910,492.60
1677.774,489.53
1678.639,454.67
1679.505,504.97
1680.370,522.87
1681.236,485.13
1682.099,491.07
1682.965,494.30
1683.830,491.93
1684.695,537.80
1685.560,477.63
1686.423,508.67
1687.288,503.63
1688.153,505.27
1689.017,472.63
1689.880,499.30
1690.745,467.97
1691.609,479.10
1692.473,513.93
1693.338,476.00
1694.200,515.80
1695.064,474.20
1695.928,526.80
1696.792,474.77
1697.654,494.33
1698.517,474.33
1699.381,473.10
1700.245,492.60
1701.106,474.63
1701.969,477.23
1702.833,479.93
1703.696,494.77
1704.557,499.00
1705.420,511.93
1706.283,479.70
1707.146,491.57
1708.007,461.80
1708.870,490.40
1709.732,467.43
1710.595,477.43
1711.455,471.17
1712.318,507.60
1713.180,461.87
1714.040,497.77
1714.902,494.53
1715.764,439.33
1716.626,495.77
1717.486,490.93
1718.348,483.23
1719.209,485.37
1720.071,487.07
1720.930,467.47
1721.792,443.90
1722.653,467.97
1723.512,447.03
1724.374,473.23
1725.234,485.40
1726.095,507.37
1726.954,468.03
1727.815,485.30
1728.676,478.27
1729.535,469.70
1730.395,466.90
1731.256,481.23
1732.114,431.87
1732.974,456.20
1733.834,446.77
1734.693,448.73
1735.553,457.83
1736.413,460.83
1737.272,473.47
1738.130,444.93
1738.990,460.30
1739.849,476.77
1740.707,468.57
1741.566,481.10
1742.426,481.77
1743.283,448.13
1744.142,471.60
1745.001,470.47
1745.858,423.30
1746.717,448.80
1747.576,487.03
1748.433,440.33
1749.292,496.70
1750.150,503.90
1751.007,436.30
1751.865,428.67
1752.723,463.53
1753.579,478.30
1754.438,452.13
1755.296,450.77
1756.152,460.77
1757.010,420.17
1757.865,489.27
1758.723,494.63
1759.581,445.50
1760.436,507.70
1761.294,455.40
1762.151,456.07
1763.006,398.53
1763.864,498.70
1764.721,487.53
1765.576,462.33
1766.433,463.63
1767.288,439.37
1768.144,475.27
1769.001,485.53
1769.856,446.70
1770.712,446.90
1771.568,472.70
1772.423,470.13
1773.279,443.63
1774.133,447.10
1774.989,438.70
1775.845,490.90
1776.699,487.20
1777.555,468.67
1778.409,470.40
1779.265,417.53
1780.120,444.83
1780.974,470.43
1781.829,482.30
1782.682,447.90
1783.538,430.97
1784.393,459.23
1785.246,446.67
1786.101,459.03
1786.954,463.97
1787.808,455.03
1788.661,448.00
1789.516,463.37
1790.370,480.30
1791.223,435.23
1792.077,483.07
1792.930,456.33
1793.784,467.57
1794.636,439.63
1795.490,469.03
1796.344,426.93
1797.196,453.73
1798.049,451.30
1798.901,444.93
1799.755,444.67
1800.606,432.23
1801.460,447.30
1802.311,464.83
1803.165,419.80
1804.018,445.00
1804.869,449.33
1805.722,456.03
1806.573,443.80
1807.426,448.77
1808.276,408.60
1809.129,435.97
1809.980,448.37
1810.832,443.77
1811.683,401.07
1812.535,464.00
1813.385,437.57
1814.237,457.07
1815.089,411.30
1815.940,417.53
1816.791,420.97
1817.641,450.97
1818.493,452.87
1819.343,462.13
1820.194,435.50
1821.044,447.80
1821.895,433.90
1822.745,460.60
1823.596,420.70
1824.445,425.23
1825.296,458.80
1826.145,422.17
1826.996,469.00
1827.845,446.27
1828.695,429.47
1829.544,430.27
1830.395,462.70
1831.243,444.30
1832.094,438.57
1832.942,435.83
1833.792,423.17
1834.640,428.73
1835.490,442.17
1836.338,468.53
1837.186,469.13
1838.036,423.07
1838.884,448.50
1839.733,444.33
1840.581,472.67
1841.430,420.53
1842.278,418.07
1843.127,463.90
1843.974,468.47
1844.823,437.57
1845.671,439.53
1846.519,400.47
1847.366,412.13
1848.213,440.00
1849.062,411.47
1849.909,447.33
1850.757,415.73
1851.604,440.83
1852.452,469.10
1853.298,443.17
1854.146,426.20
1854.993,423.53
1855.839,454.77
1856.687,403.77
1857.532,416.47
1858.380,410.97
1859.226,408.90
1860.073,416.90
1860.919,411.23
1861.765,433.17
1862.612,363.90
1863.457,421.43
1864.304,435.07
1865.150,447.50
1865.995,384.53
1866.842,397.27
1867.686,405.43
1868.533,401.53
1869.378,406.67
1870.223,444.30
1871.069,435.60
1871.914,386.53
1872.760,435.53
1873.604,447.50
1874.448,431.63
1875.294,404.93
1876.139,383.70
1876.984,437.80
1877.828,413.37
1878.672,431.97
1879.518,428.90
1880.361,421.87
1881.205,432.47
1882.050,432.00
1882.894,413.30
1883.739,453.83
1884.582,437.57
1885.425,447.57
1886.270,404.93
1887.113,431.30
1887.956,402.63
1888.801,445.70
1889.644,421.63
1890.486,444.23
1891.331,402.47
1892.173,399.70
1893.017,443.57
1893.860,430.27
1894.702,445.67
1895.546,413.47
1896.388,439.40
1897.230,415.23
1898.074,429.00
1898.916,406.70
1899.757,427.73
1900.601,439.50
1901.443,378.57
1902.284,423.07
1903.125,454.23
1903.969,435.07
1904.810,431.57
1905.651,409.00
1906.494,413.70
1907.335,413.37
1908.176,420.23
1909.018,412.07
1909.859,414.73
1910.700,464.67
1911.542,446.97
1912.383,431.47
1913.223,431.30
1914.064,406.13
1914.906,397.73
1915.746,437.43
1916.586,386.47
1917.428,423.47
1918.268,388.27
1919.107,400.73
1919.947,396.03
1920.789,461.40
1921.628,444.23
1922.468,370.47
1923.309,434.33
1924.148,444.00
1924.988,398.07
1925.827,400.77
1926.667,394.87
1927.507,409.37
1928.345,391.47
1929.184,436.97
1930.025,449.90
1930.864,436.13
1931.702,391.10
1932.541,378.73
1933.381,445.13
1934.219,404.80
1935.057,422.80
1935.896,432.53
1936.735,434.30
1937.573,442.20
1938.411,436.73
1939.249,390.17
1940.089,409.80
1940.927,442.17
1941.764,397.63
1942.602,413.30
1943.439,435.43
1944.278,418.30
1945.115,392.90
1945.953,411.57
1946.790,414.27
1947.628,398.83
1948.465,388.13
1949.302,405.67
1950.139,385.87
1950.976,403.70
1951.814,401.80
1952.651,404.70
1953.487,418.70
1954.323,370.53
1955.160,437.43
1955.998,423.90
1956.834,391.73
1957.670,388.73
1958.506,438.17
1959.342,419.87
1960.177,370.37
1961.015,409.77
1961.850,399.17
1962.686,379.60
1963.521,411.13
1964.357,435.33
1965.192,433.10
1966.029,403.97
1966.864,426.83
1967.699,407.43
1968.534,423.80
1969.369,390.17
1970.204,410.63
1971.040,419.27
1971.875,404.73
1972.709,418.43
1973.544,407.23
1974.378,407.63
1975.212,418.23
1976.047,406.40
1976.882,394.13
1977.716,433.90
1978.550,405.80
1979.384,367.57
1980.218,423.90
1981.052,397.43
1981.885,385.13
1982.719,406.20
1983.554,400.17
1984.388,393.20
1985.221,417.67
1986.054,414.20
1986.887,416.57
1987.720,424.97
1988.553,370.37
1989.386,414.57
1990.219,406.60
1991.053,383.47
1991.886,394.10
1992.719,375.93
1993.551,388.30
1994.383,408.33
1995.216,383.03
1996.048,420.33
1996.880,412.67
1997.712,381.97
1998.544,433.43
1999.376,409.27
2000.208,400.27
2000.208,400.27

Max Intensity Wave.,226.101
Max Intensity Data,6156.60
Min Intensity Wave.,1862.612
Min Intensity Data,363.90
FWHM Wave.,400.541
FWHM Value,2.34
Pressure Wave.,691.655
Pressure Value [GPa],-6.39053
G/D Ratio,0.41199
G/D Gband Wave.,1564.544
G/D Gband Intensity,630.28
G/D Dband Wave.,1301.854
G/D Dband Intensity,1529.85

<< BACKGROUND SPECTRUM >>
Wave[dcm-1],No276
146.591,2231.00
147.626,2103.00
148.664,2039.00
149.699,2482.00
150.737,2238.00
151.772,2379.00
152.809,2358.00
153.846,2298.00
154.881,2357.00
155.918,1944.00
156.953,2267.00
157.989,2589.00
159.026,2421.00
160.060,2626.00
161.096,2833.00
162.130,2483.00
163.167,2530.00
164.200,2462.00
165.236,2620.00
166.272,2675.00
167.305,2238.00
168.341,2528.00
169.374,2741.00
170.409,2744.00
171.445,2714.00
172.477,2537.00
173.512,2336.00
174.545,2630.00
175.580,2820.00
176.614,3001.00
177.647,2770.00
178.681,2989.00
179.713,3348.00
180.747,2772.00
181.781,2690.00
182.813,2972.00
183.847,3106.00
184.878,2680.00
185.912,2933.00
186.945,3108.00
187.976,3012.00
189.010,2656.00
190.043,2813.00
191.073,2903.00
192.106,2732.00
193.137,3108.00
194.170,2552.00
195.202,2886.00
196.232,2687.00
197.265,2957.00
198.297,3024.00
199.327,2776.00
200.359,2932.00
201.388,3271.00
202.420,2906.00
203.452,3085.00
204.481,2685.00
205.512,3305.00
206.544,3042.00
207.573,3052.00
208.604,3362.00
209.635,3491.00
210.663,2903.00
211.694,2952.00
212.725,2796.00
213.753,2716.00
214.783,3355.00
215.813,3214.00
216.841,2984.00
217.871,3140.00
218.899,2905.00
219.929,3091.00
220.959,2845.00
221.986,3177.00
223.016,2753.00
224.045,3118.00
225.072,3066.00
226.101,3158.00
227.130,3198.00
228.157,2807.00
229.185,2336.00
230.214,3132.00
231.241,2765.00
232.269,2461.00
233.297,2655.00
234.323,3196.00
235.351,2797.00
236.379,3067.00
237.407,2743.00
238.433,2902.00
239.460,3084.00
240.488,3067.00
241.513,3199.00
242.540,3071.00
243.568,3172.00
244.592,3225.00
245.619,3203.00
246.646,2874.00
247.671,2951.00
248.697,2801.00
249.724,2983.00
250.748,3002.00
251.774,2952.00
252.801,3286.00
253.827,3106.00
254.850,3059.00
255.876,2685.00
256.902,3104.00
257.925,2937.00
258.951,2721.00
259.976,2763.00
260.999,3079.00
262.024,2761.00
263.049,3631.00
264.074,3074.00
265.097,2978.00
266.122,3055.00
267.146,3014.00
268.168,3182.00
269.193,2816.00
270.217,3184.00
271.241,2698.00
272.263,2857.00
273.287,3124.00
274.311,2744.00
275.332,3321.00
276.356,2829.00
277.379,3067.00
278.402,3124.00
279.424,2892.00
280.447,2871.00
281.470,2714.00
282.492,3015.00
283.513,2865.00
284.536,3132.00
285.558,3107.00
286.581,3085.00
287.601,2838.00
288.623,2767.00
289.645,3072.00
290.665,3083.00
291.687,3091.00
292.709,3093.00
293.730,3342.00
294.750,2876.00
295.771,2754.00
296.792,3039.00
297.813,2930.00
298.832,2985.00
299.853,2744.00
300.874,2944.00
301.895,2911.00
302.913,2928.00
303.934,3191.00
304.954,3024.00
305.975,3172.00
306.993,2746.00
308.013,3072.00
309.033,3014.00
310.052,2925.00
311.072,2896.00
312.090,3020.00
313.109,3244.00
314.129,3380.00
315.148,3007.00
316.165,3000.00
317.184,3224.00
318.203,2729.00
319.222,2761.00
320.238,3123.00
321.257,2804.00
322.275,2677.00
323.294,3006.00
324.312,3102.00
325.328,3258.00
326.346,3273.00
327.364,3230.00
328.382,3149.00
329.397,3121.00
330.415,3221.00
331.432,3218.00
332.450,3216.00
333.467,3446.00
334.482,2547.00
335.499,3394.00
336.516,2877.00
337.533,2560.00
338.547,2817.00
339.564,2846.00
340.580,3020.00
341.597,2950.00
342.613,3377.00
343.627,2906.00
344.643,2984.00
345.659,3061.00
346.675,2985.00
347.690,2906.00
348.704,3040.00
349.719,2876.00
350.735,2735.00
351.750,3166.00
352.765,2985.00
353.778,2977.00
354.793,3116.00
355.808,2807.00
356.822,3136.00
357.837,2671.00
358.851,3270.00
359.864,2956.00
360.878,2730.00
361.892,2932.00
362.906,3119.00
363.920,2572.00
364.932,3113.00
365.945,3040.00
366.959,3037.00
367.972,2939.00
368.986,2693.00
369.999,3382.00
371.010,2829.00
372.023,3331.00
373.036,2923.00
374.049,3322.00
375.061,3084.00
376.072,2999.00
377.084,2863.00
378.097,2706.00
379.109,3165.00
380.121,3004.00
381.133,2638.00
382.143,3110.00
383.155,2696.00
384.166,2843.00
385.178,3069.00
386.189,3193.00
387.201,2736.00
388.212,2889.00
389.221,2894.00
390.232,2970.00
391.243,2918.00
392.254,2972.00
393.264,2846.00
394.275,3204.00
395.283,3133.00
396.294,3600.00
397.304,3484.00
398.314,3053.00
399.324,3025.00
400.334,2623.00
401.344,3113.00
402.351,2673.00
403.361,3194.00
404.370,2955.00
405.380,2910.00
406.389,3319.00
407.398,3126.00
408.407,3085.00
409.414,3167.00
410.423,3296.00
411.431,2791.00
412.440,2656.00
413.448,3298.00
414.457,2842.00
415.465,2829.00
416.471,2871.00
417.479,3013.00
418.487,2808.00
419.495,3280.00
420.503,3095.00
421.510,2579.00
422.518,3091.00
423.525,3181.00
424.530,3389.00
425.537,2863.00
426.544,3235.00
427.551,2847.00
428.558,3570.00
429.565,3411.00
430.571,2894.00
431.578,2874.00
432.582,2830.00
433.588,2964.00
434.595,2594.00
435.601,3301.00
436.607,3236.00
437.612,2733.00
438.618,3324.00
439.624,2929.00
440.627,2923.00
441.633,3104.00
442.638,3587.00
443.643,3052.00
444.648,2999.00
445.653,3191.00
446.658,2848.00
447.663,3003.00
448.667,2861.00
449.672,2886.00
450.674,2971.00
451.678,2717.00
452.682,2894.00
453.687,2842.00
454.690,3553.00
455.694,3239.00
456.698,2547.00
457.702,2660.00
458.705,2780.00
459.709,2790.00
460.710,2854.00
461.713,3035.00
462.716,3064.00
463.719,2993.00
464.722,3193.00
465.725,2948.00
466.727,2814.00
467.730,3005.00
468.732,2727.00
469.735,3246.00
470.737,2885.00
471.737,2872.00
472.739,2878.00
473.741,2811.00
474.742,3053.00
475.744,3090.00
476.746,2977.00
477.747,2960.00
478.748,3183.00
479.750,2923.00
480.751,3000.00
481.752,3675.00
482.753,3076.00
483.751,3555.00
484.752,2614.00
485.753,2929.00
486.753,2891.00
487.753,2981.00
488.754,3383.00
489.754,2669.00
490.754,3298.00
491.754,3102.00
492.754,2691.00
493.753,3034.00
494.753,2903.00
495.752,3289.00
496.752,3001.00
497.749,2974.00
498.748,2869.00
499.747,3387.00
500.746,3055.00
501.745,2759.00
502.744,2732.00
503.742,3323.00
504.741,2927.00
505.739,2483.00
506.737,2891.00
507.735,3164.00
508.734,3327.00
509.732,3122.00
510.729,3354.00
511.727,2867.00
512.725,2928.00
513.720,2774.00
514.718,3233.00
515.715,2649.00
516.712,2611.00
517.709,2989.00
518.706,2888.00
519.703,3027.00
520.700,3195.00
521.696,3326.00
522.693,2886.00
523.689,2829.00
524.686,3182.00
525.682,2790.00
526.678,3481.00
527.674,2969.00
528.670,2622.00
529.666,3489.00
530.661,3417.00
531.657,3654.00
532.652,3134.00
533.648,3005.00
534.641,3219.00
535.636,3043.00
536.631,3105.00
537.626,3120.00
538.621,2722.00
539.616,2587.00
540.610,2538.00
541.605,2998.00
542.599,3025.00
543.593,2941.00
544.587,3874.00
545.581,2853.00
546.575,3012.00
547.569,3039.00
548.563,2675.00
549.557,2637.00
550.550,2770.00
551.543,2741.00
552.537,3143.00
553.530,2775.00
554.523,2747.00
555.516,3113.00
556.509,2934.00
557.502,2614.00
558.494,3183.00
559.487,2914.00
560.479,3190.00
561.472,3237.00
562.464,3125.00
563.456,3283.00
564.448,2961.00
565.440,2980.00
566.432,3370.00
567.423,2879.00
568.415,2890.00
569.404,3075.00
570.396,2833.00
571.387,3105.00
572.378,2991.00
573.369,3929.00
574.360,3651.00
575.351,2914.00
576.341,2851.00
577.332,2855.00
578.323,2686.00
579.313,2859.00
580.303,3221.00
581.293,3087.00
582.283,2990.00
583.273,3113.00
584.263,3050.00
585.253,3071.00
586.243,3103.00
587.232,2652.00
588.222,2959.00
589.211,3117.00
590.200,3087.00
591.189,2946.00
592.178,2977.00
593.167,3418.00
594.156,3274.00
595.145,2903.00
596.133,3436.00
597.122,3126.00
598.110,3185.00
599.098,3076.00
600.086,2991.00
601.074,3125.00
602.062,2820.00
603.050,2706.00
604.038,3041.00
605.025,2806.00
606.013,3158.00
607.000,3388.00
607.987,3016.00
608.975,3071.00
609.962,2720.00
610.949,3120.00
611.936,3252.00
612.922,3132.00
613.909,2706.00
614.895,3312.00
615.882,2821.00
616.868,3004.00
617.854,2733.00
618.841,3016.00
619.826,3044.00
620.812,2978.00
621.798,2801.00
622.784,3166.00
623.769,3069.00
624.755,2689.00
625.740,3032.00
626.725,2738.00
627.711,2820.00
628.698,3050.00
629.683,2811.00
630.667,3141.00
631.652,2761.00
632.637,2920.00
633.621,3117.00
634.606,2882.00
635.590,3095.00
636.574,2934.00
637.558,3037.00
638.542,3038.00
639.526,2809.00
640.510,2635.00
641.493,3017.00
642.477,2967.00
643.460,2672.00
644.444,3182.00
645.427,3234.00
646.410,2646.00
647.393,2951.00
648.376,3072.00
649.359,2916.00
650.341,3080.00
651.324,3073.00
652.307,3007.00
653.289,2925.00
654.271,2881.00
655.253,2889.00
656.235,3111.00
657.217,3210.00
658.199,2647.00
659.181,2746.00
660.163,2978.00
661.144,2870.00
662.126,2896.00
663.107,2783.00
664.088,6160.00
665.069,3220.00
666.050,2817.00
667.033,2728.00
668.014,3019.00
668.995,2568.00
669.975,2977.00
670.956,2946.00
671.936,3172.00
672.916,2938.00
673.896,3061.00
674.876,2895.00
675.856,2824.00
676.836,2741.00
677.816,2301.00
678.795,2798.00
679.775,2683.00
680.754,2997.00
681.734,3143.00
682.713,3163.00
683.692,2768.00
684.671,2694.00
685.650,2758.00
686.629,2851.00
687.607,2730.00
688.586,2765.00
689.564,2840.00
690.543,3244.00
691.523,2342.00
692.501,2796.00
693.479,2955.00
694.457,2748.00
695.435,2873.00
696.413,2672.00
697.390,2505.00
698.368,2663.00
699.345,3024.00
700.322,2938.00
701.300,3057.00
702.277,3022.00
703.254,3239.00
704.231,2577.00
705.207,2920.00
706.184,2767.00
707.161,2649.00
708.137,2803.00
709.113,2774.00
710.090,2760.00
711.068,2583.00
712.044,2619.00
713.020,2874.00
713.996,2648.00
714.971,2788.00
715.947,2871.00
716.922,2807.00
717.898,2748.00
718.873,2896.00
719.848,2725.00
720.823,2723.00
721.798,2974.00
722.773,2733.00
723.748,2536.00
724.723,3027.00
725.697,2839.00
726.672,2745.00
727.646,2523.00
728.622,2981.00
729.596,2578.00
730.570,2695.00
731.544,3079.00
732.518,3246.00
733.492,2826.00
734.466,2876.00
735.439,2994.00
736.413,3102.00
737.386,2461.00
738.359,2417.00
739.332,2525.00
740.305,2833.00
741.278,3305.00
742.251,2910.00
743.224,2730.00
744.196,2559.00
745.171,3090.00
746.143,3015.00
747.115,2789.00
748.087,2673.00
749.059,3099.00
750.031,2909.00
751.003,3643.00
751.975,3271.00
752.947,2691.00
753.918,3098.00
754.890,2559.00
755.861,2755.00
756.832,3011.00
757.803,2846.00
758.774,2784.00
759.747,2582.00
760.718,3187.00
761.689,2758.00
762.659,2612.00
763.630,3093.00
764.600,2536.00
765.570,3026.00
766.540,3072.00
767.510,2889.00
768.480,3002.00
769.450,2709.00
770.420,2805.00
771.390,2652.00
772.359,2743.00
773.329,2661.00
774.300,2514.00
775.269,2731.00
776.238,2977.00
777.207,3130.00
778.176,2502.00
779.145,2753.00
780.114,2666.00
781.083,2590.00
782.051,2728.00
783.019,2677.00
783.988,3079.00
784.956,2852.00
785.924,2964.00
786.894,2872.00
787.862,2698.00
788.830,3107.00
789.797,2625.00
790.765,2577.00
791.732,2773.00
792.700,2632.00
793.667,2563.00
794.634,2767.00
795.601,2795.00
796.568,2763.00
797.535,2797.00
798.502,3442.00
799.468,2895.00
800.437,2403.00
801.403,2655.00
802.370,3282.00
803.336,2977.00
804.302,2874.00
805.268,2435.00
806.234,2578.00
807.200,2732.00
808.166,2779.00
809.131,2573.00
810.097,2951.00
811.062,3640.00
812.027,3008.00
812.994,2623.00
813.960,2678.00
814.925,2938.00
815.889,2541.00
816.854,3009.00
817.819,2598.00
818.783,2737.00
819.748,3081.00
820.712,2754.00
821.677,2651.00
822.641,2708.00
823.605,2702.00
824.571,3103.00
825.534,2724.00
826.498,2651.00
827.462,2837.00
828.425,2649.00
829.389,3055.00
830.352,2812.00
831.315,2878.00
832.279,2471.00
833.242,2726.00
834.204,2634.00
835.167,2616.00
836.132,3045.00
837.095,2518.00
838.057,2681.00
839.020,2816.00
839.982,2816.00
840.944,2635.00
841.906,2633.00
842.868,2926.00
843.830,2529.00
844.792,3052.00
845.753,2694.00
846.715,2442.00
847.679,2585.00
848.640,2614.00
849.601,2733.00
850.562,3253.00
851.523,2696.00
852.484,2455.00
853.445,3005.00
854.406,2719.00
855.367,2710.00
856.327,3057.00
857.288,2498.00
858.248,2631.00
859.210,2678.00
860.170,2512.00
861.130,2990.00
862.090,2404.00
863.050,2619.00
864.010,2685.00
864.969,2884.00
865.929,2589.00
866.888,2488.00
867.848,2854.00
868.807,2650.00
869.766,2825.00
870.727,2715.00
871.686,2976.00
872.645,3004.00
873.604,3289.00
874.562,2762.00
875.521,2767.00
876.479,3349.00
877.437,2568.00
878.396,2575.00
879.354,3172.00
880.312,2602.00
881.270,2678.00
882.229,3100.00
883.187,2595.00
884.145,2649.00
885.102,2933.00
886.059,2808.00
887.017,2921.00
887.974,2979.00
888.931,3055.00
889.888,2547.00
890.845,2412.00
891.802,2354.00
892.758,2662.00
893.717,2442.00
894.673,2542.00
895.630,2645.00
896.586,2873.00
897.542,2688.00
898.498,2556.00
899.454,2857.00
900.410,2670.00
901.366,2691.00
902.321,2597.00
903.277,2693.00
904.232,2754.00
905.189,2484.00
906.145,2662.00
907.100,2210.00
908.055,2726.00
909.010,2880.00
909.965,2349.00
910.919,2784.00
911.874,2584.00
912.828,2777.00
913.783,2780.00
914.737,2367.00
915.693,2740.00
916.648,2941.00
917.602,2946.00
918.555,2757.00
919.509,2827.00
920.463,2748.00
921.417,2786.00
922.370,2584.00
923.324,2670.00
924.277,2671.00
925.230,2780.00
926.183,2408.00
927.138,2701.00
928.091,2893.00
929.044,2819.00
929.996,2640.00
930.949,2648.00
931.902,2834.00
932.854,2819.00
933.806,2590.00
934.758,2949.00
935.711,2948.00
936.663,2732.00
937.614,2790.00
938.568,2772.00
939.520,2415.00
940.471,2720.00
941.423,2793.00
942.374,2885.00
943.326,2736.00
944.277,2646.00
945.228,2836.00
946.179,2679.00
947.130,3055.00
948.080,2660.00
949.031,2552.00
949.984,2644.00
950.934,2718.00
951.884,2470.00
952.835,2684.00
953.785,2709.00
954.735,2649.00
955.685,2369.00
956.635,2621.00
957.585,2656.00
958.534,2623.00
959.484,2702.00
960.433,2627.00
961.383,2470.00
962.334,2961.00
963.283,2775.00
964.232,2873.00
965.181,2739.00
966.130,2801.00
967.079,2622.00
968.027,2714.00
968.976,2726.00
969.924,2594.00
970.873,2762.00
971.821,2805.00
972.769,2921.00
973.719,2865.00
974.667,2504.00
975.615,2688.00
976.562,2738.00
977.510,2422.00
978.458,2590.00
979.405,2840.00
980.352,2804.00
981.300,2965.00
982.247,2772.00
983.194,2569.00
984.141,2613.00
985.088,2705.00
986.036,2787.00
986.983,2981.00
987.930,3131.00
988.876,2399.00
989.822,2943.00
990.769,2558.00
991.715,2622.00
992.661,2450.00
993.607,2787.00
994.553,3251.00
995.498,2636.00
996.444,2289.00
997.389,2801.00
998.337,2507.00
999.282,2842.00
1000.227,2648.00
1001.173,2746.00
1002.118,2439.00
1003.062,2911.00
1004.007,2697.00
1004.952,2973.00
1005.897,2912.00
1006.841,2707.00
1007.786,2463.00
1008.730,2454.00
1009.674,3207.00
1010.618,2681.00
1011.564,2530.00
1012.508,2419.00
1013.452,2941.00
1014.396,2683.00
1015.339,2598.00
1016.283,2716.00
1017.226,2711.00
1018.170,2726.00
1019.113,2907.00
1020.056,2733.00
1020.999,2724.00
1021.942,2631.00
1022.885,2876.00
1023.828,3015.00
1024.770,2526.00
1025.715,2756.00
1026.657,2687.00
1027.600,2760.00
1028.542,2954.00
1029.484,2760.00
1030.426,2852.00
1031.368,2762.00
1032.310,2577.00
1033.251,2580.00
1034.193,2712.00
1035.135,2472.00
1036.076,2588.00
1037.017,2570.00
1037.959,2824.00
1038.900,2793.00
1039.843,2813.00
1040.784,2764.00
1041.725,2844.00
1042.665,2593.00
1043.606,2750.00
1044.547,2771.00
1045.487,2353.00
1046.427,2649.00
1047.368,2739.00
1048.308,2228.00
1049.248,2498.00
1050.188,2735.00
1051.128,2599.00
1052.067,2643.00
1053.007,2416.00
1053.947,2424.00
1054.886,2530.00
1055.827,2514.00
1056.766,2883.00
1057.706,2457.00
1058.645,2661.00
1059.584,2756.00
1060.522,2972.00
1061.461,2454.00
1062.400,2478.00
1063.338,2638.00
1064.277,2565.00
1065.215,2517.00
1066.154,2392.00
1067.092,2592.00
1068.030,2629.00
1068.968,2862.00
1069.906,2946.00
1070.843,2957.00
1071.781,2709.00
1072.720,2823.00
1073.658,2809.00
1074.595,2605.00
1075.533,2539.00
1076.470,2606.00
1077.407,2978.00
1078.344,2758.00
1079.281,2819.00
1080.217,2314.00
1081.154,2668.00
1082.091,2721.00
1083.027,2469.00
1083.964,2903.00
1084.900,2536.00
1085.836,2600.00
1086.772,2906.00
1087.708,2486.00
1088.644,2818.00
1089.580,2713.00
1090.515,2793.00
1091.451,2584.00
1092.388,2716.00
1093.324,2448.00
1094.259,3230.00
1095.194,2786.00
1096.129,2608.00
1097.064,2544.00
1097.999,2820.00
1098.934,2512.00
1099.869,2565.00
1100.803,2701.00
1101.738,2677.00
1102.672,2389.00
1103.607,2820.00
1104.541,2526.00
1105.475,2543.00
1106.409,2418.00
1107.343,2630.00
1108.277,2416.00
1109.210,2697.00
1110.144,2691.00
1111.078,2689.00
1112.011,2456.00
1112.944,2781.00
1113.878,2727.00
1114.811,2203.00
1115.744,2582.00
1116.678,2344.00
1117.611,2582.00
1118.544,2587.00
1119.477,2751.00
1120.409,2541.00
1121.342,3100.00
1122.274,2756.00
1123.206,4231.00
1124.138,2678.00
1125.070,3002.00
1126.002,2849.00
1126.934,2301.00
1127.866,2575.00
1128.798,2317.00
1129.729,2376.00
1130.661,2662.00
1131.592,2574.00
1132.523,2746.00
1133.454,2766.00
1134.385,2288.00
1135.317,2625.00
1136.247,2580.00
1137.178,2868.00
1138.109,2369.00
1139.039,3033.00
1139.970,2811.00
1140.900,2576.00
1141.831,2345.00
1142.761,2227.00
1143.691,2766.00
1144.621,2654.00
1145.551,2680.00
1146.480,2702.00
1147.410,2871.00
1148.340,2297.00
1149.269,2376.00
1150.199,2589.00
1151.128,3005.00
1152.057,2406.00
1152.979,2586.00
1153.898,2628.00
1154.819,2715.00
1155.739,2599.00
1156.658,2557.00
1157.579,2688.00
1158.498,2645.00
1159.419,2202.00
1160.338,2699.00
1161.256,2715.00
1162.177,2512.00
1163.095,2603.00
1164.016,2704.00
1164.934,2858.00
1165.852,2859.00
1166.772,2661.00
1167.690,2615.00
1168.610,2700.00
1169.528,2612.00
1170.446,2167.00
1171.365,2570.00
1172.283,2507.00
1173.202,2645.00
1174.120,2660.00
1175.037,2494.00
1175.956,2456.00
1176.873,2499.00
1177.792,2522.00
1178.709,3088.00
1179.626,2513.00
1180.544,2865.00
1181.461,2550.00
1182.379,2760.00
1183.296,2641.00
1184.212,2274.00
1185.130,2495.00
1186.046,2977.00
1186.962,2625.00
1187.880,2938.00
1188.796,2681.00
1189.714,2419.00
1190.629,2758.00
1191.545,2726.00
1192.462,2592.00
1193.378,2578.00
1194.295,2359.00
1195.210,2624.00
1196.125,2768.00
1197.042,2752.00
1197.957,2633.00
1198.872,2527.00
1199.788,2512.00
1200.703,2948.00
1201.619,2620.00
1202.534,2474.00
1203.448,2726.00
1204.364,2573.00
1205.278,2285.00
1206.192,2664.00
1207.108,3128.00
1208.022,3005.00
1208.938,2490.00
1209.851,2766.00
1210.765,2868.00
1211.680,2528.00
1212.594,2422.00
1213.507,2573.00
1214.422,3025.00
1215.335,2737.00
1216.248,2556.00
1217.163,2665.00
1218.076,3230.00
1218.990,2731.00
1219.903,2418.00
1220.816,2440.00
1221.730,2627.00
1222.642,2509.00
1223.554,2571.00
1224.469,2704.00
1225.380,2616.00
1226.292,2318.00
1227.206,2766.00
1228.118,2998.00
1229.032,2261.00
1229.943,2525.00
1230.855,2576.00
1231.768,2340.00
1232.679,2716.00
1233.590,2615.00
1234.503,2863.00
1235.414,2473.00
1236.325,2517.00
1237.238,2677.00
1238.149,2727.00
1239.059,2430.00
1239.972,2799.00
1240.882,2426.00
1241.793,2778.00
1242.705,2998.00
1243.615,2561.00
1244.525,2722.00
1245.437,2196.00
1246.347,2697.00
1247.259,2789.00
1248.168,3023.00
1249.078,2856.00
1249.989,2892.00
1250.899,2438.00
1251.808,2486.00
1252.719,2578.00
1253.628,2537.00
1254.537,2997.00
1255.448,2465.00
1256.357,2453.00
1257.266,2609.00
1258.176,2371.00
1259.085,2351.00
1259.993,2467.00
1260.904,2455.00
1261.812,2450.00
1262.720,3235.00
1263.630,2814.00
1264.538,2463.00
1265.446,2742.00
1266.356,2584.00
1267.263,2890.00
1268.171,2413.00
1269.080,2706.00
1269.988,2808.00
1270.895,2549.00
1271.804,2553.00
1272.711,2799.00
1273.619,2796.00
1274.527,2444.00
1275.434,2714.00
1276.341,2434.00
1277.248,2646.00
1278.156,2896.00
1279.063,2496.00
1279.969,2716.00
1280.877,3536.00
1281.783,2812.00
1282.690,2712.00
1283.598,2596.00
1284.503,2481.00
1285.409,2428.00
1286.317,3009.00
1287.223,3033.00
1288.128,2665.00
1289.036,2486.00
1289.941,2560.00
1290.846,2623.00
1291.751,2455.00
1292.658,2559.00
1293.563,3061.00
1294.468,2657.00
1295.375,2795.00
1296.280,2886.00
1297.184,3330.00
1298.091,2702.00
1298.995,2779.00
1299.900,3043.00
1300.806,2545.00
1301.710,2372.00
1302.614,2204.00
1303.518,2894.00
1304.424,2599.00
1305.327,2803.00
1306.231,2593.00
1307.137,2781.00
1308.040,2688.00
1308.943,2667.00
1309.847,2883.00
1310.752,2822.00
1311.655,2274.00
1312.558,2428.00
1313.463,2606.00
1314.366,2526.00
1315.269,2668.00
1316.171,2592.00
1317.076,2516.00
1317.978,2444.00
1318.881,2249.00
1319.785,2525.00
1320.687,2453.00
1321.589,2237.00
1322.491,2465.00
1323.395,2699.00
1324.297,3162.00
1325.198,2746.00
1326.102,2438.00
1327.004,2486.00
1327.905,3010.00
1328.806,2564.00
1329.709,2684.00
1330.611,2581.00
1331.512,2408.00
1332.413,3036.00
1333.316,2712.00
1334.216,2797.00
1335.117,2367.00
1336.020,2653.00
1336.920,2664.00
1337.821,2484.00
1338.721,2870.00
1339.623,2683.00
1340.523,2607.00
1341.423,2496.00
1342.323,2865.00
1343.225,2697.00
1344.125,2458.00
1345.025,2495.00
1345.924,2293.00
1346.826,2995.00
1347.725,3042.00
1348.624,2868.00
1349.524,2506.00
1350.425,2583.00
1351.324,2691.00
1352.223,2785.00
1353.121,2609.00
1354.022,2792.00
1354.921,3014.00
1355.819,2734.00
1356.718,2642.00
1357.618,2398.00
1358.516,2756.00
1359.415,2993.00
1360.313,2689.00
1361.213,2613.00
1362.111,2889.00
1363.008,3233.00
1363.906,2638.00
1364.806,2627.00
1365.703,2671.00
1366.601,2455.00
1367.498,2423.00
1368.397,2805.00
1369.295,2687.00
1370.192,2446.00
1371.089,2730.00
1371.987,2602.00
1372.884,2874.00
1373.781,2414.00
1374.678,2628.00
1375.574,2484.00
1376.473,2773.00
1377.369,2845.00
1378.265,2461.00
1379.161,2604.00
1380.059,2376.00
1380.955,2766.00
1381.851,2378.00
1382.747,2522.00
1383.643,2568.00
1384.540,2456.00
1385.436,2516.00
1386.331,2717.00
1387.227,2784.00
1388.124,2696.00
1389.019,2469.00
1389.914,2604.00
1390.809,2242.00
1391.704,3085.00
1392.601,2553.00
1393.495,2887.00
1394.390,2772.00
1395.285,2860.00
1396.179,2702.00
1397.075,2607.00
1397.969,2675.00
1398.864,2292.00
1399.758,2589.00
1400.652,2645.00
1401.547,2479.00
1402.441,2414.00
1403.335,2940.00
1404.229,2658.00
1405.122,2707.00
1406.017,2619.00
1406.911,2781.00
1407.804,2984.00
1408.697,2609.00
1409.590,2466.00
1410.485,2799.00
1411.378,2691.00
1412.271,2353.00
1413.163,2698.00
1414.056,2757.00
1414.949,2999.00
1415.843,2670.00
1416.735,2606.00
1417.627,2640.00
1418.520,2599.00
1419.412,2834.00
1420.306,2848.00
1421.197,2900.00
1422.089,2824.00
1422.981,3090.00
1423.873,2828.00
1424.764,2729.00
1425.657,2657.00
1426.549,2785.00
1427.440,2821.00
1428.331,2537.00
1429.222,2287.00
1430.113,2690.00
1431.006,2799.00
1431.897,2502.00
1432.787,2650.00
1433.678,2567.00
1434.568,2476.00
1435.459,2863.00
1436.351,2813.00
1437.241,2812.00
1438.131,2778.00
1439.021,2396.00
1439.911,2619.00
1440.801,2686.00
1441.693,2841.00
1442.583,2676.00
1443.472,2661.00
1444.362,2742.00
1445.251,2569.00
1446.140,2562.00
1447.030,2812.00
1447.921,2839.00
1448.810,2472.00
1449.699,3002.00
1450.588,2693.00
1451.476,2556.00
1452.365,2779.00
1453.254,2513.00
1454.144,2533.00
1455.032,2754.00
1455.921,2413.00
1456.809,2962.00
1457.697,2434.00
1458.585,2567.00
1459.473,2565.00
1460.361,2499.00
1461.251,2704.00
1462.138,2697.00
1463.026,2598.00
1463.913,2850.00
1464.801,2562.00
1465.688,2764.00
1466.575,2631.00
1467.463,3056.00
1468.351,2545.00
1469.238,2628.00
1470.125,2252.00
1471.012,2706.00
1471.899,2725.00
1472.785,2474.00
1473.672,2653.00
1474.558,2817.00
1475.446,2784.00
1476.333,2791.00
1477.219,2440.00
1478.105,2594.00
1478.991,2610.00
1479.877,2921.00
1480.762,2630.00
1481.648,2528.00
1482.534,2773.00
1483.419,2713.00
1484.307,2754.00
1485.192,2608.00
1486.077,2480.00
1486.962,2519.00
1487.847,2383.00
1488.732,2484.00
1489.617,2648.00
1490.502,2909.00
1491.387,2783.00
1492.271,2491.00
1493.156,2468.00
1494.042,2469.00
1494.927,2850.00
1495.811,2550.00
1496.695,2783.00
1497.579,2925.00
1498.463,2642.00
1499.347,2680.00
1500.231,2672.00
1501.114,2683.00
1501.998,2870.00
1502.881,2633.00
1503.765,2948.00
1504.648,3036.00
1505.533,2727.00
1506.417,2673.00
1507.300,2619.00
1508.183,2696.00
1509.066,2161.00
1509.948,2939.00
1510.831,2971.00
1511.714,2442.00
1512.596,2793.00
1513.479,2911.00
1514.361,2822.00
1515.243,2670.00
1516.125,2821.00
1517.008,2911.00
1517.890,2615.00
1518.771,2669.00
1519.655,2825.00
1520.537,2606.00
1521.419,2474.00
1522.300,2698.00
1523.182,2782.00
1524.063,2763.00
1524.944,2908.00
1525.825,2857.00
1526.707,2472.00
1527.588,2460.00
1528.468,2719.00
1529.349,2336.00
1530.230,2547.00
1531.111,2833.00
1531.991,2696.00
1532.872,2343.00
1533.752,2644.00
1534.632,2506.00
1535.513,2507.00
1536.393,2805.00
1537.273,2931.00
1538.153,3381.00
1539.032,2409.00
1539.912,2659.00
1540.792,2659.00
1541.672,2663.00
1542.551,2738.00
1543.430,3234.00
1544.310,2694.00
1545.189,2543.00
1546.068,3062.00
1546.947,2773.00
1547.826,2949.00
1548.705,2665.00
1549.584,2858.00
1550.462,2625.00
1551.341,2786.00
1552.219,2694.00
1553.098,2787.00
1553.976,2853.00
1554.854,3014.00
1555.733,2880.00
1556.611,2544.00
1557.489,2458.00
1558.367,2662.00
1559.244,2804.00
1560.122,2652.00
1561.000,2768.00
1561.877,2936.00
1562.755,2528.00
1563.632,2620.00
1564.509,2861.00
1565.386,3005.00
1566.264,2413.00
1567.141,2297.00
1568.017,2784.00
1568.894,2699.00
1569.771,2743.00
1570.648,2770.00
1571.524,2686.00
1572.401,2385.00
1573.277,2435.00
1574.153,2655.00
1575.029,2489.00
1575.906,3313.00
1576.781,2814.00
1577.657,2590.00
1578.533,2882.00
1579.409,2287.00
1580.285,2615.00
1581.160,3077.00
1582.036,2796.00
1582.911,2512.00
1583.786,3006.00
1584.662,2475.00
1585.537,2639.00
1586.412,2688.00
1587.287,2501.00
1588.160,2813.00
1589.035,2342.00
1589.909,2714.00
1590.784,2609.00
1591.658,2442.00
1592.533,2731.00
1593.407,2664.00
1594.281,2544.00
1595.155,3067.00
1596.029,2544.00
1596.903,2590.00
1597.777,2561.00
1598.651,2913.00
1599.525,2371.00
1600.398,2636.00
1601.272,2629.00
1602.144,3203.00
1603.017,2586.00
1603.890,2878.00
1604.763,2720.00
1605.636,2807.00
1606.509,2402.00
1607.382,2516.00
1608.255,2732.00
1609.128,2868.00
1610.000,2574.00
1610.873,2361.00
1611.746,2569.00
1612.616,2612.00
1613.488,2268.00
1614.361,2673.00
1615.233,2591.00
1616.105,2867.00
1616.977,2573.00
1617.849,2504.00
1618.720,2934.00
1619.592,2971.00
1620.464,2774.00
1621.333,3090.00
1622.205,2668.00
1623.076,2632.00
1623.947,2654.00
1624.818,2869.00
1625.689,2757.00
1626.560,2577.00
1627.431,2701.00
1628.302,3024.00
1629.171,2818.00
1630.042,3010.00
1630.912,3275.00
1631.782,3239.00
1632.653,2460.00
1633.523,2797.00
1634.393,2848.00
1635.263,2515.00
1636.131,2651.00
1637.001,2588.00
1637.871,2295.00
1638.741,2297.00
1639.611,2375.00
1640.480,2766.00
1641.350,2541.00
1642.219,2478.00
1643.087,2167.00
1643.956,3066.00
1644.825,2901.00
1645.694,2830.00
1646.563,2792.00
1647.432,2667.00
1648.299,2712.00
1649.167,2790.00
1650.036,2512.00
1650.904,2733.00
1651.773,2899.00
1652.641,2684.00
1653.509,2841.00
1654.376,2532.00
1655.244,2710.00
1656.112,2730.00
1656.980,2628.00
1657.847,2518.00
1658.715,2845.00
1659.581,2568.00
1660.448,2932.00
1661.316,2177.00
1662.183,2661.00
1663.051,2702.00
1663.918,2712.00
1664.783,2677.00
1665.650,2743.00
1666.517,2822.00
1667.384,2656.00
1668.251,2680.00
1669.115,2922.00
1669.982,2615.00
1670.849,2913.00
1671.715,2645.00
1672.581,2813.00
1673.446,2797.00
1674.312,2686.00
1675.178,3039.00
1676.044,2734.00
1676.910,2747.00
1677.774,2722.00
1678.639,2377.00
1679.505,2650.00
1680.370,2768.00
1681.236,3314.00
1682.099,2617.00
1682.965,2682.00
1683.830,2276.00
1684.695,2448.00
1685.560,2613.00
1686.423,2798.00
1687.288,2780.00
1688.153,2692.00
1689.017,2617.00
1689.880,2739.00
1690.745,2841.00
1691.609,2537.00
1692.473,2789.00
1693.338,2899.00
1694.200,2903.00
1695.064,2679.00
1695.928,2546.00
1696.792,2687.00
1697.654,3154.00
1698.517,2706.00
1699.381,2442.00
1700.245,2324.00
1701.106,2963.00
1701.969,2569.00
1702.833,2801.00
1703.696,2569.00
1704.557,2620.00
1705.420,2510.00
1706.283,2694.00
1707.146,2802.00
1708.007,2491.00
1708.870,2469.00
1709.732,2377.00
1710.595,2561.00
1711.455,2449.00
1712.318,2559.00
1713.180,2951.00
1714.040,2691.00
1714.902,2819.00
1715.764,2719.00
1716.626,2443.00
1717.486,2606.00
1718.348,2919.00
1719.209,4106.00
1720.071,2331.00
1720.930,2430.00
1721.792,2549.00
1722.653,2539.00
1723.512,2596.00
1724.374,2623.00
1725.234,2713.00
1726.095,2659.00
1726.954,2674.00
1727.815,2784.00
1728.676,2662.00
1729.535,2890.00
1730.395,2642.00
1731.256,2576.00
1732.114,2752.00
1732.974,2168.00
1733.834,3052.00
1734.693,2856.00
1735.553,2704.00
1736.413,3088.00
1737.272,2556.00
1738.130,2632.00
1738.990,2753.00
1739.849,2564.00
1740.707,3633.00
1741.566,2689.00
1742.426,2705.00
1743.283,3079.00
1744.142,2561.00
1745.001,2346.00
1745.858,2879.00
1746.717,2751.00
1747.576,2750.00
1748.433,2850.00
1749.292,3200.00
1750.150,3231.00
1751.007,2903.00
1751.865,2921.00
1752.723,2684.00
1753.579,2584.00
1754.438,2902.00
1755.296,2891.00
1756.152,2255.00
1757.010,2409.00
1757.865,2836.00
1758.723,2316.00
1759.581,3002.00
1760.436,2602.00
1761.294,3031.00
1762.151,2656.00
1763.006,2656.00
1763.864,2293.00
1764.721,2832.00
1765.576,2698.00
1766.433,2808.00
1767.288,2604.00
1768.144,2702.00
1769.001,2613.00
1769.856,2761.00
1770.712,2897.00
1771.568,2457.00
1772.423,2561.00
1773.279,2599.00
1774.133,2586.00
1774.989,3078.00
1775.845,3018.00
1776.699,2890.00
1777.555,2650.00
1778.409,3180.00
1779.265,2669.00
1780.120,2645.00
1780.974,2645.00
1781.829,2260.00
1782.682,2725.00
1783.538,2514.00
1784.393,2715.00
1785.246,2571.00
1786.101,2761.00
1786.954,2790.00
1787.808,2872.00
1788.661,2406.00
1789.516,2591.00
1790.370,2590.00
1791.223,2872.00
1792.077,2649.00
1792.930,2752.00
1793.784,2534.00
1794.636,2701.00
1795.490,2621.00
1796.344,2723.00
1797.196,2664.00
1798.049,2840.00
1798.901,2578.00
1799.755,2911.00
1800.606,2490.00
1801.460,3196.00
1802.311,2961.00
1803.165,3101.00
1804.018,3026.00
1804.869,2748.00
1805.722,3129.00
1806.573,2718.00
1807.426,2506.00
1808.276,2712.00
1809.129,2605.00
1809.980,2863.00
1810.832,2972.00
1811.683,2636.00
1812.535,2988.00
1813.385,2630.00
1814.237,2943.00
1815.089,2749.00
1815.940,2972.00
1816.791,2649.00
1817.641,2545.00
1818.493,2819.00
1819.343,2738.00
1820.194,2568.00
1821.044,2779.00
1821.895,2903.00
1822.745,2399.00
1823.596,2593.00
1824.445,3101.00
1825.296,2770.00
1826.145,2670.00
1826.996,2851.00
1827.845,2719.00
1828.695,2751.00
1829.544,2676.00
1830.395,2713.00
1831.243,2591.00
1832.094,2427.00
1832.942,3290.00
1833.792,2816.00
1834.640,2754.00
1835.490,2694.00
1836.338,2718.00
1837.186,2549.00
1838.036,2560.00
1838.884,2672.00
1839.733,2993.00
1840.581,2825.00
1841.430,2815.00
1842.278,3033.00
1843.127,2553.00
1843.974,2351.00
1844.823,3115.00
1845.671,2827.00
1846.519,2726.00
1847.366,2778.00
1848.213,2335.00
1849.062,2534.00
1849.909,2402.00
1850.757,3336.00
1851.604,2780.00
1852.452,2578.00
1853.298,2860.00
1854.146,2749.00
1854.993,2733.00
1855.839,3161.00
1856.687,2828.00
1857.532,2828.00
1858.380,2715.00
1859.226,2779.00
1860.073,2823.00
1860.919,2549.00
1861.765,2577.00
1862.612,2987.00
1863.457,2911.00
1864.304,2643.00
1865.150,2787.00
1865.995,2707.00
1866.842,2831.00
1867.686,2942.00
1868.533,2794.00
1869.378,2767.00
1870.223,2695.00
1871.069,2579.00
1871.914,2744.00
1872.760,2672.00
1873.604,2466.00
1874.448,2827.00
1875.294,2890.00
1876.139,2604.00
1876.984,2805.00
1877.828,2373.00
1878.672,2211.00
1879.518,2581.00
1880.361,2873.00
1881.205,2835.00
1882.050,2499.00
1882.894,3203.00
1883.739,2543.00
1884.582,2459.00
1885.425,2495.00
1886.270,2959.00
1887.113,2451.00
1887.956,2803.00
1888.801,2726.00
1889.644,2514.00
1890.486,2279.00
1891.331,2650.00
1892.173,2770.00
1893.017,2748.00
1893.860,2961.00
1894.702,2967.00
1895.546,2712.00
1896.388,3356.00
1897.230,3048.00
1898.074,2598.00
1898.916,2506.00
1899.757,2520.00
1900.601,3344.00
1901.443,3016.00
1902.284,2988.00
1903.125,3124.00
1903.969,2880.00
1904.810,2916.00
1905.651,2800.00
1906.494,3024.00
1907.335,3140.00
1908.176,2820.00
1909.018,2792.00
1909.859,2665.00
1910.700,2521.00
1911.542,3200.00
1912.383,2760.00
1913.223,2328.00
1914.064,2843.00
1914.906,2978.00
1915.746,3016.00
1916.586,3188.00
1917.428,2681.00
1918.268,2763.00
1919.107,2617.00
1919.947,2504.00
1920.789,2588.00
1921.628,2898.00
1922.468,2743.00
1923.309,2539.00
1924.148,2981.00
1924.988,2792.00
1925.827,2700.00
1926.667,2610.00
1927.507,2751.00
1928.345,2559.00
1929.184,2837.00
1930.025,2500.00
1930.864,2925.00
1931.702,3035.00
1932.541,2651.00
1933.381,2802.00
1934.219,2860.00
1935.057,2971.00
1935.896,2399.00
1936.735,2639.00
1937.573,2584.00
1938.411,2489.00
1939.249,2887.00
1940.089,2598.00
1940.927,2922.00
1941.764,3000.00
1942.602,2631.00
1943.439,2574.00
1944.278,2664.00
1945.115,2645.00
1945.953,2449.00
1946.790,2767.00
1947.628,3060.00
1948.465,2833.00
1949.302,2847.00
1950.139,2862.00
1950.976,2594.00
1951.814,2877.00
1952.651,2770.00
1953.487,2506.00
1954.323,2988.00
1955.160,2665.00
1955.998,3050.00
1956.834,2708.00
1957.670,2797.00
1958.506,2901.00
1959.342,2794.00
1960.177,2785.00
1961.015,2844.00
1961.850,2759.00
1962.686,2790.00
1963.521,2752.00
1964.357,2958.00
1965.192,2477.00
1966.029,2846.00
1966.864,2616.00
1967.699,2933.00
1968.534,2721.00
1969.369,2998.00
1970.204,2685.00
1971.040,2736.00
1971.875,2667.00
1972.709,2731.00
1973.544,2565.00
1974.378,2606.00
1975.212,2796.00
1976.047,2603.00
1976.882,2591.00
1977.716,3079.00
1978.550,2429.00
1979.384,2709.00
1980.218,2658.00
1981.052,2655.00
1981.885,2754.00
1982.719,2718.00
1983.554,2870.00
1984.388,3021.00
1985.221,2775.00
1986.054,2948.00
1986.887,2744.00
1987.720,2552.00
1988.553,3046.00
1989.386,2782.00
1990.219,2841.00
1991.053,3052.00
1991.886,2609.00
1992.719,2937.00
1993.551,2268.00
1994.383,2859.00
1995.216,2664.00
1996.048,2435.00
1996.880,2863.00
1997.712,2616.00
1998.544,2699.00
1999.376,2773.00
2000.208,3002.00
