RamanScope Measure Spectrum Data V3.72

<< MEASURE CONDITION >>
Exposure Type,Aver
Exposure Time [sec],15
Exposure Count,4
Measure Time,2023/09/19 09:24:13
Data Name,""
Data Comment,""
Rayleigh Wave[nm],532.0

<< SAMPLE SPECTRUM >>
Wave[dcm-1],No210
146.591,1004.00
147.626,1148.75
148.664,1431.75
149.699,1699.75
150.737,1988.50
151.772,2300.25
152.809,2576.25
153.846,2885.00
154.881,3172.00
155.918,3510.50
156.953,3696.75
157.989,3911.25
159.026,4132.25
160.060,4337.75
161.096,4410.75
162.130,4572.00
163.167,4651.00
164.200,4789.75
165.236,4819.75
166.272,4905.25
167.305,5018.25
168.341,5114.50
169.374,5202.50
170.409,5288.75
171.445,5328.00
172.477,5439.50
173.512,5503.50
174.545,5582.75
175.580,5711.25
176.614,5808.50
177.647,5794.00
178.681,5826.00
179.713,5852.00
180.747,5832.00
181.781,5821.50
182.813,5744.25
183.847,5780.75
184.878,5726.25
185.912,5706.00
186.945,5710.50
187.976,5760.25
189.010,5679.00
190.043,5696.25
191.073,5752.50
192.106,5754.75
193.137,5786.50
194.170,5850.50
195.202,5936.25
196.232,5976.75
197.265,6011.00
198.297,6018.75
199.327,6160.75
200.359,6171.25
201.388,6223.00
202.420,6250.25
203.452,6321.75
204.481,6415.00
205.512,6529.25
206.544,6550.25
207.573,6652.00
208.604,6790.00
209.635,7002.00
210.663,7074.75
211.694,7250.00
212.725,7452.50
213.753,7647.50
214.783,7899.00
215.813,8105.25
216.841,8332.50
217.871,8685.75
218.899,8955.25
219.929,9214.50
220.959,9418.50
221.986,9468.50
223.016,9428.50
224.045,9397.25
225.072,9247.75
226.101,9009.75
227.130,8820.75
228.157,8489.50
229.185,8246.50
230.214,7976.25
231.241,7782.25
232.269,7672.25
233.297,7446.75
234.323,7361.75
235.351,7256.75
236.379,7159.00
237.407,7132.75
238.433,7019.25
239.460,7099.00
240.488,7075.75
241.513,6994.50
242.540,7067.00
243.568,7103.00
244.592,7166.25
245.619,7286.00
246.646,7353.50
247.671,7401.25
248.697,7421.50
249.724,7389.75
250.748,7352.50
251.774,7252.25
252.801,7319.00
253.827,7164.50
254.850,7188.25
255.876,7138.75
256.902,7205.25
257.925,7193.00
258.951,7128.50
259.976,7236.50
260.999,7230.75
262.024,7208.00
263.049,7245.25
264.074,7269.50
265.097,7324.50
266.122,7397.50
267.146,7433.50
268.168,7488.00
269.193,7487.50
270.217,7564.25
271.241,7614.50
272.263,7723.00
273.287,7846.50
274.311,7904.50
275.332,7948.75
276.356,8053.50
277.379,8139.75
278.402,8216.75
279.424,8353.00
280.447,8376.00
281.470,8340.50
282.492,8363.25
283.513,8384.00
284.536,8237.50
285.558,8225.75
286.581,8140.25
287.601,8071.50
288.623,7888.50
289.645,7795.25
290.665,7741.00
291.687,7516.00
292.709,7500.75
293.730,7358.50
294.750,7250.00
295.771,7115.50
296.792,7054.00
297.813,6925.00
298.832,6858.00
299.853,6759.50
300.874,6683.75
301.895,6561.50
302.913,6477.25
303.934,6458.50
304.954,6320.50
305.975,6235.75
306.993,6216.00
308.013,6061.75
309.033,6047.25
310.052,5950.50
311.072,5939.00
312.090,5817.50
313.109,5833.00
314.129,5761.50
315.148,5711.75
316.165,5673.50
317.184,5678.50
318.203,5653.50
319.222,5551.50
320.238,5527.00
321.257,5485.50
322.275,5487.50
323.294,5386.50
324.312,5400.50
325.328,5337.50
326.346,5337.75
327.364,5345.00
328.382,5299.25
329.397,5287.25
330.415,5238.50
331.432,5293.00
332.450,5193.25
333.467,5204.25
334.482,5186.25
335.499,5123.25
336.516,5119.25
337.533,5121.75
338.547,5070.75
339.564,5019.75
340.580,5061.00
341.597,5137.75
342.613,5061.25
343.627,5020.00
344.643,5008.25
345.659,5021.75
346.675,4990.50
347.690,4983.75
348.704,4906.75
349.719,4923.00
350.735,4928.25
351.750,4933.00
352.765,4854.00
353.778,4914.00
354.793,4892.25
355.808,4965.50
356.822,4904.50
357.837,4847.00
358.851,4848.25
359.864,4916.75
360.878,4875.25
361.892,4837.50
362.906,4815.50
363.920,4870.00
364.932,4833.75
365.945,4860.00
366.959,4837.75
367.972,4812.00
368.986,4841.00
369.999,4820.00
371.010,4808.25
372.023,4803.50
373.036,4866.75
374.049,4851.50
375.061,4847.50
376.072,4887.00
377.084,4955.50
378.097,4965.50
379.109,4919.50
380.121,4938.25
381.133,4977.00
382.143,5004.00
383.155,4963.25
384.166,4967.75
385.178,4992.25
386.189,4993.00
387.201,5090.75
388.212,5064.25
389.221,5057.00
390.232,5019.00
391.243,4951.75
392.254,4993.75
393.264,5052.00
394.275,4952.25
395.283,4978.75
396.294,5006.25
397.304,4950.75
398.314,4975.00
399.324,4965.75
400.334,4955.75
401.344,4955.00
402.351,4862.25
403.361,4856.25
404.370,4833.00
405.380,4752.00
406.389,4773.75
407.398,4775.00
408.407,4759.25
409.414,4724.00
410.423,4722.25
411.431,4649.25
412.440,4687.75
413.448,4608.00
414.457,4583.25
415.465,4560.75
416.471,4497.75
417.479,4496.50
418.487,4555.25
419.495,4487.00
420.503,4512.25
421.510,4494.00
422.518,4497.25
423.525,4383.25
424.530,4496.25
425.537,4472.50
426.544,4493.75
427.551,4364.00
428.558,4338.75
429.565,4398.75
430.571,4408.00
431.578,4374.50
432.582,4426.25
433.588,4413.25
434.595,4401.50
435.601,4363.50
436.607,4345.00
437.612,4352.75
438.618,4350.00
439.624,4315.25
440.627,4391.50
441.633,4290.75
442.638,4358.75
443.643,4323.25
444.648,4382.75
445.653,4305.50
446.658,4348.75
447.663,4245.00
448.667,4334.75
449.672,4339.00
450.674,4359.50
451.678,4326.00
452.682,4375.50
453.687,4393.75
454.690,4315.25
455.694,4393.50
456.698,4383.75
457.702,4428.50
458.705,4456.75
459.709,4377.75
460.710,4392.00
461.713,4365.75
462.716,4429.50
463.719,4439.00
464.722,4385.50
465.725,4406.50
466.727,4417.75
467.730,4417.25
468.732,4498.25
469.735,4480.50
470.737,4431.75
471.737,4403.50
472.739,4429.50
473.741,4448.00
474.742,4434.50
475.744,4475.00
476.746,4470.50
477.747,4472.50
478.748,4447.25
479.750,4478.25
480.751,4496.50
481.752,4478.50
482.753,4531.25
483.751,4464.75
484.752,4469.25
485.753,4477.25
486.753,4496.50
487.753,4512.75
488.754,4517.75
489.754,4494.00
490.754,4445.25
491.754,4450.50
492.754,4458.75
493.753,4454.00
494.753,4452.00
495.752,4413.00
496.752,4452.50
497.749,4428.50
498.748,4493.50
499.747,4515.50
500.746,4416.50
501.745,4454.00
502.744,4391.50
503.742,4442.25
504.741,4385.75
505.739,4406.00
506.737,4443.75
507.735,4318.50
508.734,4322.25
509.732,4391.50
510.729,4365.75
511.727,4404.25
512.725,4305.25
513.720,4336.00
514.718,4380.75
515.715,4322.00
516.712,4296.00
517.709,4238.50
518.706,4253.50
519.703,4277.00
520.700,4331.50
521.696,4278.50
522.693,4238.50
523.689,4300.50
524.686,4124.50
525.682,4034.50
526.678,4034.50
527.674,4086.50
528.670,4063.75
529.666,4156.75
530.661,4243.50
531.657,4304.50
532.652,4282.75
533.648,4288.75
534.641,4324.00
535.636,4296.50
536.631,4470.50
537.626,4369.75
538.621,4328.50
539.616,4356.75
540.610,4321.25
541.605,4366.50
542.599,4382.75
543.593,4401.25
544.587,4356.50
545.581,4397.25
546.575,4399.75
547.569,4381.00
548.563,4379.25
549.557,4371.25
550.550,4354.00
551.543,4425.75
552.537,4424.75
553.530,4405.25
554.523,4437.00
555.516,4399.75
556.509,4397.75
557.502,4372.75
558.494,4343.00
559.487,4363.75
560.479,4448.25
561.472,4404.50
562.464,4399.00
563.456,4384.25
564.448,4446.25
565.440,4369.75
566.432,4386.75
567.423,4440.00
568.415,4393.50
569.404,4456.75
570.396,4500.75
571.387,4484.25
572.378,4497.75
573.369,4547.50
574.360,4579.00
575.351,4518.25
576.341,4537.25
577.332,4564.25
578.323,4580.50
579.313,4574.75
580.303,4604.00
581.293,4545.25
582.283,4607.00
583.273,4644.50
584.263,4619.00
585.253,4656.75
586.243,4651.00
587.232,4715.00
588.222,4686.50
589.211,4736.75
590.200,4745.25
591.189,4701.25
592.178,4702.25
593.167,4802.75
594.156,4739.00
595.145,4679.50
596.133,4701.00
597.122,4754.25
598.110,4765.00
599.098,4758.50
600.086,4744.50
601.074,4707.25
602.062,4748.25
603.050,4815.50
604.038,4788.50
605.025,4780.25
606.013,4730.75
607.000,4742.00
607.987,4753.25
608.975,4781.75
609.962,4821.25
610.949,4757.75
611.936,4792.25
612.922,4741.25
613.909,4773.00
614.895,4714.00
615.882,4762.00
616.868,4773.25
617.854,4692.75
618.841,4679.50
619.826,4703.75
620.812,4620.75
621.798,4647.75
622.784,4599.25
623.769,4593.75
624.755,4561.75
625.740,4621.00
626.725,4497.50
627.711,4539.75
628.698,4514.00
629.683,4564.75
630.667,4514.50
631.652,4468.50
632.637,4429.00
633.621,4425.25
634.606,4395.75
635.590,4343.25
636.574,4323.50
637.558,4342.50
638.542,4383.25
639.526,4308.00
640.510,4255.50
641.493,4269.00
642.477,4246.25
643.460,4219.00
644.444,4274.75
645.427,4225.50
646.410,4220.75
647.393,4197.00
648.376,4188.25
649.359,4121.50
650.341,4150.50
651.324,4226.75
652.307,4120.75
653.289,4090.00
654.271,4098.50
655.253,4120.75
656.235,4135.00
657.217,4070.00
658.199,4083.50
659.181,4002.25
660.163,4030.75
661.144,4008.50
662.126,4003.25
663.107,4009.50
664.088,4008.00
665.069,3975.75
666.050,4076.50
667.033,3957.25
668.014,3934.25
668.995,3948.25
669.975,3950.25
670.956,3919.50
671.936,3978.75
672.916,3950.00
673.896,3864.00
674.876,3865.25
675.856,3903.75
676.836,3871.25
677.816,3804.25
678.795,3800.25
679.775,3708.00
680.754,3782.25
681.734,3785.25
682.713,3772.00
683.692,3778.00
684.671,3745.50
685.650,3742.00
686.629,3778.75
687.607,3666.00
688.586,3735.50
689.564,3707.50
690.543,3711.50
691.523,3612.25
692.501,3645.25
693.479,3610.75
694.457,3575.00
695.435,3583.25
696.413,3583.50
697.390,3570.00
698.368,3517.25
699.345,3549.25
700.322,3498.75
701.300,3523.50
702.277,3512.50
703.254,3590.00
704.231,3550.00
705.207,3505.75
706.184,3499.25
707.161,3526.50
708.137,3500.25
709.113,3564.25
710.090,3484.00
711.068,3506.00
712.044,3431.25
713.020,3482.00
713.996,3517.50
714.971,3498.25
715.947,3450.75
716.922,3455.75
717.898,3542.50
718.873,3470.75
719.848,3469.00
720.823,3519.00
721.798,3398.25
722.773,3442.75
723.748,3477.75
724.723,3489.50
725.697,3485.25
726.672,3442.25
727.646,3490.00
728.622,3466.25
729.596,3456.00
730.570,3473.75
731.544,3440.75
732.518,3477.75
733.492,3474.00
734.466,3543.25
735.439,3498.25
736.413,3496.75
737.386,3487.75
738.359,3469.75
739.332,3468.00
740.305,3477.00
741.278,3535.00
742.251,3494.00
743.224,3424.75
744.196,3512.50
745.171,3449.50
746.143,3515.50
747.115,3509.25
748.087,3463.75
749.059,3502.50
750.031,3509.00
751.003,3558.00
751.975,3537.50
752.947,3534.25
753.918,3484.00
754.890,3527.25
755.861,3557.50
756.832,3496.75
757.803,3454.75
758.774,3462.25
759.747,3483.00
760.718,3559.50
761.689,3490.00
762.659,3469.25
763.630,3449.00
764.600,3462.50
765.570,3508.25
766.540,3546.00
767.510,3545.75
768.480,3421.75
769.450,3469.50
770.420,3502.25
771.390,3445.50
772.359,3449.75
773.329,3422.25
774.300,3421.50
775.269,3390.25
776.238,3440.75
777.207,3409.25
778.176,3366.25
779.145,3413.00
780.114,3379.25
781.083,3376.00
782.051,3359.25
783.019,3323.00
783.988,3303.50
784.956,3308.25
785.924,3297.50
786.894,3291.75
787.862,3285.25
788.830,3232.50
789.797,3239.00
790.765,3217.25
791.732,3196.25
792.700,3214.75
793.667,3159.25
794.634,3103.50
795.601,3120.75
796.568,3126.00
797.535,3069.75
798.502,3132.75
799.468,3032.75
800.437,3027.00
801.403,3048.00
802.370,3101.00
803.336,2963.00
804.302,2968.75
805.268,3007.50
806.234,2938.25
807.200,2888.75
808.166,2930.50
809.131,2912.00
810.097,2884.75
811.062,2839.25
812.027,2908.75
812.994,2873.25
813.960,2799.75
814.925,2830.00
815.889,2783.50
816.854,2723.00
817.819,2740.75
818.783,2727.00
819.748,2697.75
820.712,2675.25
821.677,2712.25
822.641,2707.50
823.605,2704.00
824.571,2660.25
825.534,2660.50
826.498,2648.00
827.462,2678.75
828.425,2712.25
829.389,2678.00
830.352,2581.50
831.315,2653.50
832.279,2614.50
833.242,2651.50
834.204,2566.75
835.167,2601.25
836.132,2501.25
837.095,2595.50
838.057,2565.50
839.020,2613.75
839.982,2571.00
840.944,2563.00
841.906,2552.00
842.868,2547.00
843.830,2530.25
844.792,2524.25
845.753,2491.75
846.715,2496.25
847.679,2530.75
848.640,2512.00
849.601,2480.75
850.562,2526.75
851.523,2472.25
852.484,2503.50
853.445,2441.75
854.406,2442.25
855.367,2522.00
856.327,2493.75
857.288,2435.75
858.248,2449.25
859.210,2459.00
860.170,2459.00
861.130,2470.25
862.090,2451.00
863.050,2362.25
864.010,2436.25
864.969,2411.50
865.929,2432.25
866.888,2420.75
867.848,2409.75
868.807,2373.00
869.766,2364.50
870.727,2453.00
871.686,2430.75
872.645,2364.50
873.604,2335.25
874.562,2405.00
875.521,2400.75
876.479,2395.75
877.437,2382.75
878.396,2396.00
879.354,2410.25
880.312,2418.50
881.270,2348.25
882.229,2426.50
883.187,2367.50
884.145,2398.75
885.102,2337.25
886.059,2330.00
887.017,2390.00
887.974,2341.50
888.931,2364.50
889.888,2320.75
890.845,2383.75
891.802,2371.75
892.758,2371.75
893.717,2350.75
894.673,2373.25
895.630,2310.00
896.586,2440.25
897.542,2354.00
898.498,2365.00
899.454,2395.50
900.410,2341.75
901.366,2355.25
902.321,2391.50
903.277,2386.50
904.232,2331.25
905.189,2350.25
906.145,2362.00
907.100,2372.25
908.055,2364.50
909.010,2312.25
909.965,2332.25
910.919,2360.50
911.874,2379.75
912.828,2406.25
913.783,2367.75
914.737,2360.00
915.693,2346.50
916.648,2416.50
917.602,2382.25
918.555,2379.25
919.509,2338.50
920.463,2349.50
921.417,2345.75
922.370,2375.50
923.324,2361.00
924.277,2332.50
925.230,2336.25
926.183,2353.00
927.138,2343.50
928.091,2331.00
929.044,2378.75
929.996,2330.00
930.949,2341.25
931.902,2336.75
932.854,2350.75
933.806,2371.00
934.758,2374.25
935.711,2306.00
936.663,2367.25
937.614,2340.00
938.568,2302.50
939.520,2360.25
940.471,2307.50
941.423,2338.75
942.374,2302.50
943.326,2316.50
944.277,2386.25
945.228,2309.25
946.179,2318.00
947.130,2314.25
948.080,2292.75
949.031,2336.75
949.984,2249.75
950.934,2328.25
951.884,2313.75
952.835,2261.50
953.785,2296.25
954.735,2271.50
955.685,2269.75
956.635,2233.00
957.585,2222.50
958.534,2226.00
959.484,2243.00
960.433,2271.75
961.383,2262.50
962.334,2245.50
963.283,2203.50
964.232,2216.50
965.181,2218.75
966.130,2229.50
967.079,2183.50
968.027,2177.50
968.976,2177.25
969.924,2169.00
970.873,2214.25
971.821,2195.50
972.769,2154.75
973.719,2208.00
974.667,2207.25
975.615,2220.00
976.562,2137.50
977.510,2219.00
978.458,2189.50
979.405,2176.75
980.352,2197.50
981.300,2166.50
982.247,2170.75
983.194,2134.50
984.141,2148.75
985.088,2197.25
986.036,2114.50
986.983,2189.25
987.930,2075.75
988.876,2164.25
989.822,2120.75
990.769,2145.75
991.715,2223.75
992.661,2145.00
993.607,2154.75
994.553,2185.00
995.498,2146.50
996.444,2188.50
997.389,2146.00
998.337,2157.25
999.282,2170.50
1000.227,2130.50
1001.173,2129.25
1002.118,2175.00
1003.062,2101.75
1004.007,2108.25
1004.952,2126.50
1005.897,2111.00
1006.841,2140.75
1007.786,2132.25
1008.730,2148.75
1009.674,2105.75
1010.618,2110.00
1011.564,2108.00
1012.508,2157.00
1013.452,2139.75
1014.396,2134.25
1015.339,2141.75
1016.283,2105.25
1017.226,2146.50
1018.170,2116.75
1019.113,2151.25
1020.056,2114.00
1020.999,2129.75
1021.942,2103.50
1022.885,2133.00
1023.828,2122.75
1024.770,2150.25
1025.715,2149.00
1026.657,2117.50
1027.600,2104.50
1028.542,2087.50
1029.484,2103.00
1030.426,2166.25
1031.368,2110.25
1032.310,2155.75
1033.251,2124.00
1034.193,2176.25
1035.135,2110.25
1036.076,2066.00
1037.017,2068.00
1037.959,2113.00
1038.900,2134.25
1039.843,2105.25
1040.784,2162.50
1041.725,2106.50
1042.665,2180.50
1043.606,2180.50
1044.547,2199.25
1045.487,2146.00
1046.427,2178.50
1047.368,2168.50
1048.308,2145.25
1049.248,2169.50
1050.188,2191.50
1051.128,2144.25
1052.067,2181.00
1053.007,2138.50
1053.947,2212.50
1054.886,2168.75
1055.827,2186.75
1056.766,2155.50
1057.706,2194.00
1058.645,2198.50
1059.584,2197.50
1060.522,2194.00
1061.461,2213.50
1062.400,2198.75
1063.338,2199.75
1064.277,2204.50
1065.215,2225.25
1066.154,2233.75
1067.092,2233.00
1068.030,2255.00
1068.968,2209.75
1069.906,2218.00
1070.843,2238.00
1071.781,2237.00
1072.720,2282.50
1073.658,2232.00
1074.595,2305.75
1075.533,2247.50
1076.470,2248.50
1077.407,2239.75
1078.344,2255.75
1079.281,2262.25
1080.217,2263.25
1081.154,2244.25
1082.091,2299.25
1083.027,2245.75
1083.964,2261.25
1084.900,2243.25
1085.836,2297.00
1086.772,2288.00
1087.708,2284.75
1088.644,2276.25
1089.580,2253.75
1090.515,2304.25
1091.451,2342.25
1092.388,2294.00
1093.324,2260.25
1094.259,2259.75
1095.194,2211.00
1096.129,2263.75
1097.064,2266.75
1097.999,2341.75
1098.934,2285.75
1099.869,2262.75
1100.803,2217.00
1101.738,2224.50
1102.672,2225.00
1103.607,2233.75
1104.541,2235.25
1105.475,2205.75
1106.409,2216.50
1107.343,2180.50
1108.277,2207.50
1109.210,2189.50
1110.144,2143.00
1111.078,2154.25
1112.011,2133.25
1112.944,2169.25
1113.878,2155.50
1114.811,2162.50
1115.744,2150.75
1116.678,2110.75
1117.611,2131.25
1118.544,2093.75
1119.477,2141.50
1120.409,2092.00
1121.342,2109.50
1122.274,2059.25
1123.206,2092.75
1124.138,2121.50
1125.070,2039.25
1126.002,2076.25
1126.934,2065.25
1127.866,2083.00
1128.798,2093.50
1129.729,2081.25
1130.661,2069.00
1131.592,2009.00
1132.523,1992.25
1133.454,2014.00
1134.385,2024.75
1135.317,2031.00
1136.247,2041.25
1137.178,2007.25
1138.109,1975.50
1139.039,1994.00
1139.970,2011.00
1140.900,1974.75
1141.831,1980.25
1142.761,1969.50
1143.691,1988.75
1144.621,1955.25
1145.551,1960.25
1146.480,1957.50
1147.410,1975.75
1148.340,1965.00
1149.269,1968.25
1150.199,1943.00
1151.128,1935.00
1152.057,1960.75
1152.979,1903.75
1153.898,1882.00
1154.819,1904.75
1155.739,1998.50
1156.658,1915.00
1157.579,1892.00
1158.498,1920.50
1159.419,1890.75
1160.338,1891.25
1161.256,1895.00
1162.177,1875.75
1163.095,1916.75
1164.016,1865.25
1164.934,1871.00
1165.852,1911.75
1166.772,1849.00
1167.690,1850.75
1168.610,1863.00
1169.528,1826.50
1170.446,1892.50
1171.365,1888.00
1172.283,1886.75
1173.202,1832.50
1174.120,1846.00
1175.037,1861.00
1175.956,1862.25
1176.873,1887.00
1177.792,1789.75
1178.709,1857.75
1179.626,1826.00
1180.544,1825.75
1181.461,1796.25
1182.379,1821.25
1183.296,1828.50
1184.212,1835.75
1185.130,1851.00
1186.046,1801.25
1186.962,1865.00
1187.880,1834.50
1188.796,1833.00
1189.714,1876.50
1190.629,1844.25
1191.545,1813.00
1192.462,1797.50
1193.378,1795.25
1194.295,1825.00
1195.210,1841.75
1196.125,1773.25
1197.042,1847.00
1197.957,1848.75
1198.872,1844.50
1199.788,1756.00
1200.703,1776.00
1201.619,1790.25
1202.534,1790.00
1203.448,1796.75
1204.364,1885.50
1205.278,1830.75
1206.192,1824.25
1207.108,1790.75
1208.022,1793.75
1208.938,1825.50
1209.851,1802.25
1210.765,1797.75
1211.680,1816.00
1212.594,1841.25
1213.507,1817.50
1214.422,1850.00
1215.335,1799.25
1216.248,1829.75
1217.163,1846.00
1218.076,1833.00
1218.990,1814.00
1219.903,1810.00
1220.816,1832.25
1221.730,1861.50
1222.642,1823.50
1223.554,1838.25
1224.469,1834.25
1225.380,1878.00
1226.292,1831.00
1227.206,1795.75
1228.118,1832.25
1229.032,1835.75
1229.943,1801.50
1230.855,1864.50
1231.768,1883.75
1232.679,1862.75
1233.590,1891.75
1234.503,1851.75
1235.414,1858.00
1236.325,1843.25
1237.238,1834.75
1238.149,1853.75
1239.059,1879.50
1239.972,1837.25
1240.882,1849.25
1241.793,1863.50
1242.705,1877.75
1243.615,1885.00
1244.525,1884.00
1245.437,1883.75
1246.347,1873.25
1247.259,1859.25
1248.168,1838.25
1249.078,1850.75
1249.989,1859.00
1250.899,1877.00
1251.808,1851.50
1252.719,1921.50
1253.628,1902.00
1254.537,1905.75
1255.448,1930.25
1256.357,1939.25
1257.266,1905.50
1258.176,1943.75
1259.085,1910.00
1259.993,1948.75
1260.904,1963.00
1261.812,1930.50
1262.720,1872.50
1263.630,1972.25
1264.538,1953.00
1265.446,1934.25
1266.356,1954.25
1267.263,1959.50
1268.171,1914.00
1269.080,1966.50
1269.988,1893.75
1270.895,1946.25
1271.804,1977.75
1272.711,1942.25
1273.619,1959.75
1274.527,1924.75
1275.434,1956.75
1276.341,1937.75
1277.248,1968.00
1278.156,1921.00
1279.063,1930.00
1279.969,1903.50
1280.877,1933.25
1281.783,1928.50
1282.690,1915.75
1283.598,1890.75
1284.503,1932.50
1285.409,1916.25
1286.317,1925.50
1287.223,1955.00
1288.128,1963.00
1289.036,1873.75
1289.941,1952.00
1290.846,1890.50
1291.751,1942.25
1292.658,1911.25
1293.563,1900.75
1294.468,1910.50
1295.375,1898.50
1296.280,1959.00
1297.184,1899.25
1298.091,1894.75
1298.995,1867.75
1299.900,1929.25
1300.806,1878.25
1301.710,1891.75
1302.614,1895.25
1303.518,1874.50
1304.424,1859.75
1305.327,1870.50
1306.231,1874.75
1307.137,1869.75
1308.040,1856.75
1308.943,1866.25
1309.847,1885.25
1310.752,1870.75
1311.655,1874.00
1312.558,1839.75
1313.463,1824.75
1314.366,1854.25
1315.269,1846.50
1316.171,1803.50
1317.076,1801.25
1317.978,1812.00
1318.881,1816.00
1319.785,1798.50
1320.687,1803.25
1321.589,1804.75
1322.491,1770.75
1323.395,1807.00
1324.297,1769.00
1325.198,1786.00
1326.102,1805.50
1327.004,1783.75
1327.905,1760.50
1328.806,1738.75
1329.709,1745.50
1330.611,1735.75
1331.512,1716.00
1332.413,1761.75
1333.316,1778.00
1334.216,1700.00
1335.117,1664.00
1336.020,1744.75
1336.920,1689.25
1337.821,1693.50
1338.721,1657.25
1339.623,1690.50
1340.523,1688.50
1341.423,1712.75
1342.323,1711.50
1343.225,1662.25
1344.125,1703.50
1345.025,1666.75
1345.924,1664.25
1346.826,1673.50
1347.725,1655.75
1348.624,1669.25
1349.524,1621.25
1350.425,1617.25
1351.324,1619.50
1352.223,1612.75
1353.121,1594.00
1354.022,1667.00
1354.921,1684.50
1355.819,1612.00
1356.718,1606.00
1357.618,1623.50
1358.516,1604.25
1359.415,1552.25
1360.313,1610.00
1361.213,1578.50
1362.111,1569.75
1363.008,1563.50
1363.906,1620.25
1364.806,1541.75
1365.703,1597.75
1366.601,1523.25
1367.498,1596.50
1368.397,1548.50
1369.295,1576.25
1370.192,1518.25
1371.089,1573.75
1371.987,1555.50
1372.884,1512.50
1373.781,1572.25
1374.678,1586.75
1375.574,1561.00
1376.473,1581.75
1377.369,1497.75
1378.265,1538.00
1379.161,1565.25
1380.059,1528.25
1380.955,1517.75
1381.851,1521.00
1382.747,1560.75
1383.643,1535.25
1384.540,1550.25
1385.436,1528.25
1386.331,1524.00
1387.227,1517.50
1388.124,1570.00
1389.019,1524.25
1389.914,1512.00
1390.809,1545.50
1391.704,1517.50
1392.601,1532.25
1393.495,1513.75
1394.390,1525.50
1395.285,1523.75
1396.179,1513.00
1397.075,1530.75
1397.969,1529.25
1398.864,1539.25
1399.758,1509.00
1400.652,1535.25
1401.547,1526.00
1402.441,1492.25
1403.335,1484.00
1404.229,1483.50
1405.122,1524.00
1406.017,1480.75
1406.911,1481.75
1407.804,1431.75
1408.697,1524.75
1409.590,1518.25
1410.485,1551.75
1411.378,1494.50
1412.271,1461.25
1413.163,1407.25
1414.056,1499.00
1414.949,1475.00
1415.843,1486.50
1416.735,1490.00
1417.627,1551.25
1418.520,1498.50
1419.412,1470.75
1420.306,1502.50
1421.197,1450.25
1422.089,1479.25
1422.981,1446.75
1423.873,1439.25
1424.764,1514.50
1425.657,1472.25
1426.549,1408.25
1427.440,1518.00
1428.331,1495.00
1429.222,1480.50
1430.113,1479.75
1431.006,1462.25
1431.897,1515.75
1432.787,1439.00
1433.678,1500.75
1434.568,1500.50
1435.459,1485.25
1436.351,1475.25
1437.241,1488.50
1438.131,1440.75
1439.021,1493.25
1439.911,1469.25
1440.801,1474.75
1441.693,1433.00
1442.583,1433.75
1443.472,1443.00
1444.362,1493.75
1445.251,1457.50
1446.140,1528.75
1447.030,1455.75
1447.921,1496.25
1448.810,1431.00
1449.699,1483.75
1450.588,1445.75
1451.476,1408.50
1452.365,1453.50
1453.254,1445.50
1454.144,1450.75
1455.032,1440.50
1455.921,1457.25
1456.809,1489.25
1457.697,1482.25
1458.585,1457.50
1459.473,1492.75
1460.361,1451.00
1461.251,1501.25
1462.138,1488.00
1463.026,1457.25
1463.913,1429.75
1464.801,1440.25
1465.688,1454.75
1466.575,1497.50
1467.463,1439.25
1468.351,1467.00
1469.238,1487.25
1470.125,1451.50
1471.012,1433.50
1471.899,1453.00
1472.785,1441.75
1473.672,1481.00
1474.558,1438.50
1475.446,1414.25
1476.333,1440.25
1477.219,1447.00
1478.105,1436.50
1478.991,1450.50
1479.877,1473.25
1480.762,1485.00
1481.648,1478.25
1482.534,1438.25
1483.419,1437.75
1484.307,1476.75
1485.192,1381.50
1486.077,1424.00
1486.962,1423.00
1487.847,1447.25
1488.732,1440.00
1489.617,1444.75
1490.502,1399.75
1491.387,1430.75
1492.271,1440.75
1493.156,1402.25
1494.042,1427.25
1494.927,1442.50
1495.811,1428.75
1496.695,1427.75
1497.579,1445.25
1498.463,1420.00
1499.347,1432.25
1500.231,1404.25
1501.114,1449.50
1501.998,1415.00
1502.881,1380.25
1503.765,1349.75
1504.648,1301.75
1505.533,1295.50
1506.417,1257.50
1507.300,1296.25
1508.183,1363.00
1509.066,1357.50
1509.948,1384.00
1510.831,1394.50
1511.714,1442.25
1512.596,1458.75
1513.479,1434.25
1514.361,1378.00
1515.243,1411.50
1516.125,1421.00
1517.008,1441.50
1517.890,1382.25
1518.771,1404.25
1519.655,1462.75
1520.537,1419.75
1521.419,1373.50
1522.300,1409.00
1523.182,1389.25
1524.063,1396.50
1524.944,1410.75
1525.825,1375.50
1526.707,1383.75
1527.588,1408.75
1528.468,1346.50
1529.349,1386.00
1530.230,1372.25
1531.111,1414.00
1531.991,1420.00
1532.872,1362.25
1533.752,1357.25
1534.632,1360.75
1535.513,1372.50
1536.393,1343.75
1537.273,1336.75
1538.153,1380.50
1539.032,1359.25
1539.912,1388.50
1540.792,1332.25
1541.672,1350.00
1542.551,1373.75
1543.430,1350.25
1544.310,1260.50
1545.189,1368.00
1546.068,1361.25
1546.947,1352.75
1547.826,1293.00
1548.705,1282.50
1549.584,1386.00
1550.462,1305.00
1551.341,1385.00
1552.219,1330.25
1553.098,1295.50
1553.976,1321.50
1554.854,1285.50
1555.733,1368.25
1556.611,1341.25
1557.489,1316.50
1558.367,1312.50
1559.244,1372.50
1560.122,1334.00
1561.000,1306.75
1561.877,1322.00
1562.755,1299.25
1563.632,1266.75
1564.509,1288.75
1565.386,1285.00
1566.264,1254.75
1567.141,1272.25
1568.017,1238.25
1568.894,1141.50
1569.771,1115.75
1570.648,1118.75
1571.524,1163.50
1572.401,1252.75
1573.277,1237.75
1574.153,1227.25
1575.029,1272.25
1575.906,1210.75
1576.781,1287.25
1577.657,1262.00
1578.533,1257.00
1579.409,1271.75
1580.285,1305.00
1581.160,1254.00
1582.036,1243.25
1582.911,1228.75
1583.786,1233.00
1584.662,1222.50
1585.537,1243.00
1586.412,1256.25
1587.287,1209.50
1588.160,1218.75
1589.035,1199.50
1589.909,1243.25
1590.784,1253.75
1591.658,1224.75
1592.533,1229.00
1593.407,1225.75
1594.281,1249.00
1595.155,1172.75
1596.029,1201.00
1596.903,1218.75
1597.777,1222.50
1598.651,1264.25
1599.525,1206.75
1600.398,1203.50
1601.272,1176.00
1602.144,1217.25
1603.017,1172.00
1603.890,1191.25
1604.763,1223.50
1605.636,1222.50
1606.509,1155.75
1607.382,1167.50
1608.255,1179.75
1609.128,1149.75
1610.000,1171.25
1610.873,1138.75
1611.746,1141.50
1612.616,1140.00
1613.488,1174.00
1614.361,1198.00
1615.233,1128.25
1616.105,1111.50
1616.977,1149.75
1617.849,1152.25
1618.720,1138.75
1619.592,1169.75
1620.464,1121.00
1621.333,1167.00
1622.205,1178.75
1623.076,1143.00
1623.947,1167.75
1624.818,1150.25
1625.689,1152.25
1626.560,1121.75
1627.431,1120.75
1628.302,1110.00
1629.171,1110.75
1630.042,1142.50
1630.912,1164.25
1631.782,1155.00
1632.653,1102.75
1633.523,1110.25
1634.393,1068.50
1635.263,1122.75
1636.131,1121.75
1637.001,1119.75
1637.871,1112.25
1638.741,1139.50
1639.611,1101.00
1640.480,1131.00
1641.350,1110.75
1642.219,1079.00
1643.087,1133.00
1643.956,1072.50
1644.825,1076.50
1645.694,1166.25
1646.563,1074.25
1647.432,1104.75
1648.299,1087.50
1649.167,1090.50
1650.036,1105.75
1650.904,1029.25
1651.773,1059.00
1652.641,1089.50
1653.509,1025.25
1654.376,1072.75
1655.244,1119.75
1656.112,1082.25
1656.980,1127.50
1657.847,1051.00
1658.715,1135.00
1659.581,1095.75
1660.448,1071.50
1661.316,1033.00
1662.183,1081.75
1663.051,1087.75
1663.918,1012.00
1664.783,1092.25
1665.650,1084.75
1666.517,1068.00
1667.384,1091.00
1668.251,1092.00
1669.115,1059.25
1669.982,1048.00
1670.849,1016.50
1671.715,1081.50
1672.581,1024.75
1673.446,1017.50
1674.312,1046.50
1675.178,1009.00
1676.044,1020.25
1676.910,1062.75
1677.774,1062.75
1678.639,1013.25
1679.505,1068.25
1680.370,1056.25
1681.236,993.00
1682.099,1047.25
1682.965,981.25
1683.830,1056.25
1684.695,1069.00
1685.560,1003.75
1686.423,994.00
1687.288,1037.25
1688.153,951.25
1689.017,985.00
1689.880,1014.75
1690.745,960.00
1691.609,1008.00
1692.473,1023.25
1693.338,986.50
1694.200,1002.25
1695.064,963.75
1695.928,966.50
1696.792,939.75
1697.654,918.00
1698.517,1001.75
1699.381,975.00
1700.245,990.75
1701.106,969.00
1701.969,994.25
1702.833,980.25
1703.696,992.75
1704.557,967.00
1705.420,980.00
1706.283,958.25
1707.146,979.75
1708.007,940.00
1708.870,952.50
1709.732,976.50
1710.595,977.00
1711.455,971.75
1712.318,958.50
1713.180,975.50
1714.040,970.50
1714.902,919.00
1715.764,973.75
1716.626,964.25
1717.486,1002.50
1718.348,932.50
1719.209,921.75
1720.071,937.75
1720.930,933.50
1721.792,898.50
1722.653,962.75
1723.512,978.25
1724.374,929.75
1725.234,909.50
1726.095,978.25
1726.954,942.75
1727.815,971.75
1728.676,929.50
1729.535,907.25
1730.395,979.25
1731.256,961.00
1732.114,945.75
1732.974,942.50
1733.834,962.50
1734.693,941.75
1735.553,908.00
1736.413,906.50
1737.272,934.50
1738.130,903.25
1738.990,949.00
1739.849,963.50
1740.707,878.00
1741.566,908.25
1742.426,921.00
1743.283,953.50
1744.142,878.50
1745.001,958.75
1745.858,947.75
1746.717,922.00
1747.576,927.50
1748.433,900.50
1749.292,899.25
1750.150,966.00
1751.007,935.75
1751.865,907.50
1752.723,914.50
1753.579,956.00
1754.438,901.50
1755.296,886.00
1756.152,920.75
1757.010,889.50
1757.865,896.50
1758.723,885.25
1759.581,927.75
1760.436,889.00
1761.294,926.25
1762.151,911.25
1763.006,863.75
1763.864,915.25
1764.721,904.75
1765.576,902.25
1766.433,925.00
1767.288,851.00
1768.144,873.75
1769.001,931.50
1769.856,876.00
1770.712,882.50
1771.568,878.50
1772.423,840.25
1773.279,884.50
1774.133,898.50
1774.989,896.75
1775.845,855.00
1776.699,893.00
1777.555,861.50
1778.409,872.50
1779.265,913.00
1780.120,878.25
1780.974,907.75
1781.829,827.00
1782.682,898.50
1783.538,869.50
1784.393,846.25
1785.246,867.75
1786.101,860.25
1786.954,862.50
1787.808,918.75
1788.661,888.75
1789.516,854.75
1790.370,875.75
1791.223,828.75
1792.077,840.75
1792.930,852.25
1793.784,870.00
1794.636,865.75
1795.490,854.75
1796.344,875.25
1797.196,850.25
1798.049,857.25
1798.901,823.75
1799.755,860.25
1800.606,841.75
1801.460,858.00
1802.311,908.50
1803.165,858.25
1804.018,891.50
1804.869,875.00
1805.722,793.50
1806.573,815.25
1807.426,816.25
1808.276,812.50
1809.129,806.50
1809.980,789.50
1810.832,755.25
1811.683,808.25
1812.535,791.25
1813.385,750.00
1814.237,794.00
1815.089,808.25
1815.940,793.25
1816.791,793.75
1817.641,778.50
1818.493,812.00
1819.343,756.00
1820.194,768.75
1821.044,792.25
1821.895,772.75
1822.745,743.75
1823.596,768.75
1824.445,778.00
1825.296,814.25
1826.145,740.75
1826.996,785.00
1827.845,822.00
1828.695,762.50
1829.544,802.00
1830.395,805.00
1831.243,833.50
1832.094,808.25
1832.942,782.25
1833.792,809.25
1834.640,816.75
1835.490,805.25
1836.338,770.50
1837.186,859.00
1838.036,780.50
1838.884,782.00
1839.733,786.00
1840.581,849.50
1841.430,807.75
1842.278,799.25
1843.127,796.25
1843.974,811.50
1844.823,840.50
1845.671,819.75
1846.519,827.25
1847.366,770.75
1848.213,793.25
1849.062,817.75
1849.909,821.75
1850.757,837.75
1851.604,797.75
1852.452,769.75
1853.298,827.00
1854.146,815.00
1854.993,807.50
1855.839,813.25
1856.687,794.75
1857.532,805.00
1858.380,803.75
1859.226,816.25
1860.073,778.00
1860.919,799.25
1861.765,791.75
1862.612,766.25
1863.457,782.00
1864.304,822.00
1865.150,811.75
1865.995,753.00
1866.842,843.25
1867.686,796.50
1868.533,837.75
1869.378,777.00
1870.223,795.25
1871.069,811.50
1871.914,756.25
1872.760,801.00
1873.604,824.75
1874.448,812.25
1875.294,837.50
1876.139,794.25
1876.984,809.50
1877.828,797.25
1878.672,754.75
1879.518,765.25
1880.361,835.00
1881.205,767.25
1882.050,805.00
1882.894,754.25
1883.739,771.50
1884.582,769.50
1885.425,735.75
1886.270,770.75
1887.113,737.00
1887.956,805.50
1888.801,780.25
1889.644,795.25
1890.486,793.50
1891.331,807.00
1892.173,769.25
1893.017,780.75
1893.860,722.00
1894.702,765.00
1895.546,771.50
1896.388,773.00
1897.230,767.75
1898.074,770.50
1898.916,774.25
1899.757,749.00
1900.601,779.75
1901.443,799.75
1902.284,750.25
1903.125,778.75
1903.969,790.00
1904.810,725.25
1905.651,812.75
1906.494,783.25
1907.335,745.00
1908.176,759.25
1909.018,762.75
1909.859,758.25
1910.700,786.50
1911.542,776.25
1912.383,780.25
1913.223,756.25
1914.064,806.00
1914.906,684.25
1915.746,757.75
1916.586,780.00
1917.428,776.75
1918.268,758.00
1919.107,782.50
1919.947,757.00
1920.789,755.00
1921.628,783.75
1922.468,791.75
1923.309,743.25
1924.148,807.50
1924.988,757.25
1925.827,777.50
1926.667,735.25
1927.507,802.00
1928.345,745.50
1929.184,805.00
1930.025,815.25
1930.864,770.25
1931.702,773.50
1932.541,752.50
1933.381,751.50
1934.219,785.25
1935.057,768.00
1935.896,755.75
1936.735,778.50
1937.573,763.00
1938.411,736.50
1939.249,762.50
1940.089,721.50
1940.927,761.50
1941.764,756.50
1942.602,733.75
1943.439,729.75
1944.278,771.75
1945.115,750.75
1945.953,744.50
1946.790,727.75
1947.628,773.00
1948.465,780.50
1949.302,718.75
1950.139,772.50
1950.976,770.75
1951.814,748.50
1952.651,710.50
1953.487,755.75
1954.323,735.00
1955.160,758.75
1955.998,709.75
1956.834,727.25
1957.670,709.75
1958.506,705.75
1959.342,722.25
1960.177,736.75
1961.015,728.75
1961.850,714.75
1962.686,710.75
1963.521,671.00
1964.357,718.00
1965.192,733.00
1966.029,717.25
1966.864,706.00
1967.699,687.75
1968.534,708.75
1969.369,680.50
1970.204,719.00
1971.040,725.25
1971.875,714.75
1972.709,756.00
1973.544,771.25
1974.378,707.50
1975.212,716.00
1976.047,695.00
1976.882,722.25
1977.716,726.75
1978.550,707.25
1979.384,697.50
1980.218,708.50
1981.052,697.50
1981.885,739.25
1982.719,707.75
1983.554,722.25
1984.388,700.25
1985.221,716.75
1986.054,652.25
1986.887,721.00
1987.720,664.25
1988.553,710.00
1989.386,748.25
1990.219,660.25
1991.053,665.50
1991.886,670.50
1992.719,691.50
1993.551,676.00
1994.383,721.25
1995.216,735.50
1996.048,706.50
1996.880,718.75
1997.712,657.75
1998.544,739.75
1999.376,671.00
2000.208,673.75
2000.208,673.75

Max Intensity Wave.,221.986
Max Intensity Data,9468.50
Min Intensity Wave.,1986.054
Min Intensity Data,652.25
FWHM Wave.,390.727
FWHM Value,21.69
Pressure Wave.,686.380
Pressure Value [GPa],-20.45194
G/D Ratio,0.73089
G/D Gband Wave.,1549.637
G/D Gband Intensity,1386.34
G/D Dband Wave.,1302.292
G/D Dband Intensity,1896.78
