RamanScope Measure Spectrum Data V3.72

<< MEASURE CONDITION >>
Exposure Type,Aver
Exposure Time [sec],15
Exposure Count,4
Measure Time,2023/07/15 16:39:59
Data Name,""
Data Comment,""
Rayleigh Wave[nm],532.0

<< SAMPLE SPECTRUM >>
Wave[dcm-1],No181
146.591,767.25
147.626,894.25
148.664,1065.75
149.699,1149.75
150.737,1325.50
151.772,1463.00
152.809,1598.00
153.846,1701.00
154.881,1839.00
155.918,1870.75
156.953,2024.50
157.989,2010.25
159.026,2099.50
160.060,2134.00
161.096,2226.00
162.130,2212.25
163.167,2265.25
164.200,2237.25
165.236,2353.50
166.272,2376.50
167.305,2445.00
168.341,2452.25
169.374,2497.75
170.409,2528.75
171.445,2540.75
172.477,2563.50
173.512,2587.50
174.545,2633.00
175.580,2637.75
176.614,2648.00
177.647,2650.00
178.681,2668.75
179.713,2650.50
180.747,2667.00
181.781,2622.00
182.813,2675.00
183.847,2730.25
184.878,2746.50
185.912,2689.00
186.945,2754.25
187.976,2800.25
189.010,2777.75
190.043,2798.50
191.073,2877.25
192.106,2905.75
193.137,2892.50
194.170,2947.50
195.202,2961.50
196.232,3045.25
197.265,3059.75
198.297,3134.00
199.327,3218.75
200.359,3182.75
201.388,3312.25
202.420,3397.25
203.452,3479.25
204.481,3538.00
205.512,3628.25
206.544,3734.75
207.573,3883.00
208.604,4024.25
209.635,4160.50
210.663,4267.50
211.694,4474.75
212.725,4645.25
213.753,4764.25
214.783,4950.00
215.813,4970.75
216.841,5048.00
217.871,5041.75
218.899,5056.25
219.929,5074.50
220.959,4856.75
221.986,4813.00
223.016,4626.25
224.045,4568.25
225.072,4380.75
226.101,4207.00
227.130,4115.50
228.157,4028.00
229.185,3949.75
230.214,3818.00
231.241,3751.25
232.269,3657.00
233.297,3684.50
234.323,3565.00
235.351,3555.50
236.379,3542.00
237.407,3569.75
238.433,3517.25
239.460,3511.25
240.488,3515.75
241.513,3481.50
242.540,3520.25
243.568,3601.00
244.592,3556.75
245.619,3644.25
246.646,3584.75
247.671,3554.75
248.697,3556.50
249.724,3643.00
250.748,3552.00
251.774,3551.00
252.801,3498.00
253.827,3557.50
254.850,3584.75
255.876,3562.00
256.902,3575.75
257.925,3641.75
258.951,3659.50
259.976,3706.25
260.999,3726.25
262.024,3756.50
263.049,3780.00
264.074,3798.50
265.097,3953.75
266.122,3964.25
267.146,3943.50
268.168,4055.50
269.193,4107.75
270.217,4127.75
271.241,4140.75
272.263,4219.50
273.287,4255.50
274.311,4278.25
275.332,4352.00
276.356,4342.00
277.379,4285.25
278.402,4298.50
279.424,4274.50
280.447,4319.50
281.470,4174.50
282.492,4194.75
283.513,4128.25
284.536,4053.50
285.558,4017.50
286.581,3931.00
287.601,3901.00
288.623,3818.00
289.645,3801.50
290.665,3709.25
291.687,3688.75
292.709,3571.50
293.730,3517.25
294.750,3477.00
295.771,3441.75
296.792,3356.00
297.813,3327.50
298.832,3290.25
299.853,3272.75
300.874,3206.00
301.895,3155.25
302.913,3149.50
303.934,3038.50
304.954,3028.25
305.975,3005.50
306.993,2969.00
308.013,2932.50
309.033,2945.75
310.052,2890.00
311.072,2854.50
312.090,2877.75
313.109,2887.50
314.129,2802.50
315.148,2804.25
316.165,2787.75
317.184,2734.25
318.203,2724.75
319.222,2697.50
320.238,2683.25
321.257,2711.00
322.275,2703.50
323.294,2654.25
324.312,2689.75
325.328,2666.75
326.346,2633.75
327.364,2599.00
328.382,2643.25
329.397,2591.25
330.415,2610.75
331.432,2612.75
332.450,2594.25
333.467,2567.25
334.482,2567.50
335.499,2570.75
336.516,2547.75
337.533,2564.75
338.547,2522.75
339.564,2523.25
340.580,2488.00
341.597,2525.00
342.613,2503.00
343.627,2530.75
344.643,2488.00
345.659,2537.25
346.675,2503.75
347.690,2577.50
348.704,2534.00
349.719,2482.50
350.735,2476.75
351.750,2487.75
352.765,2486.50
353.778,2524.00
354.793,2500.50
355.808,2480.25
356.822,2514.25
357.837,2510.75
358.851,2518.50
359.864,2515.25
360.878,2523.00
361.892,2547.75
362.906,2510.50
363.920,2526.25
364.932,2548.00
365.945,2558.50
366.959,2546.75
367.972,2566.50
368.986,2594.25
369.999,2573.25
371.010,2541.25
372.023,2588.50
373.036,2621.75
374.049,2560.75
375.061,2616.00
376.072,2605.00
377.084,2618.50
378.097,2623.50
379.109,2653.00
380.121,2654.50
381.133,2621.25
382.143,2587.25
383.155,2618.25
384.166,2665.25
385.178,2621.50
386.189,2604.75
387.201,2598.50
388.212,2641.00
389.221,2631.50
390.232,2616.50
391.243,2697.00
392.254,2606.25
393.264,2637.50
394.275,2597.75
395.283,2589.50
396.294,2562.25
397.304,2569.25
398.314,2549.75
399.324,2579.00
400.334,2561.25
401.344,2506.25
402.351,2495.50
403.361,2472.25
404.370,2508.25
405.380,2512.00
406.389,2533.00
407.398,2487.50
408.407,2463.25
409.414,2436.25
410.423,2414.00
411.431,2433.50
412.440,2413.75
413.448,2381.00
414.457,2401.00
415.465,2357.75
416.471,2362.50
417.479,2394.75
418.487,2352.75
419.495,2313.75
420.503,2350.75
421.510,2339.50
422.518,2357.00
423.525,2346.00
424.530,2315.00
425.537,2324.25
426.544,2327.75
427.551,2331.50
428.558,2311.50
429.565,2327.50
430.571,2319.00
431.578,2313.50
432.582,2313.50
433.588,2249.75
434.595,2294.25
435.601,2297.50
436.607,2307.75
437.612,2296.00
438.618,2310.00
439.624,2289.25
440.627,2309.25
441.633,2350.00
442.638,2232.50
443.643,2298.50
444.648,2289.25
445.653,2299.25
446.658,2308.00
447.663,2265.25
448.667,2306.25
449.672,2276.00
450.674,2280.00
451.678,2288.50
452.682,2294.50
453.687,2351.50
454.690,2316.50
455.694,2294.50
456.698,2339.00
457.702,2369.00
458.705,2325.75
459.709,2345.25
460.710,2376.50
461.713,2386.50
462.716,2303.75
463.719,2314.00
464.722,2293.75
465.725,2318.50
466.727,2372.00
467.730,2340.75
468.732,2302.50
469.735,2349.25
470.737,2326.50
471.737,2364.50
472.739,2326.00
473.741,2319.25
474.742,2368.00
475.744,2397.00
476.746,2342.75
477.747,2363.50
478.748,2358.50
479.750,2369.75
480.751,2337.50
481.752,2306.50
482.753,2353.75
483.751,2287.75
484.752,2375.25
485.753,2349.75
486.753,2335.25
487.753,2368.50
488.754,2358.75
489.754,2315.00
490.754,2303.00
491.754,2355.75
492.754,2344.75
493.753,2300.00
494.753,2328.50
495.752,2345.25
496.752,2368.00
497.749,2320.50
498.748,2270.50
499.747,2307.50
500.746,2314.50
501.745,2345.25
502.744,2275.50
503.742,2305.00
504.741,2317.00
505.739,2260.00
506.737,2288.50
507.735,2296.25
508.734,2260.25
509.732,2290.75
510.729,2228.50
511.727,2212.50
512.725,2252.25
513.720,2244.75
514.718,2243.50
515.715,2250.25
516.712,2204.50
517.709,2191.25
518.706,2235.25
519.703,2252.00
520.700,2218.00
521.696,2250.75
522.693,2290.50
523.689,2234.00
524.686,2200.75
525.682,2251.00
526.678,2291.25
527.674,2221.25
528.670,2273.00
529.666,2253.75
530.661,2290.75
531.657,2302.50
532.652,2281.00
533.648,2324.50
534.641,2294.25
535.636,2263.00
536.631,2322.50
537.626,2285.00
538.621,2320.25
539.616,2290.00
540.610,2319.25
541.605,2303.75
542.599,2334.75
543.593,2310.00
544.587,2342.25
545.581,2263.25
546.575,2272.25
547.569,2287.25
548.563,2276.75
549.557,2359.00
550.550,2306.75
551.543,2252.00
552.537,2292.75
553.530,2296.75
554.523,2341.25
555.516,2338.00
556.509,2304.25
557.502,2322.25
558.494,2294.50
559.487,2312.00
560.479,2326.25
561.472,2310.00
562.464,2280.00
563.456,2297.50
564.448,2320.00
565.440,2307.75
566.432,2309.25
567.423,2327.75
568.415,2341.25
569.404,2336.50
570.396,2352.00
571.387,2325.50
572.378,2329.25
573.369,2309.75
574.360,2404.50
575.351,2420.50
576.341,2332.75
577.332,2392.25
578.323,2332.25
579.313,2355.50
580.303,2426.25
581.293,2348.00
582.283,2324.75
583.273,2379.75
584.263,2369.00
585.253,2393.00
586.243,2393.25
587.232,2331.00
588.222,2350.00
589.211,2336.25
590.200,2367.25
591.189,2336.75
592.178,2395.50
593.167,2316.50
594.156,2345.25
595.145,2365.00
596.133,2396.00
597.122,2330.50
598.110,2333.75
599.098,2303.50
600.086,2361.50
601.074,2304.00
602.062,2304.75
603.050,2286.25
604.038,2274.50
605.025,2345.50
606.013,2265.75
607.000,2294.25
607.987,2261.25
608.975,2290.75
609.962,2319.25
610.949,2309.00
611.936,2263.25
612.922,2227.75
613.909,2211.25
614.895,2203.00
615.882,2198.50
616.868,2226.25
617.854,2135.00
618.841,2142.75
619.826,2235.25
620.812,2145.50
621.798,2159.25
622.784,2129.50
623.769,2128.00
624.755,2108.25
625.740,2052.50
626.725,2077.75
627.711,2017.50
628.698,2048.50
629.683,2041.75
630.667,2008.25
631.652,2037.75
632.637,2004.50
633.621,1955.50
634.606,1957.00
635.590,1946.50
636.574,1968.25
637.558,1923.75
638.542,1926.75
639.526,1913.75
640.510,1881.25
641.493,1937.00
642.477,1881.25
643.460,1886.00
644.444,1850.25
645.427,1865.25
646.410,1891.25
647.393,1903.25
648.376,1870.75
649.359,1862.50
650.341,1813.25
651.324,1819.00
652.307,1870.00
653.289,1806.75
654.271,1890.25
655.253,1762.75
656.235,1776.50
657.217,1800.75
658.199,1741.25
659.181,1786.00
660.163,1770.25
661.144,1786.50
662.126,1750.25
663.107,1771.00
664.088,1743.75
665.069,1762.00
666.050,1701.50
667.033,1745.00
668.014,1727.50
668.995,1728.75
669.975,1694.25
670.956,1737.25
671.936,1724.00
672.916,1699.50
673.896,1645.25
674.876,1707.75
675.856,1665.50
676.836,1609.75
677.816,1676.50
678.795,1628.75
679.775,1678.00
680.754,1625.00
681.734,1633.00
682.713,1578.25
683.692,1605.00
684.671,1587.25
685.650,1557.75
686.629,1525.75
687.607,1503.75
688.586,1564.50
689.564,1563.25
690.543,1562.75
691.523,1538.00
692.501,1444.25
693.479,1517.50
694.457,1517.25
695.435,1496.50
696.413,1525.50
697.390,1512.25
698.368,1511.25
699.345,1497.75
700.322,1470.75
701.300,1435.50
702.277,1440.25
703.254,1424.00
704.231,1434.50
705.207,1484.25
706.184,1473.00
707.161,1443.75
708.137,1419.25
709.113,1407.25
710.090,1411.00
711.068,1385.50
712.044,1390.00
713.020,1390.00
713.996,1427.25
714.971,1412.75
715.947,1390.50
716.922,1405.50
717.898,1338.25
718.873,1370.75
719.848,1395.00
720.823,1402.25
721.798,1322.00
722.773,1331.25
723.748,1354.00
724.723,1320.25
725.697,1376.25
726.672,1350.25
727.646,1343.25
728.622,1322.75
729.596,1352.00
730.570,1312.25
731.544,1309.00
732.518,1281.75
733.492,1328.50
734.466,1332.50
735.439,1278.75
736.413,1336.50
737.386,1322.00
738.359,1290.50
739.332,1283.75
740.305,1326.00
741.278,1289.50
742.251,1311.50
743.224,1237.75
744.196,1293.00
745.171,1295.25
746.143,1295.25
747.115,1250.75
748.087,1262.25
749.059,1263.50
750.031,1290.50
751.003,1252.50
751.975,1291.75
752.947,1250.25
753.918,1265.50
754.890,1246.50
755.861,1254.25
756.832,1199.25
757.803,1186.00
758.774,1218.75
759.747,1240.50
760.718,1217.00
761.689,1229.25
762.659,1209.50
763.630,1234.25
764.600,1213.75
765.570,1187.50
766.540,1225.25
767.510,1212.50
768.480,1190.50
769.450,1212.00
770.420,1201.25
771.390,1215.75
772.359,1207.75
773.329,1208.75
774.300,1182.25
775.269,1144.75
776.238,1164.00
777.207,1164.50
778.176,1172.25
779.145,1195.50
780.114,1178.25
781.083,1193.00
782.051,1163.50
783.019,1149.00
783.988,1136.50
784.956,1151.00
785.924,1176.25
786.894,1178.50
787.862,1187.25
788.830,1154.50
789.797,1125.00
790.765,1164.00
791.732,1116.50
792.700,1137.50
793.667,1160.50
794.634,1178.25
795.601,1143.75
796.568,1159.75
797.535,1127.00
798.502,1153.00
799.468,1137.00
800.437,1144.00
801.403,1084.50
802.370,1125.75
803.336,1059.50
804.302,1098.75
805.268,1099.75
806.234,1107.00
807.200,1075.25
808.166,1057.75
809.131,1099.00
810.097,1092.00
811.062,1104.25
812.027,1044.25
812.994,1094.00
813.960,1061.25
814.925,1079.75
815.889,1048.00
816.854,1095.25
817.819,1052.25
818.783,1070.75
819.748,1070.50
820.712,1035.50
821.677,1043.25
822.641,1082.50
823.605,1017.00
824.571,1030.25
825.534,1042.00
826.498,1075.75
827.462,1023.75
828.425,1051.25
829.389,1063.00
830.352,1013.75
831.315,1056.00
832.279,1047.25
833.242,1048.25
834.204,1033.50
835.167,1055.00
836.132,1003.50
837.095,1040.00
838.057,1041.25
839.020,1019.25
839.982,1016.50
840.944,1033.50
841.906,1080.50
842.868,1073.25
843.830,1034.00
844.792,1044.50
845.753,1062.50
846.715,1006.50
847.679,1019.00
848.640,1069.75
849.601,1013.50
850.562,1005.75
851.523,1037.50
852.484,1046.25
853.445,1027.25
854.406,1049.75
855.367,1041.75
856.327,1002.50
857.288,1012.00
858.248,1039.75
859.210,1030.00
860.170,1044.50
861.130,1016.75
862.090,998.75
863.050,1020.75
864.010,968.75
864.969,1034.25
865.929,1018.75
866.888,1058.00
867.848,1035.25
868.807,1030.75
869.766,1009.00
870.727,1054.25
871.686,1030.25
872.645,1051.75
873.604,1035.75
874.562,1013.50
875.521,1006.25
876.479,1016.00
877.437,1038.75
878.396,1022.00
879.354,1049.75
880.312,1030.75
881.270,1026.50
882.229,1057.50
883.187,1027.75
884.145,1012.00
885.102,1051.75
886.059,1034.50
887.017,1038.25
887.974,990.00
888.931,1039.75
889.888,1020.50
890.845,1000.50
891.802,990.00
892.758,1049.25
893.717,1060.50
894.673,1032.25
895.630,1015.50
896.586,1042.25
897.542,1030.00
898.498,1046.50
899.454,1109.00
900.410,1031.00
901.366,1022.25
902.321,1016.50
903.277,1019.75
904.232,1017.50
905.189,1000.50
906.145,1022.75
907.100,1037.75
908.055,1030.00
909.010,1015.50
909.965,1042.25
910.919,1027.25
911.874,1044.00
912.828,1000.50
913.783,1032.75
914.737,1059.00
915.693,1064.00
916.648,1005.50
917.602,1016.50
918.555,1026.75
919.509,995.50
920.463,992.75
921.417,1014.75
922.370,965.00
923.324,1031.25
924.277,992.75
925.230,1049.75
926.183,999.75
927.138,1025.50
928.091,1002.25
929.044,1024.75
929.996,1047.75
930.949,1014.00
931.902,1008.25
932.854,1018.25
933.806,1048.75
934.758,1055.00
935.711,1065.75
936.663,1019.25
937.614,1028.75
938.568,1017.25
939.520,1051.25
940.471,1038.75
941.423,1016.25
942.374,1064.00
943.326,1041.75
944.277,1018.00
945.228,1044.75
946.179,1024.25
947.130,1058.75
948.080,1013.00
949.031,1029.00
949.984,992.00
950.934,1018.00
951.884,987.75
952.835,1014.75
953.785,1026.25
954.735,994.25
955.685,1030.50
956.635,1008.50
957.585,1002.50
958.534,994.00
959.484,972.75
960.433,989.75
961.383,994.75
962.334,1010.50
963.283,961.50
964.232,1023.00
965.181,947.75
966.130,989.00
967.079,1031.75
968.027,1004.75
968.976,1039.25
969.924,1000.00
970.873,977.50
971.821,1050.75
972.769,984.00
973.719,1012.50
974.667,1019.75
975.615,1028.25
976.562,991.75
977.510,971.50
978.458,1017.50
979.405,989.25
980.352,986.00
981.300,983.00
982.247,1003.25
983.194,1037.25
984.141,1014.75
985.088,1023.00
986.036,976.25
986.983,1035.25
987.930,1012.00
988.876,1005.00
989.822,981.25
990.769,1001.25
991.715,985.25
992.661,1027.50
993.607,983.75
994.553,998.75
995.498,1002.75
996.444,1021.75
997.389,1023.75
998.337,985.00
999.282,1013.00
1000.227,1000.00
1001.173,1018.50
1002.118,992.00
1003.062,993.75
1004.007,990.50
1004.952,1018.50
1005.897,995.00
1006.841,976.25
1007.786,1004.75
1008.730,983.00
1009.674,992.50
1010.618,969.50
1011.564,1050.00
1012.508,1018.00
1013.452,982.25
1014.396,976.75
1015.339,1033.75
1016.283,984.25
1017.226,1032.00
1018.170,988.50
1019.113,1014.00
1020.056,1042.75
1020.999,1028.75
1021.942,1004.50
1022.885,1020.25
1023.828,1004.75
1024.770,1039.00
1025.715,1026.25
1026.657,1026.50
1027.600,1039.00
1028.542,1007.75
1029.484,1025.50
1030.426,1042.75
1031.368,1066.50
1032.310,1031.50
1033.251,1029.25
1034.193,1084.50
1035.135,1107.50
1036.076,1044.25
1037.017,1036.25
1037.959,987.75
1038.900,1027.50
1039.843,1085.50
1040.784,1047.75
1041.725,1035.00
1042.665,1085.00
1043.606,1045.50
1044.547,1070.25
1045.487,1057.00
1046.427,1076.75
1047.368,1104.00
1048.308,1087.50
1049.248,1108.50
1050.188,1080.50
1051.128,1059.00
1052.067,1043.25
1053.007,1083.00
1053.947,1108.25
1054.886,1063.25
1055.827,1127.50
1056.766,1097.50
1057.706,1098.25
1058.645,1108.00
1059.584,1124.25
1060.522,1092.50
1061.461,1099.25
1062.400,1107.75
1063.338,1132.50
1064.277,1111.00
1065.215,1131.25
1066.154,1148.00
1067.092,1112.50
1068.030,1148.00
1068.968,1132.50
1069.906,1175.25
1070.843,1155.00
1071.781,1128.00
1072.720,1168.75
1073.658,1138.50
1074.595,1170.00
1075.533,1185.50
1076.470,1153.50
1077.407,1159.25
1078.344,1172.25
1079.281,1177.00
1080.217,1166.25
1081.154,1158.00
1082.091,1164.00
1083.027,1179.00
1083.964,1174.50
1084.900,1215.25
1085.836,1210.25
1086.772,1182.50
1087.708,1158.75
1088.644,1114.50
1089.580,1173.50
1090.515,1161.25
1091.451,1163.50
1092.388,1165.00
1093.324,1132.50
1094.259,1165.50
1095.194,1151.00
1096.129,1128.75
1097.064,1158.00
1097.999,1140.50
1098.934,1168.75
1099.869,1159.50
1100.803,1128.75
1101.738,1177.50
1102.672,1142.50
1103.607,1128.00
1104.541,1118.50
1105.475,1092.50
1106.409,1134.50
1107.343,1087.00
1108.277,1064.25
1109.210,1114.25
1110.144,1103.50
1111.078,1130.50
1112.011,1099.75
1112.944,1079.00
1113.878,1069.75
1114.811,1107.25
1115.744,1064.50
1116.678,1082.25
1117.611,1101.25
1118.544,1033.00
1119.477,1032.00
1120.409,1011.75
1121.342,1039.00
1122.274,1032.25
1123.206,2045.75
1124.138,1030.25
1125.070,1025.75
1126.002,972.25
1126.934,1001.25
1127.866,985.25
1128.798,1012.25
1129.729,1002.75
1130.661,1001.75
1131.592,970.00
1132.523,983.00
1133.454,937.75
1134.385,940.00
1135.317,988.25
1136.247,942.25
1137.178,984.75
1138.109,939.50
1139.039,943.25
1139.970,912.00
1140.900,946.25
1141.831,943.75
1142.761,943.50
1143.691,915.50
1144.621,945.25
1145.551,946.25
1146.480,918.25
1147.410,933.00
1148.340,935.50
1149.269,921.00
1150.199,899.25
1151.128,895.25
1152.057,870.25
1152.979,900.50
1153.898,861.50
1154.819,873.75
1155.739,893.00
1156.658,889.75
1157.579,914.25
1158.498,902.25
1159.419,912.00
1160.338,892.50
1161.256,843.25
1162.177,829.25
1163.095,858.50
1164.016,908.50
1164.934,856.50
1165.852,885.00
1166.772,892.00
1167.690,839.25
1168.610,886.25
1169.528,881.25
1170.446,863.25
1171.365,844.25
1172.283,864.75
1173.202,868.50
1174.120,862.50
1175.037,834.00
1175.956,855.00
1176.873,837.00
1177.792,828.75
1178.709,845.50
1179.626,806.75
1180.544,853.00
1181.461,803.25
1182.379,840.75
1183.296,790.50
1184.212,825.00
1185.130,856.50
1186.046,833.00
1186.962,842.00
1187.880,851.50
1188.796,807.50
1189.714,788.50
1190.629,816.25
1191.545,839.25
1192.462,832.75
1193.378,786.50
1194.295,835.50
1195.210,825.50
1196.125,840.00
1197.042,806.00
1197.957,840.50
1198.872,870.00
1199.788,802.50
1200.703,853.75
1201.619,822.50
1202.534,769.75
1203.448,825.25
1204.364,823.75
1205.278,802.50
1206.192,851.75
1207.108,845.75
1208.022,828.00
1208.938,826.25
1209.851,806.75
1210.765,815.00
1211.680,816.25
1212.594,819.75
1213.507,789.75
1214.422,829.50
1215.335,869.50
1216.248,800.25
1217.163,821.00
1218.076,862.00
1218.990,823.75
1219.903,810.00
1220.816,824.50
1221.730,836.25
1222.642,844.50
1223.554,817.25
1224.469,844.25
1225.380,803.75
1226.292,798.50
1227.206,817.50
1228.118,840.75
1229.032,844.75
1229.943,808.75
1230.855,806.25
1231.768,788.50
1232.679,854.00
1233.590,840.25
1234.503,813.25
1235.414,817.75
1236.325,835.50
1237.238,847.25
1238.149,790.25
1239.059,850.75
1239.972,846.75
1240.882,838.75
1241.793,843.50
1242.705,828.75
1243.615,864.25
1244.525,855.25
1245.437,827.25
1246.347,865.50
1247.259,816.00
1248.168,811.00
1249.078,852.00
1249.989,823.00
1250.899,843.25
1251.808,875.25
1252.719,837.25
1253.628,845.50
1254.537,916.25
1255.448,850.75
1256.357,826.75
1257.266,849.00
1258.176,852.50
1259.085,813.25
1259.993,867.25
1260.904,803.25
1261.812,840.50
1262.720,836.50
1263.630,860.50
1264.538,857.00
1265.446,814.25
1266.356,832.75
1267.263,868.75
1268.171,854.00
1269.080,849.75
1269.988,813.25
1270.895,851.00
1271.804,859.75
1272.711,858.75
1273.619,852.75
1274.527,861.00
1275.434,822.50
1276.341,848.25
1277.248,879.75
1278.156,821.75
1279.063,838.50
1279.969,874.75
1280.877,887.75
1281.783,807.75
1282.690,862.50
1283.598,835.50
1284.503,891.25
1285.409,845.00
1286.317,811.00
1287.223,807.75
1288.128,867.25
1289.036,820.75
1289.941,829.50
1290.846,875.25
1291.751,852.50
1292.658,816.75
1293.563,836.25
1294.468,799.75
1295.375,825.00
1296.280,848.50
1297.184,892.25
1298.091,830.00
1298.995,836.25
1299.900,820.00
1300.806,842.25
1301.710,837.25
1302.614,780.25
1303.518,815.00
1304.424,854.50
1305.327,784.75
1306.231,830.00
1307.137,782.25
1308.040,788.75
1308.943,845.50
1309.847,774.00
1310.752,754.00
1311.655,796.75
1312.558,777.00
1313.463,771.75
1314.366,772.75
1315.269,792.25
1316.171,810.00
1317.076,768.50
1317.978,765.75
1318.881,792.00
1319.785,746.75
1320.687,760.25
1321.589,733.75
1322.491,744.25
1323.395,731.50
1324.297,771.50
1325.198,718.00
1326.102,732.00
1327.004,754.00
1327.905,731.75
1328.806,794.50
1329.709,752.75
1330.611,752.00
1331.512,712.00
1332.413,735.75
1333.316,728.00
1334.216,744.25
1335.117,742.75
1336.020,744.25
1336.920,731.50
1337.821,730.50
1338.721,763.75
1339.623,751.00
1340.523,709.75
1341.423,723.25
1342.323,692.75
1343.225,756.50
1344.125,724.50
1345.025,676.00
1345.924,719.00
1346.826,701.00
1347.725,681.50
1348.624,711.50
1349.524,660.50
1350.425,649.75
1351.324,717.00
1352.223,661.25
1353.121,696.75
1354.022,644.00
1354.921,683.50
1355.819,691.25
1356.718,650.25
1357.618,683.25
1358.516,689.50
1359.415,676.75
1360.313,663.75
1361.213,699.75
1362.111,631.25
1363.008,669.50
1363.906,696.00
1364.806,688.00
1365.703,642.00
1366.601,680.00
1367.498,663.50
1368.397,657.50
1369.295,601.50
1370.192,660.50
1371.089,661.00
1371.987,668.50
1372.884,652.75
1373.781,649.00
1374.678,669.75
1375.574,615.50
1376.473,629.00
1377.369,633.25
1378.265,669.25
1379.161,660.75
1380.059,613.50
1380.955,593.75
1381.851,630.50
1382.747,618.25
1383.643,647.00
1384.540,599.25
1385.436,628.75
1386.331,650.50
1387.227,641.75
1388.124,604.75
1389.019,591.50
1389.914,600.25
1390.809,583.75
1391.704,610.00
1392.601,605.25
1393.495,601.75
1394.390,568.00
1395.285,565.50
1396.179,582.25
1397.075,595.75
1397.969,614.00
1398.864,561.75
1399.758,645.50
1400.652,576.75
1401.547,582.00
1402.441,561.00
1403.335,605.00
1404.229,614.50
1405.122,601.75
1406.017,580.50
1406.911,607.75
1407.804,593.50
1408.697,549.00
1409.590,552.50
1410.485,532.75
1411.378,569.50
1412.271,592.25
1413.163,586.50
1414.056,549.50
1414.949,620.00
1415.843,575.75
1416.735,588.00
1417.627,562.50
1418.520,561.50
1419.412,573.75
1420.306,518.50
1421.197,577.25
1422.089,576.75
1422.981,590.75
1423.873,568.75
1424.764,581.25
1425.657,569.75
1426.549,580.25
1427.440,561.50
1428.331,581.25
1429.222,560.50
1430.113,541.00
1431.006,576.25
1431.897,542.00
1432.787,579.25
1433.678,570.25
1434.568,599.75
1435.459,531.75
1436.351,543.25
1437.241,566.75
1438.131,554.00
1439.021,574.25
1439.911,539.25
1440.801,538.00
1441.693,530.00
1442.583,513.25
1443.472,541.25
1444.362,533.75
1445.251,512.00
1446.140,564.50
1447.030,581.00
1447.921,562.25
1448.810,535.25
1449.699,514.50
1450.588,519.50
1451.476,511.75
1452.365,550.00
1453.254,539.25
1454.144,523.25
1455.032,549.25
1455.921,510.00
1456.809,514.50
1457.697,562.00
1458.585,560.75
1459.473,522.75
1460.361,517.50
1461.251,554.50
1462.138,516.50
1463.026,493.00
1463.913,484.00
1464.801,496.75
1465.688,540.75
1466.575,509.25
1467.463,534.25
1468.351,534.75
1469.238,523.25
1470.125,541.50
1471.012,488.00
1471.899,514.75
1472.785,555.00
1473.672,537.25
1474.558,513.25
1475.446,494.25
1476.333,508.00
1477.219,535.50
1478.105,505.25
1478.991,520.00
1479.877,544.50
1480.762,483.50
1481.648,494.25
1482.534,500.00
1483.419,485.00
1484.307,506.75
1485.192,490.50
1486.077,465.00
1486.962,451.00
1487.847,499.75
1488.732,482.75
1489.617,500.25
1490.502,504.50
1491.387,497.50
1492.271,487.25
1493.156,491.00
1494.042,444.75
1494.927,511.25
1495.811,469.25
1496.695,507.00
1497.579,465.00
1498.463,473.75
1499.347,469.00
1500.231,418.25
1501.114,506.75
1501.998,491.50
1502.881,535.75
1503.765,516.50
1504.648,503.00
1505.533,499.75
1506.417,462.75
1507.300,483.50
1508.183,469.75
1509.066,438.75
1509.948,473.25
1510.831,450.00
1511.714,485.50
1512.596,451.25
1513.479,439.50
1514.361,461.75
1515.243,489.25
1516.125,490.25
1517.008,488.50
1517.890,482.00
1518.771,450.75
1519.655,476.50
1520.537,471.75
1521.419,493.75
1522.300,488.75
1523.182,451.00
1524.063,474.25
1524.944,499.00
1525.825,452.00
1526.707,470.75
1527.588,474.75
1528.468,444.25
1529.349,457.25
1530.230,458.50
1531.111,509.00
1531.991,446.00
1532.872,471.00
1533.752,456.00
1534.632,442.75
1535.513,452.50
1536.393,451.25
1537.273,434.00
1538.153,517.25
1539.032,450.75
1539.912,404.00
1540.792,412.00
1541.672,464.25
1542.551,462.25
1543.430,472.75
1544.310,446.50
1545.189,420.25
1546.068,462.00
1546.947,417.00
1547.826,465.25
1548.705,460.75
1549.584,459.75
1550.462,461.50
1551.341,421.50
1552.219,469.25
1553.098,436.00
1553.976,439.00
1554.854,444.75
1555.733,452.50
1556.611,445.75
1557.489,451.75
1558.367,468.25
1559.244,455.25
1560.122,387.50
1561.000,462.00
1561.877,452.75
1562.755,440.00
1563.632,425.75
1564.509,438.50
1565.386,469.75
1566.264,435.25
1567.141,421.75
1568.017,430.25
1568.894,457.75
1569.771,463.00
1570.648,436.00
1571.524,446.00
1572.401,469.00
1573.277,441.00
1574.153,411.25
1575.029,458.50
1575.906,447.00
1576.781,431.50
1577.657,452.50
1578.533,439.75
1579.409,420.75
1580.285,417.75
1581.160,452.00
1582.036,436.75
1582.911,429.75
1583.786,428.25
1584.662,470.75
1585.537,394.50
1586.412,439.75
1587.287,420.00
1588.160,399.75
1589.035,431.50
1589.909,432.25
1590.784,401.00
1591.658,428.50
1592.533,422.25
1593.407,414.00
1594.281,416.00
1595.155,439.25
1596.029,460.25
1596.903,406.50
1597.777,426.25
1598.651,443.75
1599.525,404.00
1600.398,424.00
1601.272,402.50
1602.144,413.25
1603.017,411.00
1603.890,424.25
1604.763,422.50
1605.636,390.25
1606.509,386.50
1607.382,408.00
1608.255,441.00
1609.128,415.50
1610.000,410.25
1610.873,438.50
1611.746,423.75
1612.616,440.25
1613.488,392.50
1614.361,440.00
1615.233,443.25
1616.105,487.50
1616.977,350.75
1617.849,423.50
1618.720,397.00
1619.592,390.00
1620.464,439.25
1621.333,427.00
1622.205,437.00
1623.076,411.25
1623.947,407.75
1624.818,409.00
1625.689,415.50
1626.560,399.75
1627.431,381.25
1628.302,457.00
1629.171,388.25
1630.042,426.25
1630.912,394.00
1631.782,424.00
1632.653,423.25
1633.523,429.25
1634.393,384.75
1635.263,384.75
1636.131,397.25
1637.001,436.00
1637.871,388.75
1638.741,432.00
1639.611,402.00
1640.480,376.75
1641.350,432.50
1642.219,396.75
1643.087,382.25
1643.956,446.50
1644.825,600.00
1645.694,415.50
1646.563,363.00
1647.432,418.00
1648.299,438.75
1649.167,404.25
1650.036,378.50
1650.904,393.50
1651.773,400.50
1652.641,400.50
1653.509,418.00
1654.376,379.75
1655.244,440.25
1656.112,411.75
1656.980,420.50
1657.847,357.50
1658.715,396.75
1659.581,394.75
1660.448,386.00
1661.316,433.25
1662.183,381.50
1663.051,382.50
1663.918,396.00
1664.783,390.75
1665.650,394.00
1666.517,358.50
1667.384,390.75
1668.251,404.50
1669.115,352.50
1669.982,411.00
1670.849,384.75
1671.715,408.00
1672.581,399.50
1673.446,389.75
1674.312,391.50
1675.178,352.00
1676.044,422.50
1676.910,391.75
1677.774,383.75
1678.639,398.00
1679.505,418.25
1680.370,399.00
1681.236,393.75
1682.099,393.75
1682.965,358.25
1683.830,398.75
1684.695,352.75
1685.560,393.75
1686.423,406.00
1687.288,347.25
1688.153,418.25
1689.017,368.25
1689.880,383.25
1690.745,389.25
1691.609,373.25
1692.473,409.00
1693.338,372.75
1694.200,409.25
1695.064,400.75
1695.928,427.25
1696.792,395.25
1697.654,381.25
1698.517,357.50
1699.381,384.00
1700.245,363.25
1701.106,374.75
1701.969,383.00
1702.833,328.50
1703.696,370.50
1704.557,347.25
1705.420,391.75
1706.283,373.75
1707.146,414.50
1708.007,410.75
1708.870,376.50
1709.732,375.75
1710.595,370.00
1711.455,370.75
1712.318,384.00
1713.180,386.75
1714.040,381.25
1714.902,427.75
1715.764,402.50
1716.626,359.50
1717.486,394.00
1718.348,371.75
1719.209,321.75
1720.071,374.50
1720.930,396.25
1721.792,404.50
1722.653,354.75
1723.512,364.75
1724.374,384.50
1725.234,355.25
1726.095,293.50
1726.954,346.75
1727.815,385.00
1728.676,376.50
1729.535,362.00
1730.395,411.50
1731.256,335.75
1732.114,356.50
1732.974,382.25
1733.834,346.75
1734.693,379.75
1735.553,378.50
1736.413,379.50
1737.272,375.25
1738.130,347.00
1738.990,395.00
1739.849,360.00
1740.707,381.25
1741.566,384.00
1742.426,373.75
1743.283,372.75
1744.142,382.75
1745.001,401.00
1745.858,373.75
1746.717,377.50
1747.576,342.00
1748.433,425.50
1749.292,373.50
1750.150,393.00
1751.007,371.50
1751.865,414.00
1752.723,352.25
1753.579,350.50
1754.438,388.25
1755.296,346.50
1756.152,339.75
1757.010,363.25
1757.865,356.50
1758.723,358.00
1759.581,376.75
1760.436,374.00
1761.294,350.00
1762.151,354.50
1763.006,323.00
1763.864,344.25
1764.721,336.25
1765.576,380.25
1766.433,396.75
1767.288,334.50
1768.144,368.75
1769.001,366.25
1769.856,405.00
1770.712,355.75
1771.568,352.25
1772.423,341.00
1773.279,393.75
1774.133,325.50
1774.989,378.50
1775.845,342.00
1776.699,332.00
1777.555,354.75
1778.409,385.75
1779.265,357.50
1780.120,374.25
1780.974,321.00
1781.829,357.00
1782.682,353.25
1783.538,330.50
1784.393,336.00
1785.246,336.50
1786.101,364.75
1786.954,320.25
1787.808,337.75
1788.661,351.75
1789.516,324.50
1790.370,355.00
1791.223,338.75
1792.077,376.25
1792.930,372.75
1793.784,365.75
1794.636,335.50
1795.490,363.25
1796.344,340.75
1797.196,338.00
1798.049,348.75
1798.901,344.00
1799.755,352.25
1800.606,313.75
1801.460,386.25
1802.311,351.25
1803.165,378.75
1804.018,334.00
1804.869,362.25
1805.722,339.25
1806.573,332.00
1807.426,365.00
1808.276,383.50
1809.129,375.75
1809.980,372.25
1810.832,345.50
1811.683,334.75
1812.535,368.00
1813.385,344.75
1814.237,331.00
1815.089,346.25
1815.940,332.75
1816.791,339.75
1817.641,352.50
1818.493,365.75
1819.343,349.00
1820.194,402.50
1821.044,363.00
1821.895,338.25
1822.745,359.75
1823.596,344.75
1824.445,326.50
1825.296,351.75
1826.145,304.50
1826.996,304.25
1827.845,302.25
1828.695,366.50
1829.544,391.25
1830.395,361.50
1831.243,338.25
1832.094,299.75
1832.942,346.75
1833.792,337.75
1834.640,353.50
1835.490,327.25
1836.338,374.00
1837.186,368.25
1838.036,316.00
1838.884,371.50
1839.733,371.00
1840.581,343.00
1841.430,324.00
1842.278,347.50
1843.127,334.75
1843.974,389.75
1844.823,312.25
1845.671,320.25
1846.519,326.50
1847.366,368.75
1848.213,347.00
1849.062,362.75
1849.909,338.25
1850.757,349.75
1851.604,337.25
1852.452,329.50
1853.298,298.50
1854.146,332.00
1854.993,338.75
1855.839,378.00
1856.687,346.25
1857.532,363.25
1858.380,320.75
1859.226,314.25
1860.073,369.25
1860.919,374.75
1861.765,325.75
1862.612,335.75
1863.457,284.75
1864.304,330.50
1865.150,382.00
1865.995,317.00
1866.842,299.25
1867.686,331.00
1868.533,353.25
1869.378,310.25
1870.223,336.25
1871.069,337.00
1871.914,310.50
1872.760,326.00
1873.604,331.00
1874.448,324.00
1875.294,323.00
1876.139,327.25
1876.984,374.50
1877.828,301.75
1878.672,344.50
1879.518,355.75
1880.361,336.00
1881.205,318.75
1882.050,353.00
1882.894,305.25
1883.739,360.00
1884.582,355.25
1885.425,331.25
1886.270,351.50
1887.113,322.75
1887.956,328.50
1888.801,326.50
1889.644,301.50
1890.486,322.75
1891.331,349.75
1892.173,343.50
1893.017,361.25
1893.860,335.75
1894.702,298.00
1895.546,347.75
1896.388,371.25
1897.230,381.25
1898.074,364.75
1898.916,348.50
1899.757,328.75
1900.601,352.00
1901.443,310.50
1902.284,357.00
1903.125,324.50
1903.969,319.25
1904.810,345.50
1905.651,359.25
1906.494,350.00
1907.335,403.00
1908.176,342.00
1909.018,291.50
1909.859,293.50
1910.700,339.50
1911.542,321.25
1912.383,286.75
1913.223,277.00
1914.064,333.00
1914.906,340.50
1915.746,370.00
1916.586,335.75
1917.428,356.25
1918.268,317.75
1919.107,346.50
1919.947,313.25
1920.789,328.00
1921.628,291.50
1922.468,348.25
1923.309,335.50
1924.148,351.00
1924.988,345.50
1925.827,295.00
1926.667,359.25
1927.507,323.50
1928.345,349.00
1929.184,364.25
1930.025,317.50
1930.864,345.50
1931.702,368.75
1932.541,335.25
1933.381,315.75
1934.219,335.25
1935.057,351.25
1935.896,373.75
1936.735,317.75
1937.573,322.00
1938.411,367.00
1939.249,351.00
1940.089,335.50
1940.927,328.25
1941.764,343.50
1942.602,320.00
1943.439,326.50
1944.278,346.50
1945.115,340.00
1945.953,311.00
1946.790,342.50
1947.628,347.75
1948.465,305.50
1949.302,347.50
1950.139,352.50
1950.976,331.50
1951.814,316.00
1952.651,368.75
1953.487,328.25
1954.323,337.25
1955.160,333.50
1955.998,329.50
1956.834,271.00
1957.670,372.25
1958.506,310.00
1959.342,312.50
1960.177,297.25
1961.015,307.50
1961.850,323.25
1962.686,338.25
1963.521,332.50
1964.357,305.75
1965.192,310.25
1966.029,328.00
1966.864,348.75
1967.699,274.75
1968.534,322.25
1969.369,371.25
1970.204,293.25
1971.040,327.25
1971.875,333.25
1972.709,352.75
1973.544,301.00
1974.378,326.50
1975.212,297.50
1976.047,322.50
1976.882,297.00
1977.716,348.50
1978.550,332.25
1979.384,323.50
1980.218,326.50
1981.052,340.50
1981.885,327.50
1982.719,321.25
1983.554,304.75
1984.388,309.50
1985.221,243.00
1986.054,319.50
1986.887,362.50
1987.720,307.25
1988.553,296.75
1989.386,310.25
1990.219,332.50
1991.053,287.50
1991.886,311.00
1992.719,309.75
1993.551,323.75
1994.383,317.00
1995.216,323.75
1996.048,293.25
1996.880,298.50
1997.712,332.25
1998.544,289.25
1999.376,317.75
2000.208,328.75
2001.040,269.75
2001.873,323.75
2002.705,295.25
2003.536,343.00
2004.367,356.00
2005.199,255.75
2006.030,261.00
2006.861,337.00
2007.692,325.75
2008.523,323.25
2009.354,276.25
2010.185,332.00
2011.016,315.75
2011.846,336.75
2012.677,322.00
2013.507,343.00
2014.338,304.50
2015.168,321.00
2015.999,337.75
2016.829,323.25
2017.659,313.50
2018.489,323.50
2019.319,328.50
2020.149,312.25
2020.980,330.75
2021.810,292.75
2022.639,324.00
2023.469,254.50
2024.298,327.75
2025.128,311.00
2025.957,292.25
2026.786,346.25
2027.615,318.50
2028.444,297.00
2029.273,317.50
2030.102,328.25
2030.931,343.00
2031.758,335.75
2032.586,310.50
2033.415,288.50
2034.243,321.75
2035.072,353.00
2035.900,320.00
2036.728,322.00
2037.556,309.75
2038.385,359.00
2039.213,310.50
2040.040,317.75
2040.868,343.75
2041.696,329.75
2042.524,297.00
2043.351,301.25
2044.179,287.75
2045.006,320.75
2045.006,320.75

Max Intensity Wave.,219.929
Max Intensity Data,5074.50
Min Intensity Wave.,1985.221
Min Intensity Data,243.00
FWHM Wave.,399.438
FWHM Value,2.18
Pressure Wave.,1123.206
Pressure Value [GPa],3847.79637
G/D Ratio,0.57671
G/D Gband Wave.,1615.882
G/D Gband Intensity,493.41
G/D Dband Wave.,1304.297
G/D Dband Intensity,855.56

<< BACKGROUND SPECTRUM >>
Wave[dcm-1],No181
146.591,2281.00
147.626,2111.00
148.664,2047.00
149.699,2580.00
150.737,2272.00
151.772,2414.00
152.809,2394.00
153.846,2326.00
154.881,2373.00
155.918,1972.00
156.953,2232.00
157.989,2621.00
159.026,2476.00
160.060,2642.00
161.096,2832.00
162.130,2525.00
163.167,2586.00
164.200,2497.00
165.236,2649.00
166.272,2684.00
167.305,2262.00
168.341,2561.00
169.374,2806.00
170.409,2799.00
171.445,2744.00
172.477,2580.00
173.512,2415.00
174.545,2704.00
175.580,2867.00
176.614,3060.00
177.647,2849.00
178.681,3074.00
179.713,3365.00
180.747,2815.00
181.781,2745.00
182.813,3018.00
183.847,3105.00
184.878,2706.00
185.912,3015.00
186.945,3130.00
187.976,3060.00
189.010,2762.00
190.043,2860.00
191.073,2930.00
192.106,2693.00
193.137,3237.00
194.170,2572.00
195.202,2920.00
196.232,2669.00
197.265,3019.00
198.297,3067.00
199.327,2773.00
200.359,3012.00
201.388,3343.00
202.420,2918.00
203.452,3130.00
204.481,2706.00
205.512,3356.00
206.544,3090.00
207.573,3072.00
208.604,3413.00
209.635,3536.00
210.663,3013.00
211.694,2985.00
212.725,2837.00
213.753,2834.00
214.783,3340.00
215.813,3266.00
216.841,2955.00
217.871,3194.00
218.899,2912.00
219.929,3116.00
220.959,2929.00
221.986,3158.00
223.016,2800.00
224.045,3113.00
225.072,3156.00
226.101,3263.00
227.130,3265.00
228.157,2861.00
229.185,2354.00
230.214,3228.00
231.241,2870.00
232.269,2483.00
233.297,2679.00
234.323,3288.00
235.351,2856.00
236.379,3109.00
237.407,2742.00
238.433,2974.00
239.460,3148.00
240.488,3141.00
241.513,3251.00
242.540,3140.00
243.568,3196.00
244.592,3280.00
245.619,3195.00
246.646,2970.00
247.671,2973.00
248.697,2820.00
249.724,2988.00
250.748,3010.00
251.774,3000.00
252.801,3326.00
253.827,3144.00
254.850,3109.00
255.876,2721.00
256.902,3157.00
257.925,3009.00
258.951,2761.00
259.976,2802.00
260.999,3106.00
262.024,2819.00
263.049,3647.00
264.074,3155.00
265.097,3004.00
266.122,3069.00
267.146,3059.00
268.168,3191.00
269.193,2862.00
270.217,3268.00
271.241,2763.00
272.263,2919.00
273.287,3174.00
274.311,2832.00
275.332,3288.00
276.356,2867.00
277.379,3107.00
278.402,3153.00
279.424,2956.00
280.447,2869.00
281.470,2771.00
282.492,3074.00
283.513,2919.00
284.536,3189.00
285.558,3139.00
286.581,3146.00
287.601,2817.00
288.623,2823.00
289.645,3050.00
290.665,3126.00
291.687,3125.00
292.709,3154.00
293.730,3450.00
294.750,2932.00
295.771,2777.00
296.792,3090.00
297.813,2944.00
298.832,3060.00
299.853,2733.00
300.874,2983.00
301.895,3008.00
302.913,2965.00
303.934,3321.00
304.954,3063.00
305.975,3223.00
306.993,2773.00
308.013,3158.00
309.033,3003.00
310.052,2955.00
311.072,2914.00
312.090,3054.00
313.109,3261.00
314.129,3422.00
315.148,2991.00
316.165,3084.00
317.184,3268.00
318.203,2778.00
319.222,2777.00
320.238,3163.00
321.257,2816.00
322.275,2696.00
323.294,2996.00
324.312,3139.00
325.328,3250.00
326.346,3332.00
327.364,3288.00
328.382,3164.00
329.397,3154.00
330.415,3256.00
331.432,3228.00
332.450,3296.00
333.467,3469.00
334.482,2604.00
335.499,3380.00
336.516,2892.00
337.533,2597.00
338.547,2878.00
339.564,2857.00
340.580,3125.00
341.597,3009.00
342.613,3498.00
343.627,3000.00
344.643,3071.00
345.659,3094.00
346.675,3007.00
347.690,2868.00
348.704,3081.00
349.719,2899.00
350.735,2781.00
351.750,3210.00
352.765,3032.00
353.778,3002.00
354.793,3155.00
355.808,2879.00
356.822,3161.00
357.837,2656.00
358.851,3257.00
359.864,2978.00
360.878,2731.00
361.892,2966.00
362.906,3184.00
363.920,2614.00
364.932,3076.00
365.945,3086.00
366.959,3028.00
367.972,2937.00
368.986,2689.00
369.999,3392.00
371.010,2912.00
372.023,3365.00
373.036,2951.00
374.049,3410.00
375.061,3081.00
376.072,3017.00
377.084,2883.00
378.097,2710.00
379.109,3212.00
380.121,3003.00
381.133,2690.00
382.143,3222.00
383.155,2752.00
384.166,2924.00
385.178,3135.00
386.189,3244.00
387.201,2737.00
388.212,2940.00
389.221,2945.00
390.232,3038.00
391.243,2853.00
392.254,3070.00
393.264,2864.00
394.275,3259.00
395.283,3185.00
396.294,3639.00
397.304,3477.00
398.314,3141.00
399.324,3030.00
400.334,2639.00
401.344,3175.00
402.351,2694.00
403.361,3254.00
404.370,2992.00
405.380,2906.00
406.389,3343.00
407.398,3133.00
408.407,3077.00
409.414,3740.00
410.423,3325.00
411.431,2766.00
412.440,2674.00
413.448,3366.00
414.457,2884.00
415.465,2847.00
416.471,2888.00
417.479,3021.00
418.487,2836.00
419.495,3336.00
420.503,3131.00
421.510,2632.00
422.518,3162.00
423.525,3185.00
424.530,3437.00
425.537,2918.00
426.544,3237.00
427.551,2876.00
428.558,3607.00
429.565,3450.00
430.571,2873.00
431.578,2919.00
432.582,2912.00
433.588,3003.00
434.595,2624.00
435.601,3310.00
436.607,3262.00
437.612,2761.00
438.618,3327.00
439.624,2981.00
440.627,2929.00
441.633,3092.00
442.638,3663.00
443.643,3122.00
444.648,3023.00
445.653,3195.00
446.658,2885.00
447.663,3034.00
448.667,2877.00
449.672,2955.00
450.674,2999.00
451.678,2731.00
452.682,2892.00
453.687,2811.00
454.690,3622.00
455.694,3290.00
456.698,2547.00
457.702,2637.00
458.705,2766.00
459.709,2800.00
460.710,2844.00
461.713,3007.00
462.716,3066.00
463.719,3056.00
464.722,3245.00
465.725,2988.00
466.727,2807.00
467.730,3065.00
468.732,2817.00
469.735,3299.00
470.737,2937.00
471.737,2891.00
472.739,2934.00
473.741,2843.00
474.742,3067.00
475.744,3110.00
476.746,3051.00
477.747,2968.00
478.748,3162.00
479.750,2914.00
480.751,3045.00
481.752,3782.00
482.753,3128.00
483.751,3600.00
484.752,2633.00
485.753,2991.00
486.753,2892.00
487.753,2992.00
488.754,3420.00
489.754,2738.00
490.754,3355.00
491.754,3148.00
492.754,2716.00
493.753,3037.00
494.753,2916.00
495.752,3342.00
496.752,3017.00
497.749,3029.00
498.748,2902.00
499.747,3417.00
500.746,3104.00
501.745,2758.00
502.744,2774.00
503.742,3337.00
504.741,2895.00
505.739,2524.00
506.737,2920.00
507.735,3168.00
508.734,3367.00
509.732,3110.00
510.729,3384.00
511.727,2900.00
512.725,2937.00
513.720,2791.00
514.718,3269.00
515.715,2685.00
516.712,2664.00
517.709,3018.00
518.706,2923.00
519.703,3035.00
520.700,3219.00
521.696,3361.00
522.693,2909.00
523.689,2882.00
524.686,3215.00
525.682,2790.00
526.678,3447.00
527.674,2962.00
528.670,2612.00
529.666,3503.00
530.661,3449.00
531.657,3131.00
532.652,3172.00
533.648,3001.00
534.641,3242.00
535.636,3075.00
536.631,3102.00
537.626,3160.00
538.621,2727.00
539.616,2596.00
540.610,2510.00
541.605,3020.00
542.599,3061.00
543.593,2970.00
544.587,3904.00
545.581,2881.00
546.575,3076.00
547.569,3070.00
548.563,2728.00
549.557,2644.00
550.550,2783.00
551.543,2796.00
552.537,3145.00
553.530,2808.00
554.523,2764.00
555.516,3083.00
556.509,2968.00
557.502,2651.00
558.494,3221.00
559.487,2917.00
560.479,3199.00
561.472,3268.00
562.464,3182.00
563.456,3327.00
564.448,2971.00
565.440,3023.00
566.432,3412.00
567.423,2901.00
568.415,2898.00
569.404,3123.00
570.396,2835.00
571.387,3149.00
572.378,3034.00
573.369,4000.00
574.360,3654.00
575.351,2930.00
576.341,2871.00
577.332,2864.00
578.323,2713.00
579.313,2912.00
580.303,3224.00
581.293,3150.00
582.283,3028.00
583.273,3114.00
584.263,3012.00
585.253,3092.00
586.243,3189.00
587.232,2685.00
588.222,2952.00
589.211,3197.00
590.200,3057.00
591.189,2979.00
592.178,2959.00
593.167,3448.00
594.156,3287.00
595.145,2875.00
596.133,3430.00
597.122,3134.00
598.110,3228.00
599.098,3079.00
600.086,2983.00
601.074,3208.00
602.062,2868.00
603.050,2777.00
604.038,3131.00
605.025,2791.00
606.013,3248.00
607.000,3416.00
607.987,3042.00
608.975,3043.00
609.962,2751.00
610.949,3128.00
611.936,3265.00
612.922,3172.00
613.909,2722.00
614.895,3407.00
615.882,2872.00
616.868,2994.00
617.854,2796.00
618.841,3060.00
619.826,3054.00
620.812,2985.00
621.798,2765.00
622.784,3165.00
623.769,3085.00
624.755,2717.00
625.740,3070.00
626.725,2706.00
627.711,2871.00
628.698,3066.00
629.683,2794.00
630.667,3164.00
631.652,2749.00
632.637,2963.00
633.621,3192.00
634.606,2937.00
635.590,3164.00
636.574,2946.00
637.558,3098.00
638.542,3057.00
639.526,2862.00
640.510,2637.00
641.493,3048.00
642.477,2985.00
643.460,2714.00
644.444,3265.00
645.427,3271.00
646.410,2672.00
647.393,2935.00
648.376,3073.00
649.359,2914.00
650.341,3106.00
651.324,3124.00
652.307,3026.00
653.289,2971.00
654.271,2817.00
655.253,2917.00
656.235,3133.00
657.217,3229.00
658.199,2686.00
659.181,2775.00
660.163,3018.00
661.144,2851.00
662.126,2894.00
663.107,2780.00
664.088,4734.00
665.069,3232.00
666.050,2863.00
667.033,2708.00
668.014,3037.00
668.995,2585.00
669.975,3024.00
670.956,2994.00
671.936,3141.00
672.916,2950.00
673.896,3155.00
674.876,2900.00
675.856,2865.00
676.836,2782.00
677.816,2296.00
678.795,2831.00
679.775,2644.00
680.754,3042.00
681.734,3149.00
682.713,3173.00
683.692,2758.00
684.671,2636.00
685.650,2777.00
686.629,2903.00
687.607,2799.00
688.586,2776.00
689.564,2844.00
690.543,3239.00
691.523,2375.00
692.501,2862.00
693.479,2933.00
694.457,2792.00
695.435,2871.00
696.413,2627.00
697.390,2493.00
698.368,2659.00
699.345,3092.00
700.322,2943.00
701.300,3078.00
702.277,3067.00
703.254,3275.00
704.231,2585.00
705.207,2934.00
706.184,2773.00
707.161,2667.00
708.137,2847.00
709.113,2826.00
710.090,2797.00
711.068,2611.00
712.044,2638.00
713.020,2906.00
713.996,2604.00
714.971,2786.00
715.947,2850.00
716.922,2801.00
717.898,2760.00
718.873,2885.00
719.848,2717.00
720.823,2672.00
721.798,3007.00
722.773,2757.00
723.748,2543.00
724.723,3027.00
725.697,2820.00
726.672,2739.00
727.646,2523.00
728.622,3002.00
729.596,2602.00
730.570,2765.00
731.544,3074.00
732.518,3314.00
733.492,2828.00
734.466,2840.00
735.439,3002.00
736.413,3073.00
737.386,2457.00
738.359,2441.00
739.332,2552.00
740.305,2824.00
741.278,3319.00
742.251,2915.00
743.224,2766.00
744.196,2545.00
745.171,3128.00
746.143,3014.00
747.115,2775.00
748.087,2724.00
749.059,3126.00
750.031,2884.00
751.003,3696.00
751.975,3226.00
752.947,2709.00
753.918,3101.00
754.890,2588.00
755.861,2736.00
756.832,3080.00
757.803,2863.00
758.774,2851.00
759.747,2597.00
760.718,3237.00
761.689,2741.00
762.659,2615.00
763.630,3154.00
764.600,2562.00
765.570,3075.00
766.540,3122.00
767.510,2935.00
768.480,3041.00
769.450,2713.00
770.420,2838.00
771.390,2609.00
772.359,2754.00
773.329,2651.00
774.300,2530.00
775.269,2797.00
776.238,3022.00
777.207,3188.00
778.176,2523.00
779.145,2785.00
780.114,2675.00
781.083,2572.00
782.051,2765.00
783.019,2699.00
783.988,3098.00
784.956,2879.00
785.924,2961.00
786.894,2862.00
787.862,2694.00
788.830,3124.00
789.797,2638.00
790.765,2599.00
791.732,2796.00
792.700,2660.00
793.667,2573.00
794.634,2725.00
795.601,2726.00
796.568,2768.00
797.535,2817.00
798.502,3431.00
799.468,2882.00
800.437,2380.00
801.403,2668.00
802.370,3266.00
803.336,3014.00
804.302,2884.00
805.268,2449.00
806.234,2556.00
807.200,2768.00
808.166,2792.00
809.131,2584.00
810.097,2958.00
811.062,3609.00
812.027,3025.00
812.994,2593.00
813.960,2624.00
814.925,2921.00
815.889,2526.00
816.854,2995.00
817.819,2663.00
818.783,2724.00
819.748,3102.00
820.712,2748.00
821.677,2614.00
822.641,2666.00
823.605,2765.00
824.571,3145.00
825.534,2757.00
826.498,2668.00
827.462,2820.00
828.425,2630.00
829.389,3038.00
830.352,2855.00
831.315,2909.00
832.279,2497.00
833.242,2736.00
834.204,2664.00
835.167,2655.00
836.132,3098.00
837.095,2538.00
838.057,2688.00
839.020,2828.00
839.982,2871.00
840.944,2668.00
841.906,2600.00
842.868,2952.00
843.830,2537.00
844.792,3035.00
845.753,2665.00
846.715,2464.00
847.679,2613.00
848.640,2611.00
849.601,2746.00
850.562,3274.00
851.523,2716.00
852.484,2471.00
853.445,2991.00
854.406,2700.00
855.367,2733.00
856.327,3065.00
857.288,2523.00
858.248,2662.00
859.210,2689.00
860.170,2498.00
861.130,3019.00
862.090,2454.00
863.050,2625.00
864.010,2727.00
864.969,2893.00
865.929,2582.00
866.888,2500.00
867.848,2831.00
868.807,2666.00
869.766,2858.00
870.727,2700.00
871.686,2988.00
872.645,2998.00
873.604,3289.00
874.562,2773.00
875.521,2809.00
876.479,3345.00
877.437,2609.00
878.396,2586.00
879.354,3139.00
880.312,2599.00
881.270,2694.00
882.229,3102.00
883.187,2621.00
884.145,2671.00
885.102,2902.00
886.059,2816.00
887.017,2873.00
887.974,2982.00
888.931,3078.00
889.888,2528.00
890.845,2429.00
891.802,2362.00
892.758,2609.00
893.717,2404.00
894.673,2553.00
895.630,2618.00
896.586,2877.00
897.542,2683.00
898.498,2536.00
899.454,2795.00
900.410,2657.00
901.366,2686.00
902.321,3758.00
903.277,2685.00
904.232,2754.00
905.189,2515.00
906.145,2664.00
907.100,2204.00
908.055,2723.00
909.010,2937.00
909.965,2339.00
910.919,2793.00
911.874,2556.00
912.828,2790.00
913.783,2758.00
914.737,2326.00
915.693,2743.00
916.648,2900.00
917.602,2953.00
918.555,2785.00
919.509,2865.00
920.463,2783.00
921.417,2785.00
922.370,2622.00
923.324,2663.00
924.277,2703.00
925.230,2759.00
926.183,2426.00
927.138,2689.00
928.091,2986.00
929.044,2854.00
929.996,2626.00
930.949,2673.00
931.902,2850.00
932.854,2848.00
933.806,2581.00
934.758,2944.00
935.711,2971.00
936.663,2808.00
937.614,2793.00
938.568,2738.00
939.520,2380.00
940.471,2706.00
941.423,2800.00
942.374,2862.00
943.326,2744.00
944.277,2620.00
945.228,2832.00
946.179,2697.00
947.130,3032.00
948.080,2660.00
949.031,2569.00
949.984,2713.00
950.934,2714.00
951.884,2500.00
952.835,2724.00
953.785,2723.00
954.735,2622.00
955.685,2349.00
956.635,2628.00
957.585,2632.00
958.534,2646.00
959.484,2756.00
960.433,2639.00
961.383,2476.00
962.334,2945.00
963.283,2804.00
964.232,2853.00
965.181,2730.00
966.130,2805.00
967.079,2614.00
968.027,2741.00
968.976,2698.00
969.924,2624.00
970.873,2826.00
971.821,2709.00
972.769,2954.00
973.719,2832.00
974.667,2480.00
975.615,2701.00
976.562,2727.00
977.510,2452.00
978.458,2596.00
979.405,2841.00
980.352,2771.00
981.300,2975.00
982.247,2792.00
983.194,2508.00
984.141,2599.00
985.088,2719.00
986.036,2782.00
986.983,2980.00
987.930,3125.00
988.876,2363.00
989.822,2978.00
990.769,2564.00
991.715,2601.00
992.661,2415.00
993.607,2803.00
994.553,3272.00
995.498,2589.00
996.444,2278.00
997.389,2755.00
998.337,2550.00
999.282,2856.00
1000.227,2679.00
1001.173,2681.00
1002.118,2451.00
1003.062,2897.00
1004.007,2709.00
1004.952,2959.00
1005.897,2934.00
1006.841,2714.00
1007.786,2467.00
1008.730,2430.00
1009.674,3147.00
1010.618,2672.00
1011.564,2476.00
1012.508,2399.00
1013.452,2961.00
1014.396,2731.00
1015.339,2605.00
1016.283,2701.00
1017.226,2723.00
1018.170,2742.00
1019.113,2875.00
1020.056,2714.00
1020.999,2698.00
1021.942,2606.00
1022.885,2845.00
1023.828,2986.00
1024.770,2516.00
1025.715,2749.00
1026.657,2700.00
1027.600,2734.00
1028.542,2941.00
1029.484,2761.00
1030.426,2843.00
1031.368,2761.00
1032.310,2604.00
1033.251,2539.00
1034.193,2686.00
1035.135,2443.00
1036.076,2631.00
1037.017,2532.00
1037.959,2883.00
1038.900,2789.00
1039.843,2774.00
1040.784,2771.00
1041.725,2816.00
1042.665,2590.00
1043.606,2762.00
1044.547,2749.00
1045.487,2387.00
1046.427,2656.00
1047.368,2748.00
1048.308,2236.00
1049.248,2490.00
1050.188,2703.00
1051.128,2625.00
1052.067,2704.00
1053.007,2421.00
1053.947,2381.00
1054.886,2606.00
1055.827,2462.00
1056.766,2933.00
1057.706,2447.00
1058.645,2674.00
1059.584,2717.00
1060.522,2988.00
1061.461,2474.00
1062.400,2495.00
1063.338,2629.00
1064.277,2518.00
1065.215,2508.00
1066.154,2384.00
1067.092,2611.00
1068.030,2630.00
1068.968,2880.00
1069.906,2956.00
1070.843,2949.00
1071.781,2743.00
1072.720,2789.00
1073.658,2829.00
1074.595,2589.00
1075.533,2518.00
1076.470,2591.00
1077.407,2987.00
1078.344,2775.00
1079.281,2794.00
1080.217,2305.00
1081.154,2663.00
1082.091,2723.00
1083.027,2451.00
1083.964,2904.00
1084.900,2534.00
1085.836,2579.00
1086.772,2850.00
1087.708,2475.00
1088.644,2848.00
1089.580,2685.00
1090.515,2743.00
1091.451,2597.00
1092.388,2722.00
1093.324,2464.00
1094.259,3215.00
1095.194,2746.00
1096.129,2614.00
1097.064,2561.00
1097.999,2816.00
1098.934,2507.00
1099.869,2529.00
1100.803,2708.00
1101.738,2695.00
1102.672,2384.00
1103.607,2806.00
1104.541,2535.00
1105.475,2544.00
1106.409,2406.00
1107.343,2624.00
1108.277,2453.00
1109.210,2698.00
1110.144,2665.00
1111.078,2637.00
1112.011,2437.00
1112.944,2747.00
1113.878,2701.00
1114.811,2155.00
1115.744,2570.00
1116.678,2298.00
1117.611,2547.00
1118.544,2623.00
1119.477,2775.00
1120.409,2585.00
1121.342,3112.00
1122.274,2747.00
1123.206,2935.00
1124.138,2655.00
1125.070,2975.00
1126.002,2860.00
1126.934,2290.00
1127.866,2567.00
1128.798,2299.00
1129.729,2359.00
1130.661,2628.00
1131.592,2585.00
1132.523,2726.00
1133.454,2790.00
1134.385,2323.00
1135.317,2620.00
1136.247,2598.00
1137.178,2849.00
1138.109,2372.00
1139.039,2983.00
1139.970,2864.00
1140.900,2572.00
1141.831,2319.00
1142.761,2204.00
1143.691,2754.00
1144.621,2608.00
1145.551,2676.00
1146.480,2678.00
1147.410,2828.00
1148.340,2280.00
1149.269,2369.00
1150.199,2593.00
1151.128,3052.00
1152.057,2477.00
1152.979,2573.00
1153.898,2635.00
1154.819,2727.00
1155.739,2632.00
1156.658,2550.00
1157.579,2655.00
1158.498,2619.00
1159.419,2159.00
1160.338,2665.00
1161.256,2716.00
1162.177,2523.00
1163.095,2610.00
1164.016,2667.00
1164.934,2895.00
1165.852,2825.00
1166.772,2602.00
1167.690,2656.00
1168.610,2674.00
1169.528,2643.00
1170.446,2175.00
1171.365,2549.00
1172.283,2493.00
1173.202,2613.00
1174.120,2670.00
1175.037,2507.00
1175.956,2447.00
1176.873,2494.00
1177.792,2531.00
1178.709,3104.00
1179.626,2547.00
1180.544,2827.00
1181.461,2532.00
1182.379,2715.00
1183.296,2665.00
1184.212,2295.00
1185.130,2455.00
1186.046,2944.00
1186.962,2615.00
1187.880,2895.00
1188.796,2682.00
1189.714,2482.00
1190.629,2776.00
1191.545,2687.00
1192.462,2570.00
1193.378,2624.00
1194.295,2337.00
1195.210,2644.00
1196.125,2742.00
1197.042,2736.00
1197.957,2612.00
1198.872,2466.00
1199.788,2545.00
1200.703,2932.00
1201.619,2669.00
1202.534,2533.00
1203.448,2720.00
1204.364,2578.00
1205.278,2309.00
1206.192,2654.00
1207.108,3106.00
1208.022,2985.00
1208.938,2473.00
1209.851,2782.00
1210.765,2865.00
1211.680,2528.00
1212.594,2415.00
1213.507,2606.00
1214.422,2984.00
1215.335,2734.00
1216.248,2573.00
1217.163,2654.00
1218.076,3189.00
1218.990,2736.00
1219.903,2433.00
1220.816,2446.00
1221.730,2577.00
1222.642,2479.00
1223.554,2533.00
1224.469,2683.00
1225.380,2597.00
1226.292,2310.00
1227.206,2762.00
1228.118,2935.00
1229.032,2259.00
1229.943,2511.00
1230.855,2613.00
1231.768,2409.00
1232.679,2702.00
1233.590,2595.00
1234.503,2878.00
1235.414,2474.00
1236.325,2502.00
1237.238,2669.00
1238.149,2759.00
1239.059,2416.00
1239.972,2784.00
1240.882,2453.00
1241.793,2747.00
1242.705,2958.00
1243.615,2564.00
1244.525,2713.00
1245.437,2226.00
1246.347,2634.00
1247.259,2805.00
1248.168,3084.00
1249.078,2871.00
1249.989,2904.00
1250.899,2432.00
1251.808,2475.00
1252.719,2552.00
1253.628,2514.00
1254.537,2945.00
1255.448,2453.00
1256.357,2474.00
1257.266,2600.00
1258.176,2352.00
1259.085,2379.00
1259.993,2426.00
1260.904,2488.00
1261.812,2468.00
1262.720,3165.00
1263.630,2798.00
1264.538,2448.00
1265.446,2768.00
1266.356,2629.00
1267.263,2874.00
1268.171,2417.00
1269.080,2692.00
1269.988,2824.00
1270.895,2554.00
1271.804,2572.00
1272.711,2799.00
1273.619,2765.00
1274.527,2440.00
1275.434,2772.00
1276.341,2444.00
1277.248,2650.00
1278.156,2930.00
1279.063,2501.00
1279.969,2701.00
1280.877,3489.00
1281.783,2845.00
1282.690,2688.00
1283.598,2598.00
1284.503,2458.00
1285.409,2434.00
1286.317,3011.00
1287.223,3045.00
1288.128,2653.00
1289.036,2537.00
1289.941,2556.00
1290.846,2587.00
1291.751,2458.00
1292.658,2575.00
1293.563,3054.00
1294.468,2681.00
1295.375,2783.00
1296.280,2844.00
1297.184,3298.00
1298.091,2720.00
1298.995,2787.00
1299.900,3007.00
1300.806,2517.00
1301.710,2361.00
1302.614,2221.00
1303.518,2891.00
1304.424,2535.00
1305.327,2834.00
1306.231,2602.00
1307.137,2790.00
1308.040,2687.00
1308.943,2626.00
1309.847,2844.00
1310.752,2849.00
1311.655,2296.00
1312.558,2419.00
1313.463,2557.00
1314.366,2513.00
1315.269,2671.00
1316.171,2580.00
1317.076,2507.00
1317.978,2419.00
1318.881,2227.00
1319.785,2506.00
1320.687,2500.00
1321.589,2235.00
1322.491,2478.00
1323.395,2706.00
1324.297,3169.00
1325.198,2780.00
1326.102,2442.00
1327.004,2425.00
1327.905,3045.00
1328.806,2551.00
1329.709,2676.00
1330.611,2537.00
1331.512,2454.00
1332.413,3063.00
1333.316,2691.00
1334.216,2793.00
1335.117,2367.00
1336.020,2677.00
1336.920,2635.00
1337.821,2475.00
1338.721,2862.00
1339.623,2643.00
1340.523,2591.00
1341.423,2498.00
1342.323,2910.00
1343.225,2676.00
1344.125,2438.00
1345.025,2527.00
1345.924,2281.00
1346.826,2976.00
1347.725,3036.00
1348.624,2848.00
1349.524,2518.00
1350.425,2630.00
1351.324,2696.00
1352.223,2817.00
1353.121,2592.00
1354.022,2845.00
1354.921,3045.00
1355.819,2732.00
1356.718,2687.00
1357.618,2361.00
1358.516,2730.00
1359.415,3015.00
1360.313,2733.00
1361.213,2531.00
1362.111,2927.00
1363.008,3265.00
1363.906,2590.00
1364.806,2594.00
1365.703,2746.00
1366.601,2451.00
1367.498,2446.00
1368.397,2804.00
1369.295,2720.00
1370.192,2445.00
1371.089,2707.00
1371.987,2605.00
1372.884,2860.00
1373.781,2424.00
1374.678,2611.00
1375.574,2471.00
1376.473,2754.00
1377.369,2857.00
1378.265,2440.00
1379.161,2582.00
1380.059,2327.00
1380.955,2765.00
1381.851,2414.00
1382.747,2513.00
1383.643,2541.00
1384.540,2406.00
1385.436,2523.00
1386.331,2648.00
1387.227,2759.00
1388.124,2746.00
1389.019,2456.00
1389.914,2630.00
1390.809,2301.00
1391.704,3031.00
1392.601,2548.00
1393.495,2909.00
1394.390,2805.00
1395.285,2895.00
1396.179,2730.00
1397.075,2613.00
1397.969,2647.00
1398.864,2335.00
1399.758,2539.00
1400.652,2668.00
1401.547,2474.00
1402.441,2435.00
1403.335,2970.00
1404.229,2775.00
1405.122,2701.00
1406.017,2612.00
1406.911,2750.00
1407.804,3037.00
1408.697,2659.00
1409.590,2470.00
1410.485,2808.00
1411.378,2708.00
1412.271,2315.00
1413.163,2678.00
1414.056,2808.00
1414.949,2976.00
1415.843,2668.00
1416.735,2586.00
1417.627,2660.00
1418.520,2613.00
1419.412,2852.00
1420.306,2832.00
1421.197,2909.00
1422.089,2848.00
1422.981,3087.00
1423.873,2808.00
1424.764,2732.00
1425.657,2674.00
1426.549,2728.00
1427.440,2822.00
1428.331,2521.00
1429.222,2325.00
1430.113,2704.00
1431.006,2801.00
1431.897,2548.00
1432.787,2639.00
1433.678,2550.00
1434.568,2420.00
1435.459,2870.00
1436.351,2801.00
1437.241,2759.00
1438.131,2785.00
1439.021,2384.00
1439.911,2608.00
1440.801,2723.00
1441.693,2887.00
1442.583,2695.00
1443.472,2637.00
1444.362,2760.00
1445.251,2607.00
1446.140,2562.00
1447.030,2791.00
1447.921,2810.00
1448.810,2457.00
1449.699,3010.00
1450.588,2692.00
1451.476,2587.00
1452.365,2725.00
1453.254,2558.00
1454.144,2532.00
1455.032,2765.00
1455.921,2391.00
1456.809,2931.00
1457.697,2436.00
1458.585,2569.00
1459.473,2583.00
1460.361,2486.00
1461.251,2678.00
1462.138,2736.00
1463.026,2638.00
1463.913,2906.00
1464.801,2564.00
1465.688,2712.00
1466.575,2681.00
1467.463,3100.00
1468.351,2493.00
1469.238,2617.00
1470.125,2229.00
1471.012,2719.00
1471.899,2744.00
1472.785,2442.00
1473.672,2635.00
1474.558,2862.00
1475.446,2815.00
1476.333,2812.00
1477.219,2432.00
1478.105,2615.00
1478.991,2612.00
1479.877,2907.00
1480.762,2661.00
1481.648,2528.00
1482.534,2774.00
1483.419,2704.00
1484.307,2767.00
1485.192,2647.00
1486.077,2517.00
1486.962,2548.00
1487.847,2368.00
1488.732,2507.00
1489.617,2655.00
1490.502,2906.00
1491.387,2793.00
1492.271,2481.00
1493.156,2486.00
1494.042,2498.00
1494.927,2836.00
1495.811,2558.00
1496.695,2783.00
1497.579,2976.00
1498.463,2657.00
1499.347,2720.00
1500.231,2728.00
1501.114,2702.00
1501.998,2912.00
1502.881,2650.00
1503.765,2901.00
1504.648,3061.00
1505.533,2753.00
1506.417,2677.00
1507.300,2625.00
1508.183,2727.00
1509.066,2182.00
1509.948,2906.00
1510.831,3035.00
1511.714,2446.00
1512.596,2815.00
1513.479,2929.00
1514.361,2872.00
1515.243,2646.00
1516.125,2792.00
1517.008,2907.00
1517.890,2603.00
1518.771,2708.00
1519.655,2844.00
1520.537,2601.00
1521.419,2483.00
1522.300,2671.00
1523.182,2800.00
1524.063,2792.00
1524.944,2934.00
1525.825,2862.00
1526.707,2466.00
1527.588,2460.00
1528.468,2756.00
1529.349,2332.00
1530.230,2592.00
1531.111,2789.00
1531.991,2721.00
1532.872,2376.00
1533.752,2620.00
1534.632,2557.00
1535.513,2514.00
1536.393,2827.00
1537.273,2996.00
1538.153,3269.00
1539.032,2407.00
1539.912,2700.00
1540.792,2702.00
1541.672,2688.00
1542.551,2774.00
1543.430,3246.00
1544.310,2700.00
1545.189,2577.00
1546.068,3065.00
1546.947,2785.00
1547.826,2972.00
1548.705,2636.00
1549.584,2870.00
1550.462,2591.00
1551.341,2847.00
1552.219,2717.00
1553.098,2793.00
1553.976,2861.00
1554.854,3082.00
1555.733,2866.00
1556.611,2583.00
1557.489,2467.00
1558.367,2646.00
1559.244,2812.00
1560.122,2681.00
1561.000,2738.00
1561.877,2955.00
1562.755,2548.00
1563.632,2633.00
1564.509,2934.00
1565.386,3005.00
1566.264,2446.00
1567.141,2292.00
1568.017,2811.00
1568.894,2660.00
1569.771,2695.00
1570.648,2780.00
1571.524,2689.00
1572.401,2383.00
1573.277,2452.00
1574.153,2719.00
1575.029,2525.00
1575.906,3378.00
1576.781,2842.00
1577.657,2592.00
1578.533,2898.00
1579.409,2322.00
1580.285,2641.00
1581.160,3057.00
1582.036,2840.00
1582.911,2492.00
1583.786,3017.00
1584.662,2419.00
1585.537,2658.00
1586.412,2716.00
1587.287,2529.00
1588.160,2871.00
1589.035,2323.00
1589.909,2689.00
1590.784,2676.00
1591.658,2463.00
1592.533,2706.00
1593.407,2706.00
1594.281,2575.00
1595.155,3065.00
1596.029,2554.00
1596.903,2629.00
1597.777,2568.00
1598.651,2911.00
1599.525,2386.00
1600.398,2709.00
1601.272,2650.00
1602.144,3216.00
1603.017,2627.00
1603.890,2909.00
1604.763,2763.00
1605.636,2841.00
1606.509,2405.00
1607.382,2530.00
1608.255,2750.00
1609.128,2867.00
1610.000,2638.00
1610.873,2362.00
1611.746,2585.00
1612.616,2581.00
1613.488,2274.00
1614.361,2652.00
1615.233,2612.00
1616.105,2826.00
1616.977,2638.00
1617.849,2509.00
1618.720,2996.00
1619.592,2989.00
1620.464,2737.00
1621.333,3105.00
1622.205,2647.00
1623.076,2660.00
1623.947,2658.00
1624.818,2911.00
1625.689,2774.00
1626.560,2594.00
1627.431,2753.00
1628.302,3040.00
1629.171,2815.00
1630.042,2960.00
1630.912,3668.00
1631.782,3230.00
1632.653,2485.00
1633.523,2814.00
1634.393,2928.00
1635.263,2572.00
1636.131,2677.00
1637.001,2583.00
1637.871,2313.00
1638.741,2308.00
1639.611,2441.00
1640.480,2794.00
1641.350,2538.00
1642.219,2519.00
1643.087,2200.00
1643.956,3102.00
1644.825,2948.00
1645.694,2869.00
1646.563,2870.00
1647.432,2713.00
1648.299,2672.00
1649.167,2812.00
1650.036,2534.00
1650.904,2868.00
1651.773,2887.00
1652.641,2697.00
1653.509,2857.00
1654.376,2569.00
1655.244,2676.00
1656.112,2722.00
1656.980,2658.00
1657.847,2570.00
1658.715,2862.00
1659.581,2596.00
1660.448,2913.00
1661.316,2180.00
1662.183,2721.00
1663.051,2736.00
1663.918,2720.00
1664.783,2670.00
1665.650,2769.00
1666.517,2863.00
1667.384,2696.00
1668.251,2712.00
1669.115,2949.00
1669.982,2643.00
1670.849,2967.00
1671.715,2632.00
1672.581,2816.00
1673.446,2799.00
1674.312,2730.00
1675.178,3138.00
1676.044,2757.00
1676.910,2745.00
1677.774,2723.00
1678.639,2344.00
1679.505,2656.00
1680.370,2810.00
1681.236,3303.00
1682.099,2654.00
1682.965,2737.00
1683.830,2289.00
1684.695,2505.00
1685.560,2598.00
1686.423,2816.00
1687.288,2847.00
1688.153,2718.00
1689.017,2635.00
1689.880,2760.00
1690.745,2836.00
1691.609,2507.00
1692.473,2820.00
1693.338,2915.00
1694.200,2916.00
1695.064,2688.00
1695.928,2558.00
1696.792,2701.00
1697.654,3178.00
1698.517,2744.00
1699.381,2421.00
1700.245,2377.00
1701.106,2947.00
1701.969,2588.00
1702.833,2873.00
1703.696,2602.00
1704.557,2686.00
1705.420,2543.00
1706.283,2724.00
1707.146,2783.00
1708.007,2464.00
1708.870,2500.00
1709.732,2374.00
1710.595,2584.00
1711.455,2463.00
1712.318,2597.00
1713.180,2932.00
1714.040,2724.00
1714.902,2821.00
1715.764,2671.00
1716.626,2487.00
1717.486,2660.00
1718.348,2961.00
1719.209,4062.00
1720.071,2367.00
1720.930,2415.00
1721.792,2524.00
1722.653,2539.00
1723.512,2584.00
1724.374,2642.00
1725.234,2762.00
1726.095,2761.00
1726.954,2706.00
1727.815,2809.00
1728.676,2645.00
1729.535,2913.00
1730.395,2634.00
1731.256,2632.00
1732.114,2758.00
1732.974,2178.00
1733.834,3070.00
1734.693,2845.00
1735.553,2717.00
1736.413,3112.00
1737.272,2581.00
1738.130,2653.00
1738.990,2739.00
1739.849,2591.00
1740.707,3676.00
1741.566,2723.00
1742.426,2743.00
1743.283,3095.00
1744.142,2583.00
1745.001,2348.00
1745.858,2850.00
1746.717,2778.00
1747.576,2830.00
1748.433,2791.00
1749.292,3264.00
1750.150,3292.00
1751.007,2889.00
1751.865,2865.00
1752.723,2727.00
1753.579,2636.00
1754.438,2912.00
1755.296,2922.00
1756.152,2274.00
1757.010,2382.00
1757.865,2901.00
1758.723,2376.00
1759.581,3008.00
1760.436,2669.00
1761.294,3084.00
1762.151,2711.00
1763.006,2661.00
1763.864,2368.00
1764.721,2907.00
1765.576,2709.00
1766.433,2847.00
1767.288,2614.00
1768.144,2752.00
1769.001,2658.00
1769.856,2750.00
1770.712,2915.00
1771.568,2497.00
1772.423,2636.00
1773.279,2569.00
1774.133,2617.00
1774.989,3071.00
1775.845,3102.00
1776.699,2960.00
1777.555,2686.00
1778.409,3211.00
1779.265,2626.00
1780.120,2621.00
1780.974,2716.00
1781.829,2316.00
1782.682,2774.00
1783.538,2544.00
1784.393,2754.00
1785.246,2597.00
1786.101,2788.00
1786.954,2864.00
1787.808,2909.00
1788.661,2429.00
1789.516,2627.00
1790.370,2628.00
1791.223,2892.00
1792.077,2699.00
1792.930,2766.00
1793.784,2567.00
1794.636,2729.00
1795.490,2656.00
1796.344,2735.00
1797.196,2716.00
1798.049,2851.00
1798.901,2606.00
1799.755,2936.00
1800.606,2530.00
1801.460,3180.00
1802.311,3007.00
1803.165,3097.00
1804.018,3061.00
1804.869,2788.00
1805.722,3168.00
1806.573,2759.00
1807.426,2519.00
1808.276,2679.00
1809.129,2589.00
1809.980,2881.00
1810.832,2983.00
1811.683,2642.00
1812.535,2998.00
1813.385,2643.00
1814.237,2979.00
1815.089,2742.00
1815.940,2997.00
1816.791,2664.00
1817.641,2566.00
1818.493,2846.00
1819.343,2772.00
1820.194,2527.00
1821.044,2801.00
1821.895,2925.00
1822.745,2424.00
1823.596,2609.00
1824.445,3135.00
1825.296,2798.00
1826.145,2710.00
1826.996,2944.00
1827.845,2770.00
1828.695,2758.00
1829.544,2688.00
1830.395,2756.00
1831.243,2636.00
1832.094,2464.00
1832.942,3313.00
1833.792,2841.00
1834.640,2748.00
1835.490,2753.00
1836.338,2756.00
1837.186,2586.00
1838.036,2582.00
1838.884,2689.00
1839.733,3027.00
1840.581,2881.00
1841.430,2881.00
1842.278,3053.00
1843.127,2611.00
1843.974,2370.00
1844.823,3159.00
1845.671,2891.00
1846.519,2731.00
1847.366,2774.00
1848.213,2352.00
1849.062,2526.00
1849.909,2447.00
1850.757,3375.00
1851.604,2833.00
1852.452,2632.00
1853.298,2920.00
1854.146,2767.00
1854.993,2742.00
1855.839,3203.00
1856.687,2829.00
1857.532,2821.00
1858.380,2714.00
1859.226,2808.00
1860.073,2819.00
1860.919,2530.00
1861.765,2602.00
1862.612,2961.00
1863.457,2964.00
1864.304,2662.00
1865.150,2812.00
1865.995,2704.00
1866.842,2886.00
1867.686,2964.00
1868.533,2781.00
1869.378,2789.00
1870.223,2741.00
1871.069,2625.00
1871.914,2769.00
1872.760,2723.00
1873.604,2514.00
1874.448,2870.00
1875.294,2895.00
1876.139,2607.00
1876.984,2810.00
1877.828,2401.00
1878.672,2241.00
1879.518,2587.00
1880.361,2886.00
1881.205,2909.00
1882.050,2518.00
1882.894,3251.00
1883.739,2567.00
1884.582,2465.00
1885.425,2546.00
1886.270,2952.00
1887.113,2506.00
1887.956,2851.00
1888.801,2759.00
1889.644,2548.00
1890.486,2353.00
1891.331,2653.00
1892.173,2762.00
1893.017,2755.00
1893.860,3005.00
1894.702,3043.00
1895.546,2734.00
1896.388,3369.00
1897.230,3055.00
1898.074,2599.00
1898.916,2507.00
1899.757,2553.00
1900.601,3371.00
1901.443,3022.00
1902.284,2999.00
1903.125,3182.00
1903.969,2922.00
1904.810,2947.00
1905.651,2792.00
1906.494,3027.00
1907.335,3116.00
1908.176,2821.00
1909.018,2855.00
1909.859,2720.00
1910.700,2594.00
1911.542,3253.00
1912.383,2850.00
1913.223,2411.00
1914.064,2857.00
1914.906,3000.00
1915.746,3035.00
1916.586,3172.00
1917.428,2682.00
1918.268,2799.00
1919.107,2608.00
1919.947,2502.00
1920.789,2661.00
1921.628,2984.00
1922.468,2731.00
1923.309,2585.00
1924.148,3029.00
1924.988,2794.00
1925.827,2737.00
1926.667,2586.00
1927.507,2762.00
1928.345,2542.00
1929.184,2872.00
1930.025,2562.00
1930.864,2973.00
1931.702,3005.00
1932.541,2636.00
1933.381,2864.00
1934.219,2877.00
1935.057,3014.00
1935.896,2415.00
1936.735,2733.00
1937.573,2645.00
1938.411,2518.00
1939.249,2881.00
1940.089,2602.00
1940.927,2983.00
1941.764,3003.00
1942.602,2673.00
1943.439,2631.00
1944.278,2697.00
1945.115,2663.00
1945.953,2486.00
1946.790,2811.00
1947.628,3070.00
1948.465,2879.00
1949.302,2866.00
1950.139,2869.00
1950.976,2614.00
1951.814,2908.00
1952.651,2759.00
1953.487,2541.00
1954.323,2975.00
1955.160,2713.00
1955.998,3096.00
1956.834,2739.00
1957.670,2791.00
1958.506,2978.00
1959.342,2854.00
1960.177,2821.00
1961.015,2879.00
1961.850,2778.00
1962.686,2785.00
1963.521,2789.00
1964.357,3014.00
1965.192,2551.00
1966.029,2897.00
1966.864,2643.00
1967.699,2995.00
1968.534,2768.00
1969.369,2995.00
1970.204,2738.00
1971.040,2786.00
1971.875,2686.00
1972.709,2757.00
1973.544,2590.00
1974.378,2640.00
1975.212,2877.00
1976.047,2624.00
1976.882,2631.00
1977.716,3137.00
1978.550,2444.00
1979.384,2694.00
1980.218,2684.00
1981.052,2666.00
1981.885,2770.00
1982.719,2749.00
1983.554,2880.00
1984.388,3068.00
1985.221,2876.00
1986.054,2996.00
1986.887,2778.00
1987.720,2588.00
1988.553,3092.00
1989.386,2849.00
1990.219,2892.00
1991.053,3077.00
1991.886,2620.00
1992.719,2945.00
1993.551,2275.00
1994.383,2913.00
1995.216,2682.00
1996.048,2481.00
1996.880,2938.00
1997.712,2610.00
1998.544,2767.00
1999.376,2845.00
2000.208,3019.00
2001.040,3224.00
2001.873,2576.00
2002.705,2598.00
2003.536,2778.00
2004.367,2771.00
2005.199,2849.00
2006.030,2697.00
2006.861,2556.00
2007.692,2752.00
2008.523,2614.00
2009.354,2819.00
2010.185,2558.00
2011.016,2905.00
2011.846,2921.00
2012.677,2693.00
2013.507,3079.00
2014.338,3009.00
2015.168,2663.00
2015.999,3254.00
2016.829,2687.00
2017.659,2990.00
2018.489,3259.00
2019.319,2547.00
2020.149,2940.00
2020.980,2755.00
2021.810,2572.00
2022.639,2651.00
2023.469,2710.00
2024.298,2449.00
2025.128,2383.00
2025.957,2396.00
2026.786,2203.00
2027.615,2392.00
2028.444,2615.00
2029.273,2770.00
2030.102,2380.00
2030.931,2586.00
2031.758,2868.00
2032.586,2550.00
2033.415,2656.00
2034.243,2232.00
2035.072,1996.00
2035.900,2500.00
2036.728,2337.00
2037.556,2400.00
2038.385,2365.00
2039.213,2209.00
2040.040,2204.00
2040.868,2138.00
2041.696,2217.00
2042.524,2255.00
2043.351,2434.00
2044.179,2252.00
2045.006,2001.00
