RamanScope Measure Spectrum Data V3.72

<< MEASURE CONDITION >>
Exposure Type,Aver
Exposure Time [sec],15
Exposure Count,4
Measure Time,2023/07/15 16:32:05
Data Name,""
Data Comment,""
Rayleigh Wave[nm],532.0

<< SAMPLE SPECTRUM >>
Wave[dcm-1],No175
146.591,963.00
147.626,1152.75
148.664,1361.25
149.699,1526.00
150.737,1706.25
151.772,1889.75
152.809,2074.50
153.846,2241.75
154.881,2370.50
155.918,2499.00
156.953,2643.75
157.989,2706.50
159.026,2782.50
160.060,2813.75
161.096,2901.50
162.130,2963.75
163.167,3012.25
164.200,3043.25
165.236,3088.25
166.272,3106.00
167.305,3188.75
168.341,3239.00
169.374,3247.75
170.409,3313.00
171.445,3441.75
172.477,3469.25
173.512,3487.25
174.545,3533.50
175.580,3579.25
176.614,3518.50
177.647,3549.25
178.681,3581.75
179.713,3570.75
180.747,3514.25
181.781,3484.75
182.813,3522.50
183.847,3526.75
184.878,3554.25
185.912,3513.75
186.945,3603.25
187.976,3600.50
189.010,3607.00
190.043,3634.00
191.073,3693.75
192.106,3709.00
193.137,3730.25
194.170,3798.25
195.202,3875.25
196.232,3856.75
197.265,3938.50
198.297,4000.00
199.327,4078.00
200.359,4119.00
201.388,4199.75
202.420,4309.50
203.452,4395.75
204.481,4446.50
205.512,4595.25
206.544,4699.50
207.573,4808.25
208.604,4947.25
209.635,5088.25
210.663,5167.00
211.694,5337.00
212.725,5448.00
213.753,5531.00
214.783,5636.00
215.813,5676.50
216.841,5693.75
217.871,5676.00
218.899,5656.75
219.929,5661.00
220.959,5527.25
221.986,5415.50
223.016,5304.50
224.045,5185.25
225.072,5146.50
226.101,5068.50
227.130,4905.50
228.157,4828.00
229.185,4774.75
230.214,4707.50
231.241,4673.25
232.269,4578.25
233.297,4576.25
234.323,4564.50
235.351,4506.50
236.379,4546.75
237.407,4437.50
238.433,4469.50
239.460,4579.75
240.488,4581.50
241.513,4573.00
242.540,4641.50
243.568,4632.50
244.592,4707.25
245.619,4753.50
246.646,4725.25
247.671,4703.25
248.697,4685.50
249.724,4665.50
250.748,4619.75
251.774,4617.00
252.801,4607.00
253.827,4613.75
254.850,4611.25
255.876,4675.00
256.902,4686.50
257.925,4709.50
258.951,4702.25
259.976,4814.00
260.999,4806.00
262.024,4830.00
263.049,4868.50
264.074,4876.50
265.097,4955.25
266.122,4994.50
267.146,5057.50
268.168,5109.25
269.193,5127.50
270.217,5160.75
271.241,5263.75
272.263,5268.25
273.287,5246.00
274.311,5313.25
275.332,5337.25
276.356,5383.25
277.379,5288.75
278.402,5315.25
279.424,5304.00
280.447,5245.00
281.470,5138.75
282.492,5114.50
283.513,5038.50
284.536,4995.50
285.558,4939.50
286.581,4845.50
287.601,4765.50
288.623,4697.00
289.645,4664.00
290.665,4610.25
291.687,4549.50
292.709,4455.50
293.730,4391.00
294.750,4390.50
295.771,4342.75
296.792,4329.75
297.813,4170.25
298.832,4171.25
299.853,4123.50
300.874,4052.00
301.895,4027.00
302.913,3979.25
303.934,3936.75
304.954,3874.00
305.975,3913.75
306.993,3849.00
308.013,3827.50
309.033,3806.25
310.052,3738.50
311.072,3746.00
312.090,3696.75
313.109,3661.00
314.129,3661.00
315.148,3696.25
316.165,3671.75
317.184,3604.00
318.203,3574.25
319.222,3553.75
320.238,3514.50
321.257,3550.50
322.275,3525.50
323.294,3488.75
324.312,3473.75
325.328,3450.50
326.346,3431.75
327.364,3455.75
328.382,3426.75
329.397,3431.00
330.415,3403.25
331.432,3428.00
332.450,3415.00
333.467,3390.75
334.482,3398.25
335.499,3373.50
336.516,3346.75
337.533,3388.50
338.547,3372.50
339.564,3366.25
340.580,3370.75
341.597,3381.75
342.613,3375.75
343.627,3326.00
344.643,3292.50
345.659,3324.25
346.675,3337.50
347.690,3345.00
348.704,3347.00
349.719,3327.75
350.735,3268.00
351.750,3313.25
352.765,3355.50
353.778,3275.75
354.793,3307.25
355.808,3285.25
356.822,3333.25
357.837,3293.25
358.851,3340.00
359.864,3310.00
360.878,3321.75
361.892,3357.25
362.906,3308.00
363.920,3375.75
364.932,3313.00
365.945,3340.75
366.959,3355.50
367.972,3352.75
368.986,3367.25
369.999,3344.00
371.010,3358.50
372.023,3358.25
373.036,3387.00
374.049,3421.50
375.061,3423.50
376.072,3411.50
377.084,3400.25
378.097,3467.50
379.109,3504.75
380.121,3464.50
381.133,3408.25
382.143,3497.00
383.155,3480.25
384.166,3466.25
385.178,3402.50
386.189,3446.00
387.201,3482.50
388.212,3378.00
389.221,3412.25
390.232,3467.50
391.243,3443.25
392.254,3382.25
393.264,3406.25
394.275,3373.00
395.283,3338.25
396.294,3360.75
397.304,3346.25
398.314,3360.25
399.324,3382.75
400.334,3362.75
401.344,3318.75
402.351,3317.00
403.361,3300.25
404.370,3243.00
405.380,3261.50
406.389,3224.00
407.398,3273.00
408.407,3260.75
409.414,3766.75
410.423,3168.50
411.431,3186.25
412.440,3190.25
413.448,3187.00
414.457,3220.00
415.465,3095.75
416.471,3116.25
417.479,3078.25
418.487,3120.00
419.495,3107.75
420.503,3078.00
421.510,3075.25
422.518,3100.00
423.525,3118.25
424.530,3067.50
425.537,3088.75
426.544,3093.00
427.551,2995.50
428.558,3005.00
429.565,3086.00
430.571,3057.00
431.578,3035.00
432.582,3058.00
433.588,3027.25
434.595,3041.25
435.601,3040.50
436.607,3037.00
437.612,3021.50
438.618,3056.00
439.624,3075.00
440.627,3084.75
441.633,3013.25
442.638,3055.25
443.643,3045.25
444.648,3045.00
445.653,3045.25
446.658,3052.00
447.663,3038.00
448.667,3006.00
449.672,3098.50
450.674,3068.25
451.678,3045.50
452.682,3011.50
453.687,3010.25
454.690,3033.50
455.694,3141.00
456.698,3094.75
457.702,3077.50
458.705,3066.75
459.709,3077.00
460.710,3058.50
461.713,3079.75
462.716,3122.50
463.719,3062.00
464.722,3096.25
465.725,3079.25
466.727,3118.25
467.730,3118.50
468.732,3097.50
469.735,3137.75
470.737,3079.75
471.737,3102.50
472.739,3115.75
473.741,3112.25
474.742,3091.00
475.744,3168.00
476.746,3157.75
477.747,3115.00
478.748,3101.25
479.750,3088.75
480.751,3152.50
481.752,3113.00
482.753,3114.75
483.751,3169.25
484.752,3070.00
485.753,3095.25
486.753,3126.50
487.753,3184.50
488.754,3113.75
489.754,3061.25
490.754,3105.75
491.754,3129.50
492.754,3092.75
493.753,3111.75
494.753,3084.25
495.752,3109.50
496.752,3123.75
497.749,3111.00
498.748,3096.25
499.747,3075.25
500.746,3119.50
501.745,3106.00
502.744,3100.25
503.742,3070.25
504.741,3098.25
505.739,3025.25
506.737,3078.25
507.735,3044.50
508.734,3031.00
509.732,2992.75
510.729,3003.75
511.727,2993.00
512.725,3004.25
513.720,2970.50
514.718,2949.25
515.715,2940.00
516.712,2912.50
517.709,2908.00
518.706,2946.75
519.703,2950.25
520.700,2970.50
521.696,2986.50
522.693,2965.75
523.689,2976.25
524.686,2975.75
525.682,2980.75
526.678,2997.75
527.674,2968.00
528.670,3042.50
529.666,3010.00
530.661,3022.25
531.657,3002.75
532.652,3031.50
533.648,3057.25
534.641,2971.50
535.636,2981.25
536.631,2949.75
537.626,3066.25
538.621,3036.75
539.616,3078.50
540.610,2996.25
541.605,3005.75
542.599,3069.50
543.593,3020.00
544.587,2998.50
545.581,3025.00
546.575,3040.50
547.569,3014.25
548.563,2996.25
549.557,3013.25
550.550,3028.50
551.543,3021.00
552.537,3013.75
553.530,3088.00
554.523,3028.00
555.516,2952.50
556.509,3037.75
557.502,3010.50
558.494,3021.25
559.487,3015.75
560.479,3019.25
561.472,3085.50
562.464,3024.00
563.456,3070.00
564.448,3045.00
565.440,3012.75
566.432,3021.75
567.423,3083.50
568.415,3049.25
569.404,3031.75
570.396,3086.50
571.387,3087.75
572.378,3095.50
573.369,3042.75
574.360,3136.00
575.351,3093.50
576.341,3142.25
577.332,3148.25
578.323,3107.00
579.313,3141.25
580.303,3077.25
581.293,3096.25
582.283,3178.25
583.273,3125.50
584.263,3165.00
585.253,3157.00
586.243,3171.00
587.232,3111.00
588.222,3153.00
589.211,3133.50
590.200,3224.75
591.189,3183.25
592.178,3159.50
593.167,3178.00
594.156,3179.50
595.145,3222.00
596.133,3232.25
597.122,3178.50
598.110,3152.75
599.098,3128.75
600.086,3151.50
601.074,3161.00
602.062,3187.00
603.050,3191.50
604.038,3146.25
605.025,3130.75
606.013,3139.25
607.000,3095.50
607.987,3139.75
608.975,3102.75
609.962,3084.50
610.949,3104.25
611.936,3117.75
612.922,3034.50
613.909,3024.75
614.895,3097.50
615.882,3041.75
616.868,3044.75
617.854,3040.50
618.841,2943.25
619.826,2939.25
620.812,2909.75
621.798,2920.75
622.784,2884.50
623.769,2870.00
624.755,2838.25
625.740,2814.00
626.725,2858.00
627.711,2837.25
628.698,2793.25
629.683,2805.25
630.667,2761.50
631.652,2728.75
632.637,2710.50
633.621,2735.25
634.606,2726.75
635.590,2704.75
636.574,2667.00
637.558,2693.25
638.542,2667.00
639.526,2588.00
640.510,2597.50
641.493,2595.25
642.477,2612.00
643.460,2563.75
644.444,2544.50
645.427,2534.75
646.410,2572.00
647.393,2542.00
648.376,2542.25
649.359,2514.75
650.341,2504.00
651.324,2514.25
652.307,2490.50
653.289,2480.75
654.271,2476.00
655.253,2471.50
656.235,2417.00
657.217,2448.50
658.199,2481.25
659.181,2475.75
660.163,2423.75
661.144,2415.25
662.126,2398.50
663.107,2405.25
664.088,2442.75
665.069,2442.00
666.050,2416.50
667.033,2380.75
668.014,2377.75
668.995,2341.00
669.975,2357.50
670.956,2341.25
671.936,2368.00
672.916,2323.75
673.896,2318.00
674.876,2318.50
675.856,2296.00
676.836,2281.50
677.816,2239.25
678.795,2237.00
679.775,2226.50
680.754,2221.75
681.734,2249.50
682.713,2167.75
683.692,2196.50
684.671,2188.25
685.650,2186.00
686.629,2178.50
687.607,2139.00
688.586,2100.75
689.564,2125.00
690.543,2078.50
691.523,2056.50
692.501,2032.75
693.479,2057.00
694.457,2085.50
695.435,2051.00
696.413,2095.50
697.390,2020.75
698.368,1999.00
699.345,2074.00
700.322,2031.25
701.300,2027.50
702.277,1977.75
703.254,1989.75
704.231,2028.50
705.207,1983.00
706.184,1989.75
707.161,1932.25
708.137,1952.00
709.113,1928.50
710.090,1924.75
711.068,1909.50
712.044,1925.00
713.020,1928.50
713.996,1900.50
714.971,1867.00
715.947,1916.00
716.922,1848.75
717.898,1886.00
718.873,1861.50
719.848,1910.25
720.823,1889.50
721.798,1941.75
722.773,1824.25
723.748,1863.50
724.723,1833.50
725.697,1799.25
726.672,1840.75
727.646,1829.25
728.622,1785.75
729.596,1791.25
730.570,1804.00
731.544,1827.00
732.518,1825.75
733.492,1768.00
734.466,1852.25
735.439,1762.75
736.413,1836.50
737.386,1822.75
738.359,1766.25
739.332,1795.50
740.305,1789.75
741.278,1740.50
742.251,1746.50
743.224,1764.75
744.196,1771.75
745.171,1731.00
746.143,1763.00
747.115,1732.50
748.087,1746.50
749.059,1738.50
750.031,1747.25
751.003,1692.75
751.975,1657.75
752.947,1751.00
753.918,1668.50
754.890,1700.25
755.861,1721.00
756.832,1648.75
757.803,1712.75
758.774,1674.25
759.747,1718.00
760.718,1666.75
761.689,1623.00
762.659,1608.75
763.630,1633.75
764.600,1682.25
765.570,1661.25
766.540,1701.25
767.510,1649.00
768.480,1679.50
769.450,1685.75
770.420,1591.00
771.390,1561.00
772.359,1615.75
773.329,1602.50
774.300,1607.75
775.269,1626.50
776.238,1614.75
777.207,1626.25
778.176,1601.50
779.145,1577.00
780.114,1601.25
781.083,1616.75
782.051,1551.75
783.019,1577.00
783.988,1606.25
784.956,1539.50
785.924,1549.00
786.894,1530.50
787.862,1537.75
788.830,1569.75
789.797,1522.75
790.765,1536.00
791.732,1519.75
792.700,1535.25
793.667,1533.25
794.634,1474.75
795.601,1511.25
796.568,1530.50
797.535,1496.25
798.502,1493.00
799.468,1499.00
800.437,1524.00
801.403,1494.75
802.370,1490.00
803.336,1502.50
804.302,1497.50
805.268,1452.75
806.234,1476.25
807.200,1461.50
808.166,1469.00
809.131,1461.25
810.097,1492.00
811.062,1445.50
812.027,1400.50
812.994,1438.75
813.960,1445.75
814.925,1444.50
815.889,1449.50
816.854,1469.00
817.819,1430.25
818.783,1459.25
819.748,1443.75
820.712,1477.75
821.677,1398.50
822.641,1438.25
823.605,1407.75
824.571,1386.50
825.534,1402.00
826.498,1419.25
827.462,1450.00
828.425,1395.00
829.389,1391.50
830.352,1433.25
831.315,1437.00
832.279,1427.50
833.242,1411.50
834.204,1372.50
835.167,1455.00
836.132,1414.00
837.095,1389.75
838.057,1422.25
839.020,1393.50
839.982,1376.25
840.944,1367.75
841.906,1397.75
842.868,1385.00
843.830,1371.50
844.792,1371.00
845.753,1411.00
846.715,1406.25
847.679,1403.25
848.640,1341.50
849.601,1403.75
850.562,1399.50
851.523,1377.50
852.484,1361.75
853.445,1370.50
854.406,1348.25
855.367,1397.75
856.327,1373.50
857.288,1438.25
858.248,1363.25
859.210,1378.00
860.170,1362.75
861.130,1361.50
862.090,1359.25
863.050,1376.25
864.010,1330.25
864.969,1346.00
865.929,1324.50
866.888,1412.75
867.848,1361.00
868.807,1410.50
869.766,1328.75
870.727,1349.75
871.686,1358.75
872.645,1394.25
873.604,1284.50
874.562,1367.75
875.521,1386.25
876.479,1344.75
877.437,1360.75
878.396,1333.50
879.354,1370.00
880.312,1314.75
881.270,1370.75
882.229,1338.25
883.187,1362.25
884.145,1375.50
885.102,1371.25
886.059,1353.00
887.017,1380.75
887.974,1334.50
888.931,1342.50
889.888,1330.75
890.845,1360.75
891.802,1354.50
892.758,1339.25
893.717,1372.50
894.673,1359.25
895.630,1383.50
896.586,1329.25
897.542,1380.25
898.498,1359.25
899.454,1367.00
900.410,1382.00
901.366,1365.00
902.321,1302.00
903.277,1373.00
904.232,1325.75
905.189,1372.75
906.145,1342.75
907.100,1384.00
908.055,1346.25
909.010,1346.00
909.965,1346.00
910.919,1430.50
911.874,1325.50
912.828,1333.00
913.783,1364.25
914.737,1354.25
915.693,1336.50
916.648,1368.00
917.602,1341.75
918.555,1366.75
919.509,1338.50
920.463,1416.50
921.417,1390.00
922.370,1375.75
923.324,1368.00
924.277,1328.00
925.230,1329.25
926.183,1348.00
927.138,1358.00
928.091,1374.50
929.044,1344.75
929.996,1368.25
930.949,1401.50
931.902,1333.50
932.854,1356.25
933.806,1360.00
934.758,1328.00
935.711,1388.25
936.663,1338.00
937.614,1365.75
938.568,1341.50
939.520,1359.50
940.471,1349.75
941.423,1364.25
942.374,1345.75
943.326,1340.25
944.277,1320.25
945.228,1334.25
946.179,1362.50
947.130,1363.25
948.080,1373.25
949.031,1321.75
949.984,1321.25
950.934,1323.25
951.884,1353.25
952.835,1341.00
953.785,1370.00
954.735,1312.25
955.685,1321.00
956.635,1326.75
957.585,1315.75
958.534,1331.50
959.484,1357.00
960.433,1376.25
961.383,1320.25
962.334,1296.00
963.283,1310.25
964.232,1317.50
965.181,1282.75
966.130,1330.00
967.079,1303.75
968.027,1301.50
968.976,1339.75
969.924,1325.25
970.873,1316.75
971.821,1312.00
972.769,1299.00
973.719,1330.50
974.667,1296.25
975.615,1336.75
976.562,1318.50
977.510,1316.25
978.458,1333.50
979.405,1313.00
980.352,1351.00
981.300,1333.75
982.247,1336.00
983.194,1302.50
984.141,1319.50
985.088,1301.25
986.036,1293.00
986.983,1297.25
987.930,1297.25
988.876,1344.75
989.822,1322.25
990.769,1300.50
991.715,1278.25
992.661,1289.00
993.607,1295.75
994.553,1298.00
995.498,1310.50
996.444,1287.25
997.389,1319.50
998.337,1346.75
999.282,1316.50
1000.227,1287.50
1001.173,1298.00
1002.118,1297.50
1003.062,1310.00
1004.007,1306.00
1004.952,1310.75
1005.897,1321.50
1006.841,1278.50
1007.786,1282.75
1008.730,1301.25
1009.674,1323.00
1010.618,1308.00
1011.564,1295.50
1012.508,1304.75
1013.452,1302.75
1014.396,1312.50
1015.339,1298.50
1016.283,1283.25
1017.226,1303.75
1018.170,1294.50
1019.113,1302.75
1020.056,1351.50
1020.999,1282.00
1021.942,1292.00
1022.885,1348.00
1023.828,1292.00
1024.770,1319.50
1025.715,1332.50
1026.657,1347.00
1027.600,1298.50
1028.542,1362.75
1029.484,1331.50
1030.426,1332.00
1031.368,1324.50
1032.310,1318.75
1033.251,1323.00
1034.193,1301.50
1035.135,1320.25
1036.076,1337.25
1037.017,1333.25
1037.959,1331.75
1038.900,1330.75
1039.843,1345.00
1040.784,1322.00
1041.725,1337.75
1042.665,1317.75
1043.606,1288.00
1044.547,1350.75
1045.487,1326.75
1046.427,1381.00
1047.368,1391.25
1048.308,1383.25
1049.248,1355.00
1050.188,1366.75
1051.128,1362.75
1052.067,1338.75
1053.007,1426.75
1053.947,1390.25
1054.886,1361.75
1055.827,1365.00
1056.766,1427.75
1057.706,1364.25
1058.645,1360.75
1059.584,1397.50
1060.522,1441.00
1061.461,1423.50
1062.400,1404.25
1063.338,1409.00
1064.277,1446.50
1065.215,1402.00
1066.154,1447.75
1067.092,1405.00
1068.030,1426.25
1068.968,1415.00
1069.906,1432.50
1070.843,1463.00
1071.781,1436.25
1072.720,1441.00
1073.658,1446.75
1074.595,1417.50
1075.533,1479.25
1076.470,1396.00
1077.407,1433.75
1078.344,1471.00
1079.281,1442.50
1080.217,1399.00
1081.154,1469.25
1082.091,1465.75
1083.027,1421.50
1083.964,1483.25
1084.900,1425.75
1085.836,1411.25
1086.772,1436.75
1087.708,1443.75
1088.644,1453.75
1089.580,1489.00
1090.515,1444.75
1091.451,1414.00
1092.388,1470.00
1093.324,1440.25
1094.259,1435.00
1095.194,1468.25
1096.129,1450.25
1097.064,1454.25
1097.999,1439.75
1098.934,1427.50
1099.869,1430.25
1100.803,1415.50
1101.738,1406.00
1102.672,1405.75
1103.607,1401.50
1104.541,1373.75
1105.475,1384.50
1106.409,1396.00
1107.343,1357.00
1108.277,1368.75
1109.210,1365.75
1110.144,1348.25
1111.078,1347.50
1112.011,1350.00
1112.944,1346.75
1113.878,1361.75
1114.811,1362.00
1115.744,1338.25
1116.678,1331.50
1117.611,1376.00
1118.544,1280.00
1119.477,1325.75
1120.409,1270.25
1121.342,1308.25
1122.274,1271.25
1123.206,1315.50
1124.138,1295.25
1125.070,1271.25
1126.002,1339.75
1126.934,1294.75
1127.866,1302.50
1128.798,1254.25
1129.729,1307.25
1130.661,1280.00
1131.592,1292.00
1132.523,1235.50
1133.454,1259.25
1134.385,1239.50
1135.317,1243.50
1136.247,1219.00
1137.178,1263.25
1138.109,1216.00
1139.039,1283.75
1139.970,1222.75
1140.900,1235.50
1141.831,1221.75
1142.761,1215.00
1143.691,1212.25
1144.621,1257.00
1145.551,1212.25
1146.480,1184.75
1147.410,1196.75
1148.340,1201.00
1149.269,1186.50
1150.199,1177.50
1151.128,1198.00
1152.057,1203.25
1152.979,1186.25
1153.898,1209.00
1154.819,1192.25
1155.739,1183.75
1156.658,1170.25
1157.579,1175.75
1158.498,1134.25
1159.419,1177.75
1160.338,1202.00
1161.256,1165.25
1162.177,1194.00
1163.095,1177.75
1164.016,1173.75
1164.934,1174.25
1165.852,1186.75
1166.772,1143.50
1167.690,1126.25
1168.610,1151.00
1169.528,1152.75
1170.446,1107.00
1171.365,1140.00
1172.283,1135.25
1173.202,1144.50
1174.120,1126.00
1175.037,1128.50
1175.956,1083.75
1176.873,1109.00
1177.792,1130.25
1178.709,1093.50
1179.626,1152.75
1180.544,1144.00
1181.461,1095.75
1182.379,1101.00
1183.296,1095.50
1184.212,1142.00
1185.130,1133.00
1186.046,1120.25
1186.962,1092.25
1187.880,1175.25
1188.796,1149.50
1189.714,1114.25
1190.629,1138.00
1191.545,1128.50
1192.462,1108.50
1193.378,1100.50
1194.295,1086.50
1195.210,1118.75
1196.125,1103.50
1197.042,1105.50
1197.957,1097.75
1198.872,1098.75
1199.788,1120.50
1200.703,1124.00
1201.619,1111.25
1202.534,1087.25
1203.448,1123.00
1204.364,1112.50
1205.278,1115.25
1206.192,1100.00
1207.108,1112.00
1208.022,1125.25
1208.938,1084.25
1209.851,1091.25
1210.765,1125.50
1211.680,1122.25
1212.594,1112.00
1213.507,1156.00
1214.422,1093.25
1215.335,1133.50
1216.248,1104.50
1217.163,1116.75
1218.076,1078.25
1218.990,1099.00
1219.903,1107.25
1220.816,1098.50
1221.730,1095.75
1222.642,1140.75
1223.554,1107.50
1224.469,1092.00
1225.380,1136.50
1226.292,1113.00
1227.206,1132.00
1228.118,1149.25
1229.032,1143.50
1229.943,1097.50
1230.855,1129.50
1231.768,1100.25
1232.679,1123.25
1233.590,1112.00
1234.503,1134.50
1235.414,1151.75
1236.325,1112.00
1237.238,1153.25
1238.149,1127.75
1239.059,1146.50
1239.972,1086.00
1240.882,1151.50
1241.793,1152.00
1242.705,1103.25
1243.615,1143.00
1244.525,1115.25
1245.437,1133.50
1246.347,1121.50
1247.259,1102.75
1248.168,1132.00
1249.078,1127.00
1249.989,1126.75
1250.899,1108.25
1251.808,1077.50
1252.719,1161.75
1253.628,1166.25
1254.537,1144.75
1255.448,1100.00
1256.357,1165.25
1257.266,1152.75
1258.176,1127.75
1259.085,1160.25
1259.993,1116.50
1260.904,1171.00
1261.812,1114.25
1262.720,1109.50
1263.630,1077.50
1264.538,1112.25
1265.446,1130.25
1266.356,1159.50
1267.263,1142.50
1268.171,1103.75
1269.080,1106.00
1269.988,1114.25
1270.895,1115.75
1271.804,1137.50
1272.711,1144.00
1273.619,1119.50
1274.527,1162.00
1275.434,1157.75
1276.341,1144.25
1277.248,1146.75
1278.156,1167.75
1279.063,1121.50
1279.969,1101.00
1280.877,1096.50
1281.783,1134.25
1282.690,1101.00
1283.598,1132.50
1284.503,1162.00
1285.409,1117.50
1286.317,1084.00
1287.223,1132.25
1288.128,1091.25
1289.036,1151.50
1289.941,1076.25
1290.846,1110.50
1291.751,1119.50
1292.658,1056.00
1293.563,1130.25
1294.468,1151.00
1295.375,1142.50
1296.280,1098.75
1297.184,1050.00
1298.091,1107.75
1298.995,1066.50
1299.900,1068.75
1300.806,1054.50
1301.710,1087.50
1302.614,1086.75
1303.518,1122.00
1304.424,1107.75
1305.327,1096.75
1306.231,1081.50
1307.137,1085.75
1308.040,1072.75
1308.943,1061.50
1309.847,1054.00
1310.752,1048.00
1311.655,1042.00
1312.558,1050.75
1313.463,1063.50
1314.366,1026.50
1315.269,1059.25
1316.171,1039.25
1317.076,1032.00
1317.978,1012.25
1318.881,1004.00
1319.785,1032.00
1320.687,1030.50
1321.589,1037.50
1322.491,1006.75
1323.395,1010.00
1324.297,1004.50
1325.198,1052.00
1326.102,1046.00
1327.004,1017.75
1327.905,1015.75
1328.806,1024.50
1329.709,991.50
1330.611,1014.50
1331.512,989.00
1332.413,1019.50
1333.316,1033.50
1334.216,992.00
1335.117,1034.25
1336.020,965.50
1336.920,1007.50
1337.821,980.50
1338.721,1009.75
1339.623,932.00
1340.523,1018.75
1341.423,965.25
1342.323,1002.50
1343.225,949.25
1344.125,1008.25
1345.025,987.25
1345.924,933.75
1346.826,964.25
1347.725,985.25
1348.624,934.25
1349.524,944.50
1350.425,973.00
1351.324,963.25
1352.223,980.00
1353.121,972.00
1354.022,943.75
1354.921,964.50
1355.819,923.00
1356.718,960.25
1357.618,908.25
1358.516,930.00
1359.415,922.25
1360.313,913.75
1361.213,921.75
1362.111,943.25
1363.008,897.50
1363.906,897.00
1364.806,937.75
1365.703,874.25
1366.601,912.25
1367.498,939.00
1368.397,893.50
1369.295,894.00
1370.192,856.75
1371.089,881.75
1371.987,902.50
1372.884,921.25
1373.781,849.50
1374.678,906.00
1375.574,915.25
1376.473,918.75
1377.369,862.00
1378.265,889.75
1379.161,841.50
1380.059,887.75
1380.955,869.75
1381.851,871.25
1382.747,864.00
1383.643,862.50
1384.540,877.00
1385.436,845.00
1386.331,867.50
1387.227,852.75
1388.124,878.75
1389.019,857.75
1389.914,908.25
1390.809,861.75
1391.704,811.75
1392.601,875.00
1393.495,826.00
1394.390,908.25
1395.285,815.25
1396.179,903.50
1397.075,844.25
1397.969,804.00
1398.864,892.25
1399.758,810.75
1400.652,831.75
1401.547,818.75
1402.441,877.00
1403.335,818.00
1404.229,816.00
1405.122,814.00
1406.017,808.50
1406.911,845.50
1407.804,855.50
1408.697,771.00
1409.590,861.25
1410.485,842.25
1411.378,826.25
1412.271,832.50
1413.163,789.00
1414.056,796.00
1414.949,806.00
1415.843,784.00
1416.735,837.75
1417.627,795.75
1418.520,801.50
1419.412,848.50
1420.306,820.75
1421.197,803.75
1422.089,792.75
1422.981,818.50
1423.873,829.00
1424.764,755.75
1425.657,785.00
1426.549,815.00
1427.440,789.75
1428.331,786.50
1429.222,793.00
1430.113,780.25
1431.006,844.50
1431.897,778.75
1432.787,803.50
1433.678,773.75
1434.568,786.25
1435.459,735.50
1436.351,808.75
1437.241,734.75
1438.131,812.00
1439.021,824.00
1439.911,807.50
1440.801,762.00
1441.693,797.50
1442.583,818.75
1443.472,784.25
1444.362,800.25
1445.251,782.25
1446.140,773.25
1447.030,759.50
1447.921,753.25
1448.810,776.75
1449.699,757.25
1450.588,765.25
1451.476,725.25
1452.365,775.00
1453.254,775.75
1454.144,789.50
1455.032,766.50
1455.921,763.00
1456.809,755.75
1457.697,719.00
1458.585,755.25
1459.473,779.50
1460.361,769.50
1461.251,804.25
1462.138,741.00
1463.026,708.00
1463.913,779.75
1464.801,737.75
1465.688,745.75
1466.575,746.50
1467.463,758.50
1468.351,773.00
1469.238,759.00
1470.125,746.25
1471.012,726.75
1471.899,737.75
1472.785,711.50
1473.672,720.00
1474.558,725.75
1475.446,754.25
1476.333,754.50
1477.219,720.75
1478.105,719.75
1478.991,757.75
1479.877,721.25
1480.762,772.00
1481.648,742.75
1482.534,663.25
1483.419,744.75
1484.307,723.75
1485.192,755.25
1486.077,751.50
1486.962,695.50
1487.847,717.00
1488.732,712.00
1489.617,715.00
1490.502,763.50
1491.387,741.00
1492.271,726.25
1493.156,695.75
1494.042,704.25
1494.927,702.75
1495.811,710.25
1496.695,725.00
1497.579,727.50
1498.463,736.25
1499.347,715.25
1500.231,721.25
1501.114,713.00
1501.998,655.00
1502.881,728.75
1503.765,701.25
1504.648,746.25
1505.533,680.50
1506.417,685.00
1507.300,679.00
1508.183,694.00
1509.066,691.50
1509.948,715.50
1510.831,689.50
1511.714,715.50
1512.596,680.00
1513.479,712.50
1514.361,672.75
1515.243,641.75
1516.125,732.25
1517.008,650.50
1517.890,655.00
1518.771,662.25
1519.655,714.00
1520.537,692.75
1521.419,638.50
1522.300,714.75
1523.182,671.25
1524.063,633.50
1524.944,702.00
1525.825,670.50
1526.707,691.25
1527.588,675.50
1528.468,680.50
1529.349,702.75
1530.230,671.50
1531.111,662.00
1531.991,688.75
1532.872,662.50
1533.752,649.00
1534.632,690.75
1535.513,620.50
1536.393,640.25
1537.273,645.50
1538.153,619.25
1539.032,664.25
1539.912,619.50
1540.792,658.00
1541.672,696.75
1542.551,689.25
1543.430,634.00
1544.310,683.00
1545.189,637.50
1546.068,673.00
1546.947,628.00
1547.826,636.50
1548.705,671.75
1549.584,611.50
1550.462,665.50
1551.341,663.00
1552.219,625.00
1553.098,650.00
1553.976,619.75
1554.854,659.50
1555.733,654.50
1556.611,686.00
1557.489,658.50
1558.367,612.75
1559.244,647.50
1560.122,661.75
1561.000,644.50
1561.877,683.00
1562.755,635.75
1563.632,658.75
1564.509,681.75
1565.386,653.75
1566.264,624.75
1567.141,643.75
1568.017,662.25
1568.894,643.25
1569.771,642.25
1570.648,639.50
1571.524,606.75
1572.401,649.25
1573.277,627.50
1574.153,614.75
1575.029,663.75
1575.906,596.25
1576.781,578.75
1577.657,603.75
1578.533,658.25
1579.409,607.75
1580.285,625.00
1581.160,626.25
1582.036,641.00
1582.911,619.50
1583.786,667.75
1584.662,606.25
1585.537,630.25
1586.412,626.50
1587.287,620.00
1588.160,600.50
1589.035,642.75
1589.909,592.75
1590.784,669.75
1591.658,629.50
1592.533,665.25
1593.407,621.00
1594.281,633.25
1595.155,606.75
1596.029,579.75
1596.903,570.00
1597.777,623.50
1598.651,617.00
1599.525,606.75
1600.398,608.75
1601.272,609.75
1602.144,651.25
1603.017,616.00
1603.890,602.25
1604.763,625.75
1605.636,623.25
1606.509,663.00
1607.382,626.00
1608.255,630.25
1609.128,580.00
1610.000,637.50
1610.873,575.00
1611.746,627.75
1612.616,645.75
1613.488,611.50
1614.361,607.50
1615.233,624.75
1616.105,578.75
1616.977,616.25
1617.849,588.50
1618.720,622.75
1619.592,639.25
1620.464,627.00
1621.333,577.00
1622.205,641.50
1623.076,579.75
1623.947,614.75
1624.818,606.50
1625.689,610.00
1626.560,610.50
1627.431,608.25
1628.302,582.00
1629.171,557.50
1630.042,604.50
1630.912,623.00
1631.782,600.00
1632.653,590.50
1633.523,617.75
1634.393,558.25
1635.263,597.00
1636.131,560.25
1637.001,630.00
1637.871,621.25
1638.741,585.00
1639.611,570.50
1640.480,566.00
1641.350,601.75
1642.219,608.00
1643.087,586.00
1643.956,610.75
1644.825,595.75
1645.694,582.25
1646.563,572.25
1647.432,572.25
1648.299,556.25
1649.167,612.00
1650.036,609.25
1650.904,579.75
1651.773,577.50
1652.641,584.25
1653.509,583.25
1654.376,570.00
1655.244,579.00
1656.112,567.00
1656.980,574.00
1657.847,558.75
1658.715,586.00
1659.581,573.75
1660.448,543.75
1661.316,590.50
1662.183,568.75
1663.051,584.50
1663.918,592.00
1664.783,569.25
1665.650,585.25
1666.517,576.75
1667.384,514.50
1668.251,583.50
1669.115,596.00
1669.982,588.25
1670.849,559.50
1671.715,572.75
1672.581,617.00
1673.446,597.00
1674.312,551.00
1675.178,566.75
1676.044,566.00
1676.910,566.00
1677.774,541.75
1678.639,614.00
1679.505,571.75
1680.370,580.25
1681.236,583.25
1682.099,553.00
1682.965,516.25
1683.830,583.00
1684.695,555.00
1685.560,570.25
1686.423,565.75
1687.288,591.75
1688.153,572.50
1689.017,563.75
1689.880,528.25
1690.745,594.50
1691.609,568.00
1692.473,567.25
1693.338,581.75
1694.200,543.00
1695.064,612.25
1695.928,574.25
1696.792,568.75
1697.654,549.25
1698.517,560.25
1699.381,594.00
1700.245,575.75
1701.106,544.00
1701.969,563.25
1702.833,571.50
1703.696,488.00
1704.557,581.50
1705.420,545.50
1706.283,547.00
1707.146,559.25
1708.007,551.75
1708.870,571.75
1709.732,590.75
1710.595,556.00
1711.455,557.00
1712.318,564.75
1713.180,566.00
1714.040,522.75
1714.902,584.50
1715.764,540.00
1716.626,574.00
1717.486,539.25
1718.348,579.25
1719.209,581.25
1720.071,540.50
1720.930,555.25
1721.792,558.00
1722.653,556.50
1723.512,574.00
1724.374,537.50
1725.234,561.50
1726.095,532.50
1726.954,558.00
1727.815,544.50
1728.676,527.75
1729.535,528.75
1730.395,542.75
1731.256,563.50
1732.114,546.75
1732.974,527.75
1733.834,551.75
1734.693,563.25
1735.553,564.50
1736.413,520.25
1737.272,560.75
1738.130,536.00
1738.990,544.00
1739.849,566.00
1740.707,550.75
1741.566,571.00
1742.426,583.75
1743.283,527.75
1744.142,566.50
1745.001,493.75
1745.858,519.25
1746.717,540.00
1747.576,562.75
1748.433,536.25
1749.292,508.00
1750.150,548.00
1751.007,539.50
1751.865,539.75
1752.723,511.00
1753.579,542.25
1754.438,502.50
1755.296,536.25
1756.152,512.00
1757.010,530.50
1757.865,543.00
1758.723,536.75
1759.581,526.00
1760.436,553.00
1761.294,491.25
1762.151,548.75
1763.006,561.00
1763.864,551.50
1764.721,536.50
1765.576,557.50
1766.433,555.75
1767.288,477.75
1768.144,553.50
1769.001,506.50
1769.856,530.50
1770.712,535.00
1771.568,572.50
1772.423,560.00
1773.279,564.75
1774.133,537.50
1774.989,512.25
1775.845,530.75
1776.699,518.75
1777.555,505.25
1778.409,565.75
1779.265,541.25
1780.120,559.00
1780.974,502.25
1781.829,551.25
1782.682,521.75
1783.538,515.00
1784.393,539.25
1785.246,545.75
1786.101,594.00
1786.954,560.75
1787.808,534.00
1788.661,512.25
1789.516,504.75
1790.370,451.50
1791.223,554.25
1792.077,522.25
1792.930,491.00
1793.784,540.25
1794.636,503.50
1795.490,477.00
1796.344,555.00
1797.196,481.75
1798.049,522.75
1798.901,500.25
1799.755,527.50
1800.606,529.00
1801.460,487.75
1802.311,536.75
1803.165,501.75
1804.018,509.00
1804.869,486.75
1805.722,531.00
1806.573,541.75
1807.426,527.25
1808.276,535.25
1809.129,504.75
1809.980,523.50
1810.832,524.50
1811.683,522.75
1812.535,519.75
1813.385,521.75
1814.237,530.75
1815.089,484.50
1815.940,521.25
1816.791,534.75
1817.641,509.50
1818.493,510.00
1819.343,524.00
1820.194,519.75
1821.044,517.00
1821.895,524.00
1822.745,515.50
1823.596,557.75
1824.445,504.25
1825.296,516.50
1826.145,520.50
1826.996,528.75
1827.845,518.25
1828.695,505.75
1829.544,539.50
1830.395,548.50
1831.243,497.25
1832.094,531.00
1832.942,537.25
1833.792,520.50
1834.640,535.25
1835.490,528.50
1836.338,474.00
1837.186,486.00
1838.036,499.25
1838.884,480.50
1839.733,548.50
1840.581,536.25
1841.430,519.25
1842.278,534.50
1843.127,545.75
1843.974,505.25
1844.823,518.25
1845.671,489.50
1846.519,506.25
1847.366,502.25
1848.213,534.25
1849.062,531.00
1849.909,529.50
1850.757,573.75
1851.604,480.00
1852.452,522.25
1853.298,545.75
1854.146,479.75
1854.993,504.25
1855.839,504.50
1856.687,549.25
1857.532,487.25
1858.380,499.50
1859.226,515.00
1860.073,481.75
1860.919,522.00
1861.765,494.25
1862.612,504.50
1863.457,452.50
1864.304,488.00
1865.150,452.25
1865.995,511.75
1866.842,499.50
1867.686,520.50
1868.533,516.50
1869.378,472.75
1870.223,514.50
1871.069,517.00
1871.914,494.50
1872.760,513.50
1873.604,480.25
1874.448,501.25
1875.294,546.25
1876.139,513.50
1876.984,506.75
1877.828,494.00
1878.672,543.25
1879.518,527.25
1880.361,485.50
1881.205,494.00
1882.050,491.75
1882.894,488.75
1883.739,471.00
1884.582,554.75
1885.425,488.75
1886.270,548.25
1887.113,545.00
1887.956,528.25
1888.801,550.25
1889.644,514.00
1890.486,531.00
1891.331,483.25
1892.173,519.00
1893.017,486.00
1893.860,481.25
1894.702,508.75
1895.546,487.25
1896.388,462.50
1897.230,474.75
1898.074,499.00
1898.916,483.00
1899.757,480.50
1900.601,549.75
1901.443,451.00
1902.284,508.50
1903.125,538.00
1903.969,447.25
1904.810,488.00
1905.651,492.75
1906.494,538.50
1907.335,521.25
1908.176,537.75
1909.018,474.25
1909.859,487.00
1910.700,494.75
1911.542,452.25
1912.383,475.25
1913.223,529.75
1914.064,476.75
1914.906,514.00
1915.746,469.00
1916.586,538.00
1917.428,485.50
1918.268,475.25
1919.107,481.00
1919.947,499.50
1920.789,505.75
1921.628,510.75
1922.468,497.00
1923.309,524.25
1924.148,500.75
1924.988,438.25
1925.827,489.25
1926.667,511.50
1927.507,441.75
1928.345,478.50
1929.184,497.25
1930.025,503.00
1930.864,502.50
1931.702,490.50
1932.541,486.75
1933.381,465.25
1934.219,516.25
1935.057,508.50
1935.896,516.75
1936.735,488.25
1937.573,459.00
1938.411,481.75
1939.249,531.50
1940.089,500.00
1940.927,498.75
1941.764,522.75
1942.602,520.25
1943.439,450.75
1944.278,473.50
1945.115,476.00
1945.953,477.50
1946.790,490.75
1947.628,491.00
1948.465,494.25
1949.302,532.75
1950.139,477.25
1950.976,494.75
1951.814,477.25
1952.651,483.75
1953.487,528.50
1954.323,510.00
1955.160,514.00
1955.998,503.00
1956.834,502.25
1957.670,477.75
1958.506,486.50
1959.342,469.50
1960.177,474.25
1961.015,455.00
1961.850,512.75
1962.686,468.50
1963.521,485.25
1964.357,491.00
1965.192,485.50
1966.029,472.25
1966.864,478.50
1967.699,515.75
1968.534,523.25
1969.369,501.25
1970.204,471.00
1971.040,476.00
1971.875,489.50
1972.709,514.75
1973.544,452.75
1974.378,462.00
1975.212,483.25
1976.047,480.25
1976.882,495.00
1977.716,462.00
1978.550,463.00
1979.384,489.00
1980.218,465.50
1981.052,491.75
1981.885,469.50
1982.719,507.25
1983.554,479.25
1984.388,506.25
1985.221,493.25
1986.054,488.75
1986.887,456.00
1987.720,468.75
1988.553,471.00
1989.386,479.25
1990.219,457.00
1991.053,525.50
1991.886,416.25
1992.719,491.50
1993.551,458.25
1994.383,533.50
1995.216,467.50
1996.048,473.00
1996.880,454.25
1997.712,462.50
1998.544,482.50
1999.376,441.75
2000.208,475.50
2001.040,433.00
2001.873,489.00
2002.705,463.50
2003.536,467.75
2004.367,463.25
2005.199,434.75
2006.030,514.00
2006.861,461.50
2007.692,471.75
2008.523,460.25
2009.354,445.00
2010.185,456.50
2011.016,465.75
2011.846,409.50
2012.677,495.75
2013.507,506.75
2014.338,494.25
2015.168,467.25
2015.999,460.25
2016.829,469.25
2017.659,454.00
2018.489,434.25
2019.319,470.75
2020.149,487.75
2020.980,498.25
2021.810,469.75
2022.639,481.75
2023.469,479.75
2024.298,482.00
2025.128,520.00
2025.957,468.50
2026.786,489.00
2027.615,477.50
2028.444,461.75
2029.273,445.25
2030.102,505.50
2030.931,488.25
2031.758,497.50
2032.586,454.00
2033.415,503.00
2034.243,447.75
2035.072,503.75
2035.900,511.75
2036.728,474.50
2037.556,515.50
2038.385,499.25
2039.213,492.75
2040.040,505.75
2040.868,473.50
2041.696,482.00
2042.524,458.00
2043.351,464.25
2044.179,455.25
2045.006,452.50
2045.006,452.50

Max Intensity Wave.,216.841
Max Intensity Data,5693.75
Min Intensity Wave.,2011.846
Min Intensity Data,409.50
FWHM Wave.,409.377
FWHM Value,0.90
Pressure Wave.,684.671
Pressure Value [GPa],-24.91530
G/D Ratio,0.62272
G/D Gband Wave.,1541.969
G/D Gband Intensity,699.39
G/D Dband Wave.,1303.711
G/D Dband Intensity,1123.12

<< BACKGROUND SPECTRUM >>
Wave[dcm-1],No175
146.591,2277.00
147.626,2119.00
148.664,2053.00
149.699,2552.00
150.737,2279.00
151.772,2426.00
152.809,2411.00
153.846,2318.00
154.881,2417.00
155.918,1967.00
156.953,2260.00
157.989,2634.00
159.026,2465.00
160.060,2666.00
161.096,2867.00
162.130,2532.00
163.167,2572.00
164.200,2475.00
165.236,2681.00
166.272,2735.00
167.305,2268.00
168.341,2569.00
169.374,2858.00
170.409,2843.00
171.445,2711.00
172.477,2532.00
173.512,2435.00
174.545,2717.00
175.580,2855.00
176.614,3067.00
177.647,2856.00
178.681,3067.00
179.713,3358.00
180.747,2858.00
181.781,2771.00
182.813,3021.00
183.847,3111.00
184.878,2733.00
185.912,3028.00
186.945,3111.00
187.976,3066.00
189.010,2751.00
190.043,2855.00
191.073,2924.00
192.106,2751.00
193.137,3216.00
194.170,2590.00
195.202,2898.00
196.232,2724.00
197.265,3014.00
198.297,3093.00
199.327,2780.00
200.359,2996.00
201.388,3329.00
202.420,2924.00
203.452,3151.00
204.481,2733.00
205.512,3321.00
206.544,3110.00
207.573,3065.00
208.604,3427.00
209.635,3526.00
210.663,3011.00
211.694,2988.00
212.725,2842.00
213.753,2830.00
214.783,3420.00
215.813,3266.00
216.841,3041.00
217.871,3180.00
218.899,2945.00
219.929,3136.00
220.959,2929.00
221.986,3166.00
223.016,2781.00
224.045,3167.00
225.072,3105.00
226.101,3190.00
227.130,3253.00
228.157,2862.00
229.185,2362.00
230.214,3207.00
231.241,2824.00
232.269,2459.00
233.297,2685.00
234.323,3240.00
235.351,2842.00
236.379,3073.00
237.407,2819.00
238.433,2963.00
239.460,3080.00
240.488,3144.00
241.513,3238.00
242.540,3130.00
243.568,3247.00
244.592,3248.00
245.619,3201.00
246.646,2961.00
247.671,2989.00
248.697,2811.00
249.724,3041.00
250.748,3039.00
251.774,3022.00
252.801,3331.00
253.827,3174.00
254.850,3127.00
255.876,2683.00
256.902,3165.00
257.925,3011.00
258.951,2785.00
259.976,2798.00
260.999,3138.00
262.024,2811.00
263.049,3662.00
264.074,3146.00
265.097,3008.00
266.122,3097.00
267.146,3047.00
268.168,3245.00
269.193,2877.00
270.217,3260.00
271.241,2723.00
272.263,2879.00
273.287,3202.00
274.311,2807.00
275.332,3289.00
276.356,2822.00
277.379,3110.00
278.402,3117.00
279.424,2951.00
280.447,2898.00
281.470,2753.00
282.492,3093.00
283.513,2922.00
284.536,3183.00
285.558,3148.00
286.581,3151.00
287.601,2879.00
288.623,2841.00
289.645,3086.00
290.665,3160.00
291.687,3171.00
292.709,3146.00
293.730,3462.00
294.750,2917.00
295.771,2777.00
296.792,3058.00
297.813,2957.00
298.832,3056.00
299.853,2742.00
300.874,3031.00
301.895,3001.00
302.913,3019.00
303.934,3273.00
304.954,3077.00
305.975,3190.00
306.993,2751.00
308.013,3119.00
309.033,3027.00
310.052,2959.00
311.072,2904.00
312.090,3075.00
313.109,3315.00
314.129,3442.00
315.148,2978.00
316.165,3052.00
317.184,3246.00
318.203,2775.00
319.222,2785.00
320.238,3164.00
321.257,2841.00
322.275,2704.00
323.294,3010.00
324.312,3170.00
325.328,3301.00
326.346,3354.00
327.364,3276.00
328.382,3209.00
329.397,3152.00
330.415,3270.00
331.432,3228.00
332.450,3248.00
333.467,3490.00
334.482,2604.00
335.499,3380.00
336.516,2913.00
337.533,2576.00
338.547,2868.00
339.564,2864.00
340.580,3085.00
341.597,2979.00
342.613,3497.00
343.627,3013.00
344.643,3057.00
345.659,3154.00
346.675,3015.00
347.690,2918.00
348.704,3087.00
349.719,2870.00
350.735,2812.00
351.750,3210.00
352.765,2997.00
353.778,3030.00
354.793,3161.00
355.808,2884.00
356.822,3157.00
357.837,2670.00
358.851,3285.00
359.864,2998.00
360.878,2745.00
361.892,2959.00
362.906,3205.00
363.920,2602.00
364.932,3152.00
365.945,3095.00
366.959,3030.00
367.972,2990.00
368.986,2745.00
369.999,3416.00
371.010,2879.00
372.023,3393.00
373.036,2997.00
374.049,3415.00
375.061,3112.00
376.072,3010.00
377.084,2914.00
378.097,2670.00
379.109,3179.00
380.121,3012.00
381.133,2725.00
382.143,3117.00
383.155,2729.00
384.166,2927.00
385.178,3148.00
386.189,3215.00
387.201,2695.00
388.212,2994.00
389.221,2962.00
390.232,3012.00
391.243,2926.00
392.254,3047.00
393.264,2829.00
394.275,3236.00
395.283,3252.00
396.294,3661.00
397.304,3490.00
398.314,3150.00
399.324,3021.00
400.334,2661.00
401.344,3163.00
402.351,2664.00
403.361,3216.00
404.370,2995.00
405.380,2927.00
406.389,3378.00
407.398,3129.00
408.407,3073.00
409.414,3170.00
410.423,3362.00
411.431,2781.00
412.440,2670.00
413.448,3315.00
414.457,2860.00
415.465,2865.00
416.471,2914.00
417.479,3060.00
418.487,2823.00
419.495,3329.00
420.503,3135.00
421.510,2645.00
422.518,3120.00
423.525,3186.00
424.530,3431.00
425.537,2914.00
426.544,3238.00
427.551,2924.00
428.558,3649.00
429.565,3454.00
430.571,2896.00
431.578,2924.00
432.582,2880.00
433.588,2990.00
434.595,2625.00
435.601,3353.00
436.607,3272.00
437.612,2784.00
438.618,3333.00
439.624,2955.00
440.627,2946.00
441.633,3152.00
442.638,3572.00
443.643,3110.00
444.648,3038.00
445.653,3200.00
446.658,2908.00
447.663,3037.00
448.667,2905.00
449.672,2904.00
450.674,2992.00
451.678,2740.00
452.682,2931.00
453.687,2886.00
454.690,3649.00
455.694,3228.00
456.698,2593.00
457.702,2682.00
458.705,2817.00
459.709,2811.00
460.710,2920.00
461.713,3058.00
462.716,3032.00
463.719,3030.00
464.722,3226.00
465.725,3001.00
466.727,2861.00
467.730,3029.00
468.732,2800.00
469.735,3272.00
470.737,2954.00
471.737,2911.00
472.739,2882.00
473.741,2824.00
474.742,3104.00
475.744,3101.00
476.746,3035.00
477.747,2996.00
478.748,3188.00
479.750,2981.00
480.751,2979.00
481.752,3786.00
482.753,3120.00
483.751,3541.00
484.752,2678.00
485.753,2991.00
486.753,2864.00
487.753,2989.00
488.754,3454.00
489.754,2761.00
490.754,3323.00
491.754,3124.00
492.754,2747.00
493.753,3012.00
494.753,2947.00
495.752,3370.00
496.752,3040.00
497.749,3002.00
498.748,2913.00
499.747,3399.00
500.746,3076.00
501.745,2777.00
502.744,2756.00
503.742,3307.00
504.741,2887.00
505.739,2520.00
506.737,2874.00
507.735,3176.00
508.734,3374.00
509.732,3159.00
510.729,3360.00
511.727,2881.00
512.725,2929.00
513.720,2821.00
514.718,3291.00
515.715,2705.00
516.712,2678.00
517.709,3063.00
518.706,2950.00
519.703,3062.00
520.700,3202.00
521.696,3377.00
522.693,2935.00
523.689,2864.00
524.686,3189.00
525.682,2780.00
526.678,3454.00
527.674,2922.00
528.670,2608.00
529.666,3518.00
530.661,3473.00
531.657,3137.00
532.652,3173.00
533.648,3020.00
534.641,3261.00
535.636,3078.00
536.631,3150.00
537.626,3151.00
538.621,2756.00
539.616,2590.00
540.610,2577.00
541.605,3037.00
542.599,3034.00
543.593,3024.00
544.587,3920.00
545.581,2867.00
546.575,3022.00
547.569,3060.00
548.563,2728.00
549.557,2708.00
550.550,2771.00
551.543,2729.00
552.537,3149.00
553.530,2752.00
554.523,2796.00
555.516,3187.00
556.509,2962.00
557.502,2654.00
558.494,3208.00
559.487,2964.00
560.479,3211.00
561.472,3241.00
562.464,3144.00
563.456,3308.00
564.448,2984.00
565.440,3030.00
566.432,3434.00
567.423,2893.00
568.415,2897.00
569.404,3177.00
570.396,2809.00
571.387,3140.00
572.378,3046.00
573.369,3986.00
574.360,3663.00
575.351,2998.00
576.341,2860.00
577.332,2869.00
578.323,2697.00
579.313,2923.00
580.303,3269.00
581.293,3184.00
582.283,2954.00
583.273,3138.00
584.263,3003.00
585.253,3150.00
586.243,3176.00
587.232,2680.00
588.222,2969.00
589.211,3207.00
590.200,3029.00
591.189,2960.00
592.178,2985.00
593.167,3391.00
594.156,3274.00
595.145,2879.00
596.133,3436.00
597.122,3131.00
598.110,3222.00
599.098,3100.00
600.086,3026.00
601.074,3201.00
602.062,2862.00
603.050,2736.00
604.038,3121.00
605.025,2816.00
606.013,3227.00
607.000,3420.00
607.987,3029.00
608.975,3087.00
609.962,2793.00
610.949,3190.00
611.936,3240.00
612.922,3231.00
613.909,2718.00
614.895,3366.00
615.882,2848.00
616.868,3012.00
617.854,2734.00
618.841,3045.00
619.826,3132.00
620.812,3009.00
621.798,2817.00
622.784,3185.00
623.769,3102.00
624.755,2736.00
625.740,3099.00
626.725,2707.00
627.711,2851.00
628.698,3105.00
629.683,2788.00
630.667,3171.00
631.652,2774.00
632.637,2986.00
633.621,3191.00
634.606,2920.00
635.590,3131.00
636.574,2948.00
637.558,3072.00
638.542,3022.00
639.526,2881.00
640.510,2643.00
641.493,3069.00
642.477,2992.00
643.460,2729.00
644.444,3226.00
645.427,3270.00
646.410,2667.00
647.393,2984.00
648.376,3091.00
649.359,2896.00
650.341,3112.00
651.324,3087.00
652.307,3072.00
653.289,2962.00
654.271,2888.00
655.253,2888.00
656.235,3163.00
657.217,3257.00
658.199,2624.00
659.181,2748.00
660.163,3025.00
661.144,2883.00
662.126,2883.00
663.107,2804.00
664.088,4697.00
665.069,3199.00
666.050,2806.00
667.033,2730.00
668.014,3061.00
668.995,2615.00
669.975,3007.00
670.956,3013.00
671.936,3148.00
672.916,2975.00
673.896,3138.00
674.876,2907.00
675.856,2855.00
676.836,2741.00
677.816,2330.00
678.795,2856.00
679.775,2698.00
680.754,3038.00
681.734,3126.00
682.713,3185.00
683.692,2765.00
684.671,2632.00
685.650,2757.00
686.629,2845.00
687.607,2751.00
688.586,2803.00
689.564,2861.00
690.543,3262.00
691.523,2406.00
692.501,2855.00
693.479,2946.00
694.457,2778.00
695.435,2877.00
696.413,2637.00
697.390,2526.00
698.368,2708.00
699.345,3069.00
700.322,2962.00
701.300,3086.00
702.277,3064.00
703.254,3269.00
704.231,2559.00
705.207,2933.00
706.184,2776.00
707.161,2677.00
708.137,2867.00
709.113,2827.00
710.090,2831.00
711.068,2609.00
712.044,2615.00
713.020,2895.00
713.996,2619.00
714.971,2854.00
715.947,2826.00
716.922,2875.00
717.898,2731.00
718.873,2895.00
719.848,2705.00
720.823,2713.00
721.798,2934.00
722.773,2770.00
723.748,2531.00
724.723,3019.00
725.697,2903.00
726.672,2752.00
727.646,2525.00
728.622,3023.00
729.596,2634.00
730.570,2766.00
731.544,3045.00
732.518,3270.00
733.492,2850.00
734.466,2857.00
735.439,3040.00
736.413,3074.00
737.386,2449.00
738.359,2432.00
739.332,2523.00
740.305,2852.00
741.278,3344.00
742.251,2947.00
743.224,2732.00
744.196,2546.00
745.171,3165.00
746.143,3037.00
747.115,2767.00
748.087,2721.00
749.059,3093.00
750.031,2895.00
751.003,3718.00
751.975,3299.00
752.947,2699.00
753.918,3111.00
754.890,2590.00
755.861,2745.00
756.832,3070.00
757.803,2819.00
758.774,2863.00
759.747,2601.00
760.718,3206.00
761.689,2769.00
762.659,2638.00
763.630,3174.00
764.600,2538.00
765.570,3061.00
766.540,3086.00
767.510,2937.00
768.480,3012.00
769.450,2692.00
770.420,2847.00
771.390,2704.00
772.359,2766.00
773.329,2685.00
774.300,2520.00
775.269,2743.00
776.238,3005.00
777.207,3132.00
778.176,2487.00
779.145,2800.00
780.114,2694.00
781.083,2550.00
782.051,2772.00
783.019,2686.00
783.988,3052.00
784.956,2845.00
785.924,2996.00
786.894,2905.00
787.862,2720.00
788.830,3129.00
789.797,2667.00
790.765,2605.00
791.732,2783.00
792.700,2656.00
793.667,2606.00
794.634,2815.00
795.601,2767.00
796.568,2811.00
797.535,2845.00
798.502,3452.00
799.468,2915.00
800.437,2391.00
801.403,2667.00
802.370,3311.00
803.336,3000.00
804.302,2850.00
805.268,2462.00
806.234,2575.00
807.200,2735.00
808.166,2773.00
809.131,2565.00
810.097,2952.00
811.062,3659.00
812.027,3054.00
812.994,2626.00
813.960,2639.00
814.925,2944.00
815.889,2522.00
816.854,3008.00
817.819,2669.00
818.783,2742.00
819.748,3104.00
820.712,2713.00
821.677,2652.00
822.641,2687.00
823.605,2741.00
824.571,3168.00
825.534,2783.00
826.498,2673.00
827.462,2795.00
828.425,2650.00
829.389,3092.00
830.352,2803.00
831.315,2922.00
832.279,2498.00
833.242,2769.00
834.204,2693.00
835.167,2626.00
836.132,3072.00
837.095,2540.00
838.057,2686.00
839.020,2811.00
839.982,2865.00
840.944,2689.00
841.906,2625.00
842.868,2988.00
843.830,2558.00
844.792,3067.00
845.753,2675.00
846.715,2422.00
847.679,2605.00
848.640,2652.00
849.601,2694.00
850.562,3247.00
851.523,2712.00
852.484,2479.00
853.445,3012.00
854.406,2732.00
855.367,2710.00
856.327,3049.00
857.288,2478.00
858.248,2676.00
859.210,2696.00
860.170,2541.00
861.130,3023.00
862.090,2433.00
863.050,2605.00
864.010,2697.00
864.969,2907.00
865.929,2627.00
866.888,2470.00
867.848,2826.00
868.807,2623.00
869.766,2874.00
870.727,2739.00
871.686,3005.00
872.645,2965.00
873.604,3338.00
874.562,2757.00
875.521,2786.00
876.479,3366.00
877.437,2602.00
878.396,2609.00
879.354,3155.00
880.312,2632.00
881.270,2632.00
882.229,3128.00
883.187,2623.00
884.145,2650.00
885.102,2928.00
886.059,2833.00
887.017,2864.00
887.974,2974.00
888.931,3085.00
889.888,2540.00
890.845,2431.00
891.802,2344.00
892.758,2652.00
893.717,2430.00
894.673,2560.00
895.630,2622.00
896.586,2896.00
897.542,2669.00
898.498,2520.00
899.454,2849.00
900.410,2672.00
901.366,2665.00
902.321,3775.00
903.277,2676.00
904.232,2754.00
905.189,2472.00
906.145,2651.00
907.100,2198.00
908.055,2721.00
909.010,2944.00
909.965,2348.00
910.919,2742.00
911.874,2581.00
912.828,2786.00
913.783,2785.00
914.737,2361.00
915.693,2793.00
916.648,2882.00
917.602,2952.00
918.555,2778.00
919.509,2855.00
920.463,2723.00
921.417,2756.00
922.370,2552.00
923.324,2669.00
924.277,2699.00
925.230,2778.00
926.183,2405.00
927.138,2708.00
928.091,2955.00
929.044,2842.00
929.996,2640.00
930.949,2626.00
931.902,2868.00
932.854,2835.00
933.806,2585.00
934.758,2989.00
935.711,2977.00
936.663,2808.00
937.614,2791.00
938.568,2743.00
939.520,2374.00
940.471,2718.00
941.423,2776.00
942.374,2903.00
943.326,2770.00
944.277,2612.00
945.228,2840.00
946.179,2685.00
947.130,3042.00
948.080,2640.00
949.031,2588.00
949.984,2692.00
950.934,2743.00
951.884,2472.00
952.835,2733.00
953.785,2740.00
954.735,2621.00
955.685,2386.00
956.635,2624.00
957.585,2655.00
958.534,2632.00
959.484,2750.00
960.433,2568.00
961.383,2448.00
962.334,2982.00
963.283,2801.00
964.232,2865.00
965.181,2741.00
966.130,2773.00
967.079,2644.00
968.027,2742.00
968.976,2710.00
969.924,2610.00
970.873,2799.00
971.821,2753.00
972.769,2937.00
973.719,2836.00
974.667,2497.00
975.615,2706.00
976.562,2726.00
977.510,2430.00
978.458,2620.00
979.405,2835.00
980.352,2733.00
981.300,2940.00
982.247,2768.00
983.194,2560.00
984.141,2615.00
985.088,2751.00
986.036,2769.00
986.983,3009.00
987.930,3129.00
988.876,2347.00
989.822,2975.00
990.769,2566.00
991.715,2618.00
992.661,2454.00
993.607,2795.00
994.553,3282.00
995.498,2608.00
996.444,2289.00
997.389,2761.00
998.337,2490.00
999.282,2852.00
1000.227,2648.00
1001.173,2687.00
1002.118,2463.00
1003.062,2896.00
1004.007,2685.00
1004.952,2996.00
1005.897,2915.00
1006.841,2714.00
1007.786,2496.00
1008.730,2439.00
1009.674,3144.00
1010.618,2650.00
1011.564,2525.00
1012.508,2400.00
1013.452,2914.00
1014.396,2720.00
1015.339,2617.00
1016.283,2711.00
1017.226,2748.00
1018.170,2704.00
1019.113,2904.00
1020.056,2686.00
1020.999,2754.00
1021.942,2617.00
1022.885,2829.00
1023.828,3001.00
1024.770,2505.00
1025.715,2741.00
1026.657,2678.00
1027.600,2763.00
1028.542,2886.00
1029.484,2746.00
1030.426,2830.00
1031.368,2777.00
1032.310,2594.00
1033.251,2533.00
1034.193,2720.00
1035.135,2500.00
1036.076,2618.00
1037.017,2533.00
1037.959,2827.00
1038.900,2784.00
1039.843,2793.00
1040.784,2756.00
1041.725,2795.00
1042.665,2638.00
1043.606,2793.00
1044.547,2766.00
1045.487,2404.00
1046.427,2667.00
1047.368,2752.00
1048.308,2210.00
1049.248,2521.00
1050.188,2697.00
1051.128,2626.00
1052.067,2696.00
1053.007,2364.00
1053.947,2371.00
1054.886,2574.00
1055.827,2497.00
1056.766,2941.00
1057.706,2477.00
1058.645,2658.00
1059.584,2732.00
1060.522,2947.00
1061.461,2422.00
1062.400,2471.00
1063.338,2625.00
1064.277,2489.00
1065.215,2531.00
1066.154,2376.00
1067.092,2591.00
1068.030,2622.00
1068.968,2867.00
1069.906,2987.00
1070.843,2937.00
1071.781,2750.00
1072.720,2797.00
1073.658,2815.00
1074.595,2615.00
1075.533,2538.00
1076.470,2616.00
1077.407,2991.00
1078.344,2747.00
1079.281,2794.00
1080.217,2337.00
1081.154,2633.00
1082.091,2723.00
1083.027,2466.00
1083.964,2913.00
1084.900,2582.00
1085.836,2646.00
1086.772,2891.00
1087.708,2480.00
1088.644,2790.00
1089.580,2664.00
1090.515,2740.00
1091.451,2631.00
1092.388,2684.00
1093.324,2452.00
1094.259,3217.00
1095.194,2717.00
1096.129,2590.00
1097.064,2557.00
1097.999,2793.00
1098.934,2539.00
1099.869,2518.00
1100.803,2713.00
1101.738,2715.00
1102.672,2387.00
1103.607,2803.00
1104.541,2565.00
1105.475,2539.00
1106.409,2426.00
1107.343,2631.00
1108.277,2438.00
1109.210,2715.00
1110.144,2683.00
1111.078,2685.00
1112.011,2454.00
1112.944,2756.00
1113.878,2714.00
1114.811,2166.00
1115.744,2587.00
1116.678,2321.00
1117.611,2544.00
1118.544,2629.00
1119.477,2744.00
1120.409,2586.00
1121.342,3123.00
1122.274,2772.00
1123.206,2975.00
1124.138,2645.00
1125.070,2992.00
1126.002,2811.00
1126.934,2261.00
1127.866,2546.00
1128.798,2347.00
1129.729,2332.00
1130.661,2642.00
1131.592,2554.00
1132.523,2736.00
1133.454,2750.00
1134.385,2316.00
1135.317,2629.00
1136.247,2605.00
1137.178,2857.00
1138.109,2404.00
1139.039,2953.00
1139.970,2847.00
1140.900,2567.00
1141.831,2351.00
1142.761,2232.00
1143.691,2742.00
1144.621,2599.00
1145.551,2675.00
1146.480,2714.00
1147.410,2865.00
1148.340,2276.00
1149.269,2382.00
1150.199,2619.00
1151.128,3041.00
1152.057,2426.00
1152.979,2576.00
1153.898,2600.00
1154.819,2723.00
1155.739,2615.00
1156.658,2561.00
1157.579,2668.00
1158.498,2653.00
1159.419,2195.00
1160.338,2638.00
1161.256,2702.00
1162.177,2469.00
1163.095,2610.00
1164.016,2674.00
1164.934,2893.00
1165.852,2797.00
1166.772,2631.00
1167.690,2673.00
1168.610,2717.00
1169.528,2650.00
1170.446,2239.00
1171.365,2550.00
1172.283,2515.00
1173.202,2623.00
1174.120,2664.00
1175.037,2490.00
1175.956,2484.00
1176.873,2519.00
1177.792,2530.00
1178.709,3144.00
1179.626,2521.00
1180.544,2833.00
1181.461,2526.00
1182.379,2737.00
1183.296,2656.00
1184.212,2271.00
1185.130,2471.00
1186.046,2965.00
1186.962,2654.00
1187.880,2865.00
1188.796,2667.00
1189.714,2430.00
1190.629,2739.00
1191.545,2677.00
1192.462,2563.00
1193.378,2615.00
1194.295,2360.00
1195.210,2663.00
1196.125,2791.00
1197.042,2699.00
1197.957,2654.00
1198.872,2516.00
1199.788,2543.00
1200.703,2931.00
1201.619,2651.00
1202.534,2509.00
1203.448,2693.00
1204.364,2586.00
1205.278,2291.00
1206.192,2670.00
1207.108,3138.00
1208.022,2975.00
1208.938,2492.00
1209.851,2799.00
1210.765,2841.00
1211.680,2528.00
1212.594,2430.00
1213.507,2549.00
1214.422,3058.00
1215.335,2714.00
1216.248,2569.00
1217.163,2637.00
1218.076,3246.00
1218.990,2733.00
1219.903,2421.00
1220.816,2463.00
1221.730,2602.00
1222.642,2485.00
1223.554,2559.00
1224.469,2710.00
1225.380,2551.00
1226.292,2301.00
1227.206,2767.00
1228.118,2915.00
1229.032,2272.00
1229.943,2522.00
1230.855,2563.00
1231.768,2387.00
1232.679,2718.00
1233.590,2601.00
1234.503,2844.00
1235.414,2447.00
1236.325,2531.00
1237.238,2681.00
1238.149,2718.00
1239.059,2437.00
1239.972,2843.00
1240.882,2447.00
1241.793,2735.00
1242.705,2985.00
1243.615,2575.00
1244.525,2722.00
1245.437,2215.00
1246.347,2651.00
1247.259,2815.00
1248.168,3043.00
1249.078,2857.00
1249.989,2911.00
1250.899,2455.00
1251.808,2534.00
1252.719,2534.00
1253.628,2463.00
1254.537,2974.00
1255.448,2483.00
1256.357,2437.00
1257.266,2625.00
1258.176,2375.00
1259.085,2357.00
1259.993,2459.00
1260.904,2446.00
1261.812,2451.00
1262.720,3167.00
1263.630,2842.00
1264.538,2495.00
1265.446,2725.00
1266.356,2614.00
1267.263,2894.00
1268.171,2465.00
1269.080,2710.00
1269.988,2810.00
1270.895,2545.00
1271.804,2572.00
1272.711,2794.00
1273.619,2785.00
1274.527,2421.00
1275.434,2727.00
1276.341,2425.00
1277.248,2644.00
1278.156,2863.00
1279.063,2503.00
1279.969,2730.00
1280.877,3535.00
1281.783,2837.00
1282.690,2718.00
1283.598,2594.00
1284.503,2453.00
1285.409,2454.00
1286.317,3031.00
1287.223,3005.00
1288.128,2708.00
1289.036,2514.00
1289.941,2576.00
1290.846,2638.00
1291.751,2451.00
1292.658,2597.00
1293.563,3052.00
1294.468,2632.00
1295.375,2764.00
1296.280,2854.00
1297.184,3378.00
1298.091,2708.00
1298.995,2804.00
1299.900,3013.00
1300.806,2552.00
1301.710,2368.00
1302.614,2216.00
1303.518,2860.00
1304.424,2550.00
1305.327,2793.00
1306.231,2609.00
1307.137,2768.00
1308.040,2688.00
1308.943,2641.00
1309.847,2838.00
1310.752,2831.00
1311.655,2300.00
1312.558,2425.00
1313.463,2554.00
1314.366,2544.00
1315.269,2671.00
1316.171,2597.00
1317.076,2511.00
1317.978,2456.00
1318.881,2244.00
1319.785,2498.00
1320.687,2483.00
1321.589,2219.00
1322.491,2476.00
1323.395,2724.00
1324.297,3196.00
1325.198,2727.00
1326.102,2427.00
1327.004,2445.00
1327.905,3029.00
1328.806,2581.00
1329.709,2702.00
1330.611,2542.00
1331.512,2475.00
1332.413,3051.00
1333.316,2654.00
1334.216,2812.00
1335.117,2357.00
1336.020,2695.00
1336.920,2631.00
1337.821,2497.00
1338.721,2853.00
1339.623,2727.00
1340.523,2574.00
1341.423,2506.00
1342.323,2890.00
1343.225,2722.00
1344.125,2466.00
1345.025,2505.00
1345.924,2313.00
1346.826,2993.00
1347.725,2997.00
1348.624,2865.00
1349.524,2515.00
1350.425,2551.00
1351.324,2727.00
1352.223,2770.00
1353.121,2586.00
1354.022,2811.00
1354.921,3006.00
1355.819,2755.00
1356.718,2644.00
1357.618,2396.00
1358.516,2759.00
1359.415,3024.00
1360.313,2734.00
1361.213,2593.00
1362.111,2896.00
1363.008,3287.00
1363.906,2628.00
1364.806,2629.00
1365.703,2754.00
1366.601,2437.00
1367.498,2443.00
1368.397,2820.00
1369.295,2687.00
1370.192,2497.00
1371.089,2718.00
1371.987,2603.00
1372.884,2869.00
1373.781,2466.00
1374.678,2622.00
1375.574,2464.00
1376.473,2718.00
1377.369,2859.00
1378.265,2476.00
1379.161,2625.00
1380.059,2316.00
1380.955,2764.00
1381.851,2398.00
1382.747,2513.00
1383.643,2562.00
1384.540,2413.00
1385.436,2549.00
1386.331,2685.00
1387.227,2795.00
1388.124,2744.00
1389.019,2443.00
1389.914,2563.00
1390.809,2283.00
1391.704,3063.00
1392.601,2501.00
1393.495,2930.00
1394.390,2743.00
1395.285,2879.00
1396.179,2667.00
1397.075,2598.00
1397.969,2716.00
1398.864,2282.00
1399.758,2606.00
1400.652,2659.00
1401.547,2476.00
1402.441,2365.00
1403.335,2976.00
1404.229,2769.00
1405.122,2731.00
1406.017,2617.00
1406.911,2755.00
1407.804,3033.00
1408.697,2663.00
1409.590,2435.00
1410.485,2778.00
1411.378,2703.00
1412.271,2307.00
1413.163,2730.00
1414.056,2795.00
1414.949,3017.00
1415.843,2707.00
1416.735,2575.00
1417.627,2673.00
1418.520,2623.00
1419.412,2830.00
1420.306,2794.00
1421.197,2934.00
1422.089,2859.00
1422.981,3078.00
1423.873,2777.00
1424.764,2781.00
1425.657,2681.00
1426.549,2779.00
1427.440,2853.00
1428.331,2523.00
1429.222,2339.00
1430.113,2699.00
1431.006,2791.00
1431.897,2563.00
1432.787,2658.00
1433.678,2595.00
1434.568,2459.00
1435.459,2915.00
1436.351,2795.00
1437.241,2833.00
1438.131,2771.00
1439.021,2351.00
1439.911,2591.00
1440.801,2723.00
1441.693,2850.00
1442.583,2626.00
1443.472,2626.00
1444.362,2762.00
1445.251,2599.00
1446.140,2588.00
1447.030,2864.00
1447.921,2853.00
1448.810,2460.00
1449.699,3010.00
1450.588,2681.00
1451.476,2580.00
1452.365,2762.00
1453.254,2565.00
1454.144,2512.00
1455.032,2763.00
1455.921,2381.00
1456.809,2924.00
1457.697,2495.00
1458.585,2601.00
1459.473,2574.00
1460.361,2471.00
1461.251,2689.00
1462.138,2726.00
1463.026,2631.00
1463.913,2860.00
1464.801,2563.00
1465.688,2750.00
1466.575,2681.00
1467.463,3095.00
1468.351,2493.00
1469.238,2602.00
1470.125,2245.00
1471.012,2714.00
1471.899,2731.00
1472.785,2499.00
1473.672,2665.00
1474.558,2886.00
1475.446,2773.00
1476.333,2806.00
1477.219,2470.00
1478.105,2635.00
1478.991,2601.00
1479.877,2938.00
1480.762,2613.00
1481.648,2512.00
1482.534,2846.00
1483.419,2699.00
1484.307,2777.00
1485.192,2606.00
1486.077,2484.00
1486.962,2521.00
1487.847,2403.00
1488.732,2526.00
1489.617,2661.00
1490.502,2873.00
1491.387,2759.00
1492.271,2491.00
1493.156,2504.00
1494.042,2443.00
1494.927,2867.00
1495.811,2550.00
1496.695,2806.00
1497.579,2933.00
1498.463,2643.00
1499.347,2703.00
1500.231,2681.00
1501.114,2729.00
1501.998,2958.00
1502.881,2679.00
1503.765,2934.00
1504.648,3035.00
1505.533,2767.00
1506.417,2680.00
1507.300,2638.00
1508.183,2704.00
1509.066,2158.00
1509.948,2882.00
1510.831,3013.00
1511.714,2436.00
1512.596,2812.00
1513.479,2885.00
1514.361,2872.00
1515.243,2707.00
1516.125,2793.00
1517.008,2940.00
1517.890,2626.00
1518.771,2696.00
1519.655,2826.00
1520.537,2582.00
1521.419,2532.00
1522.300,2672.00
1523.182,2808.00
1524.063,2833.00
1524.944,2944.00
1525.825,2829.00
1526.707,2453.00
1527.588,2472.00
1528.468,2762.00
1529.349,2320.00
1530.230,2567.00
1531.111,2839.00
1531.991,2693.00
1532.872,2389.00
1533.752,2656.00
1534.632,2514.00
1535.513,2551.00
1536.393,2831.00
1537.273,2990.00
1538.153,3337.00
1539.032,2396.00
1539.912,2667.00
1540.792,2694.00
1541.672,2661.00
1542.551,2762.00
1543.430,3281.00
1544.310,2670.00
1545.189,2585.00
1546.068,3063.00
1546.947,2777.00
1547.826,2991.00
1548.705,2641.00
1549.584,2906.00
1550.462,2606.00
1551.341,2826.00
1552.219,2758.00
1553.098,2814.00
1553.976,2888.00
1554.854,3052.00
1555.733,2865.00
1556.611,2549.00
1557.489,2468.00
1558.367,2697.00
1559.244,2828.00
1560.122,2666.00
1561.000,2734.00
1561.877,2932.00
1562.755,2551.00
1563.632,2600.00
1564.509,2897.00
1565.386,3017.00
1566.264,2441.00
1567.141,2291.00
1568.017,2801.00
1568.894,2651.00
1569.771,2719.00
1570.648,2763.00
1571.524,2706.00
1572.401,2418.00
1573.277,2454.00
1574.153,2743.00
1575.029,2519.00
1575.906,3413.00
1576.781,2876.00
1577.657,2625.00
1578.533,2907.00
1579.409,2327.00
1580.285,2647.00
1581.160,3096.00
1582.036,2858.00
1582.911,2482.00
1583.786,2983.00
1584.662,2498.00
1585.537,2641.00
1586.412,2705.00
1587.287,2508.00
1588.160,2871.00
1589.035,2297.00
1589.909,2702.00
1590.784,2607.00
1591.658,2477.00
1592.533,2690.00
1593.407,2690.00
1594.281,2564.00
1595.155,3079.00
1596.029,2614.00
1596.903,2672.00
1597.777,2577.00
1598.651,2917.00
1599.525,2390.00
1600.398,2701.00
1601.272,2629.00
1602.144,3194.00
1603.017,2626.00
1603.890,2960.00
1604.763,2775.00
1605.636,2802.00
1606.509,2349.00
1607.382,2533.00
1608.255,2764.00
1609.128,2890.00
1610.000,2621.00
1610.873,2390.00
1611.746,2567.00
1612.616,2601.00
1613.488,2268.00
1614.361,2678.00
1615.233,2612.00
1616.105,2883.00
1616.977,2594.00
1617.849,2533.00
1618.720,2984.00
1619.592,2980.00
1620.464,2739.00
1621.333,3141.00
1622.205,2646.00
1623.076,2657.00
1623.947,2640.00
1624.818,2911.00
1625.689,2782.00
1626.560,2568.00
1627.431,2722.00
1628.302,3096.00
1629.171,2842.00
1630.042,2985.00
1630.912,3645.00
1631.782,3240.00
1632.653,2520.00
1633.523,2817.00
1634.393,2934.00
1635.263,2555.00
1636.131,2680.00
1637.001,2577.00
1637.871,2283.00
1638.741,2329.00
1639.611,2439.00
1640.480,2808.00
1641.350,2542.00
1642.219,2519.00
1643.087,2186.00
1643.956,3095.00
1644.825,2929.00
1645.694,2885.00
1646.563,2839.00
1647.432,2740.00
1648.299,2730.00
1649.167,2802.00
1650.036,2487.00
1650.904,2919.00
1651.773,2908.00
1652.641,2677.00
1653.509,2880.00
1654.376,2563.00
1655.244,2707.00
1656.112,2757.00
1656.980,2695.00
1657.847,2552.00
1658.715,2847.00
1659.581,2603.00
1660.448,2942.00
1661.316,2199.00
1662.183,2712.00
1663.051,2727.00
1663.918,2715.00
1664.783,2689.00
1665.650,2767.00
1666.517,2829.00
1667.384,2747.00
1668.251,2735.00
1669.115,2882.00
1669.982,2646.00
1670.849,2962.00
1671.715,2686.00
1672.581,2798.00
1673.446,2785.00
1674.312,2724.00
1675.178,3117.00
1676.044,2789.00
1676.910,2772.00
1677.774,2727.00
1678.639,2325.00
1679.505,2683.00
1680.370,2827.00
1681.236,3313.00
1682.099,2670.00
1682.965,2755.00
1683.830,2298.00
1684.695,2526.00
1685.560,2603.00
1686.423,2816.00
1687.288,2794.00
1688.153,2741.00
1689.017,2632.00
1689.880,2790.00
1690.745,2828.00
1691.609,2521.00
1692.473,2843.00
1693.338,2901.00
1694.200,2976.00
1695.064,2669.00
1695.928,2602.00
1696.792,2706.00
1697.654,3207.00
1698.517,2729.00
1699.381,2402.00
1700.245,2333.00
1701.106,2993.00
1701.969,2570.00
1702.833,2819.00
1703.696,2668.00
1704.557,2646.00
1705.420,2578.00
1706.283,2721.00
1707.146,2838.00
1708.007,2509.00
1708.870,2468.00
1709.732,2360.00
1710.595,2594.00
1711.455,2469.00
1712.318,2603.00
1713.180,2936.00
1714.040,2761.00
1714.902,2841.00
1715.764,2719.00
1716.626,2483.00
1717.486,2668.00
1718.348,2938.00
1719.209,4807.00
1720.071,2370.00
1720.930,2431.00
1721.792,2529.00
1722.653,2536.00
1723.512,2562.00
1724.374,2669.00
1725.234,2755.00
1726.095,2751.00
1726.954,2684.00
1727.815,2833.00
1728.676,2678.00
1729.535,2934.00
1730.395,2662.00
1731.256,2589.00
1732.114,2755.00
1732.974,2196.00
1733.834,3053.00
1734.693,2868.00
1735.553,2706.00
1736.413,3143.00
1737.272,2600.00
1738.130,2638.00
1738.990,2768.00
1739.849,2581.00
1740.707,3698.00
1741.566,2713.00
1742.426,2737.00
1743.283,3104.00
1744.142,2562.00
1745.001,2400.00
1745.858,2898.00
1746.717,2786.00
1747.576,2796.00
1748.433,2861.00
1749.292,3292.00
1750.150,3313.00
1751.007,2880.00
1751.865,2905.00
1752.723,2747.00
1753.579,2632.00
1754.438,2922.00
1755.296,2917.00
1756.152,2259.00
1757.010,2391.00
1757.865,2897.00
1758.723,2344.00
1759.581,3050.00
1760.436,2674.00
1761.294,3086.00
1762.151,2687.00
1763.006,2596.00
1763.864,2356.00
1764.721,2900.00
1765.576,2713.00
1766.433,2835.00
1767.288,2673.00
1768.144,2760.00
1769.001,2668.00
1769.856,2815.00
1770.712,2907.00
1771.568,2462.00
1772.423,2600.00
1773.279,2569.00
1774.133,2610.00
1774.989,3123.00
1775.845,3096.00
1776.699,2952.00
1777.555,2731.00
1778.409,3188.00
1779.265,2634.00
1780.120,2640.00
1780.974,2713.00
1781.829,2291.00
1782.682,2785.00
1783.538,2553.00
1784.393,2740.00
1785.246,2590.00
1786.101,2766.00
1786.954,2806.00
1787.808,2906.00
1788.661,2436.00
1789.516,2629.00
1790.370,2713.00
1791.223,2872.00
1792.077,2717.00
1792.930,2828.00
1793.784,2571.00
1794.636,2743.00
1795.490,2709.00
1796.344,2703.00
1797.196,2728.00
1798.049,2858.00
1798.901,2623.00
1799.755,2935.00
1800.606,2495.00
1801.460,3268.00
1802.311,2997.00
1803.165,3115.00
1804.018,3054.00
1804.869,2819.00
1805.722,3180.00
1806.573,2723.00
1807.426,2534.00
1808.276,2689.00
1809.129,2606.00
1809.980,2905.00
1810.832,2991.00
1811.683,2624.00
1812.535,3038.00
1813.385,2637.00
1814.237,2971.00
1815.089,2790.00
1815.940,2973.00
1816.791,2661.00
1817.641,2582.00
1818.493,2874.00
1819.343,2760.00
1820.194,2582.00
1821.044,2834.00
1821.895,2908.00
1822.745,2429.00
1823.596,2584.00
1824.445,3124.00
1825.296,2820.00
1826.145,2684.00
1826.996,2891.00
1827.845,2724.00
1828.695,2777.00
1829.544,2709.00
1830.395,2741.00
1831.243,2655.00
1832.094,2445.00
1832.942,3302.00
1833.792,2806.00
1834.640,2763.00
1835.490,2738.00
1836.338,2795.00
1837.186,2625.00
1838.036,2584.00
1838.884,2730.00
1839.733,3004.00
1840.581,2879.00
1841.430,2847.00
1842.278,3033.00
1843.127,2592.00
1843.974,2405.00
1844.823,3118.00
1845.671,2899.00
1846.519,2738.00
1847.366,2805.00
1848.213,2343.00
1849.062,2517.00
1849.909,2439.00
1850.757,3313.00
1851.604,2851.00
1852.452,2651.00
1853.298,2847.00
1854.146,2794.00
1854.993,2758.00
1855.839,3235.00
1856.687,2791.00
1857.532,2854.00
1858.380,2701.00
1859.226,2792.00
1860.073,2859.00
1860.919,2538.00
1861.765,2620.00
1862.612,2971.00
1863.457,2976.00
1864.304,2667.00
1865.150,2869.00
1865.995,2673.00
1866.842,2843.00
1867.686,2940.00
1868.533,2763.00
1869.378,2811.00
1870.223,2710.00
1871.069,2635.00
1871.914,2761.00
1872.760,2698.00
1873.604,2547.00
1874.448,2861.00
1875.294,2855.00
1876.139,2586.00
1876.984,2849.00
1877.828,2391.00
1878.672,2211.00
1879.518,2579.00
1880.361,2896.00
1881.205,2907.00
1882.050,2550.00
1882.894,3235.00
1883.739,2631.00
1884.582,2453.00
1885.425,2563.00
1886.270,2921.00
1887.113,2451.00
1887.956,2815.00
1888.801,2750.00
1889.644,2531.00
1890.486,2291.00
1891.331,2675.00
1892.173,2755.00
1893.017,2809.00
1893.860,3030.00
1894.702,3011.00
1895.546,2739.00
1896.388,3454.00
1897.230,3126.00
1898.074,2645.00
1898.916,2534.00
1899.757,2574.00
1900.601,3349.00
1901.443,3065.00
1902.284,3006.00
1903.125,3156.00
1903.969,2945.00
1904.810,2962.00
1905.651,2834.00
1906.494,3013.00
1907.335,3148.00
1908.176,2830.00
1909.018,2841.00
1909.859,2701.00
1910.700,2594.00
1911.542,3285.00
1912.383,2837.00
1913.223,2338.00
1914.064,2859.00
1914.906,2980.00
1915.746,3082.00
1916.586,3183.00
1917.428,2725.00
1918.268,2791.00
1919.107,2645.00
1919.947,2488.00
1920.789,2650.00
1921.628,2955.00
1922.468,2750.00
1923.309,2583.00
1924.148,3028.00
1924.988,2860.00
1925.827,2718.00
1926.667,2609.00
1927.507,2818.00
1928.345,2561.00
1929.184,2896.00
1930.025,2556.00
1930.864,2987.00
1931.702,3045.00
1932.541,2658.00
1933.381,2909.00
1934.219,2856.00
1935.057,3018.00
1935.896,2434.00
1936.735,2697.00
1937.573,2666.00
1938.411,2540.00
1939.249,2885.00
1940.089,2628.00
1940.927,2963.00
1941.764,3004.00
1942.602,2632.00
1943.439,2658.00
1944.278,2720.00
1945.115,2683.00
1945.953,2505.00
1946.790,2805.00
1947.628,3085.00
1948.465,2848.00
1949.302,2859.00
1950.139,2886.00
1950.976,2615.00
1951.814,2907.00
1952.651,2792.00
1953.487,2514.00
1954.323,2981.00
1955.160,2711.00
1955.998,3099.00
1956.834,2724.00
1957.670,2817.00
1958.506,2986.00
1959.342,2847.00
1960.177,2799.00
1961.015,2905.00
1961.850,2763.00
1962.686,2808.00
1963.521,2790.00
1964.357,3018.00
1965.192,2519.00
1966.029,2914.00
1966.864,2672.00
1967.699,2937.00
1968.534,2764.00
1969.369,3015.00
1970.204,2729.00
1971.040,2813.00
1971.875,2687.00
1972.709,2773.00
1973.544,2606.00
1974.378,2666.00
1975.212,2871.00
1976.047,2614.00
1976.882,2618.00
1977.716,3160.00
1978.550,2476.00
1979.384,2707.00
1980.218,2712.00
1981.052,2688.00
1981.885,2793.00
1982.719,2744.00
1983.554,2887.00
1984.388,3036.00
1985.221,2825.00
1986.054,2983.00
1986.887,2817.00
1987.720,2594.00
1988.553,3065.00
1989.386,2850.00
1990.219,2898.00
1991.053,3039.00
1991.886,2672.00
1992.719,2958.00
1993.551,2301.00
1994.383,2849.00
1995.216,2695.00
1996.048,2453.00
1996.880,2952.00
1997.712,2654.00
1998.544,2754.00
1999.376,2875.00
2000.208,3022.00
2001.040,3245.00
2001.873,2572.00
2002.705,2588.00
2003.536,2802.00
2004.367,2816.00
2005.199,2827.00
2006.030,2636.00
2006.861,2572.00
2007.692,2781.00
2008.523,2633.00
2009.354,2818.00
2010.185,2568.00
2011.016,2916.00
2011.846,3022.00
2012.677,2691.00
2013.507,3061.00
2014.338,2976.00
2015.168,2697.00
2015.999,3301.00
2016.829,2702.00
2017.659,3006.00
2018.489,3312.00
2019.319,2619.00
2020.149,2938.00
2020.980,2777.00
2021.810,2581.00
2022.639,2641.00
2023.469,2650.00
2024.298,2468.00
2025.128,2350.00
2025.957,2402.00
2026.786,2203.00
2027.615,2401.00
2028.444,2624.00
2029.273,2805.00
2030.102,2372.00
2030.931,2583.00
2031.758,2874.00
2032.586,2561.00
2033.415,2619.00
2034.243,2264.00
2035.072,2014.00
2035.900,2509.00
2036.728,2338.00
2037.556,2335.00
2038.385,2364.00
2039.213,2193.00
2040.040,2179.00
2040.868,2173.00
2041.696,2227.00
2042.524,2249.00
2043.351,2439.00
2044.179,2242.00
2045.006,2034.00
