RamanScope Measure Spectrum Data V3.72

<< MEASURE CONDITION >>
Exposure Type,Aver
Exposure Time [sec],15
Exposure Count,4
Measure Time,2023/09/19 09:30:56
Data Name,""
Data Comment,""
Rayleigh Wave[nm],532.0

<< SAMPLE SPECTRUM >>
Wave[dcm-1],No214
146.591,811.50
147.626,925.50
148.664,1150.50
149.699,1344.75
150.737,1636.00
151.772,1859.50
152.809,2188.75
153.846,2448.25
154.881,2651.00
155.918,2902.50
156.953,3150.25
157.989,3339.50
159.026,3511.25
160.060,3635.50
161.096,3826.50
162.130,3886.00
163.167,3996.25
164.200,4075.50
165.236,4182.25
166.272,4223.00
167.305,4264.50
168.341,4362.75
169.374,4415.50
170.409,4498.75
171.445,4593.75
172.477,4677.00
173.512,4732.25
174.545,4729.25
175.580,4836.75
176.614,4873.25
177.647,4935.25
178.681,4987.50
179.713,5046.00
180.747,4943.25
181.781,5007.00
182.813,4908.25
183.847,4935.25
184.878,4905.25
185.912,4871.75
186.945,4922.75
187.976,4891.25
189.010,4872.50
190.043,4932.25
191.073,4883.50
192.106,4907.50
193.137,4949.25
194.170,4924.75
195.202,5041.00
196.232,5012.50
197.265,5036.50
198.297,5101.00
199.327,5084.25
200.359,5180.25
201.388,5215.25
202.420,5271.50
203.452,5200.00
204.481,5283.25
205.512,5375.00
206.544,5436.25
207.573,5432.25
208.604,5441.25
209.635,5646.50
210.663,5697.50
211.694,5739.50
212.725,5931.75
213.753,6053.75
214.783,6224.00
215.813,6301.00
216.841,6573.75
217.871,6707.50
218.899,6841.75
219.929,7078.50
220.959,7306.50
221.986,7359.25
223.016,7475.50
224.045,7447.50
225.072,7461.50
226.101,7357.25
227.130,7135.75
228.157,7069.50
229.185,6853.25
230.214,6670.00
231.241,6482.50
232.269,6344.00
233.297,6248.75
234.323,6107.75
235.351,6044.50
236.379,6039.75
237.407,5996.25
238.433,5935.25
239.460,5920.00
240.488,5865.25
241.513,5932.75
242.540,5969.75
243.568,5925.75
244.592,6027.00
245.619,6132.25
246.646,6172.75
247.671,6229.25
248.697,6253.75
249.724,6209.25
250.748,6230.25
251.774,6176.00
252.801,6153.50
253.827,6132.75
254.850,6021.75
255.876,5952.50
256.902,5891.25
257.925,5936.25
258.951,5908.75
259.976,5921.00
260.999,5896.75
262.024,5893.00
263.049,5876.75
264.074,5915.00
265.097,5985.50
266.122,5941.00
267.146,5955.25
268.168,6015.25
269.193,5965.25
270.217,6038.25
271.241,6079.00
272.263,6126.50
273.287,6147.50
274.311,6212.75
275.332,6248.75
276.356,6378.25
277.379,6401.25
278.402,6540.25
279.424,6566.00
280.447,6682.00
281.470,6671.25
282.492,6795.75
283.513,6760.25
284.536,6738.50
285.558,6704.25
286.581,6646.00
287.601,6626.50
288.623,6568.50
289.645,6453.50
290.665,6443.00
291.687,6346.50
292.709,6271.75
293.730,6170.25
294.750,5996.25
295.771,6017.50
296.792,5986.25
297.813,5887.75
298.832,5736.00
299.853,5677.00
300.874,5586.50
301.895,5581.25
302.913,5508.25
303.934,5394.25
304.954,5339.75
305.975,5297.25
306.993,5280.00
308.013,5189.50
309.033,5151.00
310.052,5077.00
311.072,5004.25
312.090,4995.50
313.109,4922.50
314.129,4868.75
315.148,4956.50
316.165,4884.00
317.184,4854.75
318.203,4826.75
319.222,4795.25
320.238,4710.00
321.257,4734.75
322.275,4677.00
323.294,4638.25
324.312,4618.75
325.328,4648.00
326.346,4568.25
327.364,4574.00
328.382,4559.75
329.397,4568.00
330.415,4543.25
331.432,4506.00
332.450,4507.00
333.467,4489.25
334.482,4472.00
335.499,4468.00
336.516,4504.50
337.533,4410.50
338.547,4461.50
339.564,4429.75
340.580,4451.50
341.597,4405.50
342.613,4404.00
343.627,4432.25
344.643,4407.75
345.659,4450.00
346.675,4328.00
347.690,4332.75
348.704,4344.75
349.719,4336.25
350.735,4293.25
351.750,4322.50
352.765,4288.75
353.778,4264.00
354.793,4263.50
355.808,4256.00
356.822,4311.50
357.837,4232.50
358.851,4253.75
359.864,4201.50
360.878,4213.50
361.892,4232.75
362.906,4239.00
363.920,4224.00
364.932,4319.00
365.945,4179.50
366.959,4301.00
367.972,4264.00
368.986,4239.25
369.999,4239.75
371.010,4238.00
372.023,4194.75
373.036,4282.50
374.049,4313.25
375.061,4330.50
376.072,4290.25
377.084,4324.75
378.097,4330.25
379.109,4366.75
380.121,4416.25
381.133,4367.75
382.143,4381.75
383.155,4418.75
384.166,4331.00
385.178,4391.25
386.189,4404.25
387.201,4428.75
388.212,4494.75
389.221,4474.25
390.232,4503.75
391.243,4499.25
392.254,4540.25
393.264,4490.75
394.275,4506.00
395.283,4563.50
396.294,4478.25
397.304,4500.75
398.314,4513.00
399.324,4477.50
400.334,4461.25
401.344,4449.75
402.351,4488.75
403.361,4443.50
404.370,4374.00
405.380,4447.00
406.389,4396.25
407.398,4416.75
408.407,4366.25
409.414,4357.75
410.423,4278.50
411.431,4265.00
412.440,4290.00
413.448,4326.25
414.457,4255.75
415.465,4292.75
416.471,4289.50
417.479,4230.50
418.487,4258.00
419.495,4207.50
420.503,4223.00
421.510,4245.25
422.518,4135.75
423.525,4181.00
424.530,4156.75
425.537,4193.00
426.544,4109.25
427.551,4159.00
428.558,4148.50
429.565,4128.25
430.571,4148.50
431.578,4115.25
432.582,4120.50
433.588,4128.25
434.595,4115.00
435.601,4075.00
436.607,4060.25
437.612,4078.50
438.618,4039.25
439.624,4071.50
440.627,4046.75
441.633,4059.25
442.638,4082.00
443.643,4064.25
444.648,4067.25
445.653,3996.00
446.658,4033.00
447.663,4005.00
448.667,4070.00
449.672,4105.25
450.674,4103.00
451.678,4064.75
452.682,4075.75
453.687,4087.50
454.690,4104.00
455.694,4038.75
456.698,4083.25
457.702,4089.00
458.705,4042.50
459.709,4081.25
460.710,4122.00
461.713,4144.75
462.716,4079.75
463.719,4154.25
464.722,4096.75
465.725,4101.50
466.727,4088.00
467.730,4128.75
468.732,4059.25
469.735,4086.25
470.737,4063.25
471.737,4077.75
472.739,4059.75
473.741,4112.25
474.742,4116.50
475.744,4104.75
476.746,4092.00
477.747,4110.25
478.748,4139.75
479.750,4108.50
480.751,4166.00
481.752,4156.00
482.753,4176.00
483.751,4158.50
484.752,4121.75
485.753,4109.50
486.753,4130.75
487.753,4118.50
488.754,4175.75
489.754,4170.00
490.754,4149.50
491.754,4086.75
492.754,4112.75
493.753,4107.25
494.753,4145.00
495.752,4141.00
496.752,4140.50
497.749,4125.25
498.748,4180.75
499.747,4143.00
500.746,4120.00
501.745,4081.25
502.744,4130.25
503.742,4043.25
504.741,4063.75
505.739,4088.75
506.737,4084.75
507.735,4056.25
508.734,4090.75
509.732,4103.00
510.729,4007.25
511.727,4042.00
512.725,4050.00
513.720,4015.00
514.718,3986.50
515.715,4005.00
516.712,3993.75
517.709,3993.25
518.706,4014.25
519.703,4064.25
520.700,4039.75
521.696,4022.75
522.693,3974.00
523.689,3954.00
524.686,3957.75
525.682,3856.00
526.678,3764.75
527.674,3789.50
528.670,3878.25
529.666,3883.50
530.661,3957.25
531.657,4229.00
532.652,4001.25
533.648,4044.00
534.641,4057.50
535.636,4104.00
536.631,4122.00
537.626,4093.50
538.621,4112.50
539.616,4122.50
540.610,4120.50
541.605,4106.25
542.599,4078.25
543.593,4098.25
544.587,4150.50
545.581,4196.50
546.575,4121.00
547.569,4191.00
548.563,4170.00
549.557,4130.25
550.550,4214.50
551.543,4107.25
552.537,4136.25
553.530,4139.75
554.523,4208.25
555.516,4174.50
556.509,4199.75
557.502,4120.50
558.494,4172.00
559.487,4175.75
560.479,4159.50
561.472,4234.00
562.464,4168.75
563.456,4202.50
564.448,4162.00
565.440,4122.25
566.432,4214.75
567.423,4188.25
568.415,4253.50
569.404,4213.25
570.396,4213.25
571.387,4275.00
572.378,4232.25
573.369,4225.75
574.360,4268.25
575.351,4268.75
576.341,4277.50
577.332,4293.50
578.323,4319.50
579.313,4315.75
580.303,4370.00
581.293,4367.75
582.283,4400.75
583.273,4347.50
584.263,4342.00
585.253,4309.25
586.243,4369.00
587.232,4360.75
588.222,4391.25
589.211,4404.50
590.200,4431.00
591.189,4417.50
592.178,4442.75
593.167,4426.00
594.156,4445.25
595.145,4457.50
596.133,4417.50
597.122,4414.50
598.110,4522.75
599.098,4404.75
600.086,4427.75
601.074,4363.75
602.062,4452.75
603.050,4438.75
604.038,4422.00
605.025,4438.25
606.013,4437.00
607.000,4504.75
607.987,4431.25
608.975,4470.50
609.962,4447.00
610.949,4435.75
611.936,4403.25
612.922,4452.25
613.909,4412.75
614.895,4460.75
615.882,4409.25
616.868,4427.00
617.854,4431.25
618.841,4412.00
619.826,4440.50
620.812,4351.25
621.798,4437.50
622.784,4335.25
623.769,4317.50
624.755,4322.25
625.740,4276.00
626.725,4218.25
627.711,4272.00
628.698,4214.50
629.683,4190.00
630.667,4178.50
631.652,4159.75
632.637,4085.75
633.621,4123.50
634.606,4092.75
635.590,3994.50
636.574,3999.25
637.558,3982.50
638.542,3949.25
639.526,3890.00
640.510,3949.75
641.493,3884.25
642.477,3906.25
643.460,3898.75
644.444,3880.75
645.427,3845.50
646.410,3807.75
647.393,3830.00
648.376,3818.00
649.359,3772.00
650.341,3779.50
651.324,3733.75
652.307,3803.50
653.289,3759.00
654.271,3705.25
655.253,3698.50
656.235,3679.75
657.217,3713.50
658.199,3707.50
659.181,3663.00
660.163,3641.50
661.144,3703.25
662.126,3634.50
663.107,3617.75
664.088,3589.75
665.069,3575.75
666.050,3597.00
667.033,3546.50
668.014,3567.00
668.995,3571.25
669.975,3560.00
670.956,3553.25
671.936,3532.25
672.916,3491.50
673.896,3505.25
674.876,3513.25
675.856,3474.75
676.836,3466.75
677.816,3481.25
678.795,3496.50
679.775,3382.25
680.754,3414.50
681.734,3473.00
682.713,3365.75
683.692,3409.50
684.671,3375.00
685.650,3352.50
686.629,3318.00
687.607,3293.25
688.586,3348.75
689.564,3250.75
690.543,3294.25
691.523,3275.75
692.501,3262.75
693.479,3251.00
694.457,3187.75
695.435,3141.00
696.413,3164.25
697.390,3143.25
698.368,3145.75
699.345,3167.00
700.322,3091.50
701.300,3121.00
702.277,3112.25
703.254,3085.00
704.231,3085.25
705.207,3098.75
706.184,3049.50
707.161,3035.00
708.137,3065.25
709.113,3064.50
710.090,3054.00
711.068,3018.25
712.044,3020.75
713.020,2979.25
713.996,3022.50
714.971,2977.50
715.947,2945.00
716.922,2977.75
717.898,2998.00
718.873,2955.75
719.848,2972.75
720.823,2898.75
721.798,2913.00
722.773,2941.50
723.748,2944.25
724.723,2948.50
725.697,2944.50
726.672,2947.50
727.646,2918.50
728.622,2874.25
729.596,2918.75
730.570,2908.50
731.544,2882.75
732.518,2773.50
733.492,2865.00
734.466,2847.25
735.439,2830.75
736.413,2795.25
737.386,2812.50
738.359,2826.25
739.332,2827.75
740.305,2738.00
741.278,2759.00
742.251,2752.25
743.224,2785.75
744.196,2743.75
745.171,2780.50
746.143,2751.25
747.115,2747.25
748.087,2714.25
749.059,2751.25
750.031,2722.25
751.003,2722.75
751.975,2672.25
752.947,2703.00
753.918,2697.00
754.890,2703.75
755.861,2638.25
756.832,2646.00
757.803,2641.75
758.774,2622.00
759.747,2686.75
760.718,2582.00
761.689,2593.50
762.659,2570.00
763.630,2603.75
764.600,2564.00
765.570,2552.50
766.540,2564.50
767.510,2530.25
768.480,2497.75
769.450,2514.50
770.420,2465.50
771.390,2535.00
772.359,2460.25
773.329,2506.25
774.300,2423.75
775.269,2435.00
776.238,2415.50
777.207,2425.75
778.176,2428.00
779.145,2355.25
780.114,2406.50
781.083,2370.50
782.051,2370.00
783.019,2344.50
783.988,2350.25
784.956,2333.00
785.924,2298.50
786.894,2365.25
787.862,2342.75
788.830,2308.00
789.797,2315.75
790.765,2315.25
791.732,2268.25
792.700,2251.00
793.667,2263.75
794.634,2234.25
795.601,2251.00
796.568,2239.00
797.535,2235.00
798.502,2234.25
799.468,2208.00
800.437,2235.50
801.403,2160.50
802.370,2219.00
803.336,2199.75
804.302,2184.00
805.268,2232.50
806.234,2142.75
807.200,2168.50
808.166,2158.25
809.131,2139.75
810.097,2119.50
811.062,2191.00
812.027,2164.50
812.994,2145.50
813.960,2114.25
814.925,2125.75
815.889,2124.75
816.854,2104.25
817.819,2083.00
818.783,2083.00
819.748,2064.75
820.712,2102.00
821.677,2087.00
822.641,2109.50
823.605,2075.00
824.571,2020.00
825.534,2049.50
826.498,2072.00
827.462,2060.75
828.425,2053.50
829.389,2093.50
830.352,2080.00
831.315,2011.50
832.279,2048.25
833.242,2025.75
834.204,2030.50
835.167,2033.75
836.132,1996.75
837.095,2008.00
838.057,2044.00
839.020,2028.50
839.982,1987.25
840.944,2014.75
841.906,1973.50
842.868,1990.25
843.830,2024.00
844.792,2019.00
845.753,2022.25
846.715,2045.50
847.679,1964.00
848.640,2030.25
849.601,2034.50
850.562,2007.00
851.523,1998.00
852.484,2023.50
853.445,1960.00
854.406,1954.00
855.367,1943.00
856.327,1960.75
857.288,1982.25
858.248,1978.50
859.210,1990.50
860.170,1986.50
861.130,1949.50
862.090,1974.00
863.050,1997.50
864.010,1933.75
864.969,1993.25
865.929,1949.50
866.888,1981.50
867.848,1968.25
868.807,1935.50
869.766,1928.75
870.727,1962.25
871.686,1951.50
872.645,1940.00
873.604,1916.25
874.562,1935.50
875.521,1921.00
876.479,1899.75
877.437,1930.50
878.396,1981.00
879.354,1933.75
880.312,1965.25
881.270,1906.75
882.229,1883.75
883.187,1908.75
884.145,1919.75
885.102,1948.25
886.059,1901.75
887.017,1922.25
887.974,1944.00
888.931,1874.00
889.888,1943.75
890.845,1872.00
891.802,1906.75
892.758,1921.75
893.717,1905.75
894.673,1892.00
895.630,1913.75
896.586,1886.75
897.542,1891.25
898.498,1896.75
899.454,1875.25
900.410,1909.00
901.366,1927.25
902.321,1900.25
903.277,1908.25
904.232,1908.00
905.189,1868.50
906.145,1922.50
907.100,1904.25
908.055,1883.75
909.010,1875.75
909.965,1879.00
910.919,1911.00
911.874,1860.25
912.828,1893.00
913.783,1905.25
914.737,1909.75
915.693,1868.75
916.648,1903.50
917.602,1903.50
918.555,1891.75
919.509,1894.25
920.463,1918.25
921.417,1885.50
922.370,1852.00
923.324,1887.00
924.277,1851.00
925.230,1891.75
926.183,1882.75
927.138,1935.75
928.091,1874.75
929.044,1893.75
929.996,1844.25
930.949,1908.00
931.902,1887.00
932.854,1914.00
933.806,1882.00
934.758,1850.00
935.711,1897.25
936.663,1891.50
937.614,1853.25
938.568,1879.00
939.520,1882.75
940.471,1880.75
941.423,1891.50
942.374,1899.50
943.326,1893.50
944.277,1943.25
945.228,1891.00
946.179,1829.50
947.130,1830.75
948.080,1857.50
949.031,1873.25
949.984,1884.00
950.934,1835.75
951.884,1894.00
952.835,1910.75
953.785,1876.00
954.735,1880.00
955.685,1878.75
956.635,1866.50
957.585,1846.00
958.534,1860.25
959.484,1863.25
960.433,1797.00
961.383,1857.50
962.334,1862.75
963.283,1800.25
964.232,1846.75
965.181,1900.25
966.130,1810.25
967.079,1789.75
968.027,1862.00
968.976,1827.25
969.924,1839.25
970.873,1845.75
971.821,1800.75
972.769,1859.50
973.719,1862.75
974.667,1819.00
975.615,1862.00
976.562,1863.00
977.510,1828.50
978.458,1799.00
979.405,1870.25
980.352,1871.50
981.300,1839.50
982.247,1818.50
983.194,1843.25
984.141,1844.50
985.088,1837.00
986.036,1841.50
986.983,1852.75
987.930,1834.75
988.876,1830.25
989.822,1855.00
990.769,1801.50
991.715,1780.75
992.661,1872.75
993.607,1782.25
994.553,1769.50
995.498,1847.50
996.444,1872.25
997.389,1883.75
998.337,1851.00
999.282,1765.75
1000.227,1863.75
1001.173,1850.50
1002.118,1849.25
1003.062,1831.50
1004.007,1858.00
1004.952,1832.75
1005.897,1827.50
1006.841,1793.25
1007.786,1813.25
1008.730,1829.50
1009.674,1860.75
1010.618,1809.50
1011.564,1836.25
1012.508,1816.00
1013.452,1852.50
1014.396,1800.25
1015.339,1861.75
1016.283,1834.75
1017.226,1811.50
1018.170,1847.25
1019.113,1841.25
1020.056,1807.25
1020.999,1830.00
1021.942,1880.25
1022.885,1863.00
1023.828,1834.75
1024.770,1837.25
1025.715,1828.25
1026.657,1864.75
1027.600,1824.25
1028.542,1908.00
1029.484,1857.25
1030.426,1829.50
1031.368,1822.75
1032.310,1839.75
1033.251,1869.75
1034.193,1862.25
1035.135,1875.50
1036.076,1870.25
1037.017,1850.25
1037.959,1860.75
1038.900,1874.00
1039.843,1924.00
1040.784,1855.75
1041.725,1873.75
1042.665,1869.75
1043.606,1900.50
1044.547,1918.75
1045.487,1907.00
1046.427,1865.00
1047.368,1883.00
1048.308,1854.75
1049.248,1915.75
1050.188,1923.25
1051.128,1920.50
1052.067,1911.25
1053.007,1918.00
1053.947,1896.00
1054.886,1898.50
1055.827,1918.25
1056.766,1936.75
1057.706,1893.75
1058.645,1906.25
1059.584,1955.00
1060.522,1924.00
1061.461,1951.00
1062.400,1869.00
1063.338,1927.00
1064.277,1919.75
1065.215,1926.75
1066.154,1975.25
1067.092,1951.75
1068.030,1951.50
1068.968,1962.25
1069.906,1965.25
1070.843,2014.00
1071.781,1924.00
1072.720,1942.00
1073.658,1982.25
1074.595,1963.00
1075.533,1993.75
1076.470,2032.75
1077.407,2007.50
1078.344,1993.25
1079.281,1947.50
1080.217,2001.25
1081.154,2058.00
1082.091,2000.25
1083.027,2008.75
1083.964,2031.00
1084.900,2011.75
1085.836,2040.75
1086.772,1996.00
1087.708,2029.00
1088.644,2031.00
1089.580,2046.75
1090.515,2054.75
1091.451,1976.50
1092.388,2043.50
1093.324,2057.50
1094.259,2008.00
1095.194,2028.50
1096.129,2047.50
1097.064,2033.25
1097.999,2013.50
1098.934,2019.25
1099.869,2011.50
1100.803,1993.50
1101.738,2026.00
1102.672,2020.50
1103.607,1986.75
1104.541,2005.50
1105.475,2000.25
1106.409,1921.50
1107.343,2000.50
1108.277,1938.00
1109.210,1944.25
1110.144,2005.00
1111.078,1984.00
1112.011,1974.25
1112.944,1946.75
1113.878,1899.25
1114.811,1920.25
1115.744,1957.75
1116.678,1956.75
1117.611,1910.75
1118.544,1949.75
1119.477,1959.75
1120.409,1888.00
1121.342,1908.75
1122.274,1860.00
1123.206,1921.50
1124.138,1922.75
1125.070,1849.50
1126.002,1888.00
1126.934,1869.50
1127.866,1875.00
1128.798,1900.25
1129.729,1886.50
1130.661,1901.50
1131.592,1812.25
1132.523,1851.25
1133.454,1849.00
1134.385,1842.75
1135.317,1855.50
1136.247,1857.25
1137.178,1875.00
1138.109,1826.75
1139.039,1880.00
1139.970,1816.75
1140.900,1811.50
1141.831,1796.25
1142.761,1803.00
1143.691,1806.50
1144.621,1781.50
1145.551,1729.50
1146.480,1829.00
1147.410,1798.25
1148.340,1736.50
1149.269,1787.50
1150.199,1775.25
1151.128,1792.50
1152.057,1739.25
1152.979,1717.75
1153.898,1763.50
1154.819,1807.00
1155.739,1720.50
1156.658,1764.00
1157.579,1692.75
1158.498,1718.50
1159.419,1757.25
1160.338,1770.75
1161.256,1733.75
1162.177,1723.25
1163.095,1741.50
1164.016,1695.75
1164.934,1738.00
1165.852,1714.00
1166.772,1710.75
1167.690,1704.50
1168.610,1737.50
1169.528,1662.75
1170.446,1751.75
1171.365,1721.00
1172.283,1699.25
1173.202,1700.50
1174.120,1720.50
1175.037,1674.00
1175.956,1738.25
1176.873,1657.00
1177.792,1694.00
1178.709,1675.25
1179.626,1686.50
1180.544,1658.75
1181.461,1676.75
1182.379,1645.75
1183.296,1673.00
1184.212,1688.50
1185.130,1674.00
1186.046,1697.50
1186.962,1661.75
1187.880,1633.50
1188.796,1682.50
1189.714,1646.00
1190.629,1718.50
1191.545,1667.00
1192.462,1710.75
1193.378,1628.25
1194.295,1633.50
1195.210,1671.50
1196.125,1678.25
1197.042,1620.00
1197.957,1646.00
1198.872,1722.50
1199.788,1658.50
1200.703,1655.00
1201.619,1661.25
1202.534,1680.00
1203.448,1633.25
1204.364,1679.50
1205.278,1697.75
1206.192,1681.75
1207.108,1641.50
1208.022,1578.25
1208.938,1674.75
1209.851,1636.75
1210.765,1588.25
1211.680,1680.25
1212.594,1663.75
1213.507,1668.75
1214.422,1681.75
1215.335,1654.00
1216.248,1689.00
1217.163,1709.75
1218.076,1696.00
1218.990,1696.25
1219.903,1656.25
1220.816,1670.00
1221.730,1692.25
1222.642,1695.75
1223.554,1683.00
1224.469,1650.00
1225.380,1657.75
1226.292,1663.25
1227.206,1684.00
1228.118,1663.50
1229.032,1689.50
1229.943,1725.50
1230.855,1672.75
1231.768,1645.25
1232.679,1733.25
1233.590,1682.50
1234.503,1681.00
1235.414,1706.50
1236.325,1702.25
1237.238,1685.75
1238.149,1704.50
1239.059,1700.75
1239.972,1702.50
1240.882,1743.00
1241.793,1712.00
1242.705,1667.25
1243.615,1730.00
1244.525,1744.25
1245.437,1680.50
1246.347,1728.50
1247.259,1740.75
1248.168,1718.25
1249.078,1736.75
1249.989,1694.25
1250.899,1742.75
1251.808,1769.25
1252.719,1762.75
1253.628,1749.50
1254.537,1741.50
1255.448,1720.50
1256.357,1709.00
1257.266,1726.50
1258.176,1748.00
1259.085,1760.75
1259.993,1749.75
1260.904,1767.50
1261.812,1795.00
1262.720,1778.75
1263.630,1709.00
1264.538,1735.00
1265.446,1803.00
1266.356,1750.50
1267.263,1803.25
1268.171,1783.50
1269.080,1801.00
1269.988,1797.50
1270.895,1802.25
1271.804,1784.75
1272.711,1750.75
1273.619,1804.50
1274.527,1801.50
1275.434,1790.00
1276.341,1802.00
1277.248,1755.00
1278.156,1770.50
1279.063,1741.00
1279.969,1812.50
1280.877,1761.50
1281.783,1800.75
1282.690,1765.25
1283.598,1785.50
1284.503,1717.75
1285.409,1733.50
1286.317,1747.50
1287.223,1808.25
1288.128,1761.50
1289.036,1756.00
1289.941,1814.50
1290.846,1800.50
1291.751,1747.00
1292.658,1749.50
1293.563,1731.25
1294.468,1790.25
1295.375,1767.25
1296.280,1772.75
1297.184,1795.75
1298.091,1703.75
1298.995,1755.25
1299.900,1706.25
1300.806,1731.75
1301.710,1783.25
1302.614,1757.75
1303.518,1738.75
1304.424,1752.50
1305.327,1741.00
1306.231,1709.75
1307.137,1751.25
1308.040,1719.00
1308.943,1755.75
1309.847,1712.50
1310.752,1669.00
1311.655,1711.25
1312.558,1689.50
1313.463,1678.00
1314.366,1703.75
1315.269,1654.50
1316.171,1687.75
1317.076,1693.00
1317.978,1695.75
1318.881,1672.00
1319.785,1618.25
1320.687,1643.00
1321.589,1643.75
1322.491,1652.00
1323.395,1664.25
1324.297,1623.00
1325.198,1612.75
1326.102,1678.00
1327.004,1673.50
1327.905,1625.25
1328.806,1639.25
1329.709,1585.25
1330.611,1590.25
1331.512,1613.50
1332.413,1619.25
1333.316,1610.75
1334.216,1621.25
1335.117,1595.25
1336.020,1606.75
1336.920,1575.00
1337.821,1597.75
1338.721,1613.00
1339.623,1581.00
1340.523,1563.00
1341.423,1530.50
1342.323,1544.75
1343.225,1545.50
1344.125,1526.75
1345.025,1574.25
1345.924,1544.75
1346.826,1572.75
1347.725,1518.50
1348.624,1533.75
1349.524,1535.25
1350.425,1524.25
1351.324,1542.00
1352.223,1542.50
1353.121,1489.00
1354.022,1500.00
1354.921,1466.75
1355.819,1516.75
1356.718,1511.75
1357.618,1477.00
1358.516,1457.50
1359.415,1479.75
1360.313,1466.25
1361.213,1517.50
1362.111,1442.25
1363.008,1478.25
1363.906,1412.00
1364.806,1456.50
1365.703,1470.75
1366.601,1452.75
1367.498,1500.75
1368.397,1415.50
1369.295,1429.50
1370.192,1439.25
1371.089,1424.25
1371.987,1462.75
1372.884,1455.50
1373.781,1421.75
1374.678,1435.25
1375.574,1459.00
1376.473,1450.75
1377.369,1484.00
1378.265,1424.75
1379.161,1409.00
1380.059,1423.00
1380.955,1422.25
1381.851,1397.25
1382.747,1467.25
1383.643,1400.25
1384.540,1428.50
1385.436,1349.00
1386.331,1360.25
1387.227,1414.00
1388.124,1431.25
1389.019,1378.00
1389.914,1407.25
1390.809,1368.75
1391.704,1431.50
1392.601,1414.00
1393.495,1455.50
1394.390,1356.75
1395.285,1408.50
1396.179,1407.25
1397.075,1350.50
1397.969,1428.50
1398.864,1353.00
1399.758,1361.50
1400.652,1373.75
1401.547,1398.00
1402.441,1379.50
1403.335,1354.50
1404.229,1386.75
1405.122,1334.75
1406.017,1366.75
1406.911,1369.75
1407.804,1382.25
1408.697,1372.00
1409.590,1360.25
1410.485,1327.50
1411.378,1338.00
1412.271,1373.00
1413.163,1354.75
1414.056,1326.50
1414.949,1362.50
1415.843,1381.25
1416.735,1369.25
1417.627,1312.00
1418.520,1352.00
1419.412,1363.75
1420.306,1341.50
1421.197,1348.00
1422.089,1311.75
1422.981,1373.75
1423.873,1303.00
1424.764,1380.75
1425.657,1294.25
1426.549,1324.25
1427.440,1354.00
1428.331,1336.50
1429.222,1330.00
1430.113,1332.75
1431.006,1356.00
1431.897,1312.25
1432.787,1357.75
1433.678,1327.50
1434.568,1314.75
1435.459,1348.00
1436.351,1293.00
1437.241,1306.25
1438.131,1343.25
1439.021,1319.75
1439.911,1295.75
1440.801,1329.25
1441.693,1298.50
1442.583,1293.75
1443.472,1325.75
1444.362,1315.75
1445.251,1310.00
1446.140,1260.75
1447.030,1278.00
1447.921,1266.75
1448.810,1242.00
1449.699,1321.50
1450.588,1344.75
1451.476,1330.00
1452.365,1230.25
1453.254,1258.75
1454.144,1288.25
1455.032,1264.00
1455.921,1215.75
1456.809,1269.00
1457.697,1271.00
1458.585,1233.25
1459.473,1238.25
1460.361,1258.25
1461.251,1254.50
1462.138,1277.50
1463.026,1246.00
1463.913,1270.00
1464.801,1278.25
1465.688,1258.75
1466.575,1253.25
1467.463,1264.25
1468.351,1266.00
1469.238,1228.25
1470.125,1237.00
1471.012,1221.00
1471.899,1229.25
1472.785,1239.25
1473.672,1276.00
1474.558,1254.50
1475.446,1178.50
1476.333,1249.25
1477.219,1256.00
1478.105,1228.75
1478.991,1242.25
1479.877,1218.50
1480.762,1197.00
1481.648,1198.50
1482.534,1199.25
1483.419,1227.00
1484.307,1252.50
1485.192,1210.75
1486.077,1232.50
1486.962,1177.25
1487.847,1203.50
1488.732,1204.25
1489.617,1170.00
1490.502,1171.50
1491.387,1213.00
1492.271,1222.00
1493.156,1223.50
1494.042,1208.25
1494.927,1147.75
1495.811,1171.50
1496.695,1174.75
1497.579,1134.25
1498.463,1212.75
1499.347,1153.25
1500.231,1168.50
1501.114,1149.00
1501.998,1155.25
1502.881,1126.50
1503.765,1087.00
1504.648,1048.00
1505.533,977.50
1506.417,1013.50
1507.300,1021.75
1508.183,1035.50
1509.066,1100.75
1509.948,1144.75
1510.831,1138.25
1511.714,1157.75
1512.596,1179.75
1513.479,1149.75
1514.361,1155.25
1515.243,1167.25
1516.125,1163.00
1517.008,1114.00
1517.890,1150.25
1518.771,1136.75
1519.655,1155.25
1520.537,1164.50
1521.419,1134.00
1522.300,1055.25
1523.182,1134.50
1524.063,1094.75
1524.944,1185.25
1525.825,1093.50
1526.707,1134.75
1527.588,1078.75
1528.468,1153.00
1529.349,1107.00
1530.230,1118.25
1531.111,1114.75
1531.991,1122.25
1532.872,1129.50
1533.752,1113.50
1534.632,1096.00
1535.513,1075.75
1536.393,1100.25
1537.273,1100.75
1538.153,1085.75
1539.032,1091.25
1539.912,1069.00
1540.792,1145.50
1541.672,1094.00
1542.551,1085.50
1543.430,1078.50
1544.310,1117.75
1545.189,1095.00
1546.068,1065.25
1546.947,1102.50
1547.826,1094.50
1548.705,1135.50
1549.584,1087.75
1550.462,1082.50
1551.341,1140.50
1552.219,1109.00
1553.098,1091.25
1553.976,1073.25
1554.854,1098.50
1555.733,1051.25
1556.611,1066.25
1557.489,1061.25
1558.367,1066.00
1559.244,1038.50
1560.122,1064.00
1561.000,1071.75
1561.877,1088.00
1562.755,1084.50
1563.632,1086.25
1564.509,1040.50
1565.386,1000.00
1566.264,1027.00
1567.141,1041.50
1568.017,981.25
1568.894,892.50
1569.771,931.50
1570.648,892.75
1571.524,919.25
1572.401,958.00
1573.277,972.75
1574.153,1055.75
1575.029,1056.75
1575.906,1036.50
1576.781,1045.75
1577.657,1073.50
1578.533,1046.75
1579.409,1022.00
1580.285,1032.50
1581.160,1048.25
1582.036,1062.00
1582.911,1004.75
1583.786,1019.75
1584.662,1037.50
1585.537,1002.00
1586.412,975.25
1587.287,976.50
1588.160,1032.00
1589.035,1046.75
1589.909,1041.75
1590.784,958.00
1591.658,1000.75
1592.533,977.00
1593.407,1026.25
1594.281,979.25
1595.155,1042.75
1596.029,975.00
1596.903,991.00
1597.777,1024.25
1598.651,979.25
1599.525,987.50
1600.398,1057.50
1601.272,983.25
1602.144,960.00
1603.017,996.25
1603.890,997.25
1604.763,1002.75
1605.636,957.50
1606.509,948.25
1607.382,965.75
1608.255,902.75
1609.128,995.75
1610.000,956.25
1610.873,924.00
1611.746,905.00
1612.616,950.25
1613.488,934.25
1614.361,970.00
1615.233,949.50
1616.105,996.50
1616.977,958.75
1617.849,958.50
1618.720,923.50
1619.592,962.50
1620.464,985.75
1621.333,965.00
1622.205,971.50
1623.076,981.50
1623.947,982.50
1624.818,969.75
1625.689,979.75
1626.560,957.25
1627.431,950.25
1628.302,948.00
1629.171,982.00
1630.042,999.00
1630.912,959.25
1631.782,958.25
1632.653,977.50
1633.523,1010.25
1634.393,937.00
1635.263,907.75
1636.131,1006.25
1637.001,972.50
1637.871,955.75
1638.741,924.50
1639.611,944.00
1640.480,961.25
1641.350,947.00
1642.219,942.25
1643.087,949.75
1643.956,932.50
1644.825,932.25
1645.694,965.75
1646.563,913.25
1647.432,950.00
1648.299,947.50
1649.167,924.00
1650.036,960.00
1650.904,948.50
1651.773,948.50
1652.641,919.25
1653.509,915.25
1654.376,927.50
1655.244,931.50
1656.112,917.25
1656.980,916.25
1657.847,912.75
1658.715,867.25
1659.581,913.50
1660.448,946.75
1661.316,916.75
1662.183,876.25
1663.051,931.75
1663.918,897.50
1664.783,896.00
1665.650,934.75
1666.517,934.25
1667.384,925.75
1668.251,908.50
1669.115,919.25
1669.982,869.25
1670.849,908.00
1671.715,871.75
1672.581,879.25
1673.446,915.00
1674.312,933.00
1675.178,931.50
1676.044,885.00
1676.910,870.00
1677.774,846.25
1678.639,920.75
1679.505,906.25
1680.370,899.50
1681.236,918.25
1682.099,899.00
1682.965,887.25
1683.830,863.00
1684.695,877.25
1685.560,866.25
1686.423,883.50
1687.288,860.50
1688.153,881.50
1689.017,855.75
1689.880,860.00
1690.745,872.75
1691.609,859.50
1692.473,908.50
1693.338,848.00
1694.200,883.75
1695.064,881.50
1695.928,881.50
1696.792,810.25
1697.654,862.50
1698.517,788.50
1699.381,807.50
1700.245,828.75
1701.106,855.75
1701.969,854.50
1702.833,804.00
1703.696,827.25
1704.557,834.25
1705.420,842.00
1706.283,864.50
1707.146,787.50
1708.007,872.00
1708.870,833.00
1709.732,813.50
1710.595,847.75
1711.455,805.50
1712.318,845.25
1713.180,842.75
1714.040,838.50
1714.902,870.75
1715.764,864.50
1716.626,853.00
1717.486,841.75
1718.348,833.25
1719.209,846.50
1720.071,865.25
1720.930,876.75
1721.792,809.25
1722.653,871.00
1723.512,832.25
1724.374,857.75
1725.234,834.25
1726.095,861.00
1726.954,831.25
1727.815,823.75
1728.676,800.50
1729.535,847.25
1730.395,858.75
1731.256,842.00
1732.114,853.50
1732.974,788.75
1733.834,826.75
1734.693,854.25
1735.553,877.25
1736.413,816.50
1737.272,866.25
1738.130,802.25
1738.990,835.25
1739.849,858.50
1740.707,813.75
1741.566,841.00
1742.426,835.75
1743.283,829.00
1744.142,839.50
1745.001,818.00
1745.858,827.25
1746.717,845.25
1747.576,868.50
1748.433,819.00
1749.292,835.00
1750.150,843.00
1751.007,836.25
1751.865,825.25
1752.723,812.50
1753.579,864.75
1754.438,798.50
1755.296,848.25
1756.152,782.00
1757.010,816.25
1757.865,911.75
1758.723,815.25
1759.581,838.00
1760.436,843.00
1761.294,788.25
1762.151,856.75
1763.006,869.00
1763.864,808.50
1764.721,854.25
1765.576,845.00
1766.433,812.50
1767.288,852.00
1768.144,796.25
1769.001,792.00
1769.856,850.00
1770.712,882.75
1771.568,823.00
1772.423,835.25
1773.279,819.50
1774.133,821.50
1774.989,827.50
1775.845,782.00
1776.699,827.75
1777.555,842.50
1778.409,824.25
1779.265,781.50
1780.120,818.75
1780.974,844.25
1781.829,822.50
1782.682,829.00
1783.538,808.50
1784.393,833.00
1785.246,819.00
1786.101,832.75
1786.954,843.50
1787.808,798.50
1788.661,766.75
1789.516,823.25
1790.370,848.50
1791.223,849.75
1792.077,844.50
1792.930,776.50
1793.784,834.00
1794.636,816.00
1795.490,827.00
1796.344,834.50
1797.196,827.00
1798.049,843.75
1798.901,846.50
1799.755,762.25
1800.606,821.25
1801.460,815.25
1802.311,783.00
1803.165,836.25
1804.018,755.25
1804.869,793.50
1805.722,806.25
1806.573,763.75
1807.426,801.25
1808.276,803.25
1809.129,782.25
1809.980,766.50
1810.832,764.00
1811.683,757.75
1812.535,779.25
1813.385,744.50
1814.237,754.25
1815.089,747.75
1815.940,755.50
1816.791,738.25
1817.641,724.75
1818.493,714.50
1819.343,735.00
1820.194,693.75
1821.044,723.75
1821.895,743.25
1822.745,723.50
1823.596,745.75
1824.445,752.00
1825.296,751.75
1826.145,733.25
1826.996,794.75
1827.845,782.00
1828.695,776.50
1829.544,760.50
1830.395,763.75
1831.243,738.00
1832.094,751.50
1832.942,752.50
1833.792,756.75
1834.640,799.00
1835.490,796.25
1836.338,775.50
1837.186,773.50
1838.036,754.00
1838.884,756.25
1839.733,768.00
1840.581,800.50
1841.430,770.00
1842.278,740.25
1843.127,817.25
1843.974,763.50
1844.823,757.50
1845.671,774.75
1846.519,752.75
1847.366,808.75
1848.213,759.00
1849.062,746.25
1849.909,735.25
1850.757,760.50
1851.604,771.50
1852.452,809.25
1853.298,737.00
1854.146,752.00
1854.993,718.50
1855.839,774.00
1856.687,783.75
1857.532,760.50
1858.380,744.50
1859.226,809.25
1860.073,778.75
1860.919,808.50
1861.765,757.25
1862.612,752.25
1863.457,749.75
1864.304,765.50
1865.150,795.25
1865.995,791.25
1866.842,781.75
1867.686,776.50
1868.533,808.50
1869.378,794.75
1870.223,789.75
1871.069,729.25
1871.914,764.25
1872.760,774.25
1873.604,819.00
1874.448,720.25
1875.294,785.75
1876.139,757.00
1876.984,734.25
1877.828,769.00
1878.672,747.50
1879.518,773.75
1880.361,806.25
1881.205,790.25
1882.050,782.25
1882.894,731.50
1883.739,763.50
1884.582,721.00
1885.425,769.00
1886.270,747.25
1887.113,758.75
1887.956,771.25
1888.801,766.75
1889.644,814.25
1890.486,788.00
1891.331,743.00
1892.173,763.00
1893.017,763.75
1893.860,769.25
1894.702,789.50
1895.546,758.50
1896.388,766.00
1897.230,760.00
1898.074,780.75
1898.916,753.00
1899.757,713.50
1900.601,746.50
1901.443,759.75
1902.284,806.75
1903.125,808.25
1903.969,751.75
1904.810,709.75
1905.651,787.75
1906.494,741.75
1907.335,756.00
1908.176,705.00
1909.018,749.00
1909.859,783.25
1910.700,764.25
1911.542,738.50
1912.383,730.25
1913.223,776.75
1914.064,796.25
1914.906,806.50
1915.746,772.25
1916.586,792.75
1917.428,746.50
1918.268,753.75
1919.107,748.00
1919.947,753.50
1920.789,734.75
1921.628,782.50
1922.468,771.75
1923.309,717.50
1924.148,774.25
1924.988,756.00
1925.827,743.75
1926.667,773.50
1927.507,797.75
1928.345,757.75
1929.184,737.50
1930.025,761.75
1930.864,780.50
1931.702,788.75
1932.541,788.75
1933.381,755.25
1934.219,737.00
1935.057,748.50
1935.896,778.25
1936.735,778.75
1937.573,766.75
1938.411,758.75
1939.249,723.00
1940.089,785.75
1940.927,734.75
1941.764,799.75
1942.602,749.75
1943.439,742.00
1944.278,712.75
1945.115,727.00
1945.953,782.00
1946.790,779.00
1947.628,731.50
1948.465,765.75
1949.302,741.25
1950.139,735.00
1950.976,720.50
1951.814,810.25
1952.651,772.25
1953.487,748.75
1954.323,782.00
1955.160,770.25
1955.998,714.75
1956.834,770.25
1957.670,729.00
1958.506,755.50
1959.342,759.50
1960.177,793.00
1961.015,769.75
1961.850,766.25
1962.686,774.75
1963.521,787.00
1964.357,695.25
1965.192,743.50
1966.029,733.00
1966.864,748.25
1967.699,731.50
1968.534,698.50
1969.369,712.50
1970.204,700.75
1971.040,691.50
1971.875,719.50
1972.709,754.50
1973.544,736.25
1974.378,707.25
1975.212,748.50
1976.047,742.50
1976.882,777.50
1977.716,725.75
1978.550,752.00
1979.384,724.50
1980.218,752.25
1981.052,735.50
1981.885,745.75
1982.719,688.50
1983.554,674.75
1984.388,696.75
1985.221,724.25
1986.054,726.75
1986.887,699.75
1987.720,739.50
1988.553,715.25
1989.386,686.25
1990.219,697.00
1991.053,726.00
1991.886,728.25
1992.719,690.00
1993.551,743.00
1994.383,748.50
1995.216,679.75
1996.048,768.00
1996.880,671.00
1997.712,716.25
1998.544,698.25
1999.376,737.00
2000.208,726.75
2000.208,726.75

Max Intensity Wave.,223.016
Max Intensity Data,7475.50
Min Intensity Wave.,1996.880
Min Intensity Data,671.00
FWHM Wave.,600.004
FWHM Value,52.96
Pressure Wave.,684.671
Pressure Value [GPa],-24.91530
G/D Ratio,0.64197
G/D Gband Wave.,1540.792
G/D Gband Intensity,1145.50
G/D Dband Wave.,1301.862
G/D Dband Intensity,1784.35
