RamanScope Measure Spectrum Data V3.72

<< MEASURE CONDITION >>
Exposure Type,Aver
Exposure Time [sec],15
Exposure Count,4
Measure Time,2023/07/15 16:47:47
Data Name,""
Data Comment,""
Rayleigh Wave[nm],532.0

<< SAMPLE SPECTRUM >>
Wave[dcm-1],No187
146.591,883.50
147.626,978.00
148.664,1144.50
149.699,1327.50
150.737,1456.50
151.772,1619.75
152.809,1777.50
153.846,1940.50
154.881,2025.50
155.918,2121.75
156.953,2250.00
157.989,2300.50
159.026,2401.50
160.060,2378.25
161.096,2452.50
162.130,2452.75
163.167,2549.50
164.200,2574.50
165.236,2627.00
166.272,2647.50
167.305,2668.00
168.341,2744.75
169.374,2835.00
170.409,2892.50
171.445,2901.25
172.477,2959.50
173.512,2988.50
174.545,3056.25
175.580,3028.50
176.614,3012.00
177.647,3005.50
178.681,3028.50
179.713,3002.00
180.747,2936.00
181.781,2951.75
182.813,2916.50
183.847,2954.50
184.878,2948.75
185.912,2964.25
186.945,2958.00
187.976,2966.50
189.010,2965.75
190.043,3005.50
191.073,3047.00
192.106,3042.75
193.137,3068.50
194.170,3115.25
195.202,3105.75
196.232,3163.50
197.265,3171.00
198.297,3207.75
199.327,3296.00
200.359,3285.75
201.388,3383.25
202.420,3429.50
203.452,3492.75
204.481,3575.75
205.512,3568.00
206.544,3664.75
207.573,3750.50
208.604,3832.00
209.635,3937.75
210.663,3988.75
211.694,4085.75
212.725,4138.75
213.753,4254.25
214.783,4297.50
215.813,4332.25
216.841,4448.75
217.871,4422.75
218.899,4428.75
219.929,4426.50
220.959,4426.50
221.986,4326.75
223.016,4336.00
224.045,4294.75
225.072,4223.75
226.101,4093.25
227.130,4007.00
228.157,3997.75
229.185,3962.00
230.214,3833.75
231.241,3823.75
232.269,3773.25
233.297,3729.25
234.323,3693.75
235.351,3730.50
236.379,3711.00
237.407,3712.00
238.433,3700.25
239.460,3647.25
240.488,3671.50
241.513,3709.00
242.540,3761.50
243.568,3835.75
244.592,3873.75
245.619,3873.50
246.646,3841.75
247.671,3906.50
248.697,3876.50
249.724,3845.00
250.748,3820.75
251.774,3756.25
252.801,3783.00
253.827,3777.50
254.850,3742.75
255.876,3774.25
256.902,3773.75
257.925,3819.50
258.951,3876.50
259.976,3861.00
260.999,3944.00
262.024,3889.00
263.049,3904.50
264.074,3961.25
265.097,3997.25
266.122,4037.50
267.146,4045.25
268.168,4081.75
269.193,4165.25
270.217,4194.00
271.241,4216.75
272.263,4267.00
273.287,4239.50
274.311,4324.75
275.332,4373.00
276.356,4372.25
277.379,4369.50
278.402,4385.00
279.424,4384.25
280.447,4378.25
281.470,4337.25
282.492,4326.00
283.513,4178.75
284.536,4192.25
285.558,4193.00
286.581,4035.75
287.601,4011.25
288.623,3972.00
289.645,3947.50
290.665,3928.50
291.687,3809.00
292.709,3735.75
293.730,3734.75
294.750,3671.25
295.771,3627.25
296.792,3605.50
297.813,3587.25
298.832,3504.75
299.853,3476.75
300.874,3407.75
301.895,3387.50
302.913,3324.75
303.934,3287.75
304.954,3258.25
305.975,3273.00
306.993,3197.00
308.013,3248.75
309.033,3084.75
310.052,3114.75
311.072,3131.75
312.090,3110.50
313.109,3061.00
314.129,2993.75
315.148,3007.00
316.165,3007.50
317.184,2984.25
318.203,2971.25
319.222,2936.25
320.238,2921.50
321.257,3005.50
322.275,2879.25
323.294,2896.75
324.312,2930.75
325.328,2848.50
326.346,2856.50
327.364,2800.75
328.382,2844.75
329.397,2785.75
330.415,2798.50
331.432,2738.25
332.450,2835.25
333.467,2810.25
334.482,2751.00
335.499,2714.50
336.516,2740.00
337.533,2719.00
338.547,2761.00
339.564,2709.25
340.580,2733.50
341.597,2694.50
342.613,2704.50
343.627,2750.25
344.643,2663.25
345.659,2722.50
346.675,2727.25
347.690,2707.00
348.704,2717.75
349.719,2636.50
350.735,2701.50
351.750,2684.25
352.765,2698.25
353.778,2695.75
354.793,2637.50
355.808,2702.75
356.822,2683.50
357.837,2685.75
358.851,2718.00
359.864,2634.50
360.878,2668.25
361.892,2682.50
362.906,2673.00
363.920,2676.25
364.932,2678.25
365.945,2675.00
366.959,2704.75
367.972,2698.25
368.986,2668.75
369.999,2673.00
371.010,2731.25
372.023,2700.00
373.036,2703.00
374.049,2742.50
375.061,2719.50
376.072,2744.00
377.084,2758.75
378.097,2773.75
379.109,2799.25
380.121,2776.25
381.133,2775.50
382.143,2758.75
383.155,2783.00
384.166,2795.00
385.178,2759.25
386.189,2834.75
387.201,2853.50
388.212,2832.75
389.221,2818.50
390.232,2796.25
391.243,2764.75
392.254,2791.75
393.264,2787.00
394.275,2803.50
395.283,2775.25
396.294,2738.75
397.304,2789.00
398.314,2737.75
399.324,2784.25
400.334,2750.00
401.344,2713.25
402.351,2724.50
403.361,2688.75
404.370,2677.00
405.380,2695.25
406.389,2655.75
407.398,2647.75
408.407,2612.25
409.414,2619.25
410.423,2637.00
411.431,2590.00
412.440,2621.25
413.448,2583.75
414.457,2554.00
415.465,2576.50
416.471,2554.00
417.479,2544.75
418.487,2551.00
419.495,2556.50
420.503,2502.50
421.510,2525.75
422.518,2492.00
423.525,2531.75
424.530,2459.50
425.537,2474.50
426.544,2505.00
427.551,2473.50
428.558,2447.75
429.565,2482.50
430.571,2489.75
431.578,2542.50
432.582,2424.75
433.588,2482.50
434.595,2448.25
435.601,2463.25
436.607,2434.50
437.612,2456.00
438.618,2464.50
439.624,2471.00
440.627,2462.00
441.633,2482.50
442.638,2447.75
443.643,2506.00
444.648,2506.50
445.653,2529.75
446.658,2476.25
447.663,2493.00
448.667,2511.50
449.672,2519.75
450.674,2456.00
451.678,2468.00
452.682,2496.25
453.687,2531.75
454.690,2563.00
455.694,2511.50
456.698,2525.75
457.702,2544.25
458.705,2499.00
459.709,2509.50
460.710,2542.50
461.713,2523.00
462.716,2511.50
463.719,2523.00
464.722,2491.00
465.725,2554.50
466.727,2551.50
467.730,2599.75
468.732,2509.50
469.735,2564.50
470.737,2548.50
471.737,2515.75
472.739,2589.50
473.741,2596.00
474.742,2496.00
475.744,2589.50
476.746,2562.00
477.747,2494.25
478.748,2543.75
479.750,2581.50
480.751,2580.75
481.752,2560.00
482.753,2555.75
483.751,2579.75
484.752,2586.50
485.753,2525.25
486.753,2589.75
487.753,2569.00
488.754,2567.75
489.754,2521.75
490.754,2523.00
491.754,2566.25
492.754,2590.00
493.753,2574.00
494.753,2568.25
495.752,2571.50
496.752,2523.25
497.749,2549.25
498.748,2526.50
499.747,2485.25
500.746,2617.25
501.745,2532.00
502.744,2517.50
503.742,2552.00
504.741,2544.00
505.739,2479.75
506.737,2530.00
507.735,2538.25
508.734,2462.50
509.732,2539.50
510.729,2533.50
511.727,2445.25
512.725,2493.50
513.720,2467.75
514.718,2426.50
515.715,2446.50
516.712,2433.00
517.709,2477.50
518.706,2414.00
519.703,2430.25
520.700,2470.50
521.696,2509.25
522.693,2480.50
523.689,2487.50
524.686,2455.00
525.682,2456.25
526.678,2496.00
527.674,2458.50
528.670,2561.75
529.666,2486.50
530.661,2565.25
531.657,2506.25
532.652,2502.25
533.648,2520.75
534.641,2530.25
535.636,2483.25
536.631,2556.00
537.626,2579.25
538.621,2537.00
539.616,2560.50
540.610,2564.75
541.605,2558.50
542.599,2599.00
543.593,2542.75
544.587,2588.25
545.581,2582.00
546.575,2548.50
547.569,2565.75
548.563,2562.00
549.557,2560.50
550.550,2523.50
551.543,2547.50
552.537,2595.00
553.530,2562.25
554.523,2578.50
555.516,2569.25
556.509,2570.50
557.502,2534.25
558.494,2554.00
559.487,2576.75
560.479,2598.00
561.472,2602.50
562.464,2603.00
563.456,2526.50
564.448,2577.00
565.440,2596.25
566.432,2629.50
567.423,2563.50
568.415,2618.50
569.404,2605.25
570.396,2590.50
571.387,2568.50
572.378,2608.50
573.369,2598.50
574.360,2608.00
575.351,2616.00
576.341,2604.50
577.332,2630.50
578.323,2562.25
579.313,2635.00
580.303,2582.25
581.293,2609.25
582.283,2650.25
583.273,2617.25
584.263,2663.50
585.253,2603.25
586.243,2634.25
587.232,2612.00
588.222,2686.25
589.211,2626.25
590.200,2630.25
591.189,2740.25
592.178,2682.25
593.167,2694.75
594.156,2598.00
595.145,2669.75
596.133,2661.75
597.122,2661.00
598.110,2683.25
599.098,2693.25
600.086,2674.00
601.074,2711.25
602.062,2660.25
603.050,2642.75
604.038,2685.25
605.025,2693.00
606.013,2621.00
607.000,2736.00
607.987,2712.25
608.975,2669.50
609.962,2641.25
610.949,2755.50
611.936,2713.50
612.922,2680.00
613.909,2665.25
614.895,2672.25
615.882,2649.25
616.868,2659.50
617.854,2639.00
618.841,2599.25
619.826,2594.75
620.812,2530.25
621.798,2601.75
622.784,2543.50
623.769,2504.00
624.755,2522.25
625.740,2508.75
626.725,2454.75
627.711,2462.00
628.698,2373.50
629.683,2421.75
630.667,2398.00
631.652,2386.50
632.637,2330.00
633.621,2378.50
634.606,2412.75
635.590,2326.50
636.574,2375.50
637.558,2349.75
638.542,2321.75
639.526,2283.25
640.510,2287.00
641.493,2304.25
642.477,2246.75
643.460,2260.75
644.444,2191.00
645.427,2215.00
646.410,2209.00
647.393,2206.50
648.376,2199.00
649.359,2151.25
650.341,2139.75
651.324,2160.75
652.307,2142.75
653.289,2160.25
654.271,2202.00
655.253,2127.25
656.235,2080.75
657.217,2121.00
658.199,2070.75
659.181,2107.50
660.163,2062.00
661.144,2083.25
662.126,2048.25
663.107,2067.25
664.088,2035.50
665.069,2023.75
666.050,2058.50
667.033,2011.75
668.014,2022.00
668.995,2063.50
669.975,2030.25
670.956,1981.00
671.936,1990.00
672.916,2027.25
673.896,2004.25
674.876,1987.25
675.856,1931.50
676.836,1980.00
677.816,1964.50
678.795,1963.50
679.775,1924.75
680.754,1925.75
681.734,1900.50
682.713,1843.50
683.692,1867.75
684.671,1842.00
685.650,1831.75
686.629,1850.50
687.607,1819.75
688.586,1841.75
689.564,1815.25
690.543,1785.75
691.523,1767.00
692.501,1754.25
693.479,1775.75
694.457,1763.25
695.435,1715.25
696.413,1768.75
697.390,1687.00
698.368,1719.50
699.345,1714.00
700.322,1718.50
701.300,1679.50
702.277,1672.50
703.254,1642.00
704.231,1690.25
705.207,1636.25
706.184,1638.50
707.161,1654.25
708.137,1642.50
709.113,1593.00
710.090,1586.00
711.068,1630.50
712.044,1631.75
713.020,1624.75
713.996,1598.75
714.971,1604.50
715.947,1609.75
716.922,1556.00
717.898,1577.25
718.873,1539.00
719.848,1529.75
720.823,1531.00
721.798,1558.50
722.773,1546.75
723.748,1541.50
724.723,1531.00
725.697,1547.25
726.672,1478.50
727.646,1506.00
728.622,1481.00
729.596,1477.75
730.570,1511.00
731.544,1479.25
732.518,1481.25
733.492,1498.00
734.466,1468.75
735.439,1513.25
736.413,1514.75
737.386,1484.00
738.359,1469.50
739.332,1470.75
740.305,1427.75
741.278,1475.50
742.251,1493.50
743.224,1485.75
744.196,1454.75
745.171,1450.50
746.143,1454.25
747.115,1453.00
748.087,1421.00
749.059,1447.25
750.031,1405.25
751.003,1393.00
751.975,1372.25
752.947,1466.25
753.918,1421.75
754.890,1380.25
755.861,1375.50
756.832,1434.00
757.803,1421.25
758.774,1387.25
759.747,1377.75
760.718,1369.50
761.689,1370.75
762.659,1378.75
763.630,1375.25
764.600,1337.00
765.570,1311.75
766.540,1400.25
767.510,1354.75
768.480,1378.00
769.450,1333.25
770.420,1402.00
771.390,1353.00
772.359,1343.75
773.329,1312.25
774.300,1307.25
775.269,1359.25
776.238,1325.50
777.207,1325.00
778.176,1323.00
779.145,1320.25
780.114,1293.00
781.083,1324.50
782.051,1284.50
783.019,1289.75
783.988,1285.75
784.956,1276.00
785.924,1289.50
786.894,1280.50
787.862,1291.75
788.830,1295.00
789.797,1253.75
790.765,1226.50
791.732,1224.75
792.700,1228.75
793.667,1272.75
794.634,1228.25
795.601,1262.75
796.568,1229.00
797.535,1252.00
798.502,1219.00
799.468,1263.25
800.437,1223.00
801.403,1214.00
802.370,1192.25
803.336,1237.25
804.302,1195.00
805.268,1192.75
806.234,1205.75
807.200,1186.75
808.166,1232.00
809.131,1190.25
810.097,1179.25
811.062,1218.00
812.027,1171.00
812.994,1179.25
813.960,1176.25
814.925,1190.50
815.889,1172.00
816.854,1184.50
817.819,1154.75
818.783,1185.75
819.748,1177.75
820.712,1128.75
821.677,1176.75
822.641,1123.75
823.605,1216.50
824.571,1163.25
825.534,1183.25
826.498,1155.75
827.462,1129.00
828.425,1132.25
829.389,1159.00
830.352,1178.75
831.315,1130.00
832.279,1137.50
833.242,1090.00
834.204,1147.25
835.167,1147.00
836.132,1120.50
837.095,1117.50
838.057,1114.75
839.020,1141.00
839.982,1134.50
840.944,1118.25
841.906,1122.75
842.868,1142.75
843.830,1139.50
844.792,1115.50
845.753,1125.50
846.715,1140.25
847.679,1073.00
848.640,1116.25
849.601,1100.50
850.562,1130.25
851.523,1137.25
852.484,1115.75
853.445,1094.75
854.406,1084.00
855.367,1115.75
856.327,1119.75
857.288,1097.00
858.248,1122.50
859.210,1093.25
860.170,1086.00
861.130,1153.00
862.090,1143.50
863.050,1086.50
864.010,1078.50
864.969,1077.75
865.929,1129.75
866.888,1120.75
867.848,1090.75
868.807,1103.25
869.766,1061.75
870.727,1084.00
871.686,1088.25
872.645,1101.00
873.604,1096.00
874.562,1109.00
875.521,1072.25
876.479,1164.75
877.437,1062.25
878.396,1113.75
879.354,1064.00
880.312,1052.50
881.270,1072.25
882.229,1071.50
883.187,1106.75
884.145,1045.75
885.102,1082.50
886.059,1078.25
887.017,1084.75
887.974,1075.00
888.931,1063.50
889.888,1106.00
890.845,1072.25
891.802,1055.25
892.758,1035.25
893.717,1051.50
894.673,1078.75
895.630,1064.00
896.586,1083.00
897.542,1091.75
898.498,1076.50
899.454,1095.75
900.410,1073.50
901.366,1091.75
902.321,1094.00
903.277,1083.50
904.232,1067.25
905.189,1082.25
906.145,1062.00
907.100,1071.50
908.055,1083.50
909.010,1087.00
909.965,1110.25
910.919,1061.75
911.874,1023.50
912.828,1044.75
913.783,1041.75
914.737,1102.75
915.693,1034.50
916.648,1097.50
917.602,1047.75
918.555,1071.25
919.509,1080.00
920.463,1114.25
921.417,1067.50
922.370,1092.00
923.324,1058.50
924.277,1128.00
925.230,1107.25
926.183,1095.50
927.138,1106.50
928.091,1098.50
929.044,1058.75
929.996,1063.50
930.949,1106.50
931.902,1134.75
932.854,1114.50
933.806,1086.75
934.758,1119.50
935.711,1111.50
936.663,1085.00
937.614,1078.75
938.568,1071.75
939.520,1113.50
940.471,1090.75
941.423,1120.00
942.374,1115.25
943.326,1133.75
944.277,1046.25
945.228,1086.75
946.179,1032.25
947.130,1091.75
948.080,1062.25
949.031,1109.00
949.984,1083.25
950.934,1094.75
951.884,1103.50
952.835,1072.00
953.785,1064.75
954.735,1053.00
955.685,1107.75
956.635,1091.25
957.585,1101.25
958.534,1092.25
959.484,1031.25
960.433,1089.25
961.383,1096.00
962.334,1100.00
963.283,1103.75
964.232,1061.75
965.181,1082.00
966.130,1074.50
967.079,1013.50
968.027,1109.25
968.976,1078.75
969.924,1054.75
970.873,1084.50
971.821,1089.50
972.769,1097.25
973.719,1059.25
974.667,1063.75
975.615,1076.25
976.562,1112.25
977.510,1051.00
978.458,1096.75
979.405,1086.50
980.352,1052.25
981.300,1078.50
982.247,1051.75
983.194,1090.00
984.141,1093.75
985.088,1140.25
986.036,1049.50
986.983,1086.00
987.930,1112.50
988.876,1097.00
989.822,1069.00
990.769,1089.50
991.715,1077.25
992.661,1107.25
993.607,1090.75
994.553,1082.25
995.498,1036.25
996.444,1096.50
997.389,1043.00
998.337,1099.50
999.282,1141.75
1000.227,1129.75
1001.173,1103.50
1002.118,1099.50
1003.062,1046.25
1004.007,1104.75
1004.952,1064.00
1005.897,1104.50
1006.841,1077.25
1007.786,1089.25
1008.730,1085.25
1009.674,1120.25
1010.618,1088.25
1011.564,1136.25
1012.508,1093.25
1013.452,1148.75
1014.396,1123.75
1015.339,1080.00
1016.283,1099.50
1017.226,1113.00
1018.170,1107.75
1019.113,1151.75
1020.056,1128.50
1020.999,1101.25
1021.942,1157.25
1022.885,1113.25
1023.828,1101.00
1024.770,1141.75
1025.715,1166.75
1026.657,1112.75
1027.600,1131.00
1028.542,1138.75
1029.484,1150.75
1030.426,1156.75
1031.368,1122.00
1032.310,1172.50
1033.251,1164.50
1034.193,1159.25
1035.135,1170.25
1036.076,1164.75
1037.017,1170.00
1037.959,1159.50
1038.900,1175.75
1039.843,1178.50
1040.784,1182.50
1041.725,1169.50
1042.665,1203.75
1043.606,1186.00
1044.547,1191.75
1045.487,1193.00
1046.427,1201.25
1047.368,1214.75
1048.308,1198.25
1049.248,1236.00
1050.188,1218.50
1051.128,1267.25
1052.067,1230.75
1053.007,1236.75
1053.947,1224.50
1054.886,1242.25
1055.827,1241.25
1056.766,1284.00
1057.706,1182.00
1058.645,1247.50
1059.584,1247.25
1060.522,1222.00
1061.461,1226.00
1062.400,1244.50
1063.338,1266.50
1064.277,1294.50
1065.215,1265.00
1066.154,1294.75
1067.092,1277.50
1068.030,1324.25
1068.968,1276.25
1069.906,1326.25
1070.843,1324.00
1071.781,1304.50
1072.720,1281.25
1073.658,1318.00
1074.595,1326.75
1075.533,1322.00
1076.470,1335.25
1077.407,1321.25
1078.344,1331.75
1079.281,1340.00
1080.217,1347.25
1081.154,1371.75
1082.091,1318.00
1083.027,1306.00
1083.964,1343.25
1084.900,1346.00
1085.836,1308.50
1086.772,1293.75
1087.708,1306.50
1088.644,1317.50
1089.580,1346.50
1090.515,1297.50
1091.451,1351.25
1092.388,1329.25
1093.324,1322.75
1094.259,1367.75
1095.194,1320.25
1096.129,1305.50
1097.064,1323.75
1097.999,1310.00
1098.934,1314.50
1099.869,1331.00
1100.803,1288.25
1101.738,1297.75
1102.672,1253.50
1103.607,1256.50
1104.541,1257.50
1105.475,1288.00
1106.409,1284.00
1107.343,1268.25
1108.277,1298.50
1109.210,1244.50
1110.144,1220.00
1111.078,1201.50
1112.011,1246.00
1112.944,1235.50
1113.878,1232.00
1114.811,1223.25
1115.744,1237.75
1116.678,1226.75
1117.611,1210.00
1118.544,1193.00
1119.477,1216.25
1120.409,1197.25
1121.342,1210.00
1122.274,1119.25
1123.206,1159.75
1124.138,1164.75
1125.070,1146.00
1126.002,1120.75
1126.934,1154.25
1127.866,1140.00
1128.798,1124.75
1129.729,1141.25
1130.661,1136.75
1131.592,1114.75
1132.523,1067.75
1133.454,1087.25
1134.385,1101.25
1135.317,1060.25
1136.247,1087.25
1137.178,1065.25
1138.109,1083.00
1139.039,1109.00
1139.970,1100.50
1140.900,1072.00
1141.831,1080.00
1142.761,1039.75
1143.691,1026.25
1144.621,1023.00
1145.551,1047.00
1146.480,1047.00
1147.410,1117.75
1148.340,1089.00
1149.269,1060.25
1150.199,1032.50
1151.128,1044.50
1152.057,1052.00
1152.979,1015.25
1153.898,1013.75
1154.819,1042.75
1155.739,978.50
1156.658,1020.50
1157.579,1008.50
1158.498,1031.25
1159.419,1012.25
1160.338,1000.75
1161.256,983.75
1162.177,1010.25
1163.095,982.25
1164.016,1006.75
1164.934,993.75
1165.852,983.50
1166.772,1013.50
1167.690,1008.75
1168.610,975.50
1169.528,992.50
1170.446,993.50
1171.365,952.50
1172.283,984.25
1173.202,976.50
1174.120,969.50
1175.037,956.75
1175.956,952.25
1176.873,947.75
1177.792,980.50
1178.709,963.25
1179.626,948.75
1180.544,967.00
1181.461,949.00
1182.379,948.00
1183.296,946.25
1184.212,975.25
1185.130,955.75
1186.046,945.50
1186.962,921.50
1187.880,936.00
1188.796,952.00
1189.714,927.00
1190.629,923.75
1191.545,959.50
1192.462,906.50
1193.378,924.75
1194.295,922.50
1195.210,941.75
1196.125,917.25
1197.042,961.00
1197.957,957.50
1198.872,919.50
1199.788,944.25
1200.703,929.00
1201.619,943.75
1202.534,934.50
1203.448,935.00
1204.364,936.25
1205.278,914.50
1206.192,911.75
1207.108,891.50
1208.022,914.25
1208.938,939.75
1209.851,954.50
1210.765,931.75
1211.680,925.25
1212.594,941.00
1213.507,937.00
1214.422,933.75
1215.335,896.00
1216.248,934.25
1217.163,917.75
1218.076,957.25
1218.990,986.50
1219.903,926.25
1220.816,928.25
1221.730,966.00
1222.642,975.00
1223.554,915.25
1224.469,949.25
1225.380,974.50
1226.292,911.75
1227.206,918.50
1228.118,984.00
1229.032,942.50
1229.943,956.50
1230.855,949.25
1231.768,910.75
1232.679,1002.00
1233.590,953.50
1234.503,952.50
1235.414,900.00
1236.325,944.50
1237.238,953.25
1238.149,934.50
1239.059,981.75
1239.972,1000.50
1240.882,938.25
1241.793,973.75
1242.705,959.75
1243.615,994.00
1244.525,945.75
1245.437,965.25
1246.347,984.75
1247.259,998.00
1248.168,945.75
1249.078,933.00
1249.989,1029.00
1250.899,963.75
1251.808,966.50
1252.719,942.50
1253.628,964.50
1254.537,968.25
1255.448,1019.50
1256.357,975.50
1257.266,948.25
1258.176,973.50
1259.085,986.00
1259.993,987.50
1260.904,979.50
1261.812,941.25
1262.720,975.00
1263.630,977.25
1264.538,951.50
1265.446,952.25
1266.356,968.75
1267.263,922.75
1268.171,960.00
1269.080,950.50
1269.988,961.25
1270.895,939.75
1271.804,963.50
1272.711,1021.75
1273.619,1042.00
1274.527,976.00
1275.434,924.75
1276.341,996.50
1277.248,988.75
1278.156,967.75
1279.063,999.50
1279.969,980.00
1280.877,971.25
1281.783,989.00
1282.690,988.00
1283.598,966.25
1284.503,1000.75
1285.409,988.00
1286.317,933.00
1287.223,969.75
1288.128,1005.25
1289.036,1008.75
1289.941,974.50
1290.846,972.25
1291.751,971.75
1292.658,977.25
1293.563,948.50
1294.468,956.75
1295.375,994.00
1296.280,972.50
1297.184,954.75
1298.091,950.25
1298.995,914.00
1299.900,998.50
1300.806,952.50
1301.710,945.00
1302.614,962.00
1303.518,917.25
1304.424,927.50
1305.327,947.50
1306.231,939.50
1307.137,964.75
1308.040,917.00
1308.943,912.50
1309.847,966.50
1310.752,916.75
1311.655,917.25
1312.558,949.50
1313.463,946.50
1314.366,902.50
1315.269,917.25
1316.171,886.00
1317.076,890.25
1317.978,890.75
1318.881,885.50
1319.785,906.00
1320.687,894.00
1321.589,849.00
1322.491,935.00
1323.395,877.50
1324.297,851.50
1325.198,925.00
1326.102,890.75
1327.004,882.50
1327.905,883.50
1328.806,904.25
1329.709,887.25
1330.611,855.00
1331.512,848.75
1332.413,854.75
1333.316,853.75
1334.216,897.50
1335.117,833.75
1336.020,873.75
1336.920,879.00
1337.821,842.50
1338.721,868.25
1339.623,873.25
1340.523,840.25
1341.423,860.25
1342.323,842.25
1343.225,833.75
1344.125,842.75
1345.025,843.75
1345.924,815.75
1346.826,779.25
1347.725,805.25
1348.624,839.00
1349.524,805.25
1350.425,813.25
1351.324,828.25
1352.223,823.00
1353.121,820.75
1354.022,773.50
1354.921,794.25
1355.819,812.00
1356.718,799.00
1357.618,808.50
1358.516,823.75
1359.415,769.00
1360.313,796.00
1361.213,779.00
1362.111,801.25
1363.008,807.25
1363.906,798.75
1364.806,802.50
1365.703,782.00
1366.601,753.00
1367.498,790.75
1368.397,817.25
1369.295,771.75
1370.192,750.50
1371.089,795.25
1371.987,810.00
1372.884,781.25
1373.781,750.50
1374.678,746.50
1375.574,718.00
1376.473,764.00
1377.369,768.75
1378.265,744.00
1379.161,778.00
1380.059,766.25
1380.955,745.25
1381.851,742.00
1382.747,744.25
1383.643,762.75
1384.540,708.75
1385.436,728.00
1386.331,746.50
1387.227,719.25
1388.124,747.00
1389.019,702.00
1389.914,759.50
1390.809,746.25
1391.704,696.25
1392.601,714.50
1393.495,708.50
1394.390,710.75
1395.285,660.75
1396.179,690.00
1397.075,650.25
1397.969,727.25
1398.864,717.00
1399.758,678.50
1400.652,713.75
1401.547,723.00
1402.441,696.75
1403.335,710.00
1404.229,702.50
1405.122,697.50
1406.017,717.25
1406.911,711.25
1407.804,689.50
1408.697,661.25
1409.590,689.50
1410.485,670.50
1411.378,679.75
1412.271,692.00
1413.163,700.25
1414.056,701.50
1414.949,663.50
1415.843,642.25
1416.735,676.25
1417.627,634.75
1418.520,713.25
1419.412,601.50
1420.306,642.50
1421.197,707.75
1422.089,737.00
1422.981,687.25
1423.873,632.75
1424.764,677.25
1425.657,665.75
1426.549,672.25
1427.440,639.75
1428.331,683.50
1429.222,692.00
1430.113,658.75
1431.006,706.75
1431.897,659.00
1432.787,674.75
1433.678,626.50
1434.568,630.00
1435.459,647.00
1436.351,674.00
1437.241,635.00
1438.131,650.25
1439.021,643.75
1439.911,650.75
1440.801,651.50
1441.693,637.75
1442.583,629.25
1443.472,651.25
1444.362,643.25
1445.251,658.50
1446.140,635.00
1447.030,646.50
1447.921,651.75
1448.810,624.25
1449.699,690.75
1450.588,635.25
1451.476,650.75
1452.365,642.00
1453.254,635.00
1454.144,607.75
1455.032,653.75
1455.921,681.00
1456.809,648.25
1457.697,599.25
1458.585,617.00
1459.473,626.75
1460.361,630.50
1461.251,632.25
1462.138,582.00
1463.026,611.50
1463.913,630.00
1464.801,573.25
1465.688,635.25
1466.575,658.25
1467.463,587.75
1468.351,627.75
1469.238,629.25
1470.125,632.00
1471.012,609.00
1471.899,616.00
1472.785,606.25
1473.672,613.25
1474.558,639.00
1475.446,605.25
1476.333,591.50
1477.219,605.25
1478.105,610.25
1478.991,633.25
1479.877,586.00
1480.762,616.75
1481.648,588.50
1482.534,603.00
1483.419,595.50
1484.307,626.50
1485.192,605.00
1486.077,596.50
1486.962,595.75
1487.847,625.75
1488.732,579.75
1489.617,564.50
1490.502,589.50
1491.387,594.00
1492.271,603.50
1493.156,599.50
1494.042,555.00
1494.927,589.25
1495.811,596.75
1496.695,567.00
1497.579,567.50
1498.463,587.25
1499.347,594.75
1500.231,569.75
1501.114,601.50
1501.998,612.75
1502.881,554.00
1503.765,556.00
1504.648,599.25
1505.533,590.50
1506.417,557.00
1507.300,568.75
1508.183,550.00
1509.066,544.75
1509.948,593.50
1510.831,605.25
1511.714,564.25
1512.596,593.50
1513.479,570.75
1514.361,580.25
1515.243,584.00
1516.125,570.75
1517.008,560.50
1517.890,572.75
1518.771,559.25
1519.655,560.50
1520.537,570.50
1521.419,530.50
1522.300,571.25
1523.182,566.00
1524.063,545.25
1524.944,577.75
1525.825,594.00
1526.707,537.00
1527.588,537.75
1528.468,547.00
1529.349,571.75
1530.230,555.25
1531.111,580.75
1531.991,566.75
1532.872,531.50
1533.752,555.00
1534.632,564.75
1535.513,528.75
1536.393,570.75
1537.273,574.25
1538.153,552.50
1539.032,589.25
1539.912,536.00
1540.792,531.25
1541.672,545.25
1542.551,548.50
1543.430,543.75
1544.310,567.50
1545.189,517.50
1546.068,544.00
1546.947,568.75
1547.826,553.50
1548.705,553.50
1549.584,570.00
1550.462,520.50
1551.341,557.25
1552.219,544.25
1553.098,529.25
1553.976,535.50
1554.854,500.25
1555.733,571.25
1556.611,525.25
1557.489,529.50
1558.367,522.50
1559.244,524.50
1560.122,549.00
1561.000,528.25
1561.877,553.50
1562.755,543.75
1563.632,549.00
1564.509,544.00
1565.386,559.50
1566.264,490.50
1567.141,549.50
1568.017,534.50
1568.894,510.75
1569.771,537.00
1570.648,534.50
1571.524,516.75
1572.401,533.50
1573.277,534.75
1574.153,492.50
1575.029,567.25
1575.906,504.75
1576.781,507.75
1577.657,507.00
1578.533,494.50
1579.409,515.25
1580.285,513.50
1581.160,473.00
1582.036,490.75
1582.911,524.75
1583.786,505.00
1584.662,524.50
1585.537,538.75
1586.412,552.00
1587.287,493.00
1588.160,512.75
1589.035,530.50
1589.909,476.50
1590.784,505.50
1591.658,464.50
1592.533,525.00
1593.407,524.75
1594.281,512.00
1595.155,516.75
1596.029,514.25
1596.903,482.25
1597.777,466.00
1598.651,518.50
1599.525,521.25
1600.398,476.00
1601.272,482.75
1602.144,529.75
1603.017,491.50
1603.890,543.50
1604.763,470.50
1605.636,508.00
1606.509,480.00
1607.382,474.75
1608.255,511.50
1609.128,485.00
1610.000,495.00
1610.873,519.50
1611.746,491.50
1612.616,500.50
1613.488,486.50
1614.361,491.50
1615.233,507.75
1616.105,507.50
1616.977,517.25
1617.849,550.00
1618.720,492.25
1619.592,532.75
1620.464,494.50
1621.333,507.50
1622.205,487.25
1623.076,467.75
1623.947,497.75
1624.818,495.25
1625.689,479.75
1626.560,503.75
1627.431,499.75
1628.302,513.75
1629.171,511.00
1630.042,488.75
1630.912,493.75
1631.782,471.00
1632.653,476.75
1633.523,502.25
1634.393,505.50
1635.263,505.75
1636.131,486.25
1637.001,513.75
1637.871,499.75
1638.741,472.50
1639.611,463.25
1640.480,484.50
1641.350,509.25
1642.219,485.25
1643.087,476.00
1643.956,483.50
1644.825,489.00
1645.694,491.25
1646.563,487.25
1647.432,488.25
1648.299,462.50
1649.167,493.50
1650.036,474.00
1650.904,416.50
1651.773,447.75
1652.641,484.25
1653.509,466.50
1654.376,487.00
1655.244,447.50
1656.112,522.00
1656.980,490.75
1657.847,509.75
1658.715,465.25
1659.581,501.50
1660.448,507.75
1661.316,469.00
1662.183,456.00
1663.051,477.00
1663.918,438.25
1664.783,460.00
1665.650,467.50
1666.517,498.75
1667.384,421.25
1668.251,422.75
1669.115,488.50
1669.982,465.25
1670.849,482.75
1671.715,515.50
1672.581,464.75
1673.446,531.50
1674.312,463.25
1675.178,444.75
1676.044,509.50
1676.910,470.25
1677.774,464.75
1678.639,464.25
1679.505,480.00
1680.370,498.50
1681.236,424.75
1682.099,462.75
1682.965,463.00
1683.830,470.75
1684.695,474.25
1685.560,483.75
1686.423,465.25
1687.288,456.75
1688.153,478.00
1689.017,470.00
1689.880,473.50
1690.745,465.00
1691.609,434.25
1692.473,461.75
1693.338,412.50
1694.200,462.50
1695.064,454.75
1695.928,442.75
1696.792,490.25
1697.654,452.75
1698.517,463.50
1699.381,484.50
1700.245,440.00
1701.106,447.50
1701.969,455.00
1702.833,451.25
1703.696,452.75
1704.557,470.50
1705.420,460.00
1706.283,451.50
1707.146,468.75
1708.007,482.75
1708.870,460.25
1709.732,444.25
1710.595,456.75
1711.455,514.25
1712.318,437.75
1713.180,437.50
1714.040,468.00
1714.902,432.25
1715.764,439.00
1716.626,457.75
1717.486,458.50
1718.348,464.25
1719.209,482.00
1720.071,452.50
1720.930,470.75
1721.792,437.00
1722.653,434.00
1723.512,441.25
1724.374,462.75
1725.234,434.75
1726.095,466.75
1726.954,482.25
1727.815,409.75
1728.676,439.00
1729.535,435.00
1730.395,459.00
1731.256,420.25
1732.114,418.75
1732.974,427.75
1733.834,452.50
1734.693,415.25
1735.553,486.25
1736.413,454.25
1737.272,454.75
1738.130,422.50
1738.990,452.25
1739.849,455.00
1740.707,453.00
1741.566,496.75
1742.426,464.25
1743.283,442.00
1744.142,493.25
1745.001,466.00
1745.858,466.25
1746.717,424.00
1747.576,460.75
1748.433,478.00
1749.292,441.75
1750.150,425.75
1751.007,467.50
1751.865,460.75
1752.723,414.00
1753.579,432.25
1754.438,435.00
1755.296,471.50
1756.152,479.00
1757.010,427.75
1757.865,435.75
1758.723,425.25
1759.581,455.75
1760.436,446.50
1761.294,439.75
1762.151,463.25
1763.006,458.75
1763.864,452.50
1764.721,407.25
1765.576,455.00
1766.433,444.50
1767.288,459.00
1768.144,409.00
1769.001,445.25
1769.856,450.50
1770.712,414.75
1771.568,468.50
1772.423,442.50
1773.279,448.00
1774.133,427.50
1774.989,473.25
1775.845,433.50
1776.699,448.50
1777.555,429.75
1778.409,475.75
1779.265,448.75
1780.120,447.50
1780.974,416.00
1781.829,451.75
1782.682,433.25
1783.538,458.25
1784.393,464.00
1785.246,402.75
1786.101,431.00
1786.954,449.00
1787.808,440.25
1788.661,436.50
1789.516,465.00
1790.370,407.50
1791.223,469.00
1792.077,458.75
1792.930,439.00
1793.784,421.50
1794.636,404.25
1795.490,404.50
1796.344,437.75
1797.196,408.75
1798.049,464.50
1798.901,431.00
1799.755,439.50
1800.606,433.25
1801.460,394.00
1802.311,400.50
1803.165,459.50
1804.018,419.75
1804.869,446.75
1805.722,437.50
1806.573,460.50
1807.426,478.25
1808.276,395.50
1809.129,442.25
1809.980,433.75
1810.832,380.50
1811.683,457.75
1812.535,411.25
1813.385,413.75
1814.237,447.25
1815.089,461.75
1815.940,411.00
1816.791,449.25
1817.641,438.00
1818.493,480.75
1819.343,431.75
1820.194,437.50
1821.044,435.75
1821.895,416.00
1822.745,408.00
1823.596,416.75
1824.445,389.50
1825.296,380.25
1826.145,444.50
1826.996,389.00
1827.845,409.75
1828.695,456.75
1829.544,450.50
1830.395,421.50
1831.243,418.50
1832.094,426.00
1832.942,431.75
1833.792,457.25
1834.640,407.25
1835.490,381.50
1836.338,432.00
1837.186,416.25
1838.036,404.25
1838.884,419.00
1839.733,376.50
1840.581,453.50
1841.430,478.00
1842.278,419.25
1843.127,425.50
1843.974,433.00
1844.823,412.00
1845.671,450.50
1846.519,452.25
1847.366,428.50
1848.213,390.50
1849.062,394.50
1849.909,430.75
1850.757,454.00
1851.604,441.50
1852.452,438.25
1853.298,425.50
1854.146,414.25
1854.993,431.50
1855.839,389.75
1856.687,417.25
1857.532,402.50
1858.380,389.50
1859.226,451.50
1860.073,439.00
1860.919,443.00
1861.765,440.50
1862.612,468.50
1863.457,413.25
1864.304,435.50
1865.150,376.50
1865.995,422.75
1866.842,437.50
1867.686,404.75
1868.533,438.75
1869.378,416.50
1870.223,412.25
1871.069,430.50
1871.914,386.00
1872.760,424.25
1873.604,458.75
1874.448,414.50
1875.294,429.50
1876.139,406.25
1876.984,426.25
1877.828,370.25
1878.672,399.25
1879.518,420.75
1880.361,389.25
1881.205,456.25
1882.050,422.75
1882.894,406.75
1883.739,410.75
1884.582,456.00
1885.425,412.75
1886.270,367.25
1887.113,406.25
1887.956,402.25
1888.801,421.00
1889.644,406.00
1890.486,427.25
1891.331,414.75
1892.173,433.00
1893.017,426.75
1893.860,380.50
1894.702,387.25
1895.546,396.25
1896.388,437.50
1897.230,448.50
1898.074,429.50
1898.916,410.75
1899.757,434.25
1900.601,414.75
1901.443,418.50
1902.284,406.50
1903.125,450.00
1903.969,392.75
1904.810,416.25
1905.651,417.50
1906.494,427.50
1907.335,457.50
1908.176,405.25
1909.018,358.75
1909.859,454.50
1910.700,358.25
1911.542,417.50
1912.383,402.75
1913.223,425.75
1914.064,404.25
1914.906,393.25
1915.746,402.50
1916.586,436.00
1917.428,410.75
1918.268,412.00
1919.107,399.00
1919.947,378.50
1920.789,410.75
1921.628,391.25
1922.468,442.50
1923.309,403.25
1924.148,438.25
1924.988,417.25
1925.827,398.50
1926.667,425.75
1927.507,472.75
1928.345,397.00
1929.184,455.00
1930.025,408.00
1930.864,426.50
1931.702,382.75
1932.541,407.50
1933.381,405.25
1934.219,350.50
1935.057,427.75
1935.896,391.00
1936.735,394.50
1937.573,425.75
1938.411,384.25
1939.249,410.00
1940.089,387.75
1940.927,380.75
1941.764,409.25
1942.602,366.00
1943.439,456.25
1944.278,407.50
1945.115,393.25
1945.953,385.00
1946.790,407.00
1947.628,341.00
1948.465,412.25
1949.302,372.00
1950.139,385.00
1950.976,412.25
1951.814,403.50
1952.651,420.75
1953.487,389.25
1954.323,370.25
1955.160,373.75
1955.998,428.50
1956.834,398.25
1957.670,396.75
1958.506,428.75
1959.342,402.00
1960.177,449.25
1961.015,392.50
1961.850,384.75
1962.686,427.00
1963.521,410.50
1964.357,410.00
1965.192,424.50
1966.029,404.25
1966.864,380.50
1967.699,416.50
1968.534,414.25
1969.369,394.25
1970.204,406.00
1971.040,383.25
1971.875,415.50
1972.709,394.00
1973.544,388.00
1974.378,399.75
1975.212,358.75
1976.047,399.25
1976.882,386.25
1977.716,378.50
1978.550,415.00
1979.384,366.00
1980.218,397.50
1981.052,397.25
1981.885,354.50
1982.719,417.25
1983.554,371.75
1984.388,384.00
1985.221,397.75
1986.054,402.25
1986.887,377.25
1987.720,409.75
1988.553,374.75
1989.386,350.00
1990.219,393.00
1991.053,379.75
1991.886,394.25
1992.719,392.50
1993.551,396.25
1994.383,377.25
1995.216,407.25
1996.048,384.50
1996.880,382.50
1997.712,432.00
1998.544,374.00
1999.376,375.00
2000.208,409.50
2001.040,451.50
2001.873,374.25
2002.705,382.50
2003.536,420.75
2004.367,407.00
2005.199,421.50
2006.030,370.00
2006.861,397.75
2007.692,411.25
2008.523,380.25
2009.354,374.50
2010.185,389.25
2011.016,371.25
2011.846,317.25
2012.677,339.50
2013.507,384.75
2014.338,417.50
2015.168,396.25
2015.999,421.00
2016.829,404.00
2017.659,390.25
2018.489,412.00
2019.319,411.00
2020.149,374.25
2020.980,392.50
2021.810,365.50
2022.639,386.50
2023.469,413.50
2024.298,383.75
2025.128,429.50
2025.957,382.50
2026.786,414.75
2027.615,423.25
2028.444,377.75
2029.273,392.50
2030.102,440.25
2030.931,382.00
2031.758,396.25
2032.586,410.00
2033.415,440.50
2034.243,403.00
2035.072,361.50
2035.900,401.25
2036.728,416.50
2037.556,440.50
2038.385,405.50
2039.213,399.50
2040.040,419.50
2040.868,391.25
2041.696,412.00
2042.524,389.00
2043.351,400.25
2044.179,410.50
2045.006,356.75
2045.006,356.75

Max Intensity Wave.,216.841
Max Intensity Data,4448.75
Min Intensity Wave.,2011.846
Min Intensity Data,317.25
FWHM Wave.,606.453
FWHM Value,24.29
Pressure Wave.,686.510
Pressure Value [GPa],-20.11022
G/D Ratio,0.59173
G/D Gband Wave.,1555.826
G/D Gband Intensity,571.92
G/D Dband Wave.,1309.866
G/D Dband Intensity,966.52

<< BACKGROUND SPECTRUM >>
Wave[dcm-1],No187
146.591,2244.00
147.626,2111.00
148.664,2061.00
149.699,2539.00
150.737,2276.00
151.772,2425.00
152.809,2386.00
153.846,2302.00
154.881,2411.00
155.918,2004.00
156.953,2282.00
157.989,2632.00
159.026,2432.00
160.060,2667.00
161.096,2852.00
162.130,2548.00
163.167,2585.00
164.200,2453.00
165.236,2662.00
166.272,2696.00
167.305,2320.00
168.341,2578.00
169.374,2783.00
170.409,2800.00
171.445,2745.00
172.477,2560.00
173.512,2416.00
174.545,2691.00
175.580,2876.00
176.614,3079.00
177.647,2841.00
178.681,3065.00
179.713,3350.00
180.747,2841.00
181.781,2750.00
182.813,3023.00
183.847,3078.00
184.878,2725.00
185.912,3003.00
186.945,3149.00
187.976,3114.00
189.010,2737.00
190.043,2871.00
191.073,2935.00
192.106,2738.00
193.137,3228.00
194.170,2546.00
195.202,2930.00
196.232,2711.00
197.265,3004.00
198.297,3125.00
199.327,2812.00
200.359,3004.00
201.388,3330.00
202.420,2896.00
203.452,3110.00
204.481,2696.00
205.512,3365.00
206.544,3096.00
207.573,3065.00
208.604,3385.00
209.635,3525.00
210.663,2979.00
211.694,2985.00
212.725,2879.00
213.753,2818.00
214.783,3423.00
215.813,3287.00
216.841,2970.00
217.871,3214.00
218.899,2928.00
219.929,3155.00
220.959,2903.00
221.986,3164.00
223.016,2760.00
224.045,3145.00
225.072,3139.00
226.101,3203.00
227.130,3276.00
228.157,2856.00
229.185,2354.00
230.214,3255.00
231.241,2846.00
232.269,2477.00
233.297,2689.00
234.323,3264.00
235.351,2803.00
236.379,3105.00
237.407,2738.00
238.433,2915.00
239.460,3136.00
240.488,3150.00
241.513,3215.00
242.540,3125.00
243.568,3219.00
244.592,3236.00
245.619,3225.00
246.646,2971.00
247.671,2915.00
248.697,2798.00
249.724,2993.00
250.748,3027.00
251.774,3058.00
252.801,3314.00
253.827,3132.00
254.850,3143.00
255.876,2734.00
256.902,3185.00
257.925,3005.00
258.951,2756.00
259.976,2798.00
260.999,3073.00
262.024,2830.00
263.049,3675.00
264.074,3165.00
265.097,3057.00
266.122,3126.00
267.146,3061.00
268.168,3255.00
269.193,2886.00
270.217,3242.00
271.241,2729.00
272.263,2870.00
273.287,3218.00
274.311,2820.00
275.332,3304.00
276.356,2866.00
277.379,3105.00
278.402,3129.00
279.424,2977.00
280.447,2893.00
281.470,2728.00
282.492,3099.00
283.513,2943.00
284.536,3203.00
285.558,3130.00
286.581,3161.00
287.601,2862.00
288.623,2826.00
289.645,3071.00
290.665,3108.00
291.687,3163.00
292.709,3121.00
293.730,3404.00
294.750,2914.00
295.771,2768.00
296.792,3070.00
297.813,2907.00
298.832,3037.00
299.853,2757.00
300.874,3028.00
301.895,2996.00
302.913,2979.00
303.934,3290.00
304.954,3050.00
305.975,3177.00
306.993,2757.00
308.013,3106.00
309.033,3041.00
310.052,2969.00
311.072,2891.00
312.090,3067.00
313.109,3272.00
314.129,3470.00
315.148,3007.00
316.165,3091.00
317.184,3282.00
318.203,2749.00
319.222,2776.00
320.238,3167.00
321.257,2774.00
322.275,2697.00
323.294,2999.00
324.312,3136.00
325.328,3287.00
326.346,3312.00
327.364,3275.00
328.382,3155.00
329.397,3185.00
330.415,3234.00
331.432,3293.00
332.450,3263.00
333.467,3427.00
334.482,2595.00
335.499,3397.00
336.516,2903.00
337.533,2603.00
338.547,2834.00
339.564,2858.00
340.580,3103.00
341.597,2982.00
342.613,3499.00
343.627,3001.00
344.643,3065.00
345.659,3127.00
346.675,2988.00
347.690,2891.00
348.704,3083.00
349.719,2907.00
350.735,2755.00
351.750,3196.00
352.765,3003.00
353.778,2995.00
354.793,3170.00
355.808,2838.00
356.822,3177.00
357.837,2658.00
358.851,3222.00
359.864,2977.00
360.878,2748.00
361.892,2954.00
362.906,3209.00
363.920,2625.00
364.932,3135.00
365.945,3113.00
366.959,2992.00
367.972,2975.00
368.986,2755.00
369.999,3402.00
371.010,2847.00
372.023,3416.00
373.036,3006.00
374.049,3399.00
375.061,3112.00
376.072,2998.00
377.084,2872.00
378.097,2700.00
379.109,3190.00
380.121,3017.00
381.133,2709.00
382.143,3192.00
383.155,2768.00
384.166,2932.00
385.178,3138.00
386.189,3203.00
387.201,2697.00
388.212,2932.00
389.221,2949.00
390.232,3033.00
391.243,2970.00
392.254,3046.00
393.264,2849.00
394.275,3222.00
395.283,3187.00
396.294,3645.00
397.304,3493.00
398.314,3146.00
399.324,3013.00
400.334,2642.00
401.344,3163.00
402.351,2694.00
403.361,3241.00
404.370,3014.00
405.380,2904.00
406.389,3399.00
407.398,3137.00
408.407,3111.00
409.414,3176.00
410.423,3332.00
411.431,2787.00
412.440,2650.00
413.448,3347.00
414.457,2909.00
415.465,2804.00
416.471,2890.00
417.479,3016.00
418.487,2818.00
419.495,3323.00
420.503,3140.00
421.510,2616.00
422.518,3181.00
423.525,3173.00
424.530,3454.00
425.537,2956.00
426.544,3237.00
427.551,2871.00
428.558,3642.00
429.565,3476.00
430.571,2876.00
431.578,2870.00
432.582,2938.00
433.588,3004.00
434.595,2669.00
435.601,3321.00
436.607,3284.00
437.612,2788.00
438.618,3349.00
439.624,2970.00
440.627,2975.00
441.633,3148.00
442.638,3645.00
443.643,3082.00
444.648,3000.00
445.653,3170.00
446.658,2909.00
447.663,3010.00
448.667,2880.00
449.672,2900.00
450.674,3017.00
451.678,2738.00
452.682,2896.00
453.687,2848.00
454.690,3573.00
455.694,3295.00
456.698,2569.00
457.702,2660.00
458.705,2824.00
459.709,2855.00
460.710,2878.00
461.713,3055.00
462.716,3096.00
463.719,3004.00
464.722,3230.00
465.725,2988.00
466.727,2843.00
467.730,3012.00
468.732,2813.00
469.735,3304.00
470.737,2933.00
471.737,2935.00
472.739,2909.00
473.741,2790.00
474.742,3128.00
475.744,3099.00
476.746,3043.00
477.747,2999.00
478.748,3188.00
479.750,2945.00
480.751,3007.00
481.752,3754.00
482.753,3098.00
483.751,3548.00
484.752,2606.00
485.753,3031.00
486.753,2832.00
487.753,3017.00
488.754,3416.00
489.754,2721.00
490.754,3346.00
491.754,3136.00
492.754,2686.00
493.753,3056.00
494.753,2907.00
495.752,3328.00
496.752,3076.00
497.749,2997.00
498.748,2917.00
499.747,3455.00
500.746,3057.00
501.745,2761.00
502.744,2791.00
503.742,3350.00
504.741,2939.00
505.739,2499.00
506.737,2879.00
507.735,3150.00
508.734,3420.00
509.732,3118.00
510.729,3318.00
511.727,2939.00
512.725,2940.00
513.720,2793.00
514.718,3297.00
515.715,2701.00
516.712,2670.00
517.709,3000.00
518.706,2934.00
519.703,3082.00
520.700,3211.00
521.696,3353.00
522.693,2944.00
523.689,2869.00
524.686,3193.00
525.682,2814.00
526.678,3483.00
527.674,2945.00
528.670,2575.00
529.666,3515.00
530.661,3449.00
531.657,3155.00
532.652,3202.00
533.648,3038.00
534.641,3210.00
535.636,3083.00
536.631,3106.00
537.626,3153.00
538.621,2753.00
539.616,2608.00
540.610,2515.00
541.605,3012.00
542.599,3059.00
543.593,3014.00
544.587,3909.00
545.581,2855.00
546.575,3064.00
547.569,3062.00
548.563,2713.00
549.557,2670.00
550.550,2791.00
551.543,2753.00
552.537,3156.00
553.530,2811.00
554.523,2785.00
555.516,3122.00
556.509,2983.00
557.502,2668.00
558.494,3215.00
559.487,2946.00
560.479,3172.00
561.472,3226.00
562.464,3120.00
563.456,3314.00
564.448,2957.00
565.440,2996.00
566.432,3357.00
567.423,2877.00
568.415,2869.00
569.404,3107.00
570.396,2821.00
571.387,3142.00
572.378,3022.00
573.369,3955.00
574.360,3687.00
575.351,2974.00
576.341,2841.00
577.332,2876.00
578.323,2742.00
579.313,2883.00
580.303,3285.00
581.293,3166.00
582.283,2992.00
583.273,3153.00
584.263,3011.00
585.253,3155.00
586.243,3208.00
587.232,2672.00
588.222,2950.00
589.211,3218.00
590.200,3111.00
591.189,2912.00
592.178,2960.00
593.167,3401.00
594.156,3336.00
595.145,2902.00
596.133,3488.00
597.122,3121.00
598.110,3222.00
599.098,3044.00
600.086,3048.00
601.074,3196.00
602.062,2851.00
603.050,2781.00
604.038,3108.00
605.025,2789.00
606.013,3280.00
607.000,3351.00
607.987,3023.00
608.975,3100.00
609.962,2795.00
610.949,3112.00
611.936,3211.00
612.922,3130.00
613.909,2705.00
614.895,3395.00
615.882,2837.00
616.868,3022.00
617.854,2789.00
618.841,3022.00
619.826,3091.00
620.812,2990.00
621.798,2784.00
622.784,3198.00
623.769,3121.00
624.755,2719.00
625.740,3045.00
626.725,2729.00
627.711,2857.00
628.698,3110.00
629.683,2819.00
630.667,3174.00
631.652,2762.00
632.637,2991.00
633.621,3157.00
634.606,2918.00
635.590,3120.00
636.574,2921.00
637.558,3023.00
638.542,3034.00
639.526,2833.00
640.510,2613.00
641.493,3051.00
642.477,3003.00
643.460,2688.00
644.444,3235.00
645.427,3266.00
646.410,2675.00
647.393,2994.00
648.376,3064.00
649.359,2939.00
650.341,3116.00
651.324,3098.00
652.307,3089.00
653.289,2937.00
654.271,2830.00
655.253,2912.00
656.235,3156.00
657.217,3238.00
658.199,2686.00
659.181,2753.00
660.163,3033.00
661.144,2864.00
662.126,2905.00
663.107,2788.00
664.088,4758.00
665.069,3263.00
666.050,2808.00
667.033,2730.00
668.014,3056.00
668.995,2552.00
669.975,3007.00
670.956,3008.00
671.936,3153.00
672.916,2932.00
673.896,3120.00
674.876,2898.00
675.856,2897.00
676.836,2738.00
677.816,2296.00
678.795,2800.00
679.775,2689.00
680.754,3007.00
681.734,3165.00
682.713,3168.00
683.692,2773.00
684.671,2659.00
685.650,2767.00
686.629,2851.00
687.607,2736.00
688.586,2762.00
689.564,2867.00
690.543,3259.00
691.523,2403.00
692.501,2844.00
693.479,2912.00
694.457,2787.00
695.435,2875.00
696.413,2650.00
697.390,2524.00
698.368,2684.00
699.345,3075.00
700.322,2918.00
701.300,3117.00
702.277,3056.00
703.254,3281.00
704.231,2543.00
705.207,2980.00
706.184,2791.00
707.161,2660.00
708.137,2858.00
709.113,2827.00
710.090,2832.00
711.068,2602.00
712.044,2620.00
713.020,2881.00
713.996,2618.00
714.971,2816.00
715.947,2825.00
716.922,2845.00
717.898,2743.00
718.873,2897.00
719.848,2749.00
720.823,2706.00
721.798,2970.00
722.773,2758.00
723.748,2518.00
724.723,3003.00
725.697,2840.00
726.672,2797.00
727.646,2529.00
728.622,3028.00
729.596,2634.00
730.570,2733.00
731.544,3091.00
732.518,3275.00
733.492,2817.00
734.466,2900.00
735.439,2970.00
736.413,3082.00
737.386,2438.00
738.359,2435.00
739.332,2537.00
740.305,2876.00
741.278,3305.00
742.251,2913.00
743.224,2718.00
744.196,2567.00
745.171,3152.00
746.143,3003.00
747.115,2758.00
748.087,2741.00
749.059,3075.00
750.031,2925.00
751.003,3711.00
751.975,3317.00
752.947,2646.00
753.918,3086.00
754.890,2591.00
755.861,2750.00
756.832,3022.00
757.803,2801.00
758.774,2817.00
759.747,2615.00
760.718,3228.00
761.689,2760.00
762.659,2603.00
763.630,3146.00
764.600,2567.00
765.570,3101.00
766.540,3096.00
767.510,2926.00
768.480,3025.00
769.450,2739.00
770.420,2774.00
771.390,2644.00
772.359,2737.00
773.329,2662.00
774.300,2518.00
775.269,2729.00
776.238,2980.00
777.207,3155.00
778.176,2504.00
779.145,2784.00
780.114,2698.00
781.083,2549.00
782.051,2754.00
783.019,2684.00
783.988,3085.00
784.956,2857.00
785.924,2975.00
786.894,2877.00
787.862,2696.00
788.830,3107.00
789.797,2639.00
790.765,2643.00
791.732,2802.00
792.700,2673.00
793.667,2599.00
794.634,2779.00
795.601,2726.00
796.568,2785.00
797.535,2826.00
798.502,3419.00
799.468,2895.00
800.437,2417.00
801.403,2655.00
802.370,3308.00
803.336,2982.00
804.302,2886.00
805.268,2482.00
806.234,2567.00
807.200,2737.00
808.166,2772.00
809.131,2589.00
810.097,2989.00
811.062,3634.00
812.027,2998.00
812.994,2593.00
813.960,2610.00
814.925,2938.00
815.889,2528.00
816.854,3012.00
817.819,2650.00
818.783,2720.00
819.748,3057.00
820.712,2768.00
821.677,2621.00
822.641,2737.00
823.605,2680.00
824.571,3127.00
825.534,2725.00
826.498,2659.00
827.462,2798.00
828.425,2636.00
829.389,3058.00
830.352,2806.00
831.315,2934.00
832.279,2505.00
833.242,2812.00
834.204,2660.00
835.167,2652.00
836.132,3065.00
837.095,2530.00
838.057,2729.00
839.020,2800.00
839.982,2857.00
840.944,2674.00
841.906,2637.00
842.868,2958.00
843.830,2544.00
844.792,3066.00
845.753,2700.00
846.715,2434.00
847.679,2621.00
848.640,2628.00
849.601,2764.00
850.562,3241.00
851.523,2689.00
852.484,2491.00
853.445,3008.00
854.406,2728.00
855.367,2726.00
856.327,3042.00
857.288,2515.00
858.248,2665.00
859.210,2713.00
860.170,2545.00
861.130,2988.00
862.090,2399.00
863.050,2638.00
864.010,2726.00
864.969,2910.00
865.929,2556.00
866.888,2503.00
867.848,2829.00
868.807,2649.00
869.766,2868.00
870.727,2736.00
871.686,3007.00
872.645,2991.00
873.604,3299.00
874.562,2749.00
875.521,2785.00
876.479,3311.00
877.437,2626.00
878.396,2578.00
879.354,3178.00
880.312,2623.00
881.270,2674.00
882.229,3120.00
883.187,2609.00
884.145,2704.00
885.102,2927.00
886.059,2837.00
887.017,2885.00
887.974,2970.00
888.931,3076.00
889.888,2490.00
890.845,2442.00
891.802,2366.00
892.758,2664.00
893.717,2465.00
894.673,2561.00
895.630,2636.00
896.586,2885.00
897.542,2697.00
898.498,2526.00
899.454,2835.00
900.410,2689.00
901.366,2655.00
902.321,3730.00
903.277,2696.00
904.232,2751.00
905.189,2499.00
906.145,2667.00
907.100,2217.00
908.055,2724.00
909.010,2915.00
909.965,2319.00
910.919,2798.00
911.874,2614.00
912.828,2796.00
913.783,2815.00
914.737,2335.00
915.693,2809.00
916.648,2896.00
917.602,2985.00
918.555,2803.00
919.509,2835.00
920.463,2731.00
921.417,2781.00
922.370,2574.00
923.324,2695.00
924.277,2651.00
925.230,2726.00
926.183,2414.00
927.138,2688.00
928.091,2934.00
929.044,2854.00
929.996,2692.00
930.949,2640.00
931.902,2793.00
932.854,2840.00
933.806,2604.00
934.758,2960.00
935.711,2985.00
936.663,2799.00
937.614,2820.00
938.568,2769.00
939.520,2357.00
940.471,2703.00
941.423,2759.00
942.374,2869.00
943.326,2743.00
944.277,2631.00
945.228,2839.00
946.179,2730.00
947.130,3035.00
948.080,2691.00
949.031,2567.00
949.984,2686.00
950.934,2688.00
951.884,2462.00
952.835,2703.00
953.785,2747.00
954.735,2645.00
955.685,2341.00
956.635,2620.00
957.585,2626.00
958.534,2630.00
959.484,2770.00
960.433,2602.00
961.383,2453.00
962.334,2968.00
963.283,2768.00
964.232,2865.00
965.181,2724.00
966.130,2810.00
967.079,2677.00
968.027,2692.00
968.976,2726.00
969.924,2620.00
970.873,2788.00
971.821,2718.00
972.769,2920.00
973.719,2853.00
974.667,2501.00
975.615,2741.00
976.562,2705.00
977.510,2449.00
978.458,2611.00
979.405,2819.00
980.352,2778.00
981.300,2974.00
982.247,2810.00
983.194,2543.00
984.141,2619.00
985.088,2700.00
986.036,2788.00
986.983,2988.00
987.930,3110.00
988.876,2383.00
989.822,2969.00
990.769,2552.00
991.715,2616.00
992.661,2420.00
993.607,2799.00
994.553,3287.00
995.498,2629.00
996.444,2288.00
997.389,2817.00
998.337,2531.00
999.282,2846.00
1000.227,2611.00
1001.173,2705.00
1002.118,2446.00
1003.062,2935.00
1004.007,2668.00
1004.952,3039.00
1005.897,2930.00
1006.841,2708.00
1007.786,2479.00
1008.730,2453.00
1009.674,3135.00
1010.618,2664.00
1011.564,2484.00
1012.508,2411.00
1013.452,2918.00
1014.396,2711.00
1015.339,2632.00
1016.283,2709.00
1017.226,2735.00
1018.170,2700.00
1019.113,2859.00
1020.056,2716.00
1020.999,2718.00
1021.942,2575.00
1022.885,2865.00
1023.828,3002.00
1024.770,2485.00
1025.715,2728.00
1026.657,2730.00
1027.600,2770.00
1028.542,2932.00
1029.484,2755.00
1030.426,2833.00
1031.368,2808.00
1032.310,2577.00
1033.251,2513.00
1034.193,2719.00
1035.135,2482.00
1036.076,2629.00
1037.017,2530.00
1037.959,2850.00
1038.900,2774.00
1039.843,2808.00
1040.784,2754.00
1041.725,2805.00
1042.665,2616.00
1043.606,2757.00
1044.547,2756.00
1045.487,2356.00
1046.427,2683.00
1047.368,2785.00
1048.308,2238.00
1049.248,2496.00
1050.188,2684.00
1051.128,2579.00
1052.067,2667.00
1053.007,2388.00
1053.947,2397.00
1054.886,2552.00
1055.827,2478.00
1056.766,2935.00
1057.706,2492.00
1058.645,2659.00
1059.584,2737.00
1060.522,2997.00
1061.461,2474.00
1062.400,2496.00
1063.338,2658.00
1064.277,2507.00
1065.215,2530.00
1066.154,2401.00
1067.092,2597.00
1068.030,2605.00
1068.968,2870.00
1069.906,2977.00
1070.843,2935.00
1071.781,2751.00
1072.720,2822.00
1073.658,2812.00
1074.595,2591.00
1075.533,2542.00
1076.470,2571.00
1077.407,2989.00
1078.344,2761.00
1079.281,2798.00
1080.217,2297.00
1081.154,2630.00
1082.091,2746.00
1083.027,2463.00
1083.964,2916.00
1084.900,2555.00
1085.836,2620.00
1086.772,2901.00
1087.708,2487.00
1088.644,2833.00
1089.580,2683.00
1090.515,2761.00
1091.451,2595.00
1092.388,2710.00
1093.324,2451.00
1094.259,3211.00
1095.194,2746.00
1096.129,2622.00
1097.064,2580.00
1097.999,2810.00
1098.934,2523.00
1099.869,2504.00
1100.803,2724.00
1101.738,2709.00
1102.672,2409.00
1103.607,2846.00
1104.541,2592.00
1105.475,2548.00
1106.409,2422.00
1107.343,2615.00
1108.277,2412.00
1109.210,2721.00
1110.144,2705.00
1111.078,2688.00
1112.011,2447.00
1112.944,2761.00
1113.878,2722.00
1114.811,2179.00
1115.744,2568.00
1116.678,2294.00
1117.611,2571.00
1118.544,2589.00
1119.477,2735.00
1120.409,2548.00
1121.342,3092.00
1122.274,2791.00
1123.206,3103.00
1124.138,2683.00
1125.070,3013.00
1126.002,2857.00
1126.934,2302.00
1127.866,2558.00
1128.798,2342.00
1129.729,2355.00
1130.661,2626.00
1131.592,2573.00
1132.523,2769.00
1133.454,2760.00
1134.385,2298.00
1135.317,2669.00
1136.247,2586.00
1137.178,2899.00
1138.109,2381.00
1139.039,2961.00
1139.970,2810.00
1140.900,2597.00
1141.831,2363.00
1142.761,2250.00
1143.691,3302.00
1144.621,2668.00
1145.551,2694.00
1146.480,2694.00
1147.410,2808.00
1148.340,2284.00
1149.269,2368.00
1150.199,2609.00
1151.128,3053.00
1152.057,2425.00
1152.979,2577.00
1153.898,2628.00
1154.819,2703.00
1155.739,2647.00
1156.658,2551.00
1157.579,2686.00
1158.498,2641.00
1159.419,2178.00
1160.338,2686.00
1161.256,2723.00
1162.177,2488.00
1163.095,2635.00
1164.016,2693.00
1164.934,2888.00
1165.852,2826.00
1166.772,2600.00
1167.690,2639.00
1168.610,2703.00
1169.528,2641.00
1170.446,2184.00
1171.365,2572.00
1172.283,2502.00
1173.202,2622.00
1174.120,2682.00
1175.037,2524.00
1175.956,2472.00
1176.873,2509.00
1177.792,2524.00
1178.709,3104.00
1179.626,2541.00
1180.544,2849.00
1181.461,2526.00
1182.379,2728.00
1183.296,2628.00
1184.212,2286.00
1185.130,2471.00
1186.046,2976.00
1186.962,2664.00
1187.880,2916.00
1188.796,2685.00
1189.714,2447.00
1190.629,2768.00
1191.545,2693.00
1192.462,2613.00
1193.378,2615.00
1194.295,2342.00
1195.210,2656.00
1196.125,2770.00
1197.042,2695.00
1197.957,2627.00
1198.872,2529.00
1199.788,2541.00
1200.703,2972.00
1201.619,2650.00
1202.534,2507.00
1203.448,2710.00
1204.364,2575.00
1205.278,2308.00
1206.192,2713.00
1207.108,3174.00
1208.022,3024.00
1208.938,2470.00
1209.851,2761.00
1210.765,2859.00
1211.680,2532.00
1212.594,2417.00
1213.507,2580.00
1214.422,3014.00
1215.335,2783.00
1216.248,2568.00
1217.163,2675.00
1218.076,3212.00
1218.990,2697.00
1219.903,2403.00
1220.816,2476.00
1221.730,2555.00
1222.642,2461.00
1223.554,2575.00
1224.469,2694.00
1225.380,2553.00
1226.292,2318.00
1227.206,2782.00
1228.118,2918.00
1229.032,2280.00
1229.943,2511.00
1230.855,2569.00
1231.768,2401.00
1232.679,2669.00
1233.590,2625.00
1234.503,2850.00
1235.414,2519.00
1236.325,2530.00
1237.238,2699.00
1238.149,2731.00
1239.059,2429.00
1239.972,2759.00
1240.882,2448.00
1241.793,2739.00
1242.705,2967.00
1243.615,2559.00
1244.525,2715.00
1245.437,2217.00
1246.347,2651.00
1247.259,2782.00
1248.168,3067.00
1249.078,2866.00
1249.989,2831.00
1250.899,2430.00
1251.808,2513.00
1252.719,2587.00
1253.628,2500.00
1254.537,2999.00
1255.448,2441.00
1256.357,2450.00
1257.266,2650.00
1258.176,2349.00
1259.085,2355.00
1259.993,2430.00
1260.904,2477.00
1261.812,2493.00
1262.720,3150.00
1263.630,2802.00
1264.538,2493.00
1265.446,2754.00
1266.356,2594.00
1267.263,2953.00
1268.171,2428.00
1269.080,2694.00
1269.988,2820.00
1270.895,2564.00
1271.804,2603.00
1272.711,2760.00
1273.619,2745.00
1274.527,2445.00
1275.434,2776.00
1276.341,2430.00
1277.248,2657.00
1278.156,2922.00
1279.063,2459.00
1279.969,2720.00
1280.877,3508.00
1281.783,2823.00
1282.690,2673.00
1283.598,2602.00
1284.503,2489.00
1285.409,2452.00
1286.317,3047.00
1287.223,3019.00
1288.128,2653.00
1289.036,2522.00
1289.941,2581.00
1290.846,2638.00
1291.751,2459.00
1292.658,2550.00
1293.563,3061.00
1294.468,2671.00
1295.375,2769.00
1296.280,2847.00
1297.184,3353.00
1298.091,2714.00
1298.995,2842.00
1299.900,2963.00
1300.806,2515.00
1301.710,2370.00
1302.614,2200.00
1303.518,2888.00
1304.424,2582.00
1305.327,2830.00
1306.231,2625.00
1307.137,2752.00
1308.040,2717.00
1308.943,2677.00
1309.847,2828.00
1310.752,2819.00
1311.655,2320.00
1312.558,2402.00
1313.463,2542.00
1314.366,2532.00
1315.269,2691.00
1316.171,2636.00
1317.076,2536.00
1317.978,2441.00
1318.881,2268.00
1319.785,2482.00
1320.687,2504.00
1321.589,2281.00
1322.491,2446.00
1323.395,2732.00
1324.297,3224.00
1325.198,2721.00
1326.102,2427.00
1327.004,2449.00
1327.905,3016.00
1328.806,2577.00
1329.709,2666.00
1330.611,2574.00
1331.512,2459.00
1332.413,3065.00
1333.316,2690.00
1334.216,2800.00
1335.117,2404.00
1336.020,2643.00
1336.920,2619.00
1337.821,2512.00
1338.721,2868.00
1339.623,2672.00
1340.523,2606.00
1341.423,2491.00
1342.323,2921.00
1343.225,2713.00
1344.125,2461.00
1345.025,2516.00
1345.924,2298.00
1346.826,3010.00
1347.725,3062.00
1348.624,2862.00
1349.524,2496.00
1350.425,2597.00
1351.324,2712.00
1352.223,2801.00
1353.121,2608.00
1354.022,2868.00
1354.921,3011.00
1355.819,2733.00
1356.718,2675.00
1357.618,2388.00
1358.516,2729.00
1359.415,3051.00
1360.313,2735.00
1361.213,2586.00
1362.111,2908.00
1363.008,3262.00
1363.906,2602.00
1364.806,2638.00
1365.703,2716.00
1366.601,2476.00
1367.498,2433.00
1368.397,2773.00
1369.295,2681.00
1370.192,2480.00
1371.089,2676.00
1371.987,2614.00
1372.884,2854.00
1373.781,2459.00
1374.678,2656.00
1375.574,2509.00
1376.473,2748.00
1377.369,2840.00
1378.265,2479.00
1379.161,2564.00
1380.059,2315.00
1380.955,2761.00
1381.851,2396.00
1382.747,2511.00
1383.643,2552.00
1384.540,2447.00
1385.436,2530.00
1386.331,2685.00
1387.227,2782.00
1388.124,2729.00
1389.019,2470.00
1389.914,2588.00
1390.809,2267.00
1391.704,3064.00
1392.601,2551.00
1393.495,2928.00
1394.390,2793.00
1395.285,2894.00
1396.179,2748.00
1397.075,2638.00
1397.969,2664.00
1398.864,2323.00
1399.758,2569.00
1400.652,2652.00
1401.547,2436.00
1402.441,2421.00
1403.335,2970.00
1404.229,2775.00
1405.122,2717.00
1406.017,2597.00
1406.911,2771.00
1407.804,3072.00
1408.697,2639.00
1409.590,2462.00
1410.485,2810.00
1411.378,2702.00
1412.271,2325.00
1413.163,2682.00
1414.056,2769.00
1414.949,3025.00
1415.843,2693.00
1416.735,2599.00
1417.627,2676.00
1418.520,2586.00
1419.412,2902.00
1420.306,2819.00
1421.197,2886.00
1422.089,2816.00
1422.981,3076.00
1423.873,2837.00
1424.764,2730.00
1425.657,2685.00
1426.549,2765.00
1427.440,2860.00
1428.331,2539.00
1429.222,2317.00
1430.113,2691.00
1431.006,2791.00
1431.897,2568.00
1432.787,2646.00
1433.678,2594.00
1434.568,2502.00
1435.459,2867.00
1436.351,2796.00
1437.241,2784.00
1438.131,2801.00
1439.021,2404.00
1439.911,2595.00
1440.801,2708.00
1441.693,2897.00
1442.583,2679.00
1443.472,2641.00
1444.362,2762.00
1445.251,2580.00
1446.140,2583.00
1447.030,2835.00
1447.921,2826.00
1448.810,2485.00
1449.699,2960.00
1450.588,2662.00
1451.476,2563.00
1452.365,2740.00
1453.254,2554.00
1454.144,2552.00
1455.032,2749.00
1455.921,2355.00
1456.809,2905.00
1457.697,2485.00
1458.585,2600.00
1459.473,2586.00
1460.361,2479.00
1461.251,2691.00
1462.138,2754.00
1463.026,2624.00
1463.913,2845.00
1464.801,2598.00
1465.688,2714.00
1466.575,2636.00
1467.463,3129.00
1468.351,2498.00
1469.238,2612.00
1470.125,2256.00
1471.012,2704.00
1471.899,2719.00
1472.785,2473.00
1473.672,2652.00
1474.558,2840.00
1475.446,2788.00
1476.333,2815.00
1477.219,2478.00
1478.105,2620.00
1478.991,2601.00
1479.877,2952.00
1480.762,2627.00
1481.648,2512.00
1482.534,2792.00
1483.419,2715.00
1484.307,2753.00
1485.192,2635.00
1486.077,2501.00
1486.962,2524.00
1487.847,2378.00
1488.732,2522.00
1489.617,2666.00
1490.502,2903.00
1491.387,2801.00
1492.271,2477.00
1493.156,2484.00
1494.042,2493.00
1494.927,2863.00
1495.811,2543.00
1496.695,2814.00
1497.579,2960.00
1498.463,2651.00
1499.347,2683.00
1500.231,2699.00
1501.114,2713.00
1501.998,2904.00
1502.881,2715.00
1503.765,2962.00
1504.648,3051.00
1505.533,2751.00
1506.417,2700.00
1507.300,2631.00
1508.183,2737.00
1509.066,2171.00
1509.948,2890.00
1510.831,2952.00
1511.714,2450.00
1512.596,2770.00
1513.479,2906.00
1514.361,2852.00
1515.243,2653.00
1516.125,2824.00
1517.008,2940.00
1517.890,2613.00
1518.771,2677.00
1519.655,2871.00
1520.537,2577.00
1521.419,2525.00
1522.300,2679.00
1523.182,2787.00
1524.063,2794.00
1524.944,2931.00
1525.825,2822.00
1526.707,2478.00
1527.588,2499.00
1528.468,2765.00
1529.349,2330.00
1530.230,2581.00
1531.111,2813.00
1531.991,2695.00
1532.872,2406.00
1533.752,2624.00
1534.632,2518.00
1535.513,2555.00
1536.393,2811.00
1537.273,2952.00
1538.153,3240.00
1539.032,2396.00
1539.912,2666.00
1540.792,2682.00
1541.672,2684.00
1542.551,2768.00
1543.430,3256.00
1544.310,2680.00
1545.189,2580.00
1546.068,3089.00
1546.947,2732.00
1547.826,2969.00
1548.705,2652.00
1549.584,2868.00
1550.462,2635.00
1551.341,2801.00
1552.219,2726.00
1553.098,2813.00
1553.976,2869.00
1554.854,3103.00
1555.733,2850.00
1556.611,2600.00
1557.489,2483.00
1558.367,2666.00
1559.244,2843.00
1560.122,2628.00
1561.000,2745.00
1561.877,2946.00
1562.755,2549.00
1563.632,2610.00
1564.509,2913.00
1565.386,2998.00
1566.264,2489.00
1567.141,2290.00
1568.017,2824.00
1568.894,2670.00
1569.771,2704.00
1570.648,2779.00
1571.524,2705.00
1572.401,2448.00
1573.277,2441.00
1574.153,2752.00
1575.029,2514.00
1575.906,3395.00
1576.781,2848.00
1577.657,2603.00
1578.533,2932.00
1579.409,2328.00
1580.285,2662.00
1581.160,3132.00
1582.036,2867.00
1582.911,2508.00
1583.786,3029.00
1584.662,2469.00
1585.537,2645.00
1586.412,2695.00
1587.287,2528.00
1588.160,2839.00
1589.035,2330.00
1589.909,2711.00
1590.784,2642.00
1591.658,2505.00
1592.533,2723.00
1593.407,2668.00
1594.281,2562.00
1595.155,3069.00
1596.029,2591.00
1596.903,2647.00
1597.777,2633.00
1598.651,2924.00
1599.525,2375.00
1600.398,2718.00
1601.272,2655.00
1602.144,3178.00
1603.017,2629.00
1603.890,2899.00
1604.763,2805.00
1605.636,2803.00
1606.509,2409.00
1607.382,2551.00
1608.255,2763.00
1609.128,2890.00
1610.000,2643.00
1610.873,2366.00
1611.746,2582.00
1612.616,2626.00
1613.488,2272.00
1614.361,2686.00
1615.233,2633.00
1616.105,2861.00
1616.977,2588.00
1617.849,2461.00
1618.720,2989.00
1619.592,2958.00
1620.464,2770.00
1621.333,3117.00
1622.205,2679.00
1623.076,2674.00
1623.947,2648.00
1624.818,2929.00
1625.689,2822.00
1626.560,2586.00
1627.431,2713.00
1628.302,3052.00
1629.171,2802.00
1630.042,3001.00
1630.912,3329.00
1631.782,3258.00
1632.653,2508.00
1633.523,2824.00
1634.393,2903.00
1635.263,2547.00
1636.131,2677.00
1637.001,2581.00
1637.871,2297.00
1638.741,2342.00
1639.611,2443.00
1640.480,2791.00
1641.350,2531.00
1642.219,2514.00
1643.087,2185.00
1643.956,3111.00
1644.825,2899.00
1645.694,2866.00
1646.563,2845.00
1647.432,2738.00
1648.299,2723.00
1649.167,2791.00
1650.036,2497.00
1650.904,2930.00
1651.773,2933.00
1652.641,2695.00
1653.509,2887.00
1654.376,2554.00
1655.244,2744.00
1656.112,2691.00
1656.980,2702.00
1657.847,2530.00
1658.715,2861.00
1659.581,2572.00
1660.448,2871.00
1661.316,2225.00
1662.183,2728.00
1663.051,2727.00
1663.918,2752.00
1664.783,2706.00
1665.650,2795.00
1666.517,2820.00
1667.384,2735.00
1668.251,2769.00
1669.115,2901.00
1669.982,2667.00
1670.849,2957.00
1671.715,2627.00
1672.581,2810.00
1673.446,2779.00
1674.312,2731.00
1675.178,3122.00
1676.044,2762.00
1676.910,2760.00
1677.774,2746.00
1678.639,2363.00
1679.505,2693.00
1680.370,2824.00
1681.236,3364.00
1682.099,2657.00
1682.965,2718.00
1683.830,2295.00
1684.695,2501.00
1685.560,2597.00
1686.423,2846.00
1687.288,2817.00
1688.153,2714.00
1689.017,2630.00
1689.880,2767.00
1690.745,2848.00
1691.609,2550.00
1692.473,2837.00
1693.338,2940.00
1694.200,2983.00
1695.064,2705.00
1695.928,2612.00
1696.792,2690.00
1697.654,3192.00
1698.517,2731.00
1699.381,2403.00
1700.245,2384.00
1701.106,2985.00
1701.969,2584.00
1702.833,2847.00
1703.696,2611.00
1704.557,2649.00
1705.420,2575.00
1706.283,2725.00
1707.146,2819.00
1708.007,2494.00
1708.870,2491.00
1709.732,2386.00
1710.595,2587.00
1711.455,2431.00
1712.318,2625.00
1713.180,2982.00
1714.040,2745.00
1714.902,2894.00
1715.764,2730.00
1716.626,2499.00
1717.486,2677.00
1718.348,2955.00
1719.209,4224.00
1720.071,2357.00
1720.930,2435.00
1721.792,2555.00
1722.653,2551.00
1723.512,2580.00
1724.374,2635.00
1725.234,2759.00
1726.095,2718.00
1726.954,2671.00
1727.815,2869.00
1728.676,2674.00
1729.535,2930.00
1730.395,2649.00
1731.256,2635.00
1732.114,2778.00
1732.974,2201.00
1733.834,3073.00
1734.693,2907.00
1735.553,2671.00
1736.413,3108.00
1737.272,2582.00
1738.130,2667.00
1738.990,2770.00
1739.849,2570.00
1740.707,3684.00
1741.566,2688.00
1742.426,2730.00
1743.283,3108.00
1744.142,2556.00
1745.001,2349.00
1745.858,2852.00
1746.717,2788.00
1747.576,2796.00
1748.433,2804.00
1749.292,3282.00
1750.150,3329.00
1751.007,2873.00
1751.865,2904.00
1752.723,2745.00
1753.579,2640.00
1754.438,2926.00
1755.296,2899.00
1756.152,2244.00
1757.010,2402.00
1757.865,2900.00
1758.723,2393.00
1759.581,3014.00
1760.436,2689.00
1761.294,3056.00
1762.151,2657.00
1763.006,2610.00
1763.864,2357.00
1764.721,2914.00
1765.576,2717.00
1766.433,2855.00
1767.288,2589.00
1768.144,2782.00
1769.001,2648.00
1769.856,2778.00
1770.712,2927.00
1771.568,2458.00
1772.423,2624.00
1773.279,2604.00
1774.133,2620.00
1774.989,3067.00
1775.845,3073.00
1776.699,2944.00
1777.555,2692.00
1778.409,3212.00
1779.265,2635.00
1780.120,2666.00
1780.974,2697.00
1781.829,2293.00
1782.682,2777.00
1783.538,2511.00
1784.393,2724.00
1785.246,2643.00
1786.101,2822.00
1786.954,2822.00
1787.808,2907.00
1788.661,2428.00
1789.516,2603.00
1790.370,2668.00
1791.223,2873.00
1792.077,2667.00
1792.930,2781.00
1793.784,2594.00
1794.636,2744.00
1795.490,2702.00
1796.344,2738.00
1797.196,2730.00
1798.049,2845.00
1798.901,2581.00
1799.755,2925.00
1800.606,2493.00
1801.460,3248.00
1802.311,3039.00
1803.165,3079.00
1804.018,3066.00
1804.869,2783.00
1805.722,3152.00
1806.573,2726.00
1807.426,2506.00
1808.276,2729.00
1809.129,2578.00
1809.980,2901.00
1810.832,3009.00
1811.683,2609.00
1812.535,3059.00
1813.385,2653.00
1814.237,2963.00
1815.089,2722.00
1815.940,3006.00
1816.791,2646.00
1817.641,2563.00
1818.493,2803.00
1819.343,2772.00
1820.194,2573.00
1821.044,2801.00
1821.895,2946.00
1822.745,2462.00
1823.596,2613.00
1824.445,3162.00
1825.296,2835.00
1826.145,2653.00
1826.996,2941.00
1827.845,2762.00
1828.695,2740.00
1829.544,2679.00
1830.395,2747.00
1831.243,2630.00
1832.094,2449.00
1832.942,3321.00
1833.792,2802.00
1834.640,2775.00
1835.490,2753.00
1836.338,2771.00
1837.186,2610.00
1838.036,2604.00
1838.884,2723.00
1839.733,3058.00
1840.581,2879.00
1841.430,2813.00
1842.278,3060.00
1843.127,2610.00
1843.974,2392.00
1844.823,3154.00
1845.671,2855.00
1846.519,2704.00
1847.366,2768.00
1848.213,2397.00
1849.062,2557.00
1849.909,2447.00
1850.757,3333.00
1851.604,2837.00
1852.452,2610.00
1853.298,2899.00
1854.146,2775.00
1854.993,2747.00
1855.839,3251.00
1856.687,2821.00
1857.532,2843.00
1858.380,2742.00
1859.226,2766.00
1860.073,2811.00
1860.919,2519.00
1861.765,2578.00
1862.612,2937.00
1863.457,2920.00
1864.304,2647.00
1865.150,2870.00
1865.995,2689.00
1866.842,2839.00
1867.686,2973.00
1868.533,2770.00
1869.378,2777.00
1870.223,2731.00
1871.069,2610.00
1871.914,2755.00
1872.760,2709.00
1873.604,2479.00
1874.448,2875.00
1875.294,2885.00
1876.139,2591.00
1876.984,2839.00
1877.828,2399.00
1878.672,2271.00
1879.518,2590.00
1880.361,2898.00
1881.205,2871.00
1882.050,2526.00
1882.894,3239.00
1883.739,2601.00
1884.582,2453.00
1885.425,2555.00
1886.270,3000.00
1887.113,2479.00
1887.956,2827.00
1888.801,2766.00
1889.644,2538.00
1890.486,2329.00
1891.331,2658.00
1892.173,2759.00
1893.017,2781.00
1893.860,3040.00
1894.702,3043.00
1895.546,2741.00
1896.388,3406.00
1897.230,3039.00
1898.074,2629.00
1898.916,2530.00
1899.757,2551.00
1900.601,3400.00
1901.443,3003.00
1902.284,3027.00
1903.125,3165.00
1903.969,2927.00
1904.810,2969.00
1905.651,2823.00
1906.494,3055.00
1907.335,3154.00
1908.176,2855.00
1909.018,2863.00
1909.859,2647.00
1910.700,2642.00
1911.542,3253.00
1912.383,2806.00
1913.223,2346.00
1914.064,2867.00
1914.906,3013.00
1915.746,3054.00
1916.586,3181.00
1917.428,2716.00
1918.268,2762.00
1919.107,2643.00
1919.947,2517.00
1920.789,2670.00
1921.628,2988.00
1922.468,2721.00
1923.309,2606.00
1924.148,3018.00
1924.988,2793.00
1925.827,2712.00
1926.667,2582.00
1927.507,2729.00
1928.345,2569.00
1929.184,2854.00
1930.025,2557.00
1930.864,2961.00
1931.702,3047.00
1932.541,2639.00
1933.381,2872.00
1934.219,2918.00
1935.057,2995.00
1935.896,2482.00
1936.735,2715.00
1937.573,2633.00
1938.411,2565.00
1939.249,2898.00
1940.089,2633.00
1940.927,3007.00
1941.764,3023.00
1942.602,2682.00
1943.439,2609.00
1944.278,2714.00
1945.115,2687.00
1945.953,2511.00
1946.790,2813.00
1947.628,3146.00
1948.465,2857.00
1949.302,2915.00
1950.139,2879.00
1950.976,2603.00
1951.814,2897.00
1952.651,2779.00
1953.487,2547.00
1954.323,3010.00
1955.160,2758.00
1955.998,3087.00
1956.834,2723.00
1957.670,2826.00
1958.506,2949.00
1959.342,2833.00
1960.177,2751.00
1961.015,2891.00
1961.850,2817.00
1962.686,2763.00
1963.521,2798.00
1964.357,3007.00
1965.192,2522.00
1966.029,2894.00
1966.864,2695.00
1967.699,2948.00
1968.534,2779.00
1969.369,3029.00
1970.204,2692.00
1971.040,2799.00
1971.875,2677.00
1972.709,2794.00
1973.544,2579.00
1974.378,2649.00
1975.212,2899.00
1976.047,2618.00
1976.882,2621.00
1977.716,3171.00
1978.550,2443.00
1979.384,2723.00
1980.218,2701.00
1981.052,2683.00
1981.885,2795.00
1982.719,2727.00
1983.554,2907.00
1984.388,3070.00
1985.221,2823.00
1986.054,2998.00
1986.887,2815.00
1987.720,2607.00
1988.553,3073.00
1989.386,2895.00
1990.219,2885.00
1991.053,3066.00
1991.886,2615.00
1992.719,2939.00
1993.551,2279.00
1994.383,2915.00
1995.216,2689.00
1996.048,2487.00
1996.880,2938.00
1997.712,2611.00
1998.544,2755.00
1999.376,2854.00
2000.208,3035.00
2001.040,3153.00
2001.873,2594.00
2002.705,2583.00
2003.536,2805.00
2004.367,2810.00
2005.199,2774.00
2006.030,2657.00
2006.861,2551.00
2007.692,2734.00
2008.523,2617.00
2009.354,2805.00
2010.185,2562.00
2011.016,2951.00
2011.846,3012.00
2012.677,2746.00
2013.507,3107.00
2014.338,2984.00
2015.168,2670.00
2015.999,3269.00
2016.829,2696.00
2017.659,2995.00
2018.489,3285.00
2019.319,2576.00
2020.149,2958.00
2020.980,2797.00
2021.810,2586.00
2022.639,2659.00
2023.469,2625.00
2024.298,2460.00
2025.128,2362.00
2025.957,2388.00
2026.786,2206.00
2027.615,2362.00
2028.444,2625.00
2029.273,2788.00
2030.102,2344.00
2030.931,2616.00
2031.758,2896.00
2032.586,2543.00
2033.415,2589.00
2034.243,2228.00
2035.072,2056.00
2035.900,2516.00
2036.728,2346.00
2037.556,2327.00
2038.385,2384.00
2039.213,2204.00
2040.040,2180.00
2040.868,2169.00
2041.696,2206.00
2042.524,2233.00
2043.351,2425.00
2044.179,2220.00
2045.006,2038.00
