RamanScope Measure Spectrum Data V3.72

<< MEASURE CONDITION >>
Exposure Type,Aver
Exposure Time [sec],15
Exposure Count,4
Measure Time,2023/07/15 16:29:35
Data Name,""
Data Comment,""
Rayleigh Wave[nm],532.0

<< SAMPLE SPECTRUM >>
Wave[dcm-1],No173
146.591,1014.00
147.626,1168.50
148.664,1364.75
149.699,1557.00
150.737,1729.50
151.772,1922.25
152.809,2099.75
153.846,2249.25
154.881,2390.50
155.918,2507.25
156.953,2678.25
157.989,2708.50
159.026,2779.00
160.060,2832.50
161.096,2889.00
162.130,2919.75
163.167,2996.75
164.200,3012.50
165.236,3081.75
166.272,3096.25
167.305,3197.00
168.341,3223.25
169.374,3284.25
170.409,3317.75
171.445,3444.00
172.477,3477.75
173.512,3516.25
174.545,3517.25
175.580,3584.25
176.614,3558.25
177.647,3550.00
178.681,3580.00
179.713,3550.50
180.747,3523.00
181.781,3476.25
182.813,3493.25
183.847,3509.50
184.878,3515.25
185.912,3460.75
186.945,3586.00
187.976,3589.50
189.010,3569.00
190.043,3619.00
191.073,3627.25
192.106,3696.25
193.137,3719.50
194.170,3744.50
195.202,3805.50
196.232,3840.25
197.265,3856.00
198.297,3946.75
199.327,4007.50
200.359,4078.75
201.388,4210.00
202.420,4243.25
203.452,4322.25
204.481,4415.50
205.512,4550.25
206.544,4631.75
207.573,4778.25
208.604,4856.00
209.635,5033.75
210.663,5107.00
211.694,5292.25
212.725,5447.75
213.753,5572.50
214.783,5618.25
215.813,5677.25
216.841,5774.75
217.871,5817.00
218.899,5760.75
219.929,5792.25
220.959,5729.50
221.986,5604.50
223.016,5473.75
224.045,5418.75
225.072,5324.00
226.101,5192.00
227.130,5073.25
228.157,4959.75
229.185,4860.25
230.214,4778.75
231.241,4720.50
232.269,4607.00
233.297,4556.00
234.323,4549.50
235.351,4466.25
236.379,4498.00
237.407,4380.75
238.433,4418.50
239.460,4497.50
240.488,4416.50
241.513,4429.25
242.540,4451.75
243.568,4462.50
244.592,4508.50
245.619,4582.50
246.646,4470.00
247.671,4477.00
248.697,4458.75
249.724,4445.25
250.748,4410.00
251.774,4419.75
252.801,4389.50
253.827,4392.25
254.850,4416.00
255.876,4465.25
256.902,4449.75
257.925,4481.50
258.951,4459.25
259.976,4516.25
260.999,4522.25
262.024,4611.75
263.049,4653.50
264.074,4664.75
265.097,4760.25
266.122,4805.00
267.146,4836.00
268.168,4837.50
269.193,4910.50
270.217,4928.50
271.241,5010.00
272.263,5032.50
273.287,5055.50
274.311,5100.75
275.332,5168.25
276.356,5157.50
277.379,5124.00
278.402,5110.75
279.424,5054.75
280.447,5073.00
281.470,5009.50
282.492,4984.00
283.513,4873.00
284.536,4828.25
285.558,4818.25
286.581,4702.25
287.601,4601.50
288.623,4527.75
289.645,4525.00
290.665,4465.25
291.687,4421.75
292.709,4304.50
293.730,4258.75
294.750,4230.25
295.771,4192.00
296.792,4151.75
297.813,4061.25
298.832,3992.00
299.853,4001.00
300.874,3896.50
301.895,3899.00
302.913,3819.00
303.934,3841.25
304.954,3743.75
305.975,3738.50
306.993,3707.25
308.013,3674.75
309.033,3632.50
310.052,3611.50
311.072,3557.50
312.090,3546.25
313.109,3529.00
314.129,3505.25
315.148,3539.75
316.165,3523.25
317.184,3477.50
318.203,3447.25
319.222,3375.50
320.238,3384.75
321.257,3419.75
322.275,3353.25
323.294,3329.00
324.312,3313.75
325.328,3287.25
326.346,3262.50
327.364,3286.25
328.382,3241.25
329.397,3259.75
330.415,3237.00
331.432,3261.75
332.450,3269.00
333.467,3248.25
334.482,3217.75
335.499,3200.50
336.516,3205.25
337.533,3232.50
338.547,3203.50
339.564,3203.00
340.580,3230.75
341.597,3192.25
342.613,3158.50
343.627,3171.00
344.643,3140.75
345.659,3154.25
346.675,3144.25
347.690,3150.00
348.704,3164.25
349.719,3162.00
350.735,3089.75
351.750,3129.75
352.765,3185.25
353.778,3113.00
354.793,3126.50
355.808,3104.75
356.822,3182.75
357.837,3178.00
358.851,3147.00
359.864,3135.50
360.878,3151.00
361.892,3176.75
362.906,3169.00
363.920,3174.50
364.932,3117.75
365.945,3147.25
366.959,3145.75
367.972,3172.25
368.986,3178.75
369.999,3186.00
371.010,3198.50
372.023,3157.00
373.036,3216.00
374.049,3220.25
375.061,3233.50
376.072,3238.25
377.084,3231.00
378.097,3312.25
379.109,3277.75
380.121,3256.50
381.133,3243.00
382.143,3328.50
383.155,3289.00
384.166,3277.00
385.178,3241.50
386.189,3288.50
387.201,3323.75
388.212,3197.50
389.221,3252.50
390.232,3278.50
391.243,3266.75
392.254,3258.75
393.264,3283.75
394.275,3233.50
395.283,3172.25
396.294,3212.75
397.304,3226.00
398.314,3182.25
399.324,3220.50
400.334,3184.50
401.344,3129.00
402.351,3172.50
403.361,3128.25
404.370,3112.25
405.380,3138.50
406.389,3065.75
407.398,3125.75
408.407,3119.50
409.414,3040.75
410.423,3004.25
411.431,3041.00
412.440,3044.00
413.448,3036.25
414.457,3049.00
415.465,2978.00
416.471,2933.50
417.479,2944.25
418.487,2974.25
419.495,2963.50
420.503,2965.00
421.510,2926.50
422.518,3008.00
423.525,2955.25
424.530,2913.00
425.537,2926.50
426.544,2962.25
427.551,2877.50
428.558,2873.75
429.565,2923.50
430.571,2926.50
431.578,2896.00
432.582,2898.75
433.588,2910.00
434.595,2921.25
435.601,2886.50
436.607,2897.50
437.612,2870.75
438.618,2916.25
439.624,2928.00
440.627,2932.75
441.633,2868.25
442.638,2917.25
443.643,2904.00
444.648,2899.25
445.653,2890.25
446.658,2885.00
447.663,2871.25
448.667,2895.50
449.672,2916.00
450.674,2880.25
451.678,2916.75
452.682,2884.00
453.687,2860.50
454.690,2877.75
455.694,2974.50
456.698,2918.50
457.702,2932.50
458.705,2878.50
459.709,2966.75
460.710,2922.50
461.713,2899.50
462.716,2971.50
463.719,2940.25
464.722,2928.50
465.725,2902.25
466.727,2944.50
467.730,2945.25
468.732,2964.75
469.735,2983.25
470.737,2948.50
471.737,2969.75
472.739,3003.00
473.741,2938.00
474.742,2942.75
475.744,2992.75
476.746,3003.25
477.747,2965.75
478.748,2952.25
479.750,2933.50
480.751,3042.25
481.752,2938.75
482.753,2951.00
483.751,2986.75
484.752,2929.50
485.753,2970.00
486.753,3010.25
487.753,2980.50
488.754,2955.25
489.754,2900.25
490.754,2949.25
491.754,2962.25
492.754,2943.50
493.753,2962.00
494.753,2922.00
495.752,2932.00
496.752,2959.75
497.749,2965.50
498.748,2879.50
499.747,2969.50
500.746,2962.25
501.745,2966.25
502.744,2950.75
503.742,2940.50
504.741,2933.75
505.739,2849.00
506.737,2915.75
507.735,2897.75
508.734,2897.25
509.732,2864.25
510.729,2864.25
511.727,2885.00
512.725,2869.25
513.720,2827.00
514.718,2809.25
515.715,2829.00
516.712,2822.75
517.709,2766.75
518.706,2813.50
519.703,2838.25
520.700,2818.25
521.696,2808.25
522.693,2861.75
523.689,2820.75
524.686,2807.25
525.682,2871.50
526.678,2839.00
527.674,2851.00
528.670,2852.00
529.666,2811.25
530.661,2847.00
531.657,2872.25
532.652,2863.00
533.648,2851.25
534.641,2812.00
535.636,2820.75
536.631,2843.25
537.626,2905.25
538.621,2867.75
539.616,2888.50
540.610,2814.25
541.605,2825.00
542.599,2912.25
543.593,2873.75
544.587,2879.75
545.581,2842.00
546.575,2882.00
547.569,2885.00
548.563,2836.75
549.557,2841.75
550.550,2874.50
551.543,2851.75
552.537,2886.25
553.530,2918.50
554.523,2862.00
555.516,2805.25
556.509,2842.25
557.502,2890.00
558.494,2844.50
559.487,2793.25
560.479,2855.75
561.472,2892.75
562.464,2859.00
563.456,2837.50
564.448,2849.25
565.440,2880.25
566.432,2850.50
567.423,2885.50
568.415,2896.50
569.404,2831.75
570.396,2905.00
571.387,2873.50
572.378,2857.75
573.369,2886.75
574.360,2939.75
575.351,2887.25
576.341,2900.50
577.332,2904.50
578.323,2897.25
579.313,2867.00
580.303,2878.75
581.293,2911.00
582.283,2936.50
583.273,2919.75
584.263,2944.25
585.253,2904.75
586.243,2924.50
587.232,2932.25
588.222,2918.25
589.211,2900.75
590.200,2968.00
591.189,2939.25
592.178,2922.25
593.167,2948.00
594.156,2903.00
595.145,2911.25
596.133,2939.00
597.122,2916.75
598.110,2879.00
599.098,2883.75
600.086,2905.00
601.074,2920.50
602.062,2900.25
603.050,2945.75
604.038,2916.00
605.025,2896.50
606.013,2879.75
607.000,2862.00
607.987,2877.75
608.975,2873.50
609.962,2861.75
610.949,2834.25
611.936,2863.75
612.922,2770.50
613.909,2809.50
614.895,2823.25
615.882,2804.75
616.868,2779.25
617.854,2823.75
618.841,2745.25
619.826,2685.00
620.812,2698.25
621.798,2682.00
622.784,2697.00
623.769,2667.00
624.755,2616.00
625.740,2630.00
626.725,2638.75
627.711,2655.75
628.698,2578.00
629.683,2590.75
630.667,2564.00
631.652,2541.00
632.637,2540.50
633.621,2486.50
634.606,2541.75
635.590,2467.25
636.574,2504.25
637.558,2503.25
638.542,2477.75
639.526,2398.00
640.510,2393.00
641.493,2408.00
642.477,2434.75
643.460,2381.75
644.444,2389.50
645.427,2380.50
646.410,2386.75
647.393,2342.00
648.376,2356.00
649.359,2349.75
650.341,2284.00
651.324,2336.25
652.307,2323.50
653.289,2300.00
654.271,2270.50
655.253,2277.50
656.235,2230.00
657.217,2299.00
658.199,2302.50
659.181,2294.75
660.163,2217.75
661.144,2240.75
662.126,2238.50
663.107,2235.50
664.088,2240.75
665.069,2285.50
666.050,2238.00
667.033,2234.50
668.014,2185.75
668.995,2173.00
669.975,2179.50
670.956,2149.50
671.936,2186.00
672.916,2146.50
673.896,2113.75
674.876,2150.00
675.856,2121.25
676.836,2121.25
677.816,2095.00
678.795,2050.75
679.775,2073.75
680.754,2078.00
681.734,2050.25
682.713,2003.25
683.692,2054.75
684.671,2031.00
685.650,2006.00
686.629,2042.25
687.607,1991.50
688.586,1953.25
689.564,1989.25
690.543,1962.50
691.523,1943.25
692.501,1907.00
693.479,1923.00
694.457,1934.25
695.435,1900.50
696.413,1949.00
697.390,1888.25
698.368,1867.25
699.345,1897.00
700.322,1867.50
701.300,1873.50
702.277,1838.00
703.254,1863.75
704.231,1861.25
705.207,1884.50
706.184,1870.50
707.161,1814.50
708.137,1795.75
709.113,1795.00
710.090,1809.50
711.068,1798.50
712.044,1788.50
713.020,1779.25
713.996,1772.75
714.971,1732.00
715.947,1789.50
716.922,1693.25
717.898,1783.00
718.873,1767.75
719.848,1794.75
720.823,1764.00
721.798,1785.00
722.773,1722.50
723.748,1711.00
724.723,1715.50
725.697,1662.50
726.672,1716.00
727.646,1716.25
728.622,1676.25
729.596,1721.50
730.570,1675.75
731.544,1725.25
732.518,1679.25
733.492,1671.25
734.466,1694.75
735.439,1651.25
736.413,1723.25
737.386,1677.00
738.359,1639.00
739.332,1705.75
740.305,1646.50
741.278,1601.75
742.251,1627.25
743.224,1657.25
744.196,1642.00
745.171,1590.75
746.143,1608.75
747.115,1641.00
748.087,1593.25
749.059,1615.25
750.031,1635.50
751.003,1589.75
751.975,1554.00
752.947,1583.75
753.918,1579.75
754.890,1604.75
755.861,1603.00
756.832,1569.50
757.803,1572.00
758.774,1547.25
759.747,1584.75
760.718,1564.75
761.689,1511.25
762.659,1508.75
763.630,1513.00
764.600,1580.75
765.570,1539.00
766.540,1583.75
767.510,1517.50
768.480,1536.00
769.450,1552.00
770.420,1499.25
771.390,1456.00
772.359,1497.75
773.329,1530.00
774.300,1499.50
775.269,1525.00
776.238,1484.00
777.207,1505.75
778.176,1527.25
779.145,1492.75
780.114,1463.25
781.083,1492.25
782.051,1447.25
783.019,1467.00
783.988,1479.00
784.956,1440.50
785.924,1421.75
786.894,1421.25
787.862,1440.50
788.830,1438.50
789.797,1406.75
790.765,1446.75
791.732,1424.00
792.700,1420.75
793.667,1424.75
794.634,1380.25
795.601,1385.25
796.568,1409.50
797.535,1406.25
798.502,1404.25
799.468,1409.00
800.437,1424.25
801.403,1399.50
802.370,1352.75
803.336,1353.00
804.302,1393.75
805.268,1371.00
806.234,1361.25
807.200,1366.75
808.166,1359.00
809.131,1393.75
810.097,1407.50
811.062,1354.25
812.027,1306.75
812.994,1338.50
813.960,1345.00
814.925,1354.00
815.889,1352.00
816.854,1381.25
817.819,1328.75
818.783,1319.75
819.748,1333.50
820.712,1368.75
821.677,1315.00
822.641,1351.75
823.605,1312.25
824.571,1329.75
825.534,1332.75
826.498,1343.50
827.462,1354.75
828.425,1334.00
829.389,1279.00
830.352,1358.50
831.315,1325.25
832.279,1336.00
833.242,1325.25
834.204,1298.75
835.167,1349.75
836.132,1316.00
837.095,1297.25
838.057,1322.75
839.020,1326.00
839.982,1327.75
840.944,1293.50
841.906,1339.25
842.868,1297.00
843.830,1314.50
844.792,1298.00
845.753,1324.00
846.715,1369.25
847.679,1299.75
848.640,1285.25
849.601,1355.50
850.562,1334.25
851.523,1337.00
852.484,1309.50
853.445,1334.25
854.406,1280.50
855.367,1350.75
856.327,1285.25
857.288,1344.25
858.248,1338.00
859.210,1307.50
860.170,1303.25
861.130,1328.75
862.090,1315.75
863.050,1329.25
864.010,1312.00
864.969,1304.25
865.929,1280.00
866.888,1383.00
867.848,1300.75
868.807,1344.00
869.766,1296.00
870.727,1283.00
871.686,1291.25
872.645,1332.75
873.604,1270.50
874.562,1322.50
875.521,1307.75
876.479,1302.00
877.437,1312.75
878.396,1300.25
879.354,1303.75
880.312,1294.00
881.270,1343.50
882.229,1301.25
883.187,1340.50
884.145,1334.75
885.102,1316.50
886.059,1314.75
887.017,1322.00
887.974,1287.50
888.931,1300.00
889.888,1312.50
890.845,1325.50
891.802,1313.75
892.758,1278.50
893.717,1312.50
894.673,1338.25
895.630,1307.75
896.586,1309.75
897.542,1342.75
898.498,1341.25
899.454,1313.00
900.410,1320.75
901.366,1332.50
902.321,1290.75
903.277,1315.50
904.232,1301.50
905.189,1328.25
906.145,1330.25
907.100,1338.00
908.055,1316.50
909.010,1292.75
909.965,1303.25
910.919,1394.00
911.874,1295.25
912.828,1296.75
913.783,1310.50
914.737,1287.75
915.693,1268.50
916.648,1329.00
917.602,1297.75
918.555,1335.25
919.509,1282.25
920.463,1350.50
921.417,1327.50
922.370,1324.00
923.324,1318.00
924.277,1297.75
925.230,1304.50
926.183,1300.25
927.138,1308.75
928.091,1297.50
929.044,1303.00
929.996,1338.50
930.949,1343.00
931.902,1267.00
932.854,1328.75
933.806,1308.25
934.758,1274.50
935.711,1317.50
936.663,1312.50
937.614,1303.00
938.568,1298.25
939.520,1312.00
940.471,1298.50
941.423,1311.50
942.374,1279.75
943.326,1262.25
944.277,1274.50
945.228,1300.25
946.179,1304.25
947.130,1306.00
948.080,1346.00
949.031,1265.75
949.984,1291.75
950.934,1265.25
951.884,1294.75
952.835,1244.25
953.785,1284.25
954.735,1253.75
955.685,1269.75
956.635,1290.00
957.585,1253.50
958.534,1257.75
959.484,1254.00
960.433,1288.00
961.383,1288.75
962.334,1215.75
963.283,1230.00
964.232,1232.75
965.181,1218.75
966.130,1275.25
967.079,1234.50
968.027,1232.25
968.976,1253.00
969.924,1255.75
970.873,1284.25
971.821,1225.50
972.769,1235.00
973.719,1261.50
974.667,1221.25
975.615,1259.25
976.562,1247.75
977.510,1250.50
978.458,1234.00
979.405,1236.00
980.352,1276.00
981.300,1269.50
982.247,1280.75
983.194,1229.50
984.141,1258.50
985.088,1242.00
986.036,1225.75
986.983,1215.50
987.930,1225.75
988.876,1233.00
989.822,1221.75
990.769,1224.25
991.715,1228.25
992.661,1220.75
993.607,1214.50
994.553,1218.00
995.498,1193.75
996.444,1238.50
997.389,1257.00
998.337,1276.00
999.282,1253.75
1000.227,1255.25
1001.173,1223.50
1002.118,1216.25
1003.062,1253.75
1004.007,1218.00
1004.952,1196.25
1005.897,1238.50
1006.841,1228.50
1007.786,1172.25
1008.730,1236.50
1009.674,1263.25
1010.618,1218.75
1011.564,1223.75
1012.508,1214.25
1013.452,1238.50
1014.396,1229.00
1015.339,1257.00
1016.283,1195.25
1017.226,1237.50
1018.170,1243.50
1019.113,1210.50
1020.056,1269.00
1020.999,1206.50
1021.942,1209.50
1022.885,1276.25
1023.828,1227.25
1024.770,1251.50
1025.715,1245.00
1026.657,1268.50
1027.600,1236.00
1028.542,1283.25
1029.484,1230.50
1030.426,1245.50
1031.368,1252.50
1032.310,1246.50
1033.251,1235.75
1034.193,1209.75
1035.135,1262.75
1036.076,1249.50
1037.017,1245.75
1037.959,1278.75
1038.900,1258.00
1039.843,1252.00
1040.784,1272.75
1041.725,1250.50
1042.665,1244.50
1043.606,1214.25
1044.547,1240.00
1045.487,1239.00
1046.427,1279.50
1047.368,1295.25
1048.308,1290.00
1049.248,1266.50
1050.188,1264.75
1051.128,1242.00
1052.067,1236.25
1053.007,1318.75
1053.947,1292.50
1054.886,1283.75
1055.827,1260.75
1056.766,1317.75
1057.706,1290.00
1058.645,1289.50
1059.584,1327.25
1060.522,1342.25
1061.461,1328.25
1062.400,1291.75
1063.338,1304.25
1064.277,1318.00
1065.215,1294.75
1066.154,1354.25
1067.092,1321.75
1068.030,1327.75
1068.968,1343.75
1069.906,1345.25
1070.843,1324.50
1071.781,1321.75
1072.720,1345.75
1073.658,1309.25
1074.595,1307.25
1075.533,1335.50
1076.470,1293.00
1077.407,1304.75
1078.344,1344.25
1079.281,1343.75
1080.217,1298.50
1081.154,1346.75
1082.091,1340.25
1083.027,1333.75
1083.964,1337.00
1084.900,1331.00
1085.836,1291.00
1086.772,1318.25
1087.708,1327.00
1088.644,1351.75
1089.580,1324.50
1090.515,1321.25
1091.451,1283.00
1092.388,1359.25
1093.324,1337.00
1094.259,1367.50
1095.194,1348.00
1096.129,1326.25
1097.064,1344.75
1097.999,1319.75
1098.934,1294.25
1099.869,1307.75
1100.803,1311.00
1101.738,1254.00
1102.672,1292.00
1103.607,1294.50
1104.541,1272.75
1105.475,1289.75
1106.409,1260.75
1107.343,1231.25
1108.277,1248.75
1109.210,1228.75
1110.144,1223.00
1111.078,1236.75
1112.011,1232.00
1112.944,1266.00
1113.878,1230.00
1114.811,1244.00
1115.744,1220.25
1116.678,1204.00
1117.611,1268.50
1118.544,1168.25
1119.477,1212.75
1120.409,1163.25
1121.342,1190.50
1122.274,1172.50
1123.206,1188.00
1124.138,1212.50
1125.070,1179.00
1126.002,1228.50
1126.934,1201.00
1127.866,1197.25
1128.798,1137.75
1129.729,1199.25
1130.661,1141.50
1131.592,1158.50
1132.523,1154.00
1133.454,1126.00
1134.385,1107.75
1135.317,1143.00
1136.247,1101.50
1137.178,1140.75
1138.109,1070.00
1139.039,1161.75
1139.970,1083.25
1140.900,1123.50
1141.831,1106.50
1142.761,1098.50
1143.691,1107.25
1144.621,1161.00
1145.551,1112.50
1146.480,1052.25
1147.410,1076.50
1148.340,1126.50
1149.269,1052.25
1150.199,1049.50
1151.128,1060.25
1152.057,1094.00
1152.979,1087.75
1153.898,1083.25
1154.819,1064.50
1155.739,1060.75
1156.658,1078.75
1157.579,1071.25
1158.498,1027.25
1159.419,1067.25
1160.338,1089.00
1161.256,1047.75
1162.177,1057.00
1163.095,1060.75
1164.016,1072.25
1164.934,1026.50
1165.852,1073.75
1166.772,1021.50
1167.690,1023.00
1168.610,1036.25
1169.528,1018.25
1170.446,996.00
1171.365,1026.25
1172.283,1030.50
1173.202,1043.00
1174.120,1019.50
1175.037,1050.50
1175.956,1000.25
1176.873,1002.25
1177.792,1030.50
1178.709,998.00
1179.626,1037.50
1180.544,1037.75
1181.461,1002.75
1182.379,1016.25
1183.296,1010.25
1184.212,1047.00
1185.130,1002.25
1186.046,1014.50
1186.962,965.25
1187.880,1049.75
1188.796,1006.25
1189.714,1016.25
1190.629,1035.25
1191.545,1032.00
1192.462,993.50
1193.378,1008.75
1194.295,993.25
1195.210,1004.00
1196.125,971.25
1197.042,1002.25
1197.957,971.50
1198.872,1006.50
1199.788,984.50
1200.703,1028.00
1201.619,988.50
1202.534,1003.00
1203.448,1013.75
1204.364,988.25
1205.278,1008.75
1206.192,1008.00
1207.108,1007.25
1208.022,1015.00
1208.938,995.50
1209.851,991.00
1210.765,1023.25
1211.680,1023.25
1212.594,1010.75
1213.507,1031.50
1214.422,958.25
1215.335,1061.75
1216.248,1007.25
1217.163,1026.00
1218.076,982.25
1218.990,1031.00
1219.903,991.25
1220.816,1021.75
1221.730,1021.50
1222.642,1031.75
1223.554,998.25
1224.469,1021.00
1225.380,1043.25
1226.292,1011.50
1227.206,1012.75
1228.118,1043.50
1229.032,1010.50
1229.943,1008.00
1230.855,1025.50
1231.768,999.00
1232.679,1014.50
1233.590,1047.25
1234.503,1017.25
1235.414,1070.25
1236.325,1020.75
1237.238,1055.50
1238.149,1017.00
1239.059,1050.00
1239.972,990.00
1240.882,1017.75
1241.793,1034.50
1242.705,1017.75
1243.615,1064.50
1244.525,1045.50
1245.437,1025.50
1246.347,1071.75
1247.259,1019.00
1248.168,1059.25
1249.078,1042.25
1249.989,1017.25
1250.899,1035.75
1251.808,1024.25
1252.719,1054.25
1253.628,1077.75
1254.537,1067.25
1255.448,1022.75
1256.357,1075.00
1257.266,1058.00
1258.176,1035.00
1259.085,1040.75
1259.993,1036.00
1260.904,1066.00
1261.812,1032.75
1262.720,1025.50
1263.630,1002.75
1264.538,1024.25
1265.446,1064.25
1266.356,1023.75
1267.263,1044.75
1268.171,994.25
1269.080,1036.00
1269.988,1020.25
1270.895,1028.00
1271.804,1062.75
1272.711,1050.50
1273.619,1008.75
1274.527,1059.00
1275.434,1067.25
1276.341,1063.00
1277.248,1045.25
1278.156,1103.00
1279.063,1044.50
1279.969,1016.75
1280.877,992.00
1281.783,1021.25
1282.690,1012.25
1283.598,1036.00
1284.503,1075.00
1285.409,1040.25
1286.317,1001.75
1287.223,1052.25
1288.128,1002.50
1289.036,1038.50
1289.941,1011.00
1290.846,1035.25
1291.751,1028.00
1292.658,972.75
1293.563,1023.75
1294.468,1019.75
1295.375,1038.75
1296.280,1012.50
1297.184,963.25
1298.091,1027.00
1298.995,1013.50
1299.900,979.00
1300.806,964.00
1301.710,995.00
1302.614,992.75
1303.518,1023.00
1304.424,1020.75
1305.327,1019.50
1306.231,972.00
1307.137,992.75
1308.040,976.75
1308.943,978.75
1309.847,977.50
1310.752,965.25
1311.655,968.75
1312.558,959.00
1313.463,968.00
1314.366,916.25
1315.269,959.75
1316.171,976.25
1317.076,946.50
1317.978,934.50
1318.881,944.25
1319.785,944.25
1320.687,951.50
1321.589,953.25
1322.491,940.25
1323.395,929.50
1324.297,921.25
1325.198,960.50
1326.102,953.50
1327.004,934.00
1327.905,905.50
1328.806,942.50
1329.709,916.25
1330.611,935.75
1331.512,886.25
1332.413,908.75
1333.316,955.00
1334.216,891.00
1335.117,928.75
1336.020,880.00
1336.920,909.25
1337.821,884.50
1338.721,934.25
1339.623,826.75
1340.523,898.00
1341.423,893.50
1342.323,882.50
1343.225,873.50
1344.125,889.25
1345.025,898.25
1345.924,863.00
1346.826,840.50
1347.725,921.25
1348.624,869.50
1349.524,843.00
1350.425,916.75
1351.324,864.00
1352.223,884.75
1353.121,856.50
1354.022,858.25
1354.921,876.00
1355.819,823.50
1356.718,877.75
1357.618,810.25
1358.516,827.50
1359.415,814.50
1360.313,817.75
1361.213,835.25
1362.111,838.75
1363.008,819.75
1363.906,810.25
1364.806,841.75
1365.703,780.25
1366.601,837.50
1367.498,827.50
1368.397,804.25
1369.295,809.00
1370.192,767.75
1371.089,793.75
1371.987,825.50
1372.884,796.00
1373.781,761.75
1374.678,811.75
1375.574,802.00
1376.473,829.50
1377.369,793.25
1378.265,795.00
1379.161,758.75
1380.059,802.00
1380.955,768.50
1381.851,797.75
1382.747,792.75
1383.643,778.25
1384.540,782.00
1385.436,744.00
1386.331,773.00
1387.227,764.75
1388.124,764.25
1389.019,768.50
1389.914,813.25
1390.809,776.00
1391.704,767.00
1392.601,795.00
1393.495,728.75
1394.390,802.00
1395.285,749.50
1396.179,815.00
1397.075,742.25
1397.969,717.50
1398.864,801.50
1399.758,742.00
1400.652,737.50
1401.547,712.75
1402.441,786.00
1403.335,739.00
1404.229,740.50
1405.122,732.75
1406.017,741.25
1406.911,771.50
1407.804,728.75
1408.697,679.25
1409.590,761.25
1410.485,739.50
1411.378,737.25
1412.271,762.00
1413.163,695.50
1414.056,728.25
1414.949,708.00
1415.843,697.25
1416.735,711.25
1417.627,694.50
1418.520,716.25
1419.412,744.50
1420.306,717.00
1421.197,696.75
1422.089,701.50
1422.981,738.00
1423.873,763.50
1424.764,676.50
1425.657,693.00
1426.549,712.00
1427.440,695.75
1428.331,731.25
1429.222,690.50
1430.113,682.50
1431.006,748.50
1431.897,662.75
1432.787,709.00
1433.678,677.75
1434.568,710.75
1435.459,652.50
1436.351,728.00
1437.241,643.25
1438.131,734.25
1439.021,748.25
1439.911,697.75
1440.801,663.50
1441.693,702.75
1442.583,711.25
1443.472,709.25
1444.362,684.25
1445.251,692.75
1446.140,672.25
1447.030,658.75
1447.921,661.25
1448.810,672.25
1449.699,658.00
1450.588,674.00
1451.476,651.25
1452.365,656.00
1453.254,643.00
1454.144,701.50
1455.032,683.50
1455.921,650.75
1456.809,675.75
1457.697,625.50
1458.585,653.75
1459.473,673.50
1460.361,671.25
1461.251,677.50
1462.138,672.25
1463.026,658.75
1463.913,685.25
1464.801,649.50
1465.688,632.00
1466.575,642.00
1467.463,657.75
1468.351,673.75
1469.238,698.75
1470.125,656.50
1471.012,639.00
1471.899,641.25
1472.785,610.00
1473.672,624.75
1474.558,616.25
1475.446,676.50
1476.333,660.25
1477.219,635.75
1478.105,632.75
1478.991,662.00
1479.877,622.75
1480.762,663.50
1481.648,636.00
1482.534,570.50
1483.419,649.00
1484.307,649.25
1485.192,652.25
1486.077,639.75
1486.962,639.25
1487.847,631.75
1488.732,605.75
1489.617,625.50
1490.502,666.00
1491.387,626.50
1492.271,629.00
1493.156,633.00
1494.042,625.25
1494.927,593.50
1495.811,616.25
1496.695,608.50
1497.579,631.00
1498.463,602.00
1499.347,630.25
1500.231,619.75
1501.114,599.00
1501.998,570.00
1502.881,639.75
1503.765,613.00
1504.648,641.50
1505.533,640.25
1506.417,585.75
1507.300,596.25
1508.183,621.50
1509.066,590.50
1509.948,605.50
1510.831,594.25
1511.714,603.00
1512.596,583.50
1513.479,620.25
1514.361,586.00
1515.243,571.50
1516.125,630.50
1517.008,583.50
1517.890,581.25
1518.771,572.00
1519.655,634.50
1520.537,606.25
1521.419,548.25
1522.300,627.75
1523.182,570.75
1524.063,544.75
1524.944,606.00
1525.825,622.25
1526.707,617.75
1527.588,583.25
1528.468,557.50
1529.349,602.50
1530.230,616.25
1531.111,579.00
1531.991,607.00
1532.872,569.50
1533.752,563.00
1534.632,599.50
1535.513,544.25
1536.393,559.00
1537.273,549.00
1538.153,535.75
1539.032,585.50
1539.912,573.75
1540.792,564.75
1541.672,586.00
1542.551,572.00
1543.430,560.00
1544.310,597.75
1545.189,541.25
1546.068,585.25
1546.947,566.75
1547.826,572.50
1548.705,567.50
1549.584,555.00
1550.462,581.00
1551.341,579.00
1552.219,537.25
1553.098,559.50
1553.976,586.00
1554.854,580.25
1555.733,577.50
1556.611,613.50
1557.489,574.00
1558.367,538.50
1559.244,575.50
1560.122,546.75
1561.000,554.00
1561.877,587.75
1562.755,539.00
1563.632,605.00
1564.509,579.25
1565.386,584.00
1566.264,542.25
1567.141,564.50
1568.017,573.75
1568.894,589.00
1569.771,530.50
1570.648,581.25
1571.524,542.00
1572.401,561.00
1573.277,558.25
1574.153,529.25
1575.029,567.50
1575.906,520.25
1576.781,484.50
1577.657,542.00
1578.533,543.75
1579.409,536.50
1580.285,544.50
1581.160,532.75
1582.036,550.25
1582.911,552.50
1583.786,564.50
1584.662,522.25
1585.537,544.50
1586.412,558.75
1587.287,521.75
1588.160,519.25
1589.035,574.25
1589.909,508.50
1590.784,578.75
1591.658,510.75
1592.533,585.25
1593.407,543.75
1594.281,537.25
1595.155,528.00
1596.029,514.00
1596.903,457.25
1597.777,565.25
1598.651,560.00
1599.525,498.75
1600.398,544.50
1601.272,532.00
1602.144,566.75
1603.017,544.25
1603.890,508.25
1604.763,538.25
1605.636,527.75
1606.509,570.00
1607.382,538.25
1608.255,535.50
1609.128,531.75
1610.000,540.00
1610.873,531.25
1611.746,546.25
1612.616,538.75
1613.488,535.00
1614.361,532.50
1615.233,531.00
1616.105,534.25
1616.977,525.50
1617.849,508.50
1618.720,539.50
1619.592,526.25
1620.464,555.50
1621.333,508.25
1622.205,535.75
1623.076,533.50
1623.947,537.00
1624.818,520.50
1625.689,550.75
1626.560,536.75
1627.431,517.75
1628.302,509.75
1629.171,494.50
1630.042,530.75
1630.912,540.50
1631.782,524.00
1632.653,489.00
1633.523,543.25
1634.393,516.25
1635.263,529.00
1636.131,509.25
1637.001,563.75
1637.871,522.25
1638.741,513.25
1639.611,501.75
1640.480,503.25
1641.350,516.50
1642.219,490.25
1643.087,512.00
1643.956,506.75
1644.825,507.25
1645.694,509.50
1646.563,520.25
1647.432,508.50
1648.299,476.75
1649.167,506.00
1650.036,526.75
1650.904,478.75
1651.773,472.25
1652.641,513.75
1653.509,493.25
1654.376,503.25
1655.244,514.00
1656.112,471.50
1656.980,485.25
1657.847,488.25
1658.715,500.75
1659.581,491.00
1660.448,451.50
1661.316,521.00
1662.183,499.25
1663.051,508.00
1663.918,494.25
1664.783,509.25
1665.650,505.25
1666.517,509.00
1667.384,451.25
1668.251,478.00
1669.115,501.00
1669.982,495.50
1670.849,516.00
1671.715,476.75
1672.581,508.25
1673.446,502.75
1674.312,491.50
1675.178,471.50
1676.044,496.00
1676.910,489.50
1677.774,485.00
1678.639,518.75
1679.505,491.75
1680.370,506.25
1681.236,500.75
1682.099,460.75
1682.965,456.25
1683.830,507.50
1684.695,466.75
1685.560,510.50
1686.423,510.75
1687.288,504.00
1688.153,468.50
1689.017,499.00
1689.880,470.50
1690.745,494.00
1691.609,490.50
1692.473,487.50
1693.338,510.25
1694.200,493.75
1695.064,531.75
1695.928,500.75
1696.792,470.25
1697.654,475.25
1698.517,471.25
1699.381,518.75
1700.245,503.50
1701.106,464.50
1701.969,494.50
1702.833,489.25
1703.696,407.25
1704.557,511.75
1705.420,485.75
1706.283,489.50
1707.146,480.75
1708.007,486.00
1708.870,506.00
1709.732,493.75
1710.595,469.50
1711.455,467.00
1712.318,481.25
1713.180,503.50
1714.040,453.00
1714.902,501.00
1715.764,478.75
1716.626,488.75
1717.486,454.75
1718.348,512.00
1719.209,482.50
1720.071,473.50
1720.930,491.25
1721.792,512.00
1722.653,476.00
1723.512,503.75
1724.374,451.25
1725.234,487.25
1726.095,426.50
1726.954,492.50
1727.815,430.75
1728.676,467.75
1729.535,484.50
1730.395,474.25
1731.256,505.50
1732.114,487.00
1732.974,457.25
1733.834,490.75
1734.693,480.00
1735.553,467.75
1736.413,428.75
1737.272,458.25
1738.130,474.00
1738.990,483.00
1739.849,481.75
1740.707,456.00
1741.566,489.50
1742.426,473.50
1743.283,475.50
1744.142,518.50
1745.001,455.25
1745.858,459.75
1746.717,460.75
1747.576,467.75
1748.433,453.75
1749.292,464.00
1750.150,461.00
1751.007,512.25
1751.865,481.75
1752.723,443.00
1753.579,472.25
1754.438,470.50
1755.296,471.25
1756.152,473.25
1757.010,452.25
1757.865,473.00
1758.723,497.50
1759.581,438.75
1760.436,481.00
1761.294,431.75
1762.151,474.75
1763.006,512.50
1763.864,474.25
1764.721,461.25
1765.576,494.00
1766.433,489.50
1767.288,398.00
1768.144,488.75
1769.001,442.75
1769.856,444.25
1770.712,460.25
1771.568,486.75
1772.423,477.50
1773.279,494.50
1774.133,461.25
1774.989,435.25
1775.845,449.00
1776.699,450.50
1777.555,412.50
1778.409,493.25
1779.265,472.50
1780.120,461.50
1780.974,422.50
1781.829,502.50
1782.682,427.25
1783.538,445.75
1784.393,473.00
1785.246,458.50
1786.101,487.50
1786.954,476.00
1787.808,452.00
1788.661,448.50
1789.516,432.75
1790.370,406.25
1791.223,469.75
1792.077,440.50
1792.930,419.00
1793.784,468.75
1794.636,424.00
1795.490,412.75
1796.344,470.50
1797.196,419.00
1798.049,446.75
1798.901,420.50
1799.755,459.25
1800.606,466.25
1801.460,429.50
1802.311,470.75
1803.165,440.25
1804.018,468.25
1804.869,418.00
1805.722,430.25
1806.573,483.25
1807.426,471.00
1808.276,463.75
1809.129,431.25
1809.980,452.00
1810.832,455.00
1811.683,468.50
1812.535,451.75
1813.385,442.50
1814.237,452.50
1815.089,420.50
1815.940,477.50
1816.791,450.75
1817.641,442.50
1818.493,453.50
1819.343,459.50
1820.194,452.50
1821.044,421.75
1821.895,468.25
1822.745,459.50
1823.596,475.50
1824.445,419.50
1825.296,413.75
1826.145,438.50
1826.996,464.25
1827.845,469.50
1828.695,432.50
1829.544,456.00
1830.395,452.25
1831.243,438.00
1832.094,437.00
1832.942,455.75
1833.792,481.75
1834.640,454.50
1835.490,438.75
1836.338,413.25
1837.186,405.00
1838.036,435.50
1838.884,406.25
1839.733,480.50
1840.581,429.00
1841.430,443.25
1842.278,492.75
1843.127,429.25
1843.974,437.25
1844.823,443.75
1845.671,413.75
1846.519,428.00
1847.366,438.75
1848.213,474.00
1849.062,466.50
1849.909,457.25
1850.757,487.50
1851.604,402.25
1852.452,433.25
1853.298,493.50
1854.146,421.00
1854.993,436.00
1855.839,436.00
1856.687,495.25
1857.532,415.75
1858.380,438.50
1859.226,443.25
1860.073,424.50
1860.919,458.00
1861.765,442.75
1862.612,438.25
1863.457,405.75
1864.304,419.50
1865.150,391.50
1865.995,444.00
1866.842,429.25
1867.686,441.50
1868.533,464.75
1869.378,402.25
1870.223,441.00
1871.069,425.00
1871.914,417.75
1872.760,462.75
1873.604,409.25
1874.448,417.75
1875.294,491.25
1876.139,439.75
1876.984,446.75
1877.828,423.50
1878.672,460.50
1879.518,449.75
1880.361,449.25
1881.205,400.00
1882.050,418.75
1882.894,404.50
1883.739,398.25
1884.582,476.00
1885.425,396.50
1886.270,481.75
1887.113,441.50
1887.956,439.25
1888.801,456.25
1889.644,455.25
1890.486,465.50
1891.331,420.75
1892.173,444.75
1893.017,395.75
1893.860,409.00
1894.702,435.50
1895.546,416.00
1896.388,391.75
1897.230,397.25
1898.074,417.75
1898.916,415.75
1899.757,399.25
1900.601,482.00
1901.443,378.00
1902.284,461.75
1903.125,452.25
1903.969,384.00
1904.810,412.50
1905.651,405.75
1906.494,454.00
1907.335,459.75
1908.176,430.75
1909.018,407.25
1909.859,422.00
1910.700,435.50
1911.542,400.25
1912.383,397.25
1913.223,438.75
1914.064,410.50
1914.906,418.75
1915.746,417.25
1916.586,455.00
1917.428,408.00
1918.268,410.00
1919.107,423.25
1919.947,422.75
1920.789,428.25
1921.628,457.25
1922.468,409.25
1923.309,423.00
1924.148,445.00
1924.988,366.25
1925.827,431.00
1926.667,422.75
1927.507,397.25
1928.345,435.25
1929.184,446.00
1930.025,437.50
1930.864,417.25
1931.702,401.50
1932.541,418.25
1933.381,386.50
1934.219,437.25
1935.057,449.25
1935.896,457.25
1936.735,427.00
1937.573,382.25
1938.411,413.75
1939.249,404.00
1940.089,408.00
1940.927,426.50
1941.764,470.25
1942.602,462.75
1943.439,417.75
1944.278,417.75
1945.115,415.75
1945.953,417.50
1946.790,442.75
1947.628,392.00
1948.465,424.75
1949.302,457.00
1950.139,396.50
1950.976,423.75
1951.814,400.75
1952.651,418.00
1953.487,447.50
1954.323,440.25
1955.160,430.75
1955.998,412.25
1956.834,427.00
1957.670,417.25
1958.506,411.50
1959.342,384.75
1960.177,420.75
1961.015,378.50
1961.850,441.75
1962.686,410.50
1963.521,411.25
1964.357,421.00
1965.192,450.75
1966.029,404.50
1966.864,421.50
1967.699,475.00
1968.534,462.50
1969.369,424.25
1970.204,394.50
1971.040,390.50
1971.875,399.00
1972.709,433.25
1973.544,376.00
1974.378,389.50
1975.212,407.50
1976.047,456.25
1976.882,401.75
1977.716,391.50
1978.550,365.50
1979.384,416.75
1980.218,420.25
1981.052,416.25
1981.885,403.25
1982.719,420.00
1983.554,443.75
1984.388,443.50
1985.221,407.00
1986.054,411.00
1986.887,404.00
1987.720,397.50
1988.553,410.00
1989.386,403.50
1990.219,381.25
1991.053,424.50
1991.886,370.50
1992.719,375.75
1993.551,417.75
1994.383,462.00
1995.216,416.75
1996.048,434.25
1996.880,389.25
1997.712,367.00
1998.544,413.75
1999.376,366.75
2000.208,415.75
2001.040,351.50
2001.873,423.50
2002.705,410.50
2003.536,400.50
2004.367,394.25
2005.199,373.00
2006.030,434.50
2006.861,416.75
2007.692,379.00
2008.523,401.00
2009.354,385.75
2010.185,382.50
2011.016,403.75
2011.846,342.75
2012.677,451.50
2013.507,454.00
2014.338,422.50
2015.168,396.50
2015.999,395.75
2016.829,401.25
2017.659,379.25
2018.489,402.25
2019.319,364.00
2020.149,401.00
2020.980,425.00
2021.810,399.50
2022.639,433.50
2023.469,392.50
2024.298,394.00
2025.128,465.25
2025.957,401.50
2026.786,424.50
2027.615,413.50
2028.444,389.50
2029.273,399.50
2030.102,425.25
2030.931,431.50
2031.758,426.75
2032.586,403.50
2033.415,418.00
2034.243,395.75
2035.072,439.00
2035.900,412.50
2036.728,413.00
2037.556,448.75
2038.385,436.25
2039.213,424.25
2040.040,436.25
2040.868,402.75
2041.696,381.75
2042.524,409.25
2043.351,382.75
2044.179,398.75
2045.006,384.25
2045.006,384.25

Max Intensity Wave.,217.871
Max Intensity Data,5817.00
Min Intensity Wave.,2011.846
Min Intensity Data,342.75
FWHM Wave.,397.940
FWHM Value,5.02
Pressure Wave.,686.547
Pressure Value [GPa],-20.01282
G/D Ratio,0.59796
G/D Gband Wave.,1556.590
G/D Gband Intensity,613.52
G/D Dband Wave.,1303.908
G/D Dband Intensity,1026.03

<< BACKGROUND SPECTRUM >>
Wave[dcm-1],No173
146.591,2277.00
147.626,2119.00
148.664,2053.00
149.699,2552.00
150.737,2279.00
151.772,2426.00
152.809,2411.00
153.846,2318.00
154.881,2417.00
155.918,1967.00
156.953,2260.00
157.989,2634.00
159.026,2465.00
160.060,2666.00
161.096,2867.00
162.130,2532.00
163.167,2572.00
164.200,2475.00
165.236,2681.00
166.272,2735.00
167.305,2268.00
168.341,2569.00
169.374,2858.00
170.409,2843.00
171.445,2711.00
172.477,2532.00
173.512,2435.00
174.545,2717.00
175.580,2855.00
176.614,3067.00
177.647,2856.00
178.681,3067.00
179.713,3358.00
180.747,2858.00
181.781,2771.00
182.813,3021.00
183.847,3111.00
184.878,2733.00
185.912,3028.00
186.945,3111.00
187.976,3066.00
189.010,2751.00
190.043,2855.00
191.073,2924.00
192.106,2751.00
193.137,3216.00
194.170,2590.00
195.202,2898.00
196.232,2724.00
197.265,3014.00
198.297,3093.00
199.327,2780.00
200.359,2996.00
201.388,3329.00
202.420,2924.00
203.452,3151.00
204.481,2733.00
205.512,3321.00
206.544,3110.00
207.573,3065.00
208.604,3427.00
209.635,3526.00
210.663,3011.00
211.694,2988.00
212.725,2842.00
213.753,2830.00
214.783,3420.00
215.813,3266.00
216.841,3041.00
217.871,3180.00
218.899,2945.00
219.929,3136.00
220.959,2929.00
221.986,3166.00
223.016,2781.00
224.045,3167.00
225.072,3105.00
226.101,3190.00
227.130,3253.00
228.157,2862.00
229.185,2362.00
230.214,3207.00
231.241,2824.00
232.269,2459.00
233.297,2685.00
234.323,3240.00
235.351,2842.00
236.379,3073.00
237.407,2819.00
238.433,2963.00
239.460,3080.00
240.488,3144.00
241.513,3238.00
242.540,3130.00
243.568,3247.00
244.592,3248.00
245.619,3201.00
246.646,2961.00
247.671,2989.00
248.697,2811.00
249.724,3041.00
250.748,3039.00
251.774,3022.00
252.801,3331.00
253.827,3174.00
254.850,3127.00
255.876,2683.00
256.902,3165.00
257.925,3011.00
258.951,2785.00
259.976,2798.00
260.999,3138.00
262.024,2811.00
263.049,3662.00
264.074,3146.00
265.097,3008.00
266.122,3097.00
267.146,3047.00
268.168,3245.00
269.193,2877.00
270.217,3260.00
271.241,2723.00
272.263,2879.00
273.287,3202.00
274.311,2807.00
275.332,3289.00
276.356,2822.00
277.379,3110.00
278.402,3117.00
279.424,2951.00
280.447,2898.00
281.470,2753.00
282.492,3093.00
283.513,2922.00
284.536,3183.00
285.558,3148.00
286.581,3151.00
287.601,2879.00
288.623,2841.00
289.645,3086.00
290.665,3160.00
291.687,3171.00
292.709,3146.00
293.730,3462.00
294.750,2917.00
295.771,2777.00
296.792,3058.00
297.813,2957.00
298.832,3056.00
299.853,2742.00
300.874,3031.00
301.895,3001.00
302.913,3019.00
303.934,3273.00
304.954,3077.00
305.975,3190.00
306.993,2751.00
308.013,3119.00
309.033,3027.00
310.052,2959.00
311.072,2904.00
312.090,3075.00
313.109,3315.00
314.129,3442.00
315.148,2978.00
316.165,3052.00
317.184,3246.00
318.203,2775.00
319.222,2785.00
320.238,3164.00
321.257,2841.00
322.275,2704.00
323.294,3010.00
324.312,3170.00
325.328,3301.00
326.346,3354.00
327.364,3276.00
328.382,3209.00
329.397,3152.00
330.415,3270.00
331.432,3228.00
332.450,3248.00
333.467,3490.00
334.482,2604.00
335.499,3380.00
336.516,2913.00
337.533,2576.00
338.547,2868.00
339.564,2864.00
340.580,3085.00
341.597,2979.00
342.613,3497.00
343.627,3013.00
344.643,3057.00
345.659,3154.00
346.675,3015.00
347.690,2918.00
348.704,3087.00
349.719,2870.00
350.735,2812.00
351.750,3210.00
352.765,2997.00
353.778,3030.00
354.793,3161.00
355.808,2884.00
356.822,3157.00
357.837,2670.00
358.851,3285.00
359.864,2998.00
360.878,2745.00
361.892,2959.00
362.906,3205.00
363.920,2602.00
364.932,3152.00
365.945,3095.00
366.959,3030.00
367.972,2990.00
368.986,2745.00
369.999,3416.00
371.010,2879.00
372.023,3393.00
373.036,2997.00
374.049,3415.00
375.061,3112.00
376.072,3010.00
377.084,2914.00
378.097,2670.00
379.109,3179.00
380.121,3012.00
381.133,2725.00
382.143,3117.00
383.155,2729.00
384.166,2927.00
385.178,3148.00
386.189,3215.00
387.201,2695.00
388.212,2994.00
389.221,2962.00
390.232,3012.00
391.243,2926.00
392.254,3047.00
393.264,2829.00
394.275,3236.00
395.283,3252.00
396.294,3661.00
397.304,3490.00
398.314,3150.00
399.324,3021.00
400.334,2661.00
401.344,3163.00
402.351,2664.00
403.361,3216.00
404.370,2995.00
405.380,2927.00
406.389,3378.00
407.398,3129.00
408.407,3073.00
409.414,3170.00
410.423,3362.00
411.431,2781.00
412.440,2670.00
413.448,3315.00
414.457,2860.00
415.465,2865.00
416.471,2914.00
417.479,3060.00
418.487,2823.00
419.495,3329.00
420.503,3135.00
421.510,2645.00
422.518,3120.00
423.525,3186.00
424.530,3431.00
425.537,2914.00
426.544,3238.00
427.551,2924.00
428.558,3649.00
429.565,3454.00
430.571,2896.00
431.578,2924.00
432.582,2880.00
433.588,2990.00
434.595,2625.00
435.601,3353.00
436.607,3272.00
437.612,2784.00
438.618,3333.00
439.624,2955.00
440.627,2946.00
441.633,3152.00
442.638,3572.00
443.643,3110.00
444.648,3038.00
445.653,3200.00
446.658,2908.00
447.663,3037.00
448.667,2905.00
449.672,2904.00
450.674,2992.00
451.678,2740.00
452.682,2931.00
453.687,2886.00
454.690,3649.00
455.694,3228.00
456.698,2593.00
457.702,2682.00
458.705,2817.00
459.709,2811.00
460.710,2920.00
461.713,3058.00
462.716,3032.00
463.719,3030.00
464.722,3226.00
465.725,3001.00
466.727,2861.00
467.730,3029.00
468.732,2800.00
469.735,3272.00
470.737,2954.00
471.737,2911.00
472.739,2882.00
473.741,2824.00
474.742,3104.00
475.744,3101.00
476.746,3035.00
477.747,2996.00
478.748,3188.00
479.750,2981.00
480.751,2979.00
481.752,3786.00
482.753,3120.00
483.751,3541.00
484.752,2678.00
485.753,2991.00
486.753,2864.00
487.753,2989.00
488.754,3454.00
489.754,2761.00
490.754,3323.00
491.754,3124.00
492.754,2747.00
493.753,3012.00
494.753,2947.00
495.752,3370.00
496.752,3040.00
497.749,3002.00
498.748,2913.00
499.747,3399.00
500.746,3076.00
501.745,2777.00
502.744,2756.00
503.742,3307.00
504.741,2887.00
505.739,2520.00
506.737,2874.00
507.735,3176.00
508.734,3374.00
509.732,3159.00
510.729,3360.00
511.727,2881.00
512.725,2929.00
513.720,2821.00
514.718,3291.00
515.715,2705.00
516.712,2678.00
517.709,3063.00
518.706,2950.00
519.703,3062.00
520.700,3202.00
521.696,3377.00
522.693,2935.00
523.689,2864.00
524.686,3189.00
525.682,2780.00
526.678,3454.00
527.674,2922.00
528.670,2608.00
529.666,3518.00
530.661,3473.00
531.657,3137.00
532.652,3173.00
533.648,3020.00
534.641,3261.00
535.636,3078.00
536.631,3150.00
537.626,3151.00
538.621,2756.00
539.616,2590.00
540.610,2577.00
541.605,3037.00
542.599,3034.00
543.593,3024.00
544.587,3920.00
545.581,2867.00
546.575,3022.00
547.569,3060.00
548.563,2728.00
549.557,2708.00
550.550,2771.00
551.543,2729.00
552.537,3149.00
553.530,2752.00
554.523,2796.00
555.516,3187.00
556.509,2962.00
557.502,2654.00
558.494,3208.00
559.487,2964.00
560.479,3211.00
561.472,3241.00
562.464,3144.00
563.456,3308.00
564.448,2984.00
565.440,3030.00
566.432,3434.00
567.423,2893.00
568.415,2897.00
569.404,3177.00
570.396,2809.00
571.387,3140.00
572.378,3046.00
573.369,3986.00
574.360,3663.00
575.351,2998.00
576.341,2860.00
577.332,2869.00
578.323,2697.00
579.313,2923.00
580.303,3269.00
581.293,3184.00
582.283,2954.00
583.273,3138.00
584.263,3003.00
585.253,3150.00
586.243,3176.00
587.232,2680.00
588.222,2969.00
589.211,3207.00
590.200,3029.00
591.189,2960.00
592.178,2985.00
593.167,3391.00
594.156,3274.00
595.145,2879.00
596.133,3436.00
597.122,3131.00
598.110,3222.00
599.098,3100.00
600.086,3026.00
601.074,3201.00
602.062,2862.00
603.050,2736.00
604.038,3121.00
605.025,2816.00
606.013,3227.00
607.000,3420.00
607.987,3029.00
608.975,3087.00
609.962,2793.00
610.949,3190.00
611.936,3240.00
612.922,3231.00
613.909,2718.00
614.895,3366.00
615.882,2848.00
616.868,3012.00
617.854,2734.00
618.841,3045.00
619.826,3132.00
620.812,3009.00
621.798,2817.00
622.784,3185.00
623.769,3102.00
624.755,2736.00
625.740,3099.00
626.725,2707.00
627.711,2851.00
628.698,3105.00
629.683,2788.00
630.667,3171.00
631.652,2774.00
632.637,2986.00
633.621,3191.00
634.606,2920.00
635.590,3131.00
636.574,2948.00
637.558,3072.00
638.542,3022.00
639.526,2881.00
640.510,2643.00
641.493,3069.00
642.477,2992.00
643.460,2729.00
644.444,3226.00
645.427,3270.00
646.410,2667.00
647.393,2984.00
648.376,3091.00
649.359,2896.00
650.341,3112.00
651.324,3087.00
652.307,3072.00
653.289,2962.00
654.271,2888.00
655.253,2888.00
656.235,3163.00
657.217,3257.00
658.199,2624.00
659.181,2748.00
660.163,3025.00
661.144,2883.00
662.126,2883.00
663.107,2804.00
664.088,4697.00
665.069,3199.00
666.050,2806.00
667.033,2730.00
668.014,3061.00
668.995,2615.00
669.975,3007.00
670.956,3013.00
671.936,3148.00
672.916,2975.00
673.896,3138.00
674.876,2907.00
675.856,2855.00
676.836,2741.00
677.816,2330.00
678.795,2856.00
679.775,2698.00
680.754,3038.00
681.734,3126.00
682.713,3185.00
683.692,2765.00
684.671,2632.00
685.650,2757.00
686.629,2845.00
687.607,2751.00
688.586,2803.00
689.564,2861.00
690.543,3262.00
691.523,2406.00
692.501,2855.00
693.479,2946.00
694.457,2778.00
695.435,2877.00
696.413,2637.00
697.390,2526.00
698.368,2708.00
699.345,3069.00
700.322,2962.00
701.300,3086.00
702.277,3064.00
703.254,3269.00
704.231,2559.00
705.207,2933.00
706.184,2776.00
707.161,2677.00
708.137,2867.00
709.113,2827.00
710.090,2831.00
711.068,2609.00
712.044,2615.00
713.020,2895.00
713.996,2619.00
714.971,2854.00
715.947,2826.00
716.922,2875.00
717.898,2731.00
718.873,2895.00
719.848,2705.00
720.823,2713.00
721.798,2934.00
722.773,2770.00
723.748,2531.00
724.723,3019.00
725.697,2903.00
726.672,2752.00
727.646,2525.00
728.622,3023.00
729.596,2634.00
730.570,2766.00
731.544,3045.00
732.518,3270.00
733.492,2850.00
734.466,2857.00
735.439,3040.00
736.413,3074.00
737.386,2449.00
738.359,2432.00
739.332,2523.00
740.305,2852.00
741.278,3344.00
742.251,2947.00
743.224,2732.00
744.196,2546.00
745.171,3165.00
746.143,3037.00
747.115,2767.00
748.087,2721.00
749.059,3093.00
750.031,2895.00
751.003,3718.00
751.975,3299.00
752.947,2699.00
753.918,3111.00
754.890,2590.00
755.861,2745.00
756.832,3070.00
757.803,2819.00
758.774,2863.00
759.747,2601.00
760.718,3206.00
761.689,2769.00
762.659,2638.00
763.630,3174.00
764.600,2538.00
765.570,3061.00
766.540,3086.00
767.510,2937.00
768.480,3012.00
769.450,2692.00
770.420,2847.00
771.390,2704.00
772.359,2766.00
773.329,2685.00
774.300,2520.00
775.269,2743.00
776.238,3005.00
777.207,3132.00
778.176,2487.00
779.145,2800.00
780.114,2694.00
781.083,2550.00
782.051,2772.00
783.019,2686.00
783.988,3052.00
784.956,2845.00
785.924,2996.00
786.894,2905.00
787.862,2720.00
788.830,3129.00
789.797,2667.00
790.765,2605.00
791.732,2783.00
792.700,2656.00
793.667,2606.00
794.634,2815.00
795.601,2767.00
796.568,2811.00
797.535,2845.00
798.502,3452.00
799.468,2915.00
800.437,2391.00
801.403,2667.00
802.370,3311.00
803.336,3000.00
804.302,2850.00
805.268,2462.00
806.234,2575.00
807.200,2735.00
808.166,2773.00
809.131,2565.00
810.097,2952.00
811.062,3659.00
812.027,3054.00
812.994,2626.00
813.960,2639.00
814.925,2944.00
815.889,2522.00
816.854,3008.00
817.819,2669.00
818.783,2742.00
819.748,3104.00
820.712,2713.00
821.677,2652.00
822.641,2687.00
823.605,2741.00
824.571,3168.00
825.534,2783.00
826.498,2673.00
827.462,2795.00
828.425,2650.00
829.389,3092.00
830.352,2803.00
831.315,2922.00
832.279,2498.00
833.242,2769.00
834.204,2693.00
835.167,2626.00
836.132,3072.00
837.095,2540.00
838.057,2686.00
839.020,2811.00
839.982,2865.00
840.944,2689.00
841.906,2625.00
842.868,2988.00
843.830,2558.00
844.792,3067.00
845.753,2675.00
846.715,2422.00
847.679,2605.00
848.640,2652.00
849.601,2694.00
850.562,3247.00
851.523,2712.00
852.484,2479.00
853.445,3012.00
854.406,2732.00
855.367,2710.00
856.327,3049.00
857.288,2478.00
858.248,2676.00
859.210,2696.00
860.170,2541.00
861.130,3023.00
862.090,2433.00
863.050,2605.00
864.010,2697.00
864.969,2907.00
865.929,2627.00
866.888,2470.00
867.848,2826.00
868.807,2623.00
869.766,2874.00
870.727,2739.00
871.686,3005.00
872.645,2965.00
873.604,3338.00
874.562,2757.00
875.521,2786.00
876.479,3366.00
877.437,2602.00
878.396,2609.00
879.354,3155.00
880.312,2632.00
881.270,2632.00
882.229,3128.00
883.187,2623.00
884.145,2650.00
885.102,2928.00
886.059,2833.00
887.017,2864.00
887.974,2974.00
888.931,3085.00
889.888,2540.00
890.845,2431.00
891.802,2344.00
892.758,2652.00
893.717,2430.00
894.673,2560.00
895.630,2622.00
896.586,2896.00
897.542,2669.00
898.498,2520.00
899.454,2849.00
900.410,2672.00
901.366,2665.00
902.321,3775.00
903.277,2676.00
904.232,2754.00
905.189,2472.00
906.145,2651.00
907.100,2198.00
908.055,2721.00
909.010,2944.00
909.965,2348.00
910.919,2742.00
911.874,2581.00
912.828,2786.00
913.783,2785.00
914.737,2361.00
915.693,2793.00
916.648,2882.00
917.602,2952.00
918.555,2778.00
919.509,2855.00
920.463,2723.00
921.417,2756.00
922.370,2552.00
923.324,2669.00
924.277,2699.00
925.230,2778.00
926.183,2405.00
927.138,2708.00
928.091,2955.00
929.044,2842.00
929.996,2640.00
930.949,2626.00
931.902,2868.00
932.854,2835.00
933.806,2585.00
934.758,2989.00
935.711,2977.00
936.663,2808.00
937.614,2791.00
938.568,2743.00
939.520,2374.00
940.471,2718.00
941.423,2776.00
942.374,2903.00
943.326,2770.00
944.277,2612.00
945.228,2840.00
946.179,2685.00
947.130,3042.00
948.080,2640.00
949.031,2588.00
949.984,2692.00
950.934,2743.00
951.884,2472.00
952.835,2733.00
953.785,2740.00
954.735,2621.00
955.685,2386.00
956.635,2624.00
957.585,2655.00
958.534,2632.00
959.484,2750.00
960.433,2568.00
961.383,2448.00
962.334,2982.00
963.283,2801.00
964.232,2865.00
965.181,2741.00
966.130,2773.00
967.079,2644.00
968.027,2742.00
968.976,2710.00
969.924,2610.00
970.873,2799.00
971.821,2753.00
972.769,2937.00
973.719,2836.00
974.667,2497.00
975.615,2706.00
976.562,2726.00
977.510,2430.00
978.458,2620.00
979.405,2835.00
980.352,2733.00
981.300,2940.00
982.247,2768.00
983.194,2560.00
984.141,2615.00
985.088,2751.00
986.036,2769.00
986.983,3009.00
987.930,3129.00
988.876,2347.00
989.822,2975.00
990.769,2566.00
991.715,2618.00
992.661,2454.00
993.607,2795.00
994.553,3282.00
995.498,2608.00
996.444,2289.00
997.389,2761.00
998.337,2490.00
999.282,2852.00
1000.227,2648.00
1001.173,2687.00
1002.118,2463.00
1003.062,2896.00
1004.007,2685.00
1004.952,2996.00
1005.897,2915.00
1006.841,2714.00
1007.786,2496.00
1008.730,2439.00
1009.674,3144.00
1010.618,2650.00
1011.564,2525.00
1012.508,2400.00
1013.452,2914.00
1014.396,2720.00
1015.339,2617.00
1016.283,2711.00
1017.226,2748.00
1018.170,2704.00
1019.113,2904.00
1020.056,2686.00
1020.999,2754.00
1021.942,2617.00
1022.885,2829.00
1023.828,3001.00
1024.770,2505.00
1025.715,2741.00
1026.657,2678.00
1027.600,2763.00
1028.542,2886.00
1029.484,2746.00
1030.426,2830.00
1031.368,2777.00
1032.310,2594.00
1033.251,2533.00
1034.193,2720.00
1035.135,2500.00
1036.076,2618.00
1037.017,2533.00
1037.959,2827.00
1038.900,2784.00
1039.843,2793.00
1040.784,2756.00
1041.725,2795.00
1042.665,2638.00
1043.606,2793.00
1044.547,2766.00
1045.487,2404.00
1046.427,2667.00
1047.368,2752.00
1048.308,2210.00
1049.248,2521.00
1050.188,2697.00
1051.128,2626.00
1052.067,2696.00
1053.007,2364.00
1053.947,2371.00
1054.886,2574.00
1055.827,2497.00
1056.766,2941.00
1057.706,2477.00
1058.645,2658.00
1059.584,2732.00
1060.522,2947.00
1061.461,2422.00
1062.400,2471.00
1063.338,2625.00
1064.277,2489.00
1065.215,2531.00
1066.154,2376.00
1067.092,2591.00
1068.030,2622.00
1068.968,2867.00
1069.906,2987.00
1070.843,2937.00
1071.781,2750.00
1072.720,2797.00
1073.658,2815.00
1074.595,2615.00
1075.533,2538.00
1076.470,2616.00
1077.407,2991.00
1078.344,2747.00
1079.281,2794.00
1080.217,2337.00
1081.154,2633.00
1082.091,2723.00
1083.027,2466.00
1083.964,2913.00
1084.900,2582.00
1085.836,2646.00
1086.772,2891.00
1087.708,2480.00
1088.644,2790.00
1089.580,2664.00
1090.515,2740.00
1091.451,2631.00
1092.388,2684.00
1093.324,2452.00
1094.259,3217.00
1095.194,2717.00
1096.129,2590.00
1097.064,2557.00
1097.999,2793.00
1098.934,2539.00
1099.869,2518.00
1100.803,2713.00
1101.738,2715.00
1102.672,2387.00
1103.607,2803.00
1104.541,2565.00
1105.475,2539.00
1106.409,2426.00
1107.343,2631.00
1108.277,2438.00
1109.210,2715.00
1110.144,2683.00
1111.078,2685.00
1112.011,2454.00
1112.944,2756.00
1113.878,2714.00
1114.811,2166.00
1115.744,2587.00
1116.678,2321.00
1117.611,2544.00
1118.544,2629.00
1119.477,2744.00
1120.409,2586.00
1121.342,3123.00
1122.274,2772.00
1123.206,2975.00
1124.138,2645.00
1125.070,2992.00
1126.002,2811.00
1126.934,2261.00
1127.866,2546.00
1128.798,2347.00
1129.729,2332.00
1130.661,2642.00
1131.592,2554.00
1132.523,2736.00
1133.454,2750.00
1134.385,2316.00
1135.317,2629.00
1136.247,2605.00
1137.178,2857.00
1138.109,2404.00
1139.039,2953.00
1139.970,2847.00
1140.900,2567.00
1141.831,2351.00
1142.761,2232.00
1143.691,2742.00
1144.621,2599.00
1145.551,2675.00
1146.480,2714.00
1147.410,2865.00
1148.340,2276.00
1149.269,2382.00
1150.199,2619.00
1151.128,3041.00
1152.057,2426.00
1152.979,2576.00
1153.898,2600.00
1154.819,2723.00
1155.739,2615.00
1156.658,2561.00
1157.579,2668.00
1158.498,2653.00
1159.419,2195.00
1160.338,2638.00
1161.256,2702.00
1162.177,2469.00
1163.095,2610.00
1164.016,2674.00
1164.934,2893.00
1165.852,2797.00
1166.772,2631.00
1167.690,2673.00
1168.610,2717.00
1169.528,2650.00
1170.446,2239.00
1171.365,2550.00
1172.283,2515.00
1173.202,2623.00
1174.120,2664.00
1175.037,2490.00
1175.956,2484.00
1176.873,2519.00
1177.792,2530.00
1178.709,3144.00
1179.626,2521.00
1180.544,2833.00
1181.461,2526.00
1182.379,2737.00
1183.296,2656.00
1184.212,2271.00
1185.130,2471.00
1186.046,2965.00
1186.962,2654.00
1187.880,2865.00
1188.796,2667.00
1189.714,2430.00
1190.629,2739.00
1191.545,2677.00
1192.462,2563.00
1193.378,2615.00
1194.295,2360.00
1195.210,2663.00
1196.125,2791.00
1197.042,2699.00
1197.957,2654.00
1198.872,2516.00
1199.788,2543.00
1200.703,2931.00
1201.619,2651.00
1202.534,2509.00
1203.448,2693.00
1204.364,2586.00
1205.278,2291.00
1206.192,2670.00
1207.108,3138.00
1208.022,2975.00
1208.938,2492.00
1209.851,2799.00
1210.765,2841.00
1211.680,2528.00
1212.594,2430.00
1213.507,2549.00
1214.422,3058.00
1215.335,2714.00
1216.248,2569.00
1217.163,2637.00
1218.076,3246.00
1218.990,2733.00
1219.903,2421.00
1220.816,2463.00
1221.730,2602.00
1222.642,2485.00
1223.554,2559.00
1224.469,2710.00
1225.380,2551.00
1226.292,2301.00
1227.206,2767.00
1228.118,2915.00
1229.032,2272.00
1229.943,2522.00
1230.855,2563.00
1231.768,2387.00
1232.679,2718.00
1233.590,2601.00
1234.503,2844.00
1235.414,2447.00
1236.325,2531.00
1237.238,2681.00
1238.149,2718.00
1239.059,2437.00
1239.972,2843.00
1240.882,2447.00
1241.793,2735.00
1242.705,2985.00
1243.615,2575.00
1244.525,2722.00
1245.437,2215.00
1246.347,2651.00
1247.259,2815.00
1248.168,3043.00
1249.078,2857.00
1249.989,2911.00
1250.899,2455.00
1251.808,2534.00
1252.719,2534.00
1253.628,2463.00
1254.537,2974.00
1255.448,2483.00
1256.357,2437.00
1257.266,2625.00
1258.176,2375.00
1259.085,2357.00
1259.993,2459.00
1260.904,2446.00
1261.812,2451.00
1262.720,3167.00
1263.630,2842.00
1264.538,2495.00
1265.446,2725.00
1266.356,2614.00
1267.263,2894.00
1268.171,2465.00
1269.080,2710.00
1269.988,2810.00
1270.895,2545.00
1271.804,2572.00
1272.711,2794.00
1273.619,2785.00
1274.527,2421.00
1275.434,2727.00
1276.341,2425.00
1277.248,2644.00
1278.156,2863.00
1279.063,2503.00
1279.969,2730.00
1280.877,3535.00
1281.783,2837.00
1282.690,2718.00
1283.598,2594.00
1284.503,2453.00
1285.409,2454.00
1286.317,3031.00
1287.223,3005.00
1288.128,2708.00
1289.036,2514.00
1289.941,2576.00
1290.846,2638.00
1291.751,2451.00
1292.658,2597.00
1293.563,3052.00
1294.468,2632.00
1295.375,2764.00
1296.280,2854.00
1297.184,3378.00
1298.091,2708.00
1298.995,2804.00
1299.900,3013.00
1300.806,2552.00
1301.710,2368.00
1302.614,2216.00
1303.518,2860.00
1304.424,2550.00
1305.327,2793.00
1306.231,2609.00
1307.137,2768.00
1308.040,2688.00
1308.943,2641.00
1309.847,2838.00
1310.752,2831.00
1311.655,2300.00
1312.558,2425.00
1313.463,2554.00
1314.366,2544.00
1315.269,2671.00
1316.171,2597.00
1317.076,2511.00
1317.978,2456.00
1318.881,2244.00
1319.785,2498.00
1320.687,2483.00
1321.589,2219.00
1322.491,2476.00
1323.395,2724.00
1324.297,3196.00
1325.198,2727.00
1326.102,2427.00
1327.004,2445.00
1327.905,3029.00
1328.806,2581.00
1329.709,2702.00
1330.611,2542.00
1331.512,2475.00
1332.413,3051.00
1333.316,2654.00
1334.216,2812.00
1335.117,2357.00
1336.020,2695.00
1336.920,2631.00
1337.821,2497.00
1338.721,2853.00
1339.623,2727.00
1340.523,2574.00
1341.423,2506.00
1342.323,2890.00
1343.225,2722.00
1344.125,2466.00
1345.025,2505.00
1345.924,2313.00
1346.826,2993.00
1347.725,2997.00
1348.624,2865.00
1349.524,2515.00
1350.425,2551.00
1351.324,2727.00
1352.223,2770.00
1353.121,2586.00
1354.022,2811.00
1354.921,3006.00
1355.819,2755.00
1356.718,2644.00
1357.618,2396.00
1358.516,2759.00
1359.415,3024.00
1360.313,2734.00
1361.213,2593.00
1362.111,2896.00
1363.008,3287.00
1363.906,2628.00
1364.806,2629.00
1365.703,2754.00
1366.601,2437.00
1367.498,2443.00
1368.397,2820.00
1369.295,2687.00
1370.192,2497.00
1371.089,2718.00
1371.987,2603.00
1372.884,2869.00
1373.781,2466.00
1374.678,2622.00
1375.574,2464.00
1376.473,2718.00
1377.369,2859.00
1378.265,2476.00
1379.161,2625.00
1380.059,2316.00
1380.955,2764.00
1381.851,2398.00
1382.747,2513.00
1383.643,2562.00
1384.540,2413.00
1385.436,2549.00
1386.331,2685.00
1387.227,2795.00
1388.124,2744.00
1389.019,2443.00
1389.914,2563.00
1390.809,2283.00
1391.704,3063.00
1392.601,2501.00
1393.495,2930.00
1394.390,2743.00
1395.285,2879.00
1396.179,2667.00
1397.075,2598.00
1397.969,2716.00
1398.864,2282.00
1399.758,2606.00
1400.652,2659.00
1401.547,2476.00
1402.441,2365.00
1403.335,2976.00
1404.229,2769.00
1405.122,2731.00
1406.017,2617.00
1406.911,2755.00
1407.804,3033.00
1408.697,2663.00
1409.590,2435.00
1410.485,2778.00
1411.378,2703.00
1412.271,2307.00
1413.163,2730.00
1414.056,2795.00
1414.949,3017.00
1415.843,2707.00
1416.735,2575.00
1417.627,2673.00
1418.520,2623.00
1419.412,2830.00
1420.306,2794.00
1421.197,2934.00
1422.089,2859.00
1422.981,3078.00
1423.873,2777.00
1424.764,2781.00
1425.657,2681.00
1426.549,2779.00
1427.440,2853.00
1428.331,2523.00
1429.222,2339.00
1430.113,2699.00
1431.006,2791.00
1431.897,2563.00
1432.787,2658.00
1433.678,2595.00
1434.568,2459.00
1435.459,2915.00
1436.351,2795.00
1437.241,2833.00
1438.131,2771.00
1439.021,2351.00
1439.911,2591.00
1440.801,2723.00
1441.693,2850.00
1442.583,2626.00
1443.472,2626.00
1444.362,2762.00
1445.251,2599.00
1446.140,2588.00
1447.030,2864.00
1447.921,2853.00
1448.810,2460.00
1449.699,3010.00
1450.588,2681.00
1451.476,2580.00
1452.365,2762.00
1453.254,2565.00
1454.144,2512.00
1455.032,2763.00
1455.921,2381.00
1456.809,2924.00
1457.697,2495.00
1458.585,2601.00
1459.473,2574.00
1460.361,2471.00
1461.251,2689.00
1462.138,2726.00
1463.026,2631.00
1463.913,2860.00
1464.801,2563.00
1465.688,2750.00
1466.575,2681.00
1467.463,3095.00
1468.351,2493.00
1469.238,2602.00
1470.125,2245.00
1471.012,2714.00
1471.899,2731.00
1472.785,2499.00
1473.672,2665.00
1474.558,2886.00
1475.446,2773.00
1476.333,2806.00
1477.219,2470.00
1478.105,2635.00
1478.991,2601.00
1479.877,2938.00
1480.762,2613.00
1481.648,2512.00
1482.534,2846.00
1483.419,2699.00
1484.307,2777.00
1485.192,2606.00
1486.077,2484.00
1486.962,2521.00
1487.847,2403.00
1488.732,2526.00
1489.617,2661.00
1490.502,2873.00
1491.387,2759.00
1492.271,2491.00
1493.156,2504.00
1494.042,2443.00
1494.927,2867.00
1495.811,2550.00
1496.695,2806.00
1497.579,2933.00
1498.463,2643.00
1499.347,2703.00
1500.231,2681.00
1501.114,2729.00
1501.998,2958.00
1502.881,2679.00
1503.765,2934.00
1504.648,3035.00
1505.533,2767.00
1506.417,2680.00
1507.300,2638.00
1508.183,2704.00
1509.066,2158.00
1509.948,2882.00
1510.831,3013.00
1511.714,2436.00
1512.596,2812.00
1513.479,2885.00
1514.361,2872.00
1515.243,2707.00
1516.125,2793.00
1517.008,2940.00
1517.890,2626.00
1518.771,2696.00
1519.655,2826.00
1520.537,2582.00
1521.419,2532.00
1522.300,2672.00
1523.182,2808.00
1524.063,2833.00
1524.944,2944.00
1525.825,2829.00
1526.707,2453.00
1527.588,2472.00
1528.468,2762.00
1529.349,2320.00
1530.230,2567.00
1531.111,2839.00
1531.991,2693.00
1532.872,2389.00
1533.752,2656.00
1534.632,2514.00
1535.513,2551.00
1536.393,2831.00
1537.273,2990.00
1538.153,3337.00
1539.032,2396.00
1539.912,2667.00
1540.792,2694.00
1541.672,2661.00
1542.551,2762.00
1543.430,3281.00
1544.310,2670.00
1545.189,2585.00
1546.068,3063.00
1546.947,2777.00
1547.826,2991.00
1548.705,2641.00
1549.584,2906.00
1550.462,2606.00
1551.341,2826.00
1552.219,2758.00
1553.098,2814.00
1553.976,2888.00
1554.854,3052.00
1555.733,2865.00
1556.611,2549.00
1557.489,2468.00
1558.367,2697.00
1559.244,2828.00
1560.122,2666.00
1561.000,2734.00
1561.877,2932.00
1562.755,2551.00
1563.632,2600.00
1564.509,2897.00
1565.386,3017.00
1566.264,2441.00
1567.141,2291.00
1568.017,2801.00
1568.894,2651.00
1569.771,2719.00
1570.648,2763.00
1571.524,2706.00
1572.401,2418.00
1573.277,2454.00
1574.153,2743.00
1575.029,2519.00
1575.906,3413.00
1576.781,2876.00
1577.657,2625.00
1578.533,2907.00
1579.409,2327.00
1580.285,2647.00
1581.160,3096.00
1582.036,2858.00
1582.911,2482.00
1583.786,2983.00
1584.662,2498.00
1585.537,2641.00
1586.412,2705.00
1587.287,2508.00
1588.160,2871.00
1589.035,2297.00
1589.909,2702.00
1590.784,2607.00
1591.658,2477.00
1592.533,2690.00
1593.407,2690.00
1594.281,2564.00
1595.155,3079.00
1596.029,2614.00
1596.903,2672.00
1597.777,2577.00
1598.651,2917.00
1599.525,2390.00
1600.398,2701.00
1601.272,2629.00
1602.144,3194.00
1603.017,2626.00
1603.890,2960.00
1604.763,2775.00
1605.636,2802.00
1606.509,2349.00
1607.382,2533.00
1608.255,2764.00
1609.128,2890.00
1610.000,2621.00
1610.873,2390.00
1611.746,2567.00
1612.616,2601.00
1613.488,2268.00
1614.361,2678.00
1615.233,2612.00
1616.105,2883.00
1616.977,2594.00
1617.849,2533.00
1618.720,2984.00
1619.592,2980.00
1620.464,2739.00
1621.333,3141.00
1622.205,2646.00
1623.076,2657.00
1623.947,2640.00
1624.818,2911.00
1625.689,2782.00
1626.560,2568.00
1627.431,2722.00
1628.302,3096.00
1629.171,2842.00
1630.042,2985.00
1630.912,3645.00
1631.782,3240.00
1632.653,2520.00
1633.523,2817.00
1634.393,2934.00
1635.263,2555.00
1636.131,2680.00
1637.001,2577.00
1637.871,2283.00
1638.741,2329.00
1639.611,2439.00
1640.480,2808.00
1641.350,2542.00
1642.219,2519.00
1643.087,2186.00
1643.956,3095.00
1644.825,2929.00
1645.694,2885.00
1646.563,2839.00
1647.432,2740.00
1648.299,2730.00
1649.167,2802.00
1650.036,2487.00
1650.904,2919.00
1651.773,2908.00
1652.641,2677.00
1653.509,2880.00
1654.376,2563.00
1655.244,2707.00
1656.112,2757.00
1656.980,2695.00
1657.847,2552.00
1658.715,2847.00
1659.581,2603.00
1660.448,2942.00
1661.316,2199.00
1662.183,2712.00
1663.051,2727.00
1663.918,2715.00
1664.783,2689.00
1665.650,2767.00
1666.517,2829.00
1667.384,2747.00
1668.251,2735.00
1669.115,2882.00
1669.982,2646.00
1670.849,2962.00
1671.715,2686.00
1672.581,2798.00
1673.446,2785.00
1674.312,2724.00
1675.178,3117.00
1676.044,2789.00
1676.910,2772.00
1677.774,2727.00
1678.639,2325.00
1679.505,2683.00
1680.370,2827.00
1681.236,3313.00
1682.099,2670.00
1682.965,2755.00
1683.830,2298.00
1684.695,2526.00
1685.560,2603.00
1686.423,2816.00
1687.288,2794.00
1688.153,2741.00
1689.017,2632.00
1689.880,2790.00
1690.745,2828.00
1691.609,2521.00
1692.473,2843.00
1693.338,2901.00
1694.200,2976.00
1695.064,2669.00
1695.928,2602.00
1696.792,2706.00
1697.654,3207.00
1698.517,2729.00
1699.381,2402.00
1700.245,2333.00
1701.106,2993.00
1701.969,2570.00
1702.833,2819.00
1703.696,2668.00
1704.557,2646.00
1705.420,2578.00
1706.283,2721.00
1707.146,2838.00
1708.007,2509.00
1708.870,2468.00
1709.732,2360.00
1710.595,2594.00
1711.455,2469.00
1712.318,2603.00
1713.180,2936.00
1714.040,2761.00
1714.902,2841.00
1715.764,2719.00
1716.626,2483.00
1717.486,2668.00
1718.348,2938.00
1719.209,4807.00
1720.071,2370.00
1720.930,2431.00
1721.792,2529.00
1722.653,2536.00
1723.512,2562.00
1724.374,2669.00
1725.234,2755.00
1726.095,2751.00
1726.954,2684.00
1727.815,2833.00
1728.676,2678.00
1729.535,2934.00
1730.395,2662.00
1731.256,2589.00
1732.114,2755.00
1732.974,2196.00
1733.834,3053.00
1734.693,2868.00
1735.553,2706.00
1736.413,3143.00
1737.272,2600.00
1738.130,2638.00
1738.990,2768.00
1739.849,2581.00
1740.707,3698.00
1741.566,2713.00
1742.426,2737.00
1743.283,3104.00
1744.142,2562.00
1745.001,2400.00
1745.858,2898.00
1746.717,2786.00
1747.576,2796.00
1748.433,2861.00
1749.292,3292.00
1750.150,3313.00
1751.007,2880.00
1751.865,2905.00
1752.723,2747.00
1753.579,2632.00
1754.438,2922.00
1755.296,2917.00
1756.152,2259.00
1757.010,2391.00
1757.865,2897.00
1758.723,2344.00
1759.581,3050.00
1760.436,2674.00
1761.294,3086.00
1762.151,2687.00
1763.006,2596.00
1763.864,2356.00
1764.721,2900.00
1765.576,2713.00
1766.433,2835.00
1767.288,2673.00
1768.144,2760.00
1769.001,2668.00
1769.856,2815.00
1770.712,2907.00
1771.568,2462.00
1772.423,2600.00
1773.279,2569.00
1774.133,2610.00
1774.989,3123.00
1775.845,3096.00
1776.699,2952.00
1777.555,2731.00
1778.409,3188.00
1779.265,2634.00
1780.120,2640.00
1780.974,2713.00
1781.829,2291.00
1782.682,2785.00
1783.538,2553.00
1784.393,2740.00
1785.246,2590.00
1786.101,2766.00
1786.954,2806.00
1787.808,2906.00
1788.661,2436.00
1789.516,2629.00
1790.370,2713.00
1791.223,2872.00
1792.077,2717.00
1792.930,2828.00
1793.784,2571.00
1794.636,2743.00
1795.490,2709.00
1796.344,2703.00
1797.196,2728.00
1798.049,2858.00
1798.901,2623.00
1799.755,2935.00
1800.606,2495.00
1801.460,3268.00
1802.311,2997.00
1803.165,3115.00
1804.018,3054.00
1804.869,2819.00
1805.722,3180.00
1806.573,2723.00
1807.426,2534.00
1808.276,2689.00
1809.129,2606.00
1809.980,2905.00
1810.832,2991.00
1811.683,2624.00
1812.535,3038.00
1813.385,2637.00
1814.237,2971.00
1815.089,2790.00
1815.940,2973.00
1816.791,2661.00
1817.641,2582.00
1818.493,2874.00
1819.343,2760.00
1820.194,2582.00
1821.044,2834.00
1821.895,2908.00
1822.745,2429.00
1823.596,2584.00
1824.445,3124.00
1825.296,2820.00
1826.145,2684.00
1826.996,2891.00
1827.845,2724.00
1828.695,2777.00
1829.544,2709.00
1830.395,2741.00
1831.243,2655.00
1832.094,2445.00
1832.942,3302.00
1833.792,2806.00
1834.640,2763.00
1835.490,2738.00
1836.338,2795.00
1837.186,2625.00
1838.036,2584.00
1838.884,2730.00
1839.733,3004.00
1840.581,2879.00
1841.430,2847.00
1842.278,3033.00
1843.127,2592.00
1843.974,2405.00
1844.823,3118.00
1845.671,2899.00
1846.519,2738.00
1847.366,2805.00
1848.213,2343.00
1849.062,2517.00
1849.909,2439.00
1850.757,3313.00
1851.604,2851.00
1852.452,2651.00
1853.298,2847.00
1854.146,2794.00
1854.993,2758.00
1855.839,3235.00
1856.687,2791.00
1857.532,2854.00
1858.380,2701.00
1859.226,2792.00
1860.073,2859.00
1860.919,2538.00
1861.765,2620.00
1862.612,2971.00
1863.457,2976.00
1864.304,2667.00
1865.150,2869.00
1865.995,2673.00
1866.842,2843.00
1867.686,2940.00
1868.533,2763.00
1869.378,2811.00
1870.223,2710.00
1871.069,2635.00
1871.914,2761.00
1872.760,2698.00
1873.604,2547.00
1874.448,2861.00
1875.294,2855.00
1876.139,2586.00
1876.984,2849.00
1877.828,2391.00
1878.672,2211.00
1879.518,2579.00
1880.361,2896.00
1881.205,2907.00
1882.050,2550.00
1882.894,3235.00
1883.739,2631.00
1884.582,2453.00
1885.425,2563.00
1886.270,2921.00
1887.113,2451.00
1887.956,2815.00
1888.801,2750.00
1889.644,2531.00
1890.486,2291.00
1891.331,2675.00
1892.173,2755.00
1893.017,2809.00
1893.860,3030.00
1894.702,3011.00
1895.546,2739.00
1896.388,3454.00
1897.230,3126.00
1898.074,2645.00
1898.916,2534.00
1899.757,2574.00
1900.601,3349.00
1901.443,3065.00
1902.284,3006.00
1903.125,3156.00
1903.969,2945.00
1904.810,2962.00
1905.651,2834.00
1906.494,3013.00
1907.335,3148.00
1908.176,2830.00
1909.018,2841.00
1909.859,2701.00
1910.700,2594.00
1911.542,3285.00
1912.383,2837.00
1913.223,2338.00
1914.064,2859.00
1914.906,2980.00
1915.746,3082.00
1916.586,3183.00
1917.428,2725.00
1918.268,2791.00
1919.107,2645.00
1919.947,2488.00
1920.789,2650.00
1921.628,2955.00
1922.468,2750.00
1923.309,2583.00
1924.148,3028.00
1924.988,2860.00
1925.827,2718.00
1926.667,2609.00
1927.507,2818.00
1928.345,2561.00
1929.184,2896.00
1930.025,2556.00
1930.864,2987.00
1931.702,3045.00
1932.541,2658.00
1933.381,2909.00
1934.219,2856.00
1935.057,3018.00
1935.896,2434.00
1936.735,2697.00
1937.573,2666.00
1938.411,2540.00
1939.249,2885.00
1940.089,2628.00
1940.927,2963.00
1941.764,3004.00
1942.602,2632.00
1943.439,2658.00
1944.278,2720.00
1945.115,2683.00
1945.953,2505.00
1946.790,2805.00
1947.628,3085.00
1948.465,2848.00
1949.302,2859.00
1950.139,2886.00
1950.976,2615.00
1951.814,2907.00
1952.651,2792.00
1953.487,2514.00
1954.323,2981.00
1955.160,2711.00
1955.998,3099.00
1956.834,2724.00
1957.670,2817.00
1958.506,2986.00
1959.342,2847.00
1960.177,2799.00
1961.015,2905.00
1961.850,2763.00
1962.686,2808.00
1963.521,2790.00
1964.357,3018.00
1965.192,2519.00
1966.029,2914.00
1966.864,2672.00
1967.699,2937.00
1968.534,2764.00
1969.369,3015.00
1970.204,2729.00
1971.040,2813.00
1971.875,2687.00
1972.709,2773.00
1973.544,2606.00
1974.378,2666.00
1975.212,2871.00
1976.047,2614.00
1976.882,2618.00
1977.716,3160.00
1978.550,2476.00
1979.384,2707.00
1980.218,2712.00
1981.052,2688.00
1981.885,2793.00
1982.719,2744.00
1983.554,2887.00
1984.388,3036.00
1985.221,2825.00
1986.054,2983.00
1986.887,2817.00
1987.720,2594.00
1988.553,3065.00
1989.386,2850.00
1990.219,2898.00
1991.053,3039.00
1991.886,2672.00
1992.719,2958.00
1993.551,2301.00
1994.383,2849.00
1995.216,2695.00
1996.048,2453.00
1996.880,2952.00
1997.712,2654.00
1998.544,2754.00
1999.376,2875.00
2000.208,3022.00
2001.040,3245.00
2001.873,2572.00
2002.705,2588.00
2003.536,2802.00
2004.367,2816.00
2005.199,2827.00
2006.030,2636.00
2006.861,2572.00
2007.692,2781.00
2008.523,2633.00
2009.354,2818.00
2010.185,2568.00
2011.016,2916.00
2011.846,3022.00
2012.677,2691.00
2013.507,3061.00
2014.338,2976.00
2015.168,2697.00
2015.999,3301.00
2016.829,2702.00
2017.659,3006.00
2018.489,3312.00
2019.319,2619.00
2020.149,2938.00
2020.980,2777.00
2021.810,2581.00
2022.639,2641.00
2023.469,2650.00
2024.298,2468.00
2025.128,2350.00
2025.957,2402.00
2026.786,2203.00
2027.615,2401.00
2028.444,2624.00
2029.273,2805.00
2030.102,2372.00
2030.931,2583.00
2031.758,2874.00
2032.586,2561.00
2033.415,2619.00
2034.243,2264.00
2035.072,2014.00
2035.900,2509.00
2036.728,2338.00
2037.556,2335.00
2038.385,2364.00
2039.213,2193.00
2040.040,2179.00
2040.868,2173.00
2041.696,2227.00
2042.524,2249.00
2043.351,2439.00
2044.179,2242.00
2045.006,2034.00
