RamanScope Measure Spectrum Data V3.72

<< MEASURE CONDITION >>
Exposure Type,Aver
Exposure Time [sec],15
Exposure Count,4
Measure Time,2023/07/15 16:45:29
Data Name,""
Data Comment,""
Rayleigh Wave[nm],532.0

<< SAMPLE SPECTRUM >>
Wave[dcm-1],No185
146.591,1167.00
147.626,1370.00
148.664,1648.50
149.699,1848.75
150.737,2051.75
151.772,2266.50
152.809,2486.00
153.846,2694.00
154.881,2864.00
155.918,3028.25
156.953,3137.75
157.989,3236.25
159.026,3389.75
160.060,3436.50
161.096,3453.00
162.130,3582.00
163.167,3604.00
164.200,3645.50
165.236,3765.25
166.272,3836.75
167.305,3867.75
168.341,3906.50
169.374,4016.25
170.409,4040.50
171.445,4136.00
172.477,4190.25
173.512,4224.50
174.545,4208.50
175.580,4268.50
176.614,4303.25
177.647,4269.00
178.681,4263.50
179.713,4311.75
180.747,4280.50
181.781,4212.25
182.813,4216.50
183.847,4194.75
184.878,4220.00
185.912,4167.50
186.945,4170.75
187.976,4253.50
189.010,4209.00
190.043,4277.75
191.073,4276.75
192.106,4331.25
193.137,4334.50
194.170,4380.25
195.202,4350.00
196.232,4420.00
197.265,4457.25
198.297,4471.75
199.327,4575.50
200.359,4601.25
201.388,4608.25
202.420,4639.75
203.452,4737.25
204.481,4805.25
205.512,4814.50
206.544,4842.75
207.573,4898.50
208.604,4950.00
209.635,5070.50
210.663,5085.50
211.694,5142.00
212.725,5159.75
213.753,5258.50
214.783,5246.50
215.813,5272.00
216.841,5261.25
217.871,5308.75
218.899,5292.50
219.929,5283.50
220.959,5250.25
221.986,5215.50
223.016,5161.25
224.045,5164.00
225.072,5117.00
226.101,5127.00
227.130,5021.75
228.157,4964.75
229.185,4901.75
230.214,4925.50
231.241,4900.75
232.269,4923.50
233.297,4881.00
234.323,4902.75
235.351,4881.00
236.379,4842.00
237.407,4914.25
238.433,4879.75
239.460,4932.00
240.488,4906.25
241.513,5031.75
242.540,5042.75
243.568,5045.00
244.592,5068.75
245.619,5172.75
246.646,5093.75
247.671,5002.25
248.697,5070.50
249.724,5056.25
250.748,4984.25
251.774,4984.50
252.801,4928.50
253.827,5051.50
254.850,5011.25
255.876,5036.00
256.902,5038.25
257.925,4963.25
258.951,5051.00
259.976,5044.50
260.999,5007.25
262.024,5066.00
263.049,5057.75
264.074,5122.50
265.097,5087.50
266.122,5129.00
267.146,5143.25
268.168,5183.25
269.193,5207.50
270.217,5240.50
271.241,5207.50
272.263,5277.75
273.287,5244.75
274.311,5228.50
275.332,5316.50
276.356,5274.50
277.379,5267.00
278.402,5253.00
279.424,5248.00
280.447,5152.75
281.470,5133.50
282.492,5143.25
283.513,5051.50
284.536,4972.50
285.558,4955.75
286.581,4951.75
287.601,4865.50
288.623,4817.50
289.645,4824.25
290.665,4723.00
291.687,4751.00
292.709,4678.00
293.730,4653.25
294.750,4633.50
295.771,4626.50
296.792,4547.25
297.813,4491.75
298.832,4470.25
299.853,4501.75
300.874,4510.25
301.895,4392.75
302.913,4431.75
303.934,4368.25
304.954,4314.75
305.975,4313.00
306.993,4302.25
308.013,4280.00
309.033,4232.00
310.052,4203.75
311.072,4225.25
312.090,4213.75
313.109,4230.25
314.129,4192.75
315.148,4162.00
316.165,4151.75
317.184,4142.75
318.203,4125.00
319.222,4156.00
320.238,4096.75
321.257,4092.00
322.275,4091.75
323.294,4095.00
324.312,4055.25
325.328,4070.00
326.346,4081.25
327.364,4075.00
328.382,4090.25
329.397,4039.00
330.415,3978.25
331.432,4035.75
332.450,3974.75
333.467,4043.25
334.482,3992.75
335.499,3925.00
336.516,3994.00
337.533,4010.00
338.547,4021.25
339.564,4029.75
340.580,3972.50
341.597,3994.00
342.613,4006.50
343.627,3999.00
344.643,3933.00
345.659,4034.75
346.675,3956.50
347.690,3899.75
348.704,3959.75
349.719,3914.75
350.735,3954.25
351.750,3933.50
352.765,3901.25
353.778,3926.50
354.793,3926.00
355.808,3897.50
356.822,3901.75
357.837,3913.75
358.851,3851.25
359.864,3937.50
360.878,3877.25
361.892,3923.25
362.906,3920.50
363.920,3900.00
364.932,3918.00
365.945,3874.00
366.959,3904.00
367.972,3971.50
368.986,3928.50
369.999,3928.50
371.010,3892.25
372.023,3941.00
373.036,3955.75
374.049,4000.50
375.061,3952.75
376.072,3943.00
377.084,3971.50
378.097,4015.00
379.109,3982.50
380.121,3992.00
381.133,4019.50
382.143,3950.25
383.155,3916.25
384.166,4019.25
385.178,3982.75
386.189,3930.00
387.201,3942.00
388.212,3995.75
389.221,4006.00
390.232,3955.00
391.243,3954.75
392.254,3972.00
393.264,3937.00
394.275,3933.25
395.283,3966.50
396.294,3901.25
397.304,3929.25
398.314,3929.25
399.324,3907.25
400.334,3904.00
401.344,3915.25
402.351,3879.25
403.361,3884.00
404.370,3837.25
405.380,3872.25
406.389,3893.50
407.398,3867.00
408.407,3871.50
409.414,3842.75
410.423,3840.75
411.431,3849.50
412.440,3797.75
413.448,3844.50
414.457,3816.50
415.465,3804.25
416.471,3808.25
417.479,3780.50
418.487,3795.25
419.495,3794.50
420.503,3751.00
421.510,3778.00
422.518,3757.25
423.525,3733.25
424.530,3793.75
425.537,3760.75
426.544,3791.50
427.551,3768.00
428.558,3771.25
429.565,3723.75
430.571,3744.25
431.578,3737.75
432.582,3731.75
433.588,3731.75
434.595,3723.50
435.601,3739.00
436.607,3700.25
437.612,3758.75
438.618,3713.50
439.624,3750.25
440.627,3759.50
441.633,3753.25
442.638,3690.75
443.643,3752.25
444.648,3745.25
445.653,3745.25
446.658,3736.75
447.663,3730.00
448.667,3666.00
449.672,3748.50
450.674,3726.75
451.678,3761.00
452.682,3755.50
453.687,3719.50
454.690,3730.75
455.694,3727.25
456.698,3731.25
457.702,3710.50
458.705,3692.50
459.709,3702.25
460.710,3728.00
461.713,3705.25
462.716,3745.00
463.719,3741.50
464.722,3675.00
465.725,3744.50
466.727,3726.25
467.730,3759.75
468.732,3710.75
469.735,3695.00
470.737,3705.00
471.737,3740.00
472.739,3759.00
473.741,3774.00
474.742,3733.50
475.744,3723.75
476.746,3712.50
477.747,3752.00
478.748,3686.75
479.750,3706.25
480.751,3788.75
481.752,3743.50
482.753,3728.75
483.751,3711.25
484.752,3703.75
485.753,3710.75
486.753,3673.50
487.753,3705.25
488.754,3677.75
489.754,3681.00
490.754,3734.75
491.754,3710.00
492.754,3716.25
493.753,3665.00
494.753,3735.00
495.752,3654.75
496.752,3715.50
497.749,3703.00
498.748,3703.75
499.747,3639.50
500.746,3631.25
501.745,3651.25
502.744,3716.50
503.742,3657.00
504.741,3567.00
505.739,3624.75
506.737,3595.50
507.735,3629.75
508.734,3611.50
509.732,3586.75
510.729,3549.00
511.727,3556.00
512.725,3535.50
513.720,3540.75
514.718,3544.00
515.715,3470.25
516.712,3502.25
517.709,3556.25
518.706,3527.25
519.703,3596.75
520.700,3480.00
521.696,3530.75
522.693,3539.25
523.689,3508.75
524.686,3487.25
525.682,3549.00
526.678,3512.50
527.674,3538.25
528.670,3567.00
529.666,3550.50
530.661,3481.50
531.657,3515.50
532.652,3551.25
533.648,3547.50
534.641,3538.25
535.636,3487.25
536.631,3556.50
537.626,3565.75
538.621,3526.00
539.616,3510.00
540.610,3561.00
541.605,3548.75
542.599,3517.75
543.593,3576.25
544.587,3543.00
545.581,3465.75
546.575,3477.50
547.569,3541.25
548.563,3474.00
549.557,3516.75
550.550,3536.25
551.543,3437.50
552.537,3471.00
553.530,3502.75
554.523,3494.00
555.516,3496.50
556.509,3402.25
557.502,3466.75
558.494,3426.00
559.487,3456.00
560.479,3461.50
561.472,3374.50
562.464,3436.75
563.456,3359.50
564.448,3460.50
565.440,3417.25
566.432,3410.75
567.423,3422.75
568.415,3420.50
569.404,3425.75
570.396,3452.00
571.387,3431.00
572.378,3442.00
573.369,3490.50
574.360,3466.75
575.351,3441.75
576.341,3476.50
577.332,3486.75
578.323,3455.50
579.313,3464.00
580.303,3440.75
581.293,3445.75
582.283,3413.75
583.273,3400.25
584.263,3516.75
585.253,3471.25
586.243,3540.75
587.232,3473.00
588.222,3456.25
589.211,3474.75
590.200,3582.25
591.189,3504.00
592.178,3478.50
593.167,3514.75
594.156,3454.25
595.145,3550.00
596.133,3538.75
597.122,3523.25
598.110,3532.00
599.098,3518.00
600.086,3521.50
601.074,3564.50
602.062,3511.25
603.050,3511.00
604.038,3468.50
605.025,3511.50
606.013,3553.25
607.000,3495.25
607.987,3506.25
608.975,3449.00
609.962,3466.00
610.949,3392.00
611.936,3407.00
612.922,3379.25
613.909,3377.25
614.895,3401.75
615.882,3355.75
616.868,3349.25
617.854,3275.00
618.841,3262.00
619.826,3235.25
620.812,3205.25
621.798,3211.25
622.784,3243.25
623.769,3146.75
624.755,3118.25
625.740,3100.75
626.725,3129.00
627.711,3097.75
628.698,3074.75
629.683,2984.50
630.667,3060.50
631.652,2982.50
632.637,2999.25
633.621,3047.50
634.606,2985.50
635.590,2961.75
636.574,2923.50
637.558,2901.25
638.542,2892.00
639.526,2900.25
640.510,2804.00
641.493,2818.75
642.477,2815.75
643.460,2809.50
644.444,2778.00
645.427,2813.00
646.410,2773.25
647.393,2757.25
648.376,2757.25
649.359,2781.00
650.341,2717.50
651.324,2766.75
652.307,2722.75
653.289,2735.75
654.271,2745.75
655.253,2648.25
656.235,2646.75
657.217,2713.00
658.199,2703.25
659.181,2729.75
660.163,2695.75
661.144,2682.75
662.126,2584.50
663.107,2599.25
664.088,2625.50
665.069,2601.00
666.050,2601.00
667.033,2652.25
668.014,2571.00
668.995,2648.00
669.975,2572.75
670.956,2539.75
671.936,2515.25
672.916,2482.50
673.896,2478.75
674.876,2522.75
675.856,2482.25
676.836,2491.00
677.816,2461.50
678.795,2484.00
679.775,2457.25
680.754,2437.75
681.734,2384.50
682.713,2388.50
683.692,2345.00
684.671,2359.75
685.650,2375.25
686.629,2341.50
687.607,2303.50
688.586,2264.75
689.564,2317.00
690.543,2278.50
691.523,2238.00
692.501,2244.00
693.479,2230.50
694.457,2223.25
695.435,2247.25
696.413,2228.25
697.390,2196.75
698.368,2254.00
699.345,2246.00
700.322,2163.50
701.300,2205.00
702.277,2170.00
703.254,2170.50
704.231,2140.75
705.207,2154.25
706.184,2140.50
707.161,2130.75
708.137,2147.25
709.113,2166.75
710.090,2141.00
711.068,2131.25
712.044,2128.75
713.020,2065.25
713.996,2107.25
714.971,2044.75
715.947,2065.75
716.922,2102.75
717.898,2064.75
718.873,2058.00
719.848,2079.00
720.823,2079.00
721.798,2034.75
722.773,2039.00
723.748,2037.00
724.723,2034.25
725.697,2072.00
726.672,2058.00
727.646,2010.75
728.622,2043.25
729.596,2027.75
730.570,1999.75
731.544,2046.50
732.518,2010.00
733.492,2003.50
734.466,2002.00
735.439,1986.25
736.413,2021.75
737.386,1980.75
738.359,1970.50
739.332,1977.00
740.305,1963.00
741.278,1934.75
742.251,1950.75
743.224,1952.50
744.196,1909.75
745.171,1937.25
746.143,1939.25
747.115,1923.25
748.087,1940.25
749.059,1869.00
750.031,1902.75
751.003,1857.75
751.975,1960.25
752.947,1924.00
753.918,1870.00
754.890,1825.00
755.861,1900.00
756.832,1898.00
757.803,1871.50
758.774,1856.00
759.747,1844.25
760.718,1849.75
761.689,1863.25
762.659,1826.75
763.630,1830.75
764.600,1818.25
765.570,1853.00
766.540,1818.00
767.510,1844.25
768.480,1821.75
769.450,1821.75
770.420,1797.50
771.390,1763.00
772.359,1808.00
773.329,1755.00
774.300,1728.25
775.269,1759.25
776.238,1755.25
777.207,1741.75
778.176,1792.25
779.145,1765.25
780.114,1772.25
781.083,1670.75
782.051,1700.25
783.019,1707.75
783.988,1708.00
784.956,1716.00
785.924,1744.00
786.894,1727.75
787.862,1751.25
788.830,1719.25
789.797,1689.75
790.765,1676.25
791.732,1664.50
792.700,1670.00
793.667,1702.00
794.634,1690.00
795.601,1686.00
796.568,1626.50
797.535,1679.50
798.502,1657.75
799.468,1639.25
800.437,1659.25
801.403,1635.50
802.370,1646.50
803.336,1647.00
804.302,1628.25
805.268,1652.25
806.234,1601.75
807.200,1611.50
808.166,1636.25
809.131,1607.75
810.097,1622.00
811.062,1593.00
812.027,1627.50
812.994,1587.25
813.960,1565.25
814.925,1594.25
815.889,1604.25
816.854,1589.25
817.819,1549.75
818.783,1592.75
819.748,1535.75
820.712,1573.75
821.677,1567.25
822.641,1594.00
823.605,1631.00
824.571,1571.00
825.534,1576.00
826.498,1597.50
827.462,1591.50
828.425,1532.25
829.389,1591.75
830.352,1559.75
831.315,1577.25
832.279,1557.50
833.242,1553.00
834.204,1571.75
835.167,1545.50
836.132,1576.00
837.095,1513.50
838.057,1543.25
839.020,1538.25
839.982,1543.75
840.944,1570.50
841.906,1571.50
842.868,1558.00
843.830,1516.75
844.792,1525.25
845.753,1567.75
846.715,1572.75
847.679,1543.75
848.640,1574.25
849.601,1566.75
850.562,1504.25
851.523,1544.25
852.484,1574.00
853.445,1548.00
854.406,1553.00
855.367,1585.25
856.327,1525.50
857.288,1561.50
858.248,1541.00
859.210,1581.00
860.170,1538.50
861.130,1592.50
862.090,1514.25
863.050,1589.75
864.010,1570.75
864.969,1552.25
865.929,1529.25
866.888,1555.25
867.848,1545.50
868.807,1566.50
869.766,1556.00
870.727,1484.25
871.686,1575.75
872.645,1541.25
873.604,1546.50
874.562,1573.00
875.521,1577.00
876.479,1539.50
877.437,1588.00
878.396,1550.50
879.354,1573.25
880.312,1638.50
881.270,1573.50
882.229,1551.75
883.187,1592.50
884.145,1582.00
885.102,1587.75
886.059,1541.25
887.017,1582.75
887.974,1654.00
888.931,1608.00
889.888,1605.00
890.845,1646.25
891.802,1631.50
892.758,1642.50
893.717,1616.75
894.673,1630.75
895.630,1650.75
896.586,1613.50
897.542,1645.25
898.498,1645.25
899.454,1610.00
900.410,1654.25
901.366,1640.75
902.321,1679.50
903.277,1638.00
904.232,1652.25
905.189,1660.00
906.145,1676.75
907.100,1668.75
908.055,1635.00
909.010,1655.00
909.965,1707.50
910.919,1683.75
911.874,1709.00
912.828,1662.50
913.783,1662.25
914.737,1698.25
915.693,1703.00
916.648,1698.75
917.602,1687.00
918.555,1703.25
919.509,1657.00
920.463,1706.50
921.417,1681.50
922.370,1677.25
923.324,1739.00
924.277,1710.25
925.230,1733.50
926.183,1727.50
927.138,1727.25
928.091,1705.25
929.044,1718.00
929.996,1761.50
930.949,1755.50
931.902,1736.00
932.854,1679.00
933.806,1764.00
934.758,1700.75
935.711,1719.50
936.663,1744.50
937.614,1760.50
938.568,1689.25
939.520,1722.50
940.471,1756.75
941.423,1724.75
942.374,1725.75
943.326,1727.25
944.277,1719.25
945.228,1696.75
946.179,1681.00
947.130,1705.75
948.080,1695.50
949.031,1702.50
949.984,1702.75
950.934,1692.75
951.884,1700.75
952.835,1673.75
953.785,1732.25
954.735,1717.25
955.685,1684.75
956.635,1686.25
957.585,1696.25
958.534,1697.50
959.484,1688.25
960.433,1665.75
961.383,1668.00
962.334,1636.00
963.283,1604.25
964.232,1672.75
965.181,1653.75
966.130,1603.50
967.079,1654.50
968.027,1629.00
968.976,1599.25
969.924,1611.50
970.873,1622.75
971.821,1593.75
972.769,1595.00
973.719,1623.00
974.667,1576.00
975.615,1619.75
976.562,1584.25
977.510,1603.25
978.458,1578.50
979.405,1601.50
980.352,1617.00
981.300,1557.75
982.247,1536.00
983.194,1569.75
984.141,1566.00
985.088,1539.50
986.036,1523.25
986.983,1590.25
987.930,1573.25
988.876,1600.50
989.822,1552.75
990.769,1558.25
991.715,1582.50
992.661,1569.00
993.607,1582.75
994.553,1552.75
995.498,1564.25
996.444,1522.75
997.389,1539.75
998.337,1523.25
999.282,1510.50
1000.227,1543.00
1001.173,1500.50
1002.118,1536.00
1003.062,1515.50
1004.007,1531.50
1004.952,1496.25
1005.897,1499.50
1006.841,1499.25
1007.786,1552.25
1008.730,1485.50
1009.674,1515.00
1010.618,1477.50
1011.564,1522.75
1012.508,1496.50
1013.452,1521.25
1014.396,1498.50
1015.339,1507.00
1016.283,1459.25
1017.226,1494.25
1018.170,1478.25
1019.113,1468.50
1020.056,1504.50
1020.999,1478.00
1021.942,1488.25
1022.885,1511.00
1023.828,1498.50
1024.770,1513.25
1025.715,1491.00
1026.657,1489.00
1027.600,1495.25
1028.542,1536.25
1029.484,1522.00
1030.426,1504.50
1031.368,1492.00
1032.310,1540.50
1033.251,1512.50
1034.193,1491.50
1035.135,1457.75
1036.076,1494.00
1037.017,1502.75
1037.959,1504.25
1038.900,1481.00
1039.843,1514.00
1040.784,1493.50
1041.725,1536.25
1042.665,1522.50
1043.606,1548.00
1044.547,1519.75
1045.487,1516.75
1046.427,1545.00
1047.368,1530.25
1048.308,1542.00
1049.248,1492.00
1050.188,1525.75
1051.128,1545.75
1052.067,1524.25
1053.007,1509.25
1053.947,1518.75
1054.886,1529.25
1055.827,1528.25
1056.766,1513.75
1057.706,1541.25
1058.645,1512.50
1059.584,1509.25
1060.522,1503.00
1061.461,1533.75
1062.400,1594.25
1063.338,1585.00
1064.277,1582.75
1065.215,1534.50
1066.154,1548.50
1067.092,1576.25
1068.030,1582.25
1068.968,1570.25
1069.906,1588.25
1070.843,1544.50
1071.781,1583.75
1072.720,1610.25
1073.658,1565.25
1074.595,1586.00
1075.533,1595.50
1076.470,1587.50
1077.407,1599.25
1078.344,1574.25
1079.281,1631.25
1080.217,1555.50
1081.154,1622.00
1082.091,1557.75
1083.027,1541.75
1083.964,1552.00
1084.900,1643.50
1085.836,1607.50
1086.772,1560.00
1087.708,1565.75
1088.644,1601.50
1089.580,1608.50
1090.515,1575.50
1091.451,1562.75
1092.388,1553.25
1093.324,1643.75
1094.259,1562.25
1095.194,1552.50
1096.129,1568.50
1097.064,1585.00
1097.999,1512.50
1098.934,1515.00
1099.869,1565.50
1100.803,1543.75
1101.738,1534.75
1102.672,1537.25
1103.607,1524.25
1104.541,1495.75
1105.475,1500.00
1106.409,1449.00
1107.343,1494.75
1108.277,1461.00
1109.210,1454.50
1110.144,1465.75
1111.078,1421.25
1112.011,1457.00
1112.944,1465.25
1113.878,1394.25
1114.811,1430.25
1115.744,1448.00
1116.678,1407.50
1117.611,1397.00
1118.544,1407.00
1119.477,1385.00
1120.409,1375.50
1121.342,1403.50
1122.274,1355.50
1123.206,1357.50
1124.138,1390.25
1125.070,1326.25
1126.002,1393.25
1126.934,1357.50
1127.866,1361.50
1128.798,1331.25
1129.729,1274.00
1130.661,1304.25
1131.592,1317.25
1132.523,1333.50
1133.454,1333.50
1134.385,1253.50
1135.317,1278.00
1136.247,1299.75
1137.178,1289.75
1138.109,1266.75
1139.039,1284.75
1139.970,1229.75
1140.900,1251.25
1141.831,1217.75
1142.761,1252.25
1143.691,1230.25
1144.621,1268.25
1145.551,1173.75
1146.480,1166.25
1147.410,1219.50
1148.340,1242.50
1149.269,1201.00
1150.199,1244.00
1151.128,1234.00
1152.057,1219.75
1152.979,1212.50
1153.898,1227.25
1154.819,1183.00
1155.739,1191.50
1156.658,1206.75
1157.579,1207.50
1158.498,1215.00
1159.419,1158.00
1160.338,1157.75
1161.256,1179.75
1162.177,1170.75
1163.095,1160.50
1164.016,1143.00
1164.934,1177.00
1165.852,1169.75
1166.772,1142.75
1167.690,1149.25
1168.610,1176.50
1169.528,1136.50
1170.446,1146.25
1171.365,1106.00
1172.283,1108.50
1173.202,1147.75
1174.120,1134.50
1175.037,1144.25
1175.956,1125.75
1176.873,1116.25
1177.792,1144.75
1178.709,1101.75
1179.626,1085.00
1180.544,1088.25
1181.461,1105.75
1182.379,1067.00
1183.296,1076.00
1184.212,1096.00
1185.130,1072.25
1186.046,1095.50
1186.962,1093.00
1187.880,1089.75
1188.796,1086.25
1189.714,1074.25
1190.629,1102.50
1191.545,1059.25
1192.462,1043.75
1193.378,1030.75
1194.295,1067.75
1195.210,1098.25
1196.125,1062.50
1197.042,1052.25
1197.957,1046.00
1198.872,1075.75
1199.788,1042.00
1200.703,1029.75
1201.619,1059.00
1202.534,1029.50
1203.448,1016.50
1204.364,1028.25
1205.278,1050.00
1206.192,1043.50
1207.108,1017.25
1208.022,1021.75
1208.938,1053.00
1209.851,1035.75
1210.765,1074.00
1211.680,1040.25
1212.594,1067.50
1213.507,1033.50
1214.422,1036.00
1215.335,1040.25
1216.248,1032.25
1217.163,1035.25
1218.076,1002.00
1218.990,1044.25
1219.903,1028.00
1220.816,1024.00
1221.730,1037.00
1222.642,1027.00
1223.554,1033.75
1224.469,1058.50
1225.380,972.50
1226.292,1047.25
1227.206,1018.75
1228.118,995.00
1229.032,1029.75
1229.943,1024.50
1230.855,1055.75
1231.768,1020.75
1232.679,1016.25
1233.590,1052.75
1234.503,1068.50
1235.414,1016.75
1236.325,1043.25
1237.238,1051.00
1238.149,1026.00
1239.059,1003.50
1239.972,1035.25
1240.882,1034.00
1241.793,1052.25
1242.705,1041.25
1243.615,1017.50
1244.525,1035.25
1245.437,1022.25
1246.347,996.25
1247.259,970.75
1248.168,1022.25
1249.078,1002.00
1249.989,995.00
1250.899,1021.25
1251.808,1035.25
1252.719,1033.50
1253.628,1039.00
1254.537,1001.50
1255.448,1012.75
1256.357,1028.25
1257.266,1050.50
1258.176,1047.00
1259.085,1056.50
1259.993,1049.50
1260.904,1043.00
1261.812,998.00
1262.720,1047.25
1263.630,1016.00
1264.538,1025.25
1265.446,1011.50
1266.356,1009.50
1267.263,1025.00
1268.171,1108.25
1269.080,1023.75
1269.988,1005.25
1270.895,1022.50
1271.804,1088.75
1272.711,1062.75
1273.619,1012.25
1274.527,1011.00
1275.434,982.25
1276.341,1026.75
1277.248,1064.00
1278.156,1032.00
1279.063,990.50
1279.969,1003.50
1280.877,999.00
1281.783,1048.00
1282.690,1019.00
1283.598,1016.50
1284.503,1007.00
1285.409,1020.75
1286.317,983.50
1287.223,978.75
1288.128,1026.75
1289.036,981.50
1289.941,998.75
1290.846,1014.50
1291.751,1007.75
1292.658,996.00
1293.563,961.50
1294.468,981.00
1295.375,1007.75
1296.280,1015.75
1297.184,992.50
1298.091,976.50
1298.995,1010.50
1299.900,962.50
1300.806,953.00
1301.710,1008.50
1302.614,993.00
1303.518,980.50
1304.424,944.50
1305.327,982.00
1306.231,971.50
1307.137,986.50
1308.040,993.75
1308.943,953.50
1309.847,980.75
1310.752,973.50
1311.655,985.00
1312.558,934.50
1313.463,955.00
1314.366,910.25
1315.269,966.50
1316.171,978.50
1317.076,960.25
1317.978,933.75
1318.881,953.75
1319.785,925.25
1320.687,963.25
1321.589,941.75
1322.491,971.25
1323.395,953.25
1324.297,953.25
1325.198,943.75
1326.102,987.25
1327.004,976.25
1327.905,912.75
1328.806,947.75
1329.709,930.75
1330.611,961.00
1331.512,935.25
1332.413,947.00
1333.316,890.00
1334.216,882.75
1335.117,915.50
1336.020,962.00
1336.920,930.50
1337.821,917.50
1338.721,921.50
1339.623,981.25
1340.523,872.75
1341.423,900.25
1342.323,892.50
1343.225,907.50
1344.125,925.00
1345.025,871.25
1345.924,899.75
1346.826,895.25
1347.725,944.50
1348.624,865.50
1349.524,905.00
1350.425,881.25
1351.324,896.25
1352.223,851.25
1353.121,849.75
1354.022,894.50
1354.921,868.75
1355.819,884.25
1356.718,858.75
1357.618,834.25
1358.516,914.25
1359.415,888.75
1360.313,845.25
1361.213,879.75
1362.111,858.00
1363.008,853.50
1363.906,849.00
1364.806,884.00
1365.703,910.00
1366.601,857.50
1367.498,899.25
1368.397,834.75
1369.295,855.25
1370.192,866.25
1371.089,853.75
1371.987,828.25
1372.884,867.00
1373.781,831.00
1374.678,824.00
1375.574,830.75
1376.473,820.50
1377.369,879.25
1378.265,887.50
1379.161,854.25
1380.059,850.00
1380.955,865.25
1381.851,827.00
1382.747,837.75
1383.643,861.00
1384.540,860.00
1385.436,864.25
1386.331,813.00
1387.227,823.00
1388.124,856.75
1389.019,783.50
1389.914,788.25
1390.809,826.50
1391.704,811.25
1392.601,803.00
1393.495,840.75
1394.390,808.50
1395.285,811.00
1396.179,818.75
1397.075,823.50
1397.969,791.75
1398.864,786.25
1399.758,815.75
1400.652,802.25
1401.547,819.50
1402.441,793.25
1403.335,806.00
1404.229,838.00
1405.122,825.00
1406.017,781.50
1406.911,827.00
1407.804,805.75
1408.697,769.50
1409.590,802.50
1410.485,814.50
1411.378,797.50
1412.271,787.75
1413.163,754.00
1414.056,794.25
1414.949,797.75
1415.843,772.75
1416.735,772.25
1417.627,764.75
1418.520,783.00
1419.412,803.25
1420.306,803.50
1421.197,819.25
1422.089,784.00
1422.981,805.25
1423.873,798.75
1424.764,809.75
1425.657,733.25
1426.549,803.75
1427.440,726.25
1428.331,780.25
1429.222,768.75
1430.113,761.50
1431.006,785.25
1431.897,754.75
1432.787,759.00
1433.678,768.25
1434.568,788.50
1435.459,816.00
1436.351,801.00
1437.241,781.25
1438.131,794.25
1439.021,780.25
1439.911,755.50
1440.801,812.75
1441.693,761.50
1442.583,793.00
1443.472,801.00
1444.362,743.50
1445.251,758.25
1446.140,723.75
1447.030,785.25
1447.921,747.50
1448.810,748.50
1449.699,718.50
1450.588,780.75
1451.476,750.25
1452.365,767.00
1453.254,767.50
1454.144,740.50
1455.032,754.00
1455.921,733.25
1456.809,749.00
1457.697,761.00
1458.585,787.75
1459.473,763.75
1460.361,753.75
1461.251,744.50
1462.138,730.25
1463.026,730.00
1463.913,711.00
1464.801,733.75
1465.688,729.50
1466.575,749.00
1467.463,703.50
1468.351,767.75
1469.238,753.75
1470.125,748.00
1471.012,766.75
1471.899,724.75
1472.785,752.25
1473.672,737.00
1474.558,727.25
1475.446,713.75
1476.333,724.50
1477.219,745.25
1478.105,750.50
1478.991,711.50
1479.877,717.75
1480.762,765.75
1481.648,742.25
1482.534,688.50
1483.419,731.25
1484.307,728.00
1485.192,708.00
1486.077,726.75
1486.962,722.75
1487.847,747.00
1488.732,680.25
1489.617,723.75
1490.502,696.25
1491.387,714.50
1492.271,651.25
1493.156,696.00
1494.042,704.25
1494.927,679.50
1495.811,720.50
1496.695,741.50
1497.579,722.75
1498.463,716.00
1499.347,743.25
1500.231,739.25
1501.114,704.50
1501.998,736.50
1502.881,678.50
1503.765,692.75
1504.648,711.00
1505.533,720.25
1506.417,692.25
1507.300,732.50
1508.183,686.00
1509.066,688.50
1509.948,706.50
1510.831,691.75
1511.714,680.25
1512.596,663.25
1513.479,707.25
1514.361,677.50
1515.243,638.75
1516.125,717.00
1517.008,700.00
1517.890,684.25
1518.771,734.50
1519.655,680.25
1520.537,697.75
1521.419,703.25
1522.300,680.00
1523.182,638.75
1524.063,680.75
1524.944,682.50
1525.825,691.00
1526.707,693.25
1527.588,669.75
1528.468,688.75
1529.349,694.25
1530.230,679.25
1531.111,667.75
1531.991,685.25
1532.872,671.50
1533.752,674.00
1534.632,642.00
1535.513,673.75
1536.393,617.00
1537.273,663.75
1538.153,651.75
1539.032,685.50
1539.912,640.00
1540.792,650.75
1541.672,694.75
1542.551,671.75
1543.430,693.50
1544.310,637.75
1545.189,680.00
1546.068,639.25
1546.947,685.25
1547.826,674.00
1548.705,683.50
1549.584,679.50
1550.462,665.75
1551.341,659.25
1552.219,631.75
1553.098,660.50
1553.976,677.00
1554.854,653.25
1555.733,617.00
1556.611,669.00
1557.489,687.50
1558.367,647.00
1559.244,676.75
1560.122,658.25
1561.000,705.50
1561.877,620.75
1562.755,647.00
1563.632,623.75
1564.509,637.50
1565.386,631.50
1566.264,628.50
1567.141,622.50
1568.017,637.25
1568.894,621.25
1569.771,603.50
1570.648,612.25
1571.524,637.75
1572.401,692.25
1573.277,604.00
1574.153,627.00
1575.029,649.75
1575.906,647.00
1576.781,663.25
1577.657,644.25
1578.533,641.00
1579.409,625.75
1580.285,615.75
1581.160,648.75
1582.036,650.50
1582.911,651.25
1583.786,609.00
1584.662,632.50
1585.537,659.00
1586.412,578.50
1587.287,629.00
1588.160,652.50
1589.035,630.50
1589.909,687.25
1590.784,637.75
1591.658,627.50
1592.533,599.50
1593.407,594.50
1594.281,638.25
1595.155,630.00
1596.029,633.50
1596.903,677.50
1597.777,595.50
1598.651,632.25
1599.525,612.25
1600.398,577.50
1601.272,596.50
1602.144,657.50
1603.017,619.25
1603.890,651.00
1604.763,608.75
1605.636,632.75
1606.509,618.50
1607.382,636.75
1608.255,607.25
1609.128,628.00
1610.000,637.75
1610.873,624.25
1611.746,613.75
1612.616,638.00
1613.488,571.25
1614.361,616.25
1615.233,585.50
1616.105,576.50
1616.977,675.25
1617.849,591.00
1618.720,632.00
1619.592,592.25
1620.464,674.25
1621.333,658.25
1622.205,612.25
1623.076,610.25
1623.947,611.75
1624.818,590.00
1625.689,610.75
1626.560,595.00
1627.431,574.25
1628.302,588.25
1629.171,581.25
1630.042,600.00
1630.912,286.75
1631.782,587.00
1632.653,580.25
1633.523,587.00
1634.393,599.50
1635.263,569.00
1636.131,629.75
1637.001,608.00
1637.871,588.50
1638.741,607.50
1639.611,562.50
1640.480,642.50
1641.350,554.75
1642.219,603.75
1643.087,588.75
1643.956,597.00
1644.825,620.50
1645.694,609.00
1646.563,617.00
1647.432,577.75
1648.299,619.00
1649.167,607.25
1650.036,585.50
1650.904,687.25
1651.773,657.75
1652.641,581.75
1653.509,567.75
1654.376,593.50
1655.244,583.25
1656.112,554.75
1656.980,571.50
1657.847,560.00
1658.715,594.75
1659.581,581.00
1660.448,630.00
1661.316,544.25
1662.183,633.50
1663.051,591.75
1663.918,612.00
1664.783,582.25
1665.650,570.25
1666.517,535.50
1667.384,588.25
1668.251,565.25
1669.115,618.25
1669.982,602.25
1670.849,567.00
1671.715,598.25
1672.581,528.00
1673.446,587.75
1674.312,585.00
1675.178,579.75
1676.044,560.25
1676.910,593.25
1677.774,541.00
1678.639,596.75
1679.505,587.25
1680.370,556.25
1681.236,575.25
1682.099,581.25
1682.965,553.00
1683.830,574.25
1684.695,568.50
1685.560,605.00
1686.423,573.00
1687.288,573.75
1688.153,548.00
1689.017,551.75
1689.880,549.50
1690.745,578.25
1691.609,595.00
1692.473,600.50
1693.338,558.50
1694.200,583.00
1695.064,509.75
1695.928,563.50
1696.792,596.25
1697.654,584.00
1698.517,619.25
1699.381,577.25
1700.245,573.25
1701.106,555.00
1701.969,560.50
1702.833,551.00
1703.696,558.25
1704.557,539.00
1705.420,549.25
1706.283,573.75
1707.146,559.50
1708.007,577.75
1708.870,568.50
1709.732,563.50
1710.595,567.00
1711.455,545.50
1712.318,588.25
1713.180,606.00
1714.040,563.50
1714.902,569.25
1715.764,598.00
1716.626,572.25
1717.486,566.75
1718.348,550.25
1719.209,443.75
1720.071,618.50
1720.930,570.00
1721.792,538.00
1722.653,591.00
1723.512,594.00
1724.374,529.50
1725.234,543.75
1726.095,577.50
1726.954,554.75
1727.815,505.50
1728.676,572.00
1729.535,560.50
1730.395,559.50
1731.256,574.50
1732.114,583.50
1732.974,551.50
1733.834,564.75
1734.693,600.50
1735.553,546.00
1736.413,550.00
1737.272,580.50
1738.130,582.75
1738.990,577.25
1739.849,511.75
1740.707,564.00
1741.566,527.75
1742.426,585.25
1743.283,553.00
1744.142,561.75
1745.001,558.25
1745.858,528.00
1746.717,559.00
1747.576,572.75
1748.433,548.25
1749.292,548.00
1750.150,567.25
1751.007,572.25
1751.865,600.50
1752.723,545.75
1753.579,549.75
1754.438,515.00
1755.296,557.00
1756.152,541.75
1757.010,571.00
1757.865,534.00
1758.723,541.75
1759.581,563.75
1760.436,550.75
1761.294,546.50
1762.151,547.75
1763.006,543.00
1763.864,561.75
1764.721,532.25
1765.576,557.25
1766.433,541.50
1767.288,553.75
1768.144,577.25
1769.001,537.25
1769.856,540.50
1770.712,583.25
1771.568,559.50
1772.423,556.75
1773.279,571.75
1774.133,540.75
1774.989,536.00
1775.845,543.75
1776.699,527.75
1777.555,579.75
1778.409,576.25
1779.265,555.25
1780.120,562.50
1780.974,556.00
1781.829,528.00
1782.682,537.00
1783.538,564.25
1784.393,534.50
1785.246,560.25
1786.101,534.50
1786.954,534.75
1787.808,527.75
1788.661,560.25
1789.516,543.00
1790.370,540.50
1791.223,529.75
1792.077,570.25
1792.930,574.00
1793.784,532.50
1794.636,503.50
1795.490,523.25
1796.344,526.50
1797.196,570.75
1798.049,531.50
1798.901,521.75
1799.755,537.00
1800.606,512.25
1801.460,511.75
1802.311,522.00
1803.165,542.25
1804.018,549.75
1804.869,534.25
1805.722,565.75
1806.573,543.50
1807.426,543.25
1808.276,511.00
1809.129,548.25
1809.980,514.00
1810.832,493.50
1811.683,550.75
1812.535,501.75
1813.385,534.75
1814.237,521.25
1815.089,550.25
1815.940,551.75
1816.791,553.00
1817.641,558.25
1818.493,563.00
1819.343,540.00
1820.194,533.00
1821.044,518.50
1821.895,542.25
1822.745,548.25
1823.596,512.50
1824.445,534.00
1825.296,537.50
1826.145,558.75
1826.996,541.75
1827.845,540.50
1828.695,522.50
1829.544,517.75
1830.395,564.75
1831.243,494.00
1832.094,524.75
1832.942,508.50
1833.792,569.75
1834.640,513.00
1835.490,532.75
1836.338,525.50
1837.186,569.25
1838.036,536.25
1838.884,531.75
1839.733,513.75
1840.581,502.25
1841.430,546.25
1842.278,492.25
1843.127,534.50
1843.974,507.00
1844.823,525.75
1845.671,509.50
1846.519,512.00
1847.366,501.50
1848.213,519.75
1849.062,515.50
1849.909,505.50
1850.757,557.50
1851.604,503.75
1852.452,488.50
1853.298,544.25
1854.146,512.75
1854.993,485.25
1855.839,512.25
1856.687,508.50
1857.532,541.75
1858.380,490.00
1859.226,506.75
1860.073,519.50
1860.919,563.75
1861.765,473.00
1862.612,503.25
1863.457,503.00
1864.304,516.50
1865.150,552.25
1865.995,508.75
1866.842,552.00
1867.686,482.25
1868.533,510.25
1869.378,583.25
1870.223,461.25
1871.069,525.75
1871.914,514.25
1872.760,501.00
1873.604,532.25
1874.448,481.00
1875.294,513.25
1876.139,546.50
1876.984,506.75
1877.828,514.75
1878.672,496.75
1879.518,516.25
1880.361,483.00
1881.205,480.75
1882.050,528.00
1882.894,528.00
1883.739,440.00
1884.582,530.50
1885.425,539.50
1886.270,543.75
1887.113,524.75
1887.956,508.50
1888.801,447.50
1889.644,486.50
1890.486,523.75
1891.331,490.75
1892.173,515.75
1893.017,439.00
1893.860,517.25
1894.702,523.00
1895.546,533.00
1896.388,562.00
1897.230,485.50
1898.074,480.75
1898.916,500.25
1899.757,503.25
1900.601,544.50
1901.443,531.25
1902.284,530.00
1903.125,546.00
1903.969,508.25
1904.810,530.00
1905.651,511.50
1906.494,522.25
1907.335,497.75
1908.176,467.25
1909.018,521.25
1909.859,508.25
1910.700,487.75
1911.542,494.00
1912.383,487.00
1913.223,509.00
1914.064,520.00
1914.906,517.75
1915.746,482.50
1916.586,450.50
1917.428,516.75
1918.268,510.50
1919.107,530.25
1919.947,480.50
1920.789,507.25
1921.628,494.75
1922.468,522.75
1923.309,514.25
1924.148,478.75
1924.988,477.00
1925.827,490.25
1926.667,535.25
1927.507,482.75
1928.345,494.00
1929.184,550.50
1930.025,464.00
1930.864,503.75
1931.702,533.75
1932.541,493.50
1933.381,538.25
1934.219,478.25
1935.057,517.00
1935.896,513.00
1936.735,497.75
1937.573,491.00
1938.411,506.25
1939.249,504.75
1940.089,517.75
1940.927,532.25
1941.764,508.50
1942.602,509.00
1943.439,496.00
1944.278,527.25
1945.115,482.25
1945.953,483.50
1946.790,478.50
1947.628,501.50
1948.465,503.25
1949.302,468.00
1950.139,511.50
1950.976,498.75
1951.814,480.25
1952.651,490.75
1953.487,499.75
1954.323,501.50
1955.160,518.00
1955.998,500.25
1956.834,501.00
1957.670,480.75
1958.506,497.75
1959.342,491.75
1960.177,501.00
1961.015,489.00
1961.850,520.00
1962.686,529.00
1963.521,496.00
1964.357,505.50
1965.192,468.25
1966.029,538.75
1966.864,437.00
1967.699,452.75
1968.534,491.75
1969.369,493.75
1970.204,487.75
1971.040,474.75
1971.875,484.00
1972.709,509.00
1973.544,525.00
1974.378,529.25
1975.212,468.50
1976.047,488.50
1976.882,481.00
1977.716,504.50
1978.550,482.25
1979.384,491.75
1980.218,506.75
1981.052,488.75
1981.885,472.75
1982.719,510.75
1983.554,480.25
1984.388,493.75
1985.221,505.75
1986.054,502.00
1986.887,517.00
1987.720,486.25
1988.553,501.25
1989.386,506.25
1990.219,519.00
1991.053,495.50
1991.886,470.50
1992.719,503.00
1993.551,509.50
1994.383,475.50
1995.216,456.25
1996.048,476.00
1996.880,473.50
1997.712,459.25
1998.544,487.50
1999.376,494.25
2000.208,488.50
2001.040,506.25
2001.873,496.00
2002.705,493.25
2003.536,474.00
2004.367,511.25
2005.199,456.00
2006.030,471.25
2006.861,488.75
2007.692,463.00
2008.523,463.00
2009.354,486.50
2010.185,441.75
2011.016,493.00
2011.846,500.50
2012.677,497.25
2013.507,444.00
2014.338,477.00
2015.168,480.75
2015.999,486.25
2016.829,529.00
2017.659,492.75
2018.489,503.00
2019.319,486.50
2020.149,463.00
2020.980,456.50
2021.810,511.75
2022.639,447.50
2023.469,479.75
2024.298,456.25
2025.128,509.25
2025.957,499.75
2026.786,467.00
2027.615,476.50
2028.444,532.25
2029.273,493.00
2030.102,523.00
2030.931,463.50
2031.758,528.00
2032.586,489.00
2033.415,460.75
2034.243,491.00
2035.072,480.50
2035.900,509.00
2036.728,452.75
2037.556,497.00
2038.385,475.75
2039.213,523.75
2040.040,497.50
2040.868,518.25
2041.696,505.25
2042.524,498.75
2043.351,482.75
2044.179,524.00
2045.006,489.50
2045.006,489.50

Max Intensity Wave.,275.332
Max Intensity Data,5316.50
Min Intensity Wave.,1630.912
Min Intensity Data,286.75
FWHM Wave.,401.172
FWHM Value,0.65
Pressure Wave.,685.468
Pressure Value [GPa],-22.83788
G/D Ratio,0.69892
G/D Gband Wave.,1560.875
G/D Gband Intensity,706.83
G/D Dband Wave.,1301.964
G/D Dband Intensity,1011.32

<< BACKGROUND SPECTRUM >>
Wave[dcm-1],No185
146.591,2276.00
147.626,2110.00
148.664,2044.00
149.699,2506.00
150.737,2282.00
151.772,2425.00
152.809,2396.00
153.846,2337.00
154.881,2420.00
155.918,1988.00
156.953,2291.00
157.989,2645.00
159.026,2459.00
160.060,2644.00
161.096,2904.00
162.130,2511.00
163.167,2570.00
164.200,2491.00
165.236,2624.00
166.272,2677.00
167.305,2270.00
168.341,2568.00
169.374,2770.00
170.409,2800.00
171.445,2722.00
172.477,2525.00
173.512,2413.00
174.545,2741.00
175.580,2916.00
176.614,3028.00
177.647,2839.00
178.681,3075.00
179.713,3334.00
180.747,2796.00
181.781,2740.00
182.813,3002.00
183.847,3106.00
184.878,2700.00
185.912,2961.00
186.945,3185.00
187.976,3088.00
189.010,2720.00
190.043,2853.00
191.073,2931.00
192.106,2718.00
193.137,3220.00
194.170,2544.00
195.202,2959.00
196.232,2715.00
197.265,2997.00
198.297,3097.00
199.327,2757.00
200.359,2947.00
201.388,3338.00
202.420,2930.00
203.452,3127.00
204.481,2702.00
205.512,3327.00
206.544,3140.00
207.573,3089.00
208.604,3442.00
209.635,3521.00
210.663,2962.00
211.694,2988.00
212.725,2863.00
213.753,2777.00
214.783,3407.00
215.813,3269.00
216.841,3049.00
217.871,3170.00
218.899,2938.00
219.929,3162.00
220.959,2910.00
221.986,3174.00
223.016,2764.00
224.045,3132.00
225.072,3112.00
226.101,3196.00
227.130,3269.00
228.157,2865.00
229.185,2384.00
230.214,3216.00
231.241,2841.00
232.269,2451.00
233.297,2690.00
234.323,3252.00
235.351,2833.00
236.379,3139.00
237.407,2759.00
238.433,2961.00
239.460,3129.00
240.488,3167.00
241.513,3183.00
242.540,3083.00
243.568,3218.00
244.592,3254.00
245.619,3182.00
246.646,2943.00
247.671,2971.00
248.697,2781.00
249.724,3004.00
250.748,3020.00
251.774,3030.00
252.801,3346.00
253.827,3122.00
254.850,3105.00
255.876,2681.00
256.902,3152.00
257.925,3033.00
258.951,2744.00
259.976,2779.00
260.999,3135.00
262.024,2824.00
263.049,3663.00
264.074,3109.00
265.097,3074.00
266.122,3099.00
267.146,3041.00
268.168,3250.00
269.193,2858.00
270.217,3248.00
271.241,2731.00
272.263,2874.00
273.287,3184.00
274.311,2809.00
275.332,3301.00
276.356,2871.00
277.379,3080.00
278.402,3132.00
279.424,2938.00
280.447,2930.00
281.470,2734.00
282.492,3053.00
283.513,2916.00
284.536,3181.00
285.558,3173.00
286.581,3112.00
287.601,2870.00
288.623,2829.00
289.645,3062.00
290.665,3163.00
291.687,3145.00
292.709,3116.00
293.730,3410.00
294.750,2904.00
295.771,2759.00
296.792,3082.00
297.813,2965.00
298.832,3080.00
299.853,2732.00
300.874,2967.00
301.895,3016.00
302.913,2955.00
303.934,3292.00
304.954,3069.00
305.975,3230.00
306.993,2777.00
308.013,3107.00
309.033,3037.00
310.052,2979.00
311.072,2889.00
312.090,3066.00
313.109,3282.00
314.129,3427.00
315.148,3015.00
316.165,3094.00
317.184,3269.00
318.203,2760.00
319.222,2751.00
320.238,3158.00
321.257,2856.00
322.275,2718.00
323.294,2996.00
324.312,3163.00
325.328,3309.00
326.346,3304.00
327.364,3244.00
328.382,3149.00
329.397,3131.00
330.415,3290.00
331.432,3212.00
332.450,3281.00
333.467,3442.00
334.482,2598.00
335.499,3413.00
336.516,2912.00
337.533,2607.00
338.547,2852.00
339.564,2824.00
340.580,3091.00
341.597,2957.00
342.613,3466.00
343.627,2980.00
344.643,3021.00
345.659,3071.00
346.675,3015.00
347.690,2924.00
348.704,3060.00
349.719,2887.00
350.735,2738.00
351.750,3183.00
352.765,3036.00
353.778,3004.00
354.793,3151.00
355.808,2885.00
356.822,3195.00
357.837,2665.00
358.851,3292.00
359.864,2978.00
360.878,2775.00
361.892,2951.00
362.906,3206.00
363.920,2604.00
364.932,3140.00
365.945,3134.00
366.959,3006.00
367.972,2933.00
368.986,2741.00
369.999,3388.00
371.010,2881.00
372.023,3357.00
373.036,2951.00
374.049,3350.00
375.061,3097.00
376.072,3038.00
377.084,2922.00
378.097,2670.00
379.109,3189.00
380.121,2982.00
381.133,2684.00
382.143,3157.00
383.155,2764.00
384.166,2899.00
385.178,3088.00
386.189,3252.00
387.201,2751.00
388.212,2941.00
389.221,2939.00
390.232,3028.00
391.243,2940.00
392.254,3046.00
393.264,2850.00
394.275,3246.00
395.283,3173.00
396.294,3656.00
397.304,3476.00
398.314,3113.00
399.324,3045.00
400.334,2658.00
401.344,3156.00
402.351,2668.00
403.361,3211.00
404.370,3014.00
405.380,2925.00
406.389,3348.00
407.398,3124.00
408.407,3082.00
409.414,3156.00
410.423,3335.00
411.431,2777.00
412.440,2712.00
413.448,3337.00
414.457,2889.00
415.465,2807.00
416.471,2902.00
417.479,3016.00
418.487,2822.00
419.495,3315.00
420.503,3162.00
421.510,2649.00
422.518,3184.00
423.525,3208.00
424.530,3387.00
425.537,2893.00
426.544,3223.00
427.551,2872.00
428.558,3585.00
429.565,3458.00
430.571,2878.00
431.578,2894.00
432.582,2901.00
433.588,2983.00
434.595,2637.00
435.601,3325.00
436.607,3273.00
437.612,2750.00
438.618,3351.00
439.624,2943.00
440.627,2942.00
441.633,3138.00
442.638,3656.00
443.643,3095.00
444.648,3018.00
445.653,3189.00
446.658,2897.00
447.663,2997.00
448.667,2926.00
449.672,2929.00
450.674,2987.00
451.678,2718.00
452.682,2878.00
453.687,2837.00
454.690,3611.00
455.694,3271.00
456.698,2576.00
457.702,2685.00
458.705,2807.00
459.709,2826.00
460.710,2911.00
461.713,3045.00
462.716,3075.00
463.719,2987.00
464.722,3237.00
465.725,2954.00
466.727,2854.00
467.730,3050.00
468.732,2818.00
469.735,3323.00
470.737,2944.00
471.737,2912.00
472.739,2873.00
473.741,2793.00
474.742,3074.00
475.744,3125.00
476.746,3044.00
477.747,2967.00
478.748,3191.00
479.750,2952.00
480.751,2975.00
481.752,3752.00
482.753,3094.00
483.751,3571.00
484.752,2649.00
485.753,2974.00
486.753,2933.00
487.753,3037.00
488.754,3482.00
489.754,2739.00
490.754,3312.00
491.754,3147.00
492.754,2698.00
493.753,3077.00
494.753,2911.00
495.752,3357.00
496.752,3046.00
497.749,2981.00
498.748,2851.00
499.747,3395.00
500.746,3139.00
501.745,2764.00
502.744,2735.00
503.742,3339.00
504.741,2979.00
505.739,2487.00
506.737,2924.00
507.735,3130.00
508.734,3391.00
509.732,3150.00
510.729,3355.00
511.727,2909.00
512.725,2952.00
513.720,2810.00
514.718,3249.00
515.715,2719.00
516.712,2658.00
517.709,2976.00
518.706,2917.00
519.703,2978.00
520.700,3210.00
521.696,3340.00
522.693,2900.00
523.689,2858.00
524.686,3180.00
525.682,2792.00
526.678,3477.00
527.674,2904.00
528.670,2572.00
529.666,3493.00
530.661,3488.00
531.657,3127.00
532.652,3180.00
533.648,3016.00
534.641,3234.00
535.636,3088.00
536.631,3082.00
537.626,3153.00
538.621,2749.00
539.616,2628.00
540.610,2525.00
541.605,2988.00
542.599,3051.00
543.593,2983.00
544.587,3893.00
545.581,2894.00
546.575,3064.00
547.569,2990.00
548.563,2711.00
549.557,2675.00
550.550,2745.00
551.543,2765.00
552.537,3168.00
553.530,2742.00
554.523,2771.00
555.516,3111.00
556.509,3006.00
557.502,2640.00
558.494,3208.00
559.487,2939.00
560.479,3203.00
561.472,3313.00
562.464,3153.00
563.456,3333.00
564.448,2946.00
565.440,3023.00
566.432,3414.00
567.423,2882.00
568.415,2919.00
569.404,3132.00
570.396,2819.00
571.387,3104.00
572.378,3061.00
573.369,3931.00
574.360,3676.00
575.351,3011.00
576.341,2849.00
577.332,2867.00
578.323,2702.00
579.313,2897.00
580.303,3263.00
581.293,3183.00
582.283,3022.00
583.273,3164.00
584.263,2971.00
585.253,3118.00
586.243,3138.00
587.232,2669.00
588.222,2988.00
589.211,3175.00
590.200,3029.00
591.189,2945.00
592.178,2978.00
593.167,3393.00
594.156,3302.00
595.145,2866.00
596.133,3466.00
597.122,3104.00
598.110,3202.00
599.098,3053.00
600.086,2996.00
601.074,3172.00
602.062,2821.00
603.050,2753.00
604.038,3126.00
605.025,2789.00
606.013,3169.00
607.000,3383.00
607.987,3014.00
608.975,3053.00
609.962,2774.00
610.949,3171.00
611.936,3283.00
612.922,3157.00
613.909,2715.00
614.895,3401.00
615.882,2843.00
616.868,3006.00
617.854,2771.00
618.841,3042.00
619.826,3147.00
620.812,3002.00
621.798,2825.00
622.784,3138.00
623.769,3092.00
624.755,2758.00
625.740,3081.00
626.725,2694.00
627.711,2876.00
628.698,3060.00
629.683,2820.00
630.667,3118.00
631.652,2764.00
632.637,2985.00
633.621,3116.00
634.606,2929.00
635.590,3097.00
636.574,2952.00
637.558,3063.00
638.542,3053.00
639.526,2814.00
640.510,2647.00
641.493,3052.00
642.477,2990.00
643.460,2686.00
644.444,3272.00
645.427,3251.00
646.410,2660.00
647.393,2977.00
648.376,3080.00
649.359,2901.00
650.341,3079.00
651.324,3037.00
652.307,3046.00
653.289,2936.00
654.271,2834.00
655.253,2919.00
656.235,3123.00
657.217,3204.00
658.199,2624.00
659.181,2729.00
660.163,2954.00
661.144,2839.00
662.126,2925.00
663.107,2812.00
664.088,4730.00
665.069,3269.00
666.050,2847.00
667.033,2695.00
668.014,3076.00
668.995,2544.00
669.975,2995.00
670.956,3051.00
671.936,3194.00
672.916,3012.00
673.896,3161.00
674.876,2942.00
675.856,2862.00
676.836,2720.00
677.816,2313.00
678.795,2807.00
679.775,2676.00
680.754,3029.00
681.734,3144.00
682.713,3155.00
683.692,2807.00
684.671,2621.00
685.650,2755.00
686.629,2869.00
687.607,2754.00
688.586,2818.00
689.564,2847.00
690.543,3234.00
691.523,2418.00
692.501,2836.00
693.479,2937.00
694.457,2802.00
695.435,2876.00
696.413,2680.00
697.390,2525.00
698.368,2678.00
699.345,3077.00
700.322,2956.00
701.300,3085.00
702.277,3063.00
703.254,3276.00
704.231,2602.00
705.207,2981.00
706.184,2787.00
707.161,2682.00
708.137,2829.00
709.113,2769.00
710.090,2790.00
711.068,2595.00
712.044,2620.00
713.020,2899.00
713.996,2615.00
714.971,2817.00
715.947,2870.00
716.922,2808.00
717.898,2759.00
718.873,2895.00
719.848,2731.00
720.823,2672.00
721.798,2993.00
722.773,2734.00
723.748,2534.00
724.723,2998.00
725.697,2812.00
726.672,2758.00
727.646,2513.00
728.622,2997.00
729.596,2640.00
730.570,2741.00
731.544,3052.00
732.518,3278.00
733.492,2819.00
734.466,2881.00
735.439,3014.00
736.413,3088.00
737.386,2457.00
738.359,2458.00
739.332,2538.00
740.305,2824.00
741.278,3329.00
742.251,2954.00
743.224,2736.00
744.196,2593.00
745.171,3129.00
746.143,3030.00
747.115,2776.00
748.087,2704.00
749.059,3143.00
750.031,2891.00
751.003,3729.00
751.975,3209.00
752.947,2689.00
753.918,3094.00
754.890,2607.00
755.861,2742.00
756.832,3039.00
757.803,2787.00
758.774,2852.00
759.747,2602.00
760.718,3196.00
761.689,2742.00
762.659,2615.00
763.630,3177.00
764.600,2573.00
765.570,3049.00
766.540,3092.00
767.510,2922.00
768.480,3031.00
769.450,2734.00
770.420,2811.00
771.390,2656.00
772.359,2741.00
773.329,2691.00
774.300,2556.00
775.269,2751.00
776.238,3025.00
777.207,3162.00
778.176,2490.00
779.145,2801.00
780.114,2703.00
781.083,2618.00
782.051,2797.00
783.019,2696.00
783.988,3103.00
784.956,2846.00
785.924,2945.00
786.894,2863.00
787.862,2672.00
788.830,3119.00
789.797,2621.00
790.765,2619.00
791.732,2786.00
792.700,2685.00
793.667,2594.00
794.634,2766.00
795.601,2734.00
796.568,2792.00
797.535,2830.00
798.502,3453.00
799.468,2920.00
800.437,2396.00
801.403,2664.00
802.370,3289.00
803.336,2990.00
804.302,2876.00
805.268,2444.00
806.234,2572.00
807.200,2731.00
808.166,2772.00
809.131,2573.00
810.097,3005.00
811.062,3660.00
812.027,2982.00
812.994,2601.00
813.960,2638.00
814.925,2946.00
815.889,2500.00
816.854,3044.00
817.819,2659.00
818.783,2737.00
819.748,3117.00
820.712,2740.00
821.677,2624.00
822.641,2683.00
823.605,2675.00
824.571,3139.00
825.534,2760.00
826.498,2653.00
827.462,2778.00
828.425,2635.00
829.389,3038.00
830.352,2813.00
831.315,2915.00
832.279,2493.00
833.242,2763.00
834.204,2629.00
835.167,2666.00
836.132,3054.00
837.095,2543.00
838.057,2703.00
839.020,2815.00
839.982,2852.00
840.944,2648.00
841.906,2623.00
842.868,2970.00
843.830,2558.00
844.792,3060.00
845.753,2677.00
846.715,2442.00
847.679,2596.00
848.640,2605.00
849.601,2725.00
850.562,3294.00
851.523,2720.00
852.484,2453.00
853.445,2991.00
854.406,2690.00
855.367,2693.00
856.327,3057.00
857.288,2494.00
858.248,2671.00
859.210,2668.00
860.170,2539.00
861.130,2983.00
862.090,2464.00
863.050,2607.00
864.010,2664.00
864.969,2883.00
865.929,2619.00
866.888,2509.00
867.848,2834.00
868.807,2624.00
869.766,2855.00
870.727,2779.00
871.686,2999.00
872.645,3041.00
873.604,3325.00
874.562,2774.00
875.521,2778.00
876.479,3359.00
877.437,2598.00
878.396,2611.00
879.354,3161.00
880.312,2568.00
881.270,2658.00
882.229,3137.00
883.187,2615.00
884.145,2666.00
885.102,2933.00
886.059,2876.00
887.017,2898.00
887.974,2902.00
888.931,3064.00
889.888,2526.00
890.845,2404.00
891.802,2349.00
892.758,2629.00
893.717,2444.00
894.673,2533.00
895.630,2593.00
896.586,2894.00
897.542,2667.00
898.498,2524.00
899.454,2887.00
900.410,2659.00
901.366,2673.00
902.321,3695.00
903.277,2693.00
904.232,2746.00
905.189,2486.00
906.145,2647.00
907.100,2206.00
908.055,2739.00
909.010,2917.00
909.965,2333.00
910.919,2778.00
911.874,2532.00
912.828,2778.00
913.783,2807.00
914.737,2331.00
915.693,2744.00
916.648,2865.00
917.602,2952.00
918.555,2782.00
919.509,2855.00
920.463,2749.00
921.417,2790.00
922.370,2592.00
923.324,2653.00
924.277,2666.00
925.230,2730.00
926.183,2393.00
927.138,2676.00
928.091,2935.00
929.044,2848.00
929.996,2628.00
930.949,2630.00
931.902,2836.00
932.854,2834.00
933.806,2548.00
934.758,2981.00
935.711,3005.00
936.663,2789.00
937.614,2757.00
938.568,2757.00
939.520,2398.00
940.471,2679.00
941.423,2774.00
942.374,2883.00
943.326,2747.00
944.277,2596.00
945.228,2842.00
946.179,2720.00
947.130,3066.00
948.080,2667.00
949.031,2569.00
949.984,2664.00
950.934,2708.00
951.884,2481.00
952.835,2723.00
953.785,2723.00
954.735,2580.00
955.685,2376.00
956.635,2626.00
957.585,2627.00
958.534,2634.00
959.484,2732.00
960.433,2609.00
961.383,2464.00
962.334,2978.00
963.283,2812.00
964.232,2824.00
965.181,2723.00
966.130,2828.00
967.079,2600.00
968.027,2724.00
968.976,2741.00
969.924,2631.00
970.873,2777.00
971.821,2749.00
972.769,2949.00
973.719,2850.00
974.667,2506.00
975.615,2711.00
976.562,2730.00
977.510,2426.00
978.458,2640.00
979.405,2833.00
980.352,2735.00
981.300,3008.00
982.247,2844.00
983.194,2552.00
984.141,2626.00
985.088,2743.00
986.036,2805.00
986.983,2981.00
987.930,3124.00
988.876,2353.00
989.822,2958.00
990.769,2531.00
991.715,2590.00
992.661,2424.00
993.607,2771.00
994.553,3284.00
995.498,2578.00
996.444,2281.00
997.389,2785.00
998.337,2539.00
999.282,2873.00
1000.227,2652.00
1001.173,2730.00
1002.118,2462.00
1003.062,2914.00
1004.007,2682.00
1004.952,3009.00
1005.897,2941.00
1006.841,2693.00
1007.786,2424.00
1008.730,2453.00
1009.674,3163.00
1010.618,2658.00
1011.564,2494.00
1012.508,2405.00
1013.452,2911.00
1014.396,2730.00
1015.339,2636.00
1016.283,2736.00
1017.226,2742.00
1018.170,2715.00
1019.113,2893.00
1020.056,2724.00
1020.999,2721.00
1021.942,2609.00
1022.885,2830.00
1023.828,3006.00
1024.770,2500.00
1025.715,2759.00
1026.657,2699.00
1027.600,2765.00
1028.542,2893.00
1029.484,2733.00
1030.426,2843.00
1031.368,2782.00
1032.310,2555.00
1033.251,2511.00
1034.193,2699.00
1035.135,2526.00
1036.076,2629.00
1037.017,2515.00
1037.959,2835.00
1038.900,2786.00
1039.843,2776.00
1040.784,2770.00
1041.725,2758.00
1042.665,2602.00
1043.606,2741.00
1044.547,2736.00
1045.487,2368.00
1046.427,2632.00
1047.368,2757.00
1048.308,2235.00
1049.248,2528.00
1050.188,2733.00
1051.128,2577.00
1052.067,2666.00
1053.007,2423.00
1053.947,2409.00
1054.886,2559.00
1055.827,2503.00
1056.766,2965.00
1057.706,2443.00
1058.645,2674.00
1059.584,2739.00
1060.522,2999.00
1061.461,2478.00
1062.400,2454.00
1063.338,2616.00
1064.277,2491.00
1065.215,2519.00
1066.154,2393.00
1067.092,2565.00
1068.030,2608.00
1068.968,2858.00
1069.906,2994.00
1070.843,2946.00
1071.781,2706.00
1072.720,2769.00
1073.658,2832.00
1074.595,2612.00
1075.533,2540.00
1076.470,2596.00
1077.407,2950.00
1078.344,2760.00
1079.281,2780.00
1080.217,2320.00
1081.154,2616.00
1082.091,2737.00
1083.027,2492.00
1083.964,2936.00
1084.900,2512.00
1085.836,2601.00
1086.772,2879.00
1087.708,2464.00
1088.644,2813.00
1089.580,2641.00
1090.515,2750.00
1091.451,2602.00
1092.388,2684.00
1093.324,2391.00
1094.259,3235.00
1095.194,2757.00
1096.129,2597.00
1097.064,2548.00
1097.999,2830.00
1098.934,2550.00
1099.869,2511.00
1100.803,2707.00
1101.738,2681.00
1102.672,2380.00
1103.607,2788.00
1104.541,2562.00
1105.475,2526.00
1106.409,2459.00
1107.343,2597.00
1108.277,2437.00
1109.210,2709.00
1110.144,2665.00
1111.078,2686.00
1112.011,2443.00
1112.944,2739.00
1113.878,2731.00
1114.811,2182.00
1115.744,2560.00
1116.678,2323.00
1117.611,2586.00
1118.544,2598.00
1119.477,2765.00
1120.409,2561.00
1121.342,3107.00
1122.274,2760.00
1123.206,4165.00
1124.138,2643.00
1125.070,3006.00
1126.002,2818.00
1126.934,2300.00
1127.866,2535.00
1128.798,2315.00
1129.729,2380.00
1130.661,2685.00
1131.592,2577.00
1132.523,2726.00
1133.454,2743.00
1134.385,2312.00
1135.317,2646.00
1136.247,2571.00
1137.178,2856.00
1138.109,2375.00
1139.039,2956.00
1139.970,2856.00
1140.900,2586.00
1141.831,2385.00
1142.761,2230.00
1143.691,2748.00
1144.621,2625.00
1145.551,2721.00
1146.480,2738.00
1147.410,2869.00
1148.340,2284.00
1149.269,2383.00
1150.199,2574.00
1151.128,3028.00
1152.057,2427.00
1152.979,2561.00
1153.898,2582.00
1154.819,2729.00
1155.739,2640.00
1156.658,2542.00
1157.579,2662.00
1158.498,2621.00
1159.419,2186.00
1160.338,2681.00
1161.256,2669.00
1162.177,2485.00
1163.095,2606.00
1164.016,2696.00
1164.934,2859.00
1165.852,2775.00
1166.772,2607.00
1167.690,2633.00
1168.610,2681.00
1169.528,2646.00
1170.446,2167.00
1171.365,2570.00
1172.283,2530.00
1173.202,2590.00
1174.120,2669.00
1175.037,2470.00
1175.956,2452.00
1176.873,2504.00
1177.792,2500.00
1178.709,3119.00
1179.626,2541.00
1180.544,2849.00
1181.461,2489.00
1182.379,2744.00
1183.296,2635.00
1184.212,2291.00
1185.130,2478.00
1186.046,2966.00
1186.962,2616.00
1187.880,2914.00
1188.796,2662.00
1189.714,2444.00
1190.629,2752.00
1191.545,2724.00
1192.462,2581.00
1193.378,2624.00
1194.295,2349.00
1195.210,2644.00
1196.125,2769.00
1197.042,2703.00
1197.957,2629.00
1198.872,2490.00
1199.788,2552.00
1200.703,2994.00
1201.619,2654.00
1202.534,2522.00
1203.448,2716.00
1204.364,2592.00
1205.278,2301.00
1206.192,2664.00
1207.108,3148.00
1208.022,3000.00
1208.938,2481.00
1209.851,2783.00
1210.765,2837.00
1211.680,2544.00
1212.594,2392.00
1213.507,2590.00
1214.422,3007.00
1215.335,2746.00
1216.248,2549.00
1217.163,2653.00
1218.076,3253.00
1218.990,2719.00
1219.903,2425.00
1220.816,2467.00
1221.730,2598.00
1222.642,2510.00
1223.554,2542.00
1224.469,2683.00
1225.380,2611.00
1226.292,2273.00
1227.206,2756.00
1228.118,3001.00
1229.032,2262.00
1229.943,2523.00
1230.855,2538.00
1231.768,2368.00
1232.679,2699.00
1233.590,2596.00
1234.503,2807.00
1235.414,2476.00
1236.325,2497.00
1237.238,2675.00
1238.149,2725.00
1239.059,2463.00
1239.972,2809.00
1240.882,2439.00
1241.793,2747.00
1242.705,2967.00
1243.615,2583.00
1244.525,2698.00
1245.437,2214.00
1246.347,2682.00
1247.259,2814.00
1248.168,3054.00
1249.078,2880.00
1249.989,2905.00
1250.899,2452.00
1251.808,2477.00
1252.719,2545.00
1253.628,2489.00
1254.537,3026.00
1255.448,2469.00
1256.357,2442.00
1257.266,2614.00
1258.176,2338.00
1259.085,2332.00
1259.993,2430.00
1260.904,2444.00
1261.812,2452.00
1262.720,3120.00
1263.630,2800.00
1264.538,2480.00
1265.446,2744.00
1266.356,2608.00
1267.263,2905.00
1268.171,2361.00
1269.080,2693.00
1269.988,2800.00
1270.895,2532.00
1271.804,2538.00
1272.711,2750.00
1273.619,2783.00
1274.527,2452.00
1275.434,2764.00
1276.341,2437.00
1277.248,2617.00
1278.156,2898.00
1279.063,2512.00
1279.969,2732.00
1280.877,3491.00
1281.783,2783.00
1282.690,2677.00
1283.598,2580.00
1284.503,2492.00
1285.409,2442.00
1286.317,3019.00
1287.223,3035.00
1288.128,2677.00
1289.036,2540.00
1289.941,2561.00
1290.846,2599.00
1291.751,2450.00
1292.658,2562.00
1293.563,3096.00
1294.468,2655.00
1295.375,2767.00
1296.280,2848.00
1297.184,3332.00
1298.091,2732.00
1298.995,2758.00
1299.900,3006.00
1300.806,2549.00
1301.710,2349.00
1302.614,2205.00
1303.518,2869.00
1304.424,2585.00
1305.327,2815.00
1306.231,2614.00
1307.137,2770.00
1308.040,2658.00
1308.943,2662.00
1309.847,2834.00
1310.752,2832.00
1311.655,2273.00
1312.558,2440.00
1313.463,2560.00
1314.366,2556.00
1315.269,2673.00
1316.171,2591.00
1317.076,2520.00
1317.978,2449.00
1318.881,2240.00
1319.785,2503.00
1320.687,2506.00
1321.589,2253.00
1322.491,2446.00
1323.395,2696.00
1324.297,3155.00
1325.198,2764.00
1326.102,2418.00
1327.004,2405.00
1327.905,3048.00
1328.806,2591.00
1329.709,2696.00
1330.611,2537.00
1331.512,2450.00
1332.413,3037.00
1333.316,2698.00
1334.216,2828.00
1335.117,2394.00
1336.020,2625.00
1336.920,2635.00
1337.821,2496.00
1338.721,2893.00
1339.623,2624.00
1340.523,2610.00
1341.423,2494.00
1342.323,2904.00
1343.225,2699.00
1344.125,2440.00
1345.025,2525.00
1345.924,2292.00
1346.826,2980.00
1347.725,2994.00
1348.624,2889.00
1349.524,2482.00
1350.425,2613.00
1351.324,2729.00
1352.223,2817.00
1353.121,2623.00
1354.022,2812.00
1354.921,3027.00
1355.819,2738.00
1356.718,2691.00
1357.618,2414.00
1358.516,2712.00
1359.415,3023.00
1360.313,2753.00
1361.213,2582.00
1362.111,2932.00
1363.008,3244.00
1363.906,2619.00
1364.806,2619.00
1365.703,2688.00
1366.601,2480.00
1367.498,2433.00
1368.397,2827.00
1369.295,2695.00
1370.192,2456.00
1371.089,2709.00
1371.987,2626.00
1372.884,2854.00
1373.781,2459.00
1374.678,2672.00
1375.574,2462.00
1376.473,2772.00
1377.369,2836.00
1378.265,2447.00
1379.161,2596.00
1380.059,2325.00
1380.955,2728.00
1381.851,2412.00
1382.747,2519.00
1383.643,2553.00
1384.540,2387.00
1385.436,2496.00
1386.331,2709.00
1387.227,2787.00
1388.124,2715.00
1389.019,2470.00
1389.914,2641.00
1390.809,2271.00
1391.704,3050.00
1392.601,2550.00
1393.495,2901.00
1394.390,2791.00
1395.285,2875.00
1396.179,2725.00
1397.075,2592.00
1397.969,2686.00
1398.864,2342.00
1399.758,2591.00
1400.652,2686.00
1401.547,2453.00
1402.441,2425.00
1403.335,2993.00
1404.229,2750.00
1405.122,2673.00
1406.017,2635.00
1406.911,2754.00
1407.804,3030.00
1408.697,2641.00
1409.590,2474.00
1410.485,2802.00
1411.378,2704.00
1412.271,2340.00
1413.163,2718.00
1414.056,2797.00
1414.949,3005.00
1415.843,2688.00
1416.735,2613.00
1417.627,2673.00
1418.520,2610.00
1419.412,2862.00
1420.306,2796.00
1421.197,2915.00
1422.089,2854.00
1422.981,3093.00
1423.873,2817.00
1424.764,2740.00
1425.657,2711.00
1426.549,2772.00
1427.440,2886.00
1428.331,2551.00
1429.222,2333.00
1430.113,2695.00
1431.006,2821.00
1431.897,2564.00
1432.787,2678.00
1433.678,2598.00
1434.568,2451.00
1435.459,2819.00
1436.351,2784.00
1437.241,2797.00
1438.131,2780.00
1439.021,2386.00
1439.911,2603.00
1440.801,2665.00
1441.693,2875.00
1442.583,2640.00
1443.472,2641.00
1444.362,2786.00
1445.251,2598.00
1446.140,2599.00
1447.030,2813.00
1447.921,2842.00
1448.810,2488.00
1449.699,3024.00
1450.588,2654.00
1451.476,2550.00
1452.365,2744.00
1453.254,2568.00
1454.144,2541.00
1455.032,2785.00
1455.921,2401.00
1456.809,2917.00
1457.697,2453.00
1458.585,2558.00
1459.473,2587.00
1460.361,2486.00
1461.251,2687.00
1462.138,2739.00
1463.026,2624.00
1463.913,2899.00
1464.801,2556.00
1465.688,2746.00
1466.575,2662.00
1467.463,3113.00
1468.351,2486.00
1469.238,2604.00
1470.125,2260.00
1471.012,2673.00
1471.899,2747.00
1472.785,2457.00
1473.672,2660.00
1474.558,2872.00
1475.446,2798.00
1476.333,2806.00
1477.219,2450.00
1478.105,2596.00
1478.991,2628.00
1479.877,2936.00
1480.762,2621.00
1481.648,2512.00
1482.534,2829.00
1483.419,2697.00
1484.307,2788.00
1485.192,2650.00
1486.077,2501.00
1486.962,2515.00
1487.847,2375.00
1488.732,2528.00
1489.617,2673.00
1490.502,2934.00
1491.387,2791.00
1492.271,2538.00
1493.156,2508.00
1494.042,2463.00
1494.927,2876.00
1495.811,2539.00
1496.695,2780.00
1497.579,2917.00
1498.463,2642.00
1499.347,2673.00
1500.231,2666.00
1501.114,2721.00
1501.998,2906.00
1502.881,2720.00
1503.765,2950.00
1504.648,3040.00
1505.533,2730.00
1506.417,2669.00
1507.300,2577.00
1508.183,2736.00
1509.066,2173.00
1509.948,2881.00
1510.831,3007.00
1511.714,2439.00
1512.596,2828.00
1513.479,2887.00
1514.361,2850.00
1515.243,2711.00
1516.125,2795.00
1517.008,2917.00
1517.890,2615.00
1518.771,2664.00
1519.655,2859.00
1520.537,2582.00
1521.419,2494.00
1522.300,2710.00
1523.182,2824.00
1524.063,2799.00
1524.944,2933.00
1525.825,2825.00
1526.707,2448.00
1527.588,2464.00
1528.468,2743.00
1529.349,2330.00
1530.230,2575.00
1531.111,2829.00
1531.991,2712.00
1532.872,2371.00
1533.752,2637.00
1534.632,2551.00
1535.513,2519.00
1536.393,2872.00
1537.273,2995.00
1538.153,3295.00
1539.032,2410.00
1539.912,2679.00
1540.792,2672.00
1541.672,2674.00
1542.551,2762.00
1543.430,3229.00
1544.310,2711.00
1545.189,2565.00
1546.068,3109.00
1546.947,2757.00
1547.826,2955.00
1548.705,2638.00
1549.584,2866.00
1550.462,2603.00
1551.341,2835.00
1552.219,2750.00
1553.098,2809.00
1553.976,2868.00
1554.854,3050.00
1555.733,2911.00
1556.611,2592.00
1557.489,2438.00
1558.367,2676.00
1559.244,2808.00
1560.122,2646.00
1561.000,2685.00
1561.877,2968.00
1562.755,2553.00
1563.632,2640.00
1564.509,2937.00
1565.386,3039.00
1566.264,2464.00
1567.141,2303.00
1568.017,2829.00
1568.894,2678.00
1569.771,2767.00
1570.648,2800.00
1571.524,2691.00
1572.401,2363.00
1573.277,2484.00
1574.153,2718.00
1575.029,2517.00
1575.906,3371.00
1576.781,2823.00
1577.657,2597.00
1578.533,2904.00
1579.409,2314.00
1580.285,2658.00
1581.160,3087.00
1582.036,2839.00
1582.911,2484.00
1583.786,3032.00
1584.662,2461.00
1585.537,2591.00
1586.412,2754.00
1587.287,2501.00
1588.160,2840.00
1589.035,2334.00
1589.909,2647.00
1590.784,2621.00
1591.658,2470.00
1592.533,2732.00
1593.407,2701.00
1594.281,2546.00
1595.155,3075.00
1596.029,2584.00
1596.903,2596.00
1597.777,2615.00
1598.651,2892.00
1599.525,2386.00
1600.398,2748.00
1601.272,2665.00
1602.144,3179.00
1603.017,2644.00
1603.890,2917.00
1604.763,2776.00
1605.636,2799.00
1606.509,2375.00
1607.382,2516.00
1608.255,2778.00
1609.128,2885.00
1610.000,2607.00
1610.873,2363.00
1611.746,2585.00
1612.616,2601.00
1613.488,2302.00
1614.361,2666.00
1615.233,2643.00
1616.105,2903.00
1616.977,2534.00
1617.849,2532.00
1618.720,2968.00
1619.592,2978.00
1620.464,2731.00
1621.333,3093.00
1622.205,2649.00
1623.076,2661.00
1623.947,2669.00
1624.818,2934.00
1625.689,2799.00
1626.560,2586.00
1627.431,2758.00
1628.302,3087.00
1629.171,2825.00
1630.042,2979.00
1630.912,3645.00
1631.782,3277.00
1632.653,2507.00
1633.523,2847.00
1634.393,2935.00
1635.263,2566.00
1636.131,2662.00
1637.001,2615.00
1637.871,2318.00
1638.741,2323.00
1639.611,2452.00
1640.480,2761.00
1641.350,2582.00
1642.219,2496.00
1643.087,2183.00
1643.956,3128.00
1644.825,2918.00
1645.694,2873.00
1646.563,2821.00
1647.432,2754.00
1648.299,2660.00
1649.167,2788.00
1650.036,2498.00
1650.904,2810.00
1651.773,2832.00
1652.641,2692.00
1653.509,2888.00
1654.376,2556.00
1655.244,2724.00
1656.112,2748.00
1656.980,2689.00
1657.847,2565.00
1658.715,2860.00
1659.581,2588.00
1660.448,2861.00
1661.316,2235.00
1662.183,2682.00
1663.051,2704.00
1663.918,2692.00
1664.783,2702.00
1665.650,2775.00
1666.517,2865.00
1667.384,2708.00
1668.251,2737.00
1669.115,2864.00
1669.982,2635.00
1670.849,2970.00
1671.715,2637.00
1672.581,2842.00
1673.446,2781.00
1674.312,2710.00
1675.178,3105.00
1676.044,2802.00
1676.910,2749.00
1677.774,2754.00
1678.639,2336.00
1679.505,2663.00
1680.370,2849.00
1681.236,3323.00
1682.099,2633.00
1682.965,2733.00
1683.830,2314.00
1684.695,2522.00
1685.560,2590.00
1686.423,2823.00
1687.288,2830.00
1688.153,2752.00
1689.017,2664.00
1689.880,2772.00
1690.745,2823.00
1691.609,2520.00
1692.473,2825.00
1693.338,2929.00
1694.200,2937.00
1695.064,2735.00
1695.928,2588.00
1696.792,2691.00
1697.654,3186.00
1698.517,2666.00
1699.381,2410.00
1700.245,2353.00
1701.106,2998.00
1701.969,2580.00
1702.833,2845.00
1703.696,2620.00
1704.557,2666.00
1705.420,2584.00
1706.283,2721.00
1707.146,2839.00
1708.007,2492.00
1708.870,2492.00
1709.732,2396.00
1710.595,2583.00
1711.455,2467.00
1712.318,2584.00
1713.180,2920.00
1714.040,2749.00
1714.902,2858.00
1715.764,2678.00
1716.626,2477.00
1717.486,2661.00
1718.348,2962.00
1719.209,4260.00
1720.071,2320.00
1720.930,2447.00
1721.792,2562.00
1722.653,2509.00
1723.512,2568.00
1724.374,2664.00
1725.234,2770.00
1726.095,2705.00
1726.954,2719.00
1727.815,2856.00
1728.676,2641.00
1729.535,2912.00
1730.395,2675.00
1731.256,2598.00
1732.114,2744.00
1732.974,2191.00
1733.834,3057.00
1734.693,2831.00
1735.553,2717.00
1736.413,3140.00
1737.272,2566.00
1738.130,2599.00
1738.990,2758.00
1739.849,2631.00
1740.707,3684.00
1741.566,2753.00
1742.426,2719.00
1743.283,3085.00
1744.142,2595.00
1745.001,2364.00
1745.858,2874.00
1746.717,2770.00
1747.576,2790.00
1748.433,2854.00
1749.292,3277.00
1750.150,3300.00
1751.007,2877.00
1751.865,2881.00
1752.723,2725.00
1753.579,2634.00
1754.438,2941.00
1755.296,2915.00
1756.152,2250.00
1757.010,2367.00
1757.865,2912.00
1758.723,2367.00
1759.581,3011.00
1760.436,2661.00
1761.294,3051.00
1762.151,2684.00
1763.006,2631.00
1763.864,2347.00
1764.721,2906.00
1765.576,2715.00
1766.433,2856.00
1767.288,2611.00
1768.144,2738.00
1769.001,2661.00
1769.856,2794.00
1770.712,2904.00
1771.568,2474.00
1772.423,2608.00
1773.279,2566.00
1774.133,2612.00
1774.989,3121.00
1775.845,3084.00
1776.699,2952.00
1777.555,2656.00
1778.409,3212.00
1779.265,2643.00
1780.120,2656.00
1780.974,2664.00
1781.829,2333.00
1782.682,2768.00
1783.538,2511.00
1784.393,2741.00
1785.246,2588.00
1786.101,2806.00
1786.954,2817.00
1787.808,2907.00
1788.661,2406.00
1789.516,2612.00
1790.370,2641.00
1791.223,2899.00
1792.077,2659.00
1792.930,2740.00
1793.784,2576.00
1794.636,2746.00
1795.490,2679.00
1796.344,2742.00
1797.196,2637.00
1798.049,2856.00
1798.901,2593.00
1799.755,2930.00
1800.606,2524.00
1801.460,3230.00
1802.311,3009.00
1803.165,3082.00
1804.018,3049.00
1804.869,2769.00
1805.722,3124.00
1806.573,2730.00
1807.426,2536.00
1808.276,2730.00
1809.129,2566.00
1809.980,2929.00
1810.832,3013.00
1811.683,2616.00
1812.535,3049.00
1813.385,2645.00
1814.237,2995.00
1815.089,2726.00
1815.940,2964.00
1816.791,2635.00
1817.641,2551.00
1818.493,2822.00
1819.343,2768.00
1820.194,2577.00
1821.044,2827.00
1821.895,2915.00
1822.745,2440.00
1823.596,2617.00
1824.445,3122.00
1825.296,2810.00
1826.145,2663.00
1826.996,2901.00
1827.845,2739.00
1828.695,2772.00
1829.544,2704.00
1830.395,2726.00
1831.243,2654.00
1832.094,2454.00
1832.942,3325.00
1833.792,2796.00
1834.640,2788.00
1835.490,2713.00
1836.338,2777.00
1837.186,2559.00
1838.036,2561.00
1838.884,2693.00
1839.733,3046.00
1840.581,2902.00
1841.430,2827.00
1842.278,3090.00
1843.127,2594.00
1843.974,2424.00
1844.823,3112.00
1845.671,2875.00
1846.519,2749.00
1847.366,2812.00
1848.213,2361.00
1849.062,2537.00
1849.909,2487.00
1850.757,3330.00
1851.604,2836.00
1852.452,2666.00
1853.298,2871.00
1854.146,2766.00
1854.993,2785.00
1855.839,3224.00
1856.687,2832.00
1857.532,2835.00
1858.380,2716.00
1859.226,2814.00
1860.073,2841.00
1860.919,2497.00
1861.765,2651.00
1862.612,2981.00
1863.457,2928.00
1864.304,2662.00
1865.150,2806.00
1865.995,2683.00
1866.842,2814.00
1867.686,2988.00
1868.533,2792.00
1869.378,2720.00
1870.223,2770.00
1871.069,2612.00
1871.914,2745.00
1872.760,2737.00
1873.604,2485.00
1874.448,2861.00
1875.294,2892.00
1876.139,2571.00
1876.984,2842.00
1877.828,2375.00
1878.672,2259.00
1879.518,2589.00
1880.361,2914.00
1881.205,2909.00
1882.050,2523.00
1882.894,3202.00
1883.739,2651.00
1884.582,2464.00
1885.425,2527.00
1886.270,2950.00
1887.113,2464.00
1887.956,2830.00
1888.801,2829.00
1889.644,2543.00
1890.486,2317.00
1891.331,2680.00
1892.173,2760.00
1893.017,2843.00
1893.860,2998.00
1894.702,3002.00
1895.546,2701.00
1896.388,3385.00
1897.230,3106.00
1898.074,2656.00
1898.916,2513.00
1899.757,2582.00
1900.601,3366.00
1901.443,3004.00
1902.284,3012.00
1903.125,3170.00
1903.969,2917.00
1904.810,2952.00
1905.651,2805.00
1906.494,3025.00
1907.335,3189.00
1908.176,2866.00
1909.018,2800.00
1909.859,2691.00
1910.700,2618.00
1911.542,3274.00
1912.383,2828.00
1913.223,2353.00
1914.064,2838.00
1914.906,2973.00
1915.746,3084.00
1916.586,3240.00
1917.428,2707.00
1918.268,2765.00
1919.107,2607.00
1919.947,2501.00
1920.789,2672.00
1921.628,2998.00
1922.468,2726.00
1923.309,2583.00
1924.148,3063.00
1924.988,2836.00
1925.827,2728.00
1926.667,2589.00
1927.507,2770.00
1928.345,2570.00
1929.184,2848.00
1930.025,2585.00
1930.864,2982.00
1931.702,3005.00
1932.541,2648.00
1933.381,2845.00
1934.219,2895.00
1935.057,3021.00
1935.896,2451.00
1936.735,2704.00
1937.573,2638.00
1938.411,2543.00
1939.249,2914.00
1940.089,2610.00
1940.927,2937.00
1941.764,3005.00
1942.602,2663.00
1943.439,2632.00
1944.278,2693.00
1945.115,2683.00
1945.953,2491.00
1946.790,2834.00
1947.628,3089.00
1948.465,2854.00
1949.302,2907.00
1950.139,2858.00
1950.976,2620.00
1951.814,2914.00
1952.651,2812.00
1953.487,2539.00
1954.323,3004.00
1955.160,2700.00
1955.998,3109.00
1956.834,2712.00
1957.670,2811.00
1958.506,2992.00
1959.342,2836.00
1960.177,2786.00
1961.015,2893.00
1961.850,2754.00
1962.686,2780.00
1963.521,2797.00
1964.357,3033.00
1965.192,2558.00
1966.029,2873.00
1966.864,2709.00
1967.699,3003.00
1968.534,2787.00
1969.369,3032.00
1970.204,2707.00
1971.040,2794.00
1971.875,2711.00
1972.709,2774.00
1973.544,2549.00
1974.378,2627.00
1975.212,2881.00
1976.047,2630.00
1976.882,2629.00
1977.716,3134.00
1978.550,2470.00
1979.384,2678.00
1980.218,2693.00
1981.052,2695.00
1981.885,2780.00
1982.719,2744.00
1983.554,2904.00
1984.388,3054.00
1985.221,2810.00
1986.054,2981.00
1986.887,2784.00
1987.720,2608.00
1988.553,3053.00
1989.386,2824.00
1990.219,2851.00
1991.053,3057.00
1991.886,2649.00
1992.719,2935.00
1993.551,2288.00
1994.383,2899.00
1995.216,2703.00
1996.048,2470.00
1996.880,2918.00
1997.712,2657.00
1998.544,2755.00
1999.376,2843.00
2000.208,3024.00
2001.040,3169.00
2001.873,2571.00
2002.705,2571.00
2003.536,2810.00
2004.367,2792.00
2005.199,2822.00
2006.030,2655.00
2006.861,2562.00
2007.692,2789.00
2008.523,2644.00
2009.354,2800.00
2010.185,2590.00
2011.016,2900.00
2011.846,2978.00
2012.677,2696.00
2013.507,3128.00
2014.338,2989.00
2015.168,2664.00
2015.999,3260.00
2016.829,2656.00
2017.659,2969.00
2018.489,3270.00
2019.319,2580.00
2020.149,2945.00
2020.980,2817.00
2021.810,2534.00
2022.639,2685.00
2023.469,2669.00
2024.298,2471.00
2025.128,2370.00
2025.957,2364.00
2026.786,2223.00
2027.615,2423.00
2028.444,2582.00
2029.273,2792.00
2030.102,2372.00
2030.931,2631.00
2031.758,2843.00
2032.586,2549.00
2033.415,2640.00
2034.243,2228.00
2035.072,2039.00
2035.900,2499.00
2036.728,2371.00
2037.556,2380.00
2038.385,2397.00
2039.213,2186.00
2040.040,2187.00
2040.868,2147.00
2041.696,2200.00
2042.524,2230.00
2043.351,2453.00
2044.179,2186.00
2045.006,2006.00
