RamanScope Measure Spectrum Data V3.72

<< MEASURE CONDITION >>
Exposure Type,Aver
Exposure Time [sec],15
Exposure Count,4
Measure Time,2023/07/15 16:26:44
Data Name,""
Data Comment,""
Rayleigh Wave[nm],532.0

<< SAMPLE SPECTRUM >>
Wave[dcm-1],No171
146.591,1097.75
147.626,1263.50
148.664,1489.25
149.699,1715.00
150.737,1912.25
151.772,2134.75
152.809,2284.25
153.846,2496.75
154.881,2602.75
155.918,2729.25
156.953,2897.00
157.989,2973.25
159.026,3062.25
160.060,3080.00
161.096,3217.25
162.130,3224.75
163.167,3238.00
164.200,3308.00
165.236,3395.25
166.272,3437.75
167.305,3463.25
168.341,3561.25
169.374,3619.25
170.409,3717.25
171.445,3760.25
172.477,3812.50
173.512,3882.75
174.545,3896.00
175.580,3849.50
176.614,3883.50
177.647,3901.75
178.681,3898.25
179.713,3821.25
180.747,3875.50
181.781,3834.50
182.813,3807.75
183.847,3818.75
184.878,3867.25
185.912,3859.25
186.945,3900.00
187.976,3915.00
189.010,3936.25
190.043,4004.00
191.073,4051.75
192.106,4041.50
193.137,4177.25
194.170,4211.00
195.202,4214.75
196.232,4286.00
197.265,4320.75
198.297,4456.25
199.327,4484.75
200.359,4515.75
201.388,4632.25
202.420,4719.25
203.452,4817.00
204.481,4955.00
205.512,5022.50
206.544,5233.00
207.573,5321.50
208.604,5485.75
209.635,5589.25
210.663,5728.25
211.694,5838.50
212.725,5904.75
213.753,6103.75
214.783,6195.75
215.813,6217.75
216.841,6233.00
217.871,6210.75
218.899,6223.50
219.929,6154.00
220.959,5992.00
221.986,5908.50
223.016,5842.25
224.045,5708.25
225.072,5606.25
226.101,5454.00
227.130,5369.50
228.157,5251.00
229.185,5214.00
230.214,5147.00
231.241,5087.50
232.269,5032.50
233.297,4973.50
234.323,4957.25
235.351,4922.75
236.379,4873.75
237.407,4895.25
238.433,4895.50
239.460,4951.00
240.488,4957.00
241.513,5010.25
242.540,5022.00
243.568,5060.75
244.592,5076.75
245.619,5079.00
246.646,5039.25
247.671,4997.25
248.697,5004.75
249.724,4956.00
250.748,4944.00
251.774,4939.25
252.801,4977.00
253.827,4955.00
254.850,5014.75
255.876,4996.00
256.902,5033.50
257.925,4983.25
258.951,5065.50
259.976,5084.25
260.999,5141.00
262.024,5080.75
263.049,5165.00
264.074,5219.50
265.097,5277.25
266.122,5305.50
267.146,5362.25
268.168,5339.75
269.193,5452.75
270.217,5422.00
271.241,5449.25
272.263,5475.00
273.287,5549.75
274.311,5565.00
275.332,5628.50
276.356,5549.75
277.379,5570.75
278.402,5563.00
279.424,5529.75
280.447,5537.50
281.470,5369.00
282.492,5353.75
283.513,5249.75
284.536,5176.00
285.558,5205.50
286.581,5122.25
287.601,5017.75
288.623,4965.00
289.645,4906.25
290.665,4894.00
291.687,4873.00
292.709,4760.00
293.730,4695.25
294.750,4684.75
295.771,4604.00
296.792,4549.00
297.813,4516.75
298.832,4458.25
299.853,4386.00
300.874,4317.75
301.895,4311.00
302.913,4310.25
303.934,4120.25
304.954,4182.25
305.975,4193.75
306.993,4110.25
308.013,4060.50
309.033,4066.00
310.052,4010.75
311.072,4022.00
312.090,3964.25
313.109,3943.50
314.129,3949.50
315.148,3932.00
316.165,3879.50
317.184,3939.50
318.203,3865.50
319.222,3823.25
320.238,3829.25
321.257,3825.50
322.275,3841.25
323.294,3799.50
324.312,3747.25
325.328,3733.75
326.346,3767.75
327.364,3724.75
328.382,3729.50
329.397,3711.00
330.415,3686.00
331.432,3740.75
332.450,3687.25
333.467,3682.50
334.482,3687.25
335.499,3661.00
336.516,3684.00
337.533,3629.00
338.547,3653.50
339.564,3608.00
340.580,3628.00
341.597,3646.00
342.613,3658.50
343.627,3612.50
344.643,3595.25
345.659,3558.75
346.675,3624.00
347.690,3593.00
348.704,3605.75
349.719,3609.75
350.735,3596.75
351.750,3603.00
352.765,3579.00
353.778,3551.25
354.793,3558.00
355.808,3609.00
356.822,3595.50
357.837,3558.25
358.851,3619.50
359.864,3601.25
360.878,3605.75
361.892,3593.50
362.906,3613.25
363.920,3623.75
364.932,3602.00
365.945,3598.25
366.959,3596.75
367.972,3672.00
368.986,3633.75
369.999,3623.50
371.010,3637.25
372.023,3629.25
373.036,3634.50
374.049,3678.50
375.061,3712.00
376.072,3648.25
377.084,3660.50
378.097,3670.00
379.109,3648.00
380.121,3693.50
381.133,3664.00
382.143,3649.50
383.155,3663.75
384.166,3687.50
385.178,3623.25
386.189,3696.50
387.201,3768.50
388.212,3685.50
389.221,3663.25
390.232,3635.00
391.243,3675.25
392.254,3648.50
393.264,3678.00
394.275,3644.00
395.283,3608.50
396.294,3575.75
397.304,3577.75
398.314,3632.50
399.324,3585.25
400.334,3564.25
401.344,3547.25
402.351,3553.75
403.361,3546.75
404.370,3512.25
405.380,3569.75
406.389,3485.25
407.398,3428.75
408.407,3498.00
409.414,3439.25
410.423,3454.00
411.431,3431.00
412.440,3398.75
413.448,3414.50
414.457,3428.25
415.465,3404.25
416.471,3328.75
417.479,3441.25
418.487,3346.75
419.495,3450.75
420.503,3379.75
421.510,3355.00
422.518,3335.00
423.525,3400.25
424.530,3398.25
425.537,3328.25
426.544,3341.50
427.551,3318.50
428.558,3294.00
429.565,3302.25
430.571,3362.25
431.578,3290.75
432.582,3270.50
433.588,3272.75
434.595,3334.50
435.601,3355.00
436.607,3343.75
437.612,3276.25
438.618,3332.00
439.624,3307.50
440.627,3283.50
441.633,3320.25
442.638,3299.25
443.643,3314.75
444.648,3294.00
445.653,3323.00
446.658,3315.25
447.663,3247.00
448.667,3305.75
449.672,3324.50
450.674,3315.75
451.678,3301.75
452.682,3321.50
453.687,3326.25
454.690,3339.50
455.694,3339.75
456.698,3348.00
457.702,3316.50
458.705,3254.50
459.709,3363.50
460.710,3284.50
461.713,3361.75
462.716,3318.75
463.719,3391.50
464.722,3323.25
465.725,3376.25
466.727,3399.25
467.730,3409.00
468.732,3346.50
469.735,3303.75
470.737,3373.00
471.737,3337.25
472.739,3379.75
473.741,3346.75
474.742,3383.25
475.744,3379.50
476.746,3394.50
477.747,3364.75
478.748,3350.75
479.750,3334.00
480.751,3362.50
481.752,3402.75
482.753,3380.00
483.751,3331.00
484.752,3391.25
485.753,3347.50
486.753,3377.25
487.753,3424.00
488.754,3352.00
489.754,3337.00
490.754,3342.75
491.754,3394.25
492.754,3387.50
493.753,3371.25
494.753,3308.00
495.752,3380.00
496.752,3353.00
497.749,3364.25
498.748,3314.25
499.747,3312.75
500.746,3300.25
501.745,3349.25
502.744,3302.50
503.742,3274.00
504.741,3237.25
505.739,3266.00
506.737,3255.75
507.735,3335.25
508.734,3222.00
509.732,3236.00
510.729,3243.75
511.727,3206.25
512.725,3231.00
513.720,3182.75
514.718,3202.25
515.715,3141.25
516.712,3201.00
517.709,3174.75
518.706,3200.50
519.703,3167.00
520.700,3125.75
521.696,3163.50
522.693,3189.75
523.689,3185.50
524.686,3197.25
525.682,3181.00
526.678,3184.75
527.674,3209.25
528.670,3194.50
529.666,3138.50
530.661,3184.25
531.657,3118.75
532.652,3198.75
533.648,3205.25
534.641,3207.25
535.636,3154.00
536.631,3172.00
537.626,3171.25
538.621,3214.75
539.616,3172.75
540.610,3225.50
541.605,3162.75
542.599,3186.50
543.593,3179.00
544.587,3175.25
545.581,3176.75
546.575,3192.00
547.569,3176.50
548.563,3219.25
549.557,3261.25
550.550,3162.00
551.543,3158.50
552.537,3189.50
553.530,3147.50
554.523,3219.00
555.516,3203.75
556.509,3160.25
557.502,3206.25
558.494,3187.50
559.487,3162.50
560.479,3186.75
561.472,3183.50
562.464,3200.25
563.456,3122.50
564.448,3166.25
565.440,3224.75
566.432,3168.25
567.423,3174.25
568.415,3188.25
569.404,3188.00
570.396,3191.00
571.387,3212.25
572.378,3189.00
573.369,3261.25
574.360,3288.50
575.351,3272.50
576.341,3257.25
577.332,3281.00
578.323,3255.00
579.313,3286.75
580.303,3308.75
581.293,3259.75
582.283,3301.50
583.273,3267.25
584.263,3286.25
585.253,3333.75
586.243,3309.75
587.232,3308.50
588.222,3260.25
589.211,3312.00
590.200,3305.25
591.189,3288.00
592.178,3336.75
593.167,3324.00
594.156,3268.50
595.145,3370.25
596.133,3338.25
597.122,3319.00
598.110,3248.50
599.098,3328.25
600.086,3340.00
601.074,3371.25
602.062,3349.25
603.050,3298.50
604.038,3313.50
605.025,3275.50
606.013,3333.75
607.000,3332.00
607.987,3297.25
608.975,3305.00
609.962,3254.25
610.949,3257.00
611.936,3247.50
612.922,3146.00
613.909,3121.00
614.895,3185.25
615.882,3159.50
616.868,3130.75
617.854,3164.75
618.841,3116.00
619.826,3059.00
620.812,3077.50
621.798,3040.00
622.784,3014.00
623.769,2988.25
624.755,2972.50
625.740,2945.75
626.725,2946.50
627.711,2963.50
628.698,2883.25
629.683,2893.50
630.667,2868.25
631.652,2861.75
632.637,2911.25
633.621,2827.75
634.606,2879.00
635.590,2834.25
636.574,2850.75
637.558,2810.00
638.542,2750.25
639.526,2769.00
640.510,2752.00
641.493,2704.00
642.477,2759.25
643.460,2707.00
644.444,2716.50
645.427,2673.75
646.410,2653.50
647.393,2698.00
648.376,2685.50
649.359,2676.00
650.341,2653.25
651.324,2688.50
652.307,2597.50
653.289,2645.50
654.271,2643.00
655.253,2628.75
656.235,2611.25
657.217,2617.75
658.199,2578.50
659.181,2566.75
660.163,2606.00
661.144,2543.25
662.126,2603.75
663.107,2588.75
664.088,2546.75
665.069,2564.25
666.050,2524.75
667.033,2530.00
668.014,2521.25
668.995,2529.75
669.975,2536.25
670.956,2477.75
671.936,2533.75
672.916,2508.25
673.896,2497.75
674.876,2429.00
675.856,2435.75
676.836,2398.25
677.816,2367.00
678.795,2386.25
679.775,2385.00
680.754,2362.25
681.734,2380.00
682.713,2362.50
683.692,2303.00
684.671,2298.50
685.650,2296.25
686.629,2297.75
687.607,2302.25
688.586,2241.50
689.564,2274.50
690.543,2262.00
691.523,2204.00
692.501,2197.25
693.479,2255.75
694.457,2266.25
695.435,2223.50
696.413,2152.00
697.390,2167.00
698.368,2188.25
699.345,2185.00
700.322,2218.25
701.300,2179.00
702.277,2156.50
703.254,2175.00
704.231,2122.00
705.207,2206.25
706.184,2110.50
707.161,2126.50
708.137,2111.25
709.113,2111.50
710.090,2141.75
711.068,2140.00
712.044,2061.25
713.020,2066.25
713.996,2101.50
714.971,2078.25
715.947,2037.25
716.922,2071.75
717.898,2010.50
718.873,2020.50
719.848,2061.75
720.823,2050.50
721.798,2007.00
722.773,2027.50
723.748,1999.50
724.723,2025.25
725.697,1997.50
726.672,2003.50
727.646,2013.75
728.622,1986.50
729.596,1951.25
730.570,1998.75
731.544,1952.50
732.518,1969.50
733.492,1971.25
734.466,1984.75
735.439,1933.50
736.413,1962.50
737.386,1939.50
738.359,1936.00
739.332,1946.25
740.305,1944.25
741.278,1890.75
742.251,1938.75
743.224,1948.75
744.196,1960.00
745.171,1873.25
746.143,1939.75
747.115,1883.50
748.087,1869.75
749.059,1850.50
750.031,1887.00
751.003,1869.75
751.975,1863.75
752.947,1905.50
753.918,1840.00
754.890,1869.00
755.861,1839.00
756.832,1813.50
757.803,1880.25
758.774,1873.75
759.747,1812.00
760.718,1808.25
761.689,1804.75
762.659,1797.00
763.630,1800.50
764.600,1741.50
765.570,1791.75
766.540,1771.75
767.510,1765.75
768.480,1795.25
769.450,1804.00
770.420,1707.00
771.390,1797.75
772.359,1816.25
773.329,1751.00
774.300,1782.25
775.269,1694.50
776.238,1744.75
777.207,1726.25
778.176,1766.50
779.145,1740.75
780.114,1728.75
781.083,1697.00
782.051,1708.00
783.019,1712.50
783.988,1694.00
784.956,1744.75
785.924,1686.75
786.894,1709.50
787.862,1709.75
788.830,1730.25
789.797,1670.75
790.765,1690.00
791.732,1649.50
792.700,1671.00
793.667,1660.00
794.634,1679.50
795.601,1667.25
796.568,1606.25
797.535,1733.50
798.502,1645.50
799.468,1684.25
800.437,1664.25
801.403,1638.25
802.370,1606.75
803.336,1573.50
804.302,1609.00
805.268,1610.75
806.234,1609.00
807.200,1610.50
808.166,1586.75
809.131,1597.75
810.097,1597.25
811.062,1605.75
812.027,1576.50
812.994,1627.00
813.960,1614.00
814.925,1605.00
815.889,1568.00
816.854,1554.50
817.819,1583.50
818.783,1552.50
819.748,1561.25
820.712,1588.75
821.677,1589.50
822.641,1564.75
823.605,1514.50
824.571,1546.25
825.534,1554.00
826.498,1560.75
827.462,1529.25
828.425,1475.50
829.389,1574.00
830.352,1596.75
831.315,1565.00
832.279,1560.25
833.242,1509.50
834.204,1516.25
835.167,1529.00
836.132,1584.50
837.095,1537.75
838.057,1546.50
839.020,1551.00
839.982,1516.75
840.944,1539.50
841.906,1566.50
842.868,1516.25
843.830,1486.75
844.792,1504.25
845.753,1537.25
846.715,1474.00
847.679,1534.75
848.640,1512.00
849.601,1515.00
850.562,1567.00
851.523,1532.75
852.484,1513.00
853.445,1513.00
854.406,1471.00
855.367,1502.50
856.327,1546.25
857.288,1531.50
858.248,1496.75
859.210,1501.75
860.170,1478.50
861.130,1475.00
862.090,1504.75
863.050,1478.50
864.010,1449.75
864.969,1520.25
865.929,1477.00
866.888,1499.50
867.848,1505.00
868.807,1468.75
869.766,1460.75
870.727,1467.00
871.686,1461.50
872.645,1441.75
873.604,1529.00
874.562,1471.00
875.521,1450.50
876.479,1466.50
877.437,1469.00
878.396,1495.50
879.354,1459.50
880.312,1509.25
881.270,1475.50
882.229,1450.25
883.187,1513.00
884.145,1499.00
885.102,1478.75
886.059,1502.25
887.017,1544.50
887.974,1527.50
888.931,1542.50
889.888,1513.50
890.845,1487.00
891.802,1489.50
892.758,1481.25
893.717,1512.75
894.673,1480.50
895.630,1470.25
896.586,1474.50
897.542,1458.00
898.498,1525.75
899.454,1491.00
900.410,1493.00
901.366,1499.25
902.321,1493.50
903.277,1469.00
904.232,1499.50
905.189,1526.50
906.145,1500.75
907.100,1544.50
908.055,1494.50
909.010,1476.00
909.965,1501.75
910.919,1488.00
911.874,1469.50
912.828,1492.25
913.783,1516.50
914.737,1527.50
915.693,1474.25
916.648,1494.25
917.602,1498.25
918.555,1501.75
919.509,1534.50
920.463,1527.25
921.417,1535.75
922.370,1488.25
923.324,1459.25
924.277,1494.75
925.230,1509.00
926.183,1488.25
927.138,1475.25
928.091,1521.00
929.044,1490.25
929.996,1510.50
930.949,1477.00
931.902,1566.25
932.854,1534.50
933.806,1482.75
934.758,1515.25
935.711,1529.50
936.663,1553.50
937.614,1567.75
938.568,1500.00
939.520,1517.75
940.471,1526.50
941.423,1528.75
942.374,1521.00
943.326,1494.00
944.277,1516.00
945.228,1516.25
946.179,1512.75
947.130,1538.75
948.080,1523.50
949.031,1538.75
949.984,1478.00
950.934,1534.25
951.884,1483.25
952.835,1535.25
953.785,1487.25
954.735,1467.25
955.685,1489.00
956.635,1437.25
957.585,1481.00
958.534,1512.75
959.484,1455.25
960.433,1463.50
961.383,1474.00
962.334,1432.75
963.283,1473.75
964.232,1479.50
965.181,1454.50
966.130,1507.75
967.079,1462.50
968.027,1468.00
968.976,1407.50
969.924,1477.75
970.873,1411.75
971.821,1468.00
972.769,1440.50
973.719,1464.75
974.667,1450.25
975.615,1492.75
976.562,1470.00
977.510,1451.50
978.458,1418.50
979.405,1450.00
980.352,1451.25
981.300,1413.50
982.247,1456.75
983.194,1427.50
984.141,1458.00
985.088,1448.25
986.036,1438.25
986.983,1430.75
987.930,1411.75
988.876,1446.75
989.822,1435.00
990.769,1406.75
991.715,1405.25
992.661,1445.00
993.607,1426.50
994.553,1437.50
995.498,1405.00
996.444,1398.00
997.389,1411.75
998.337,1382.25
999.282,1423.25
1000.227,1439.25
1001.173,1404.75
1002.118,1392.75
1003.062,1386.25
1004.007,1451.00
1004.952,1412.75
1005.897,1403.50
1006.841,1391.00
1007.786,1409.75
1008.730,1406.75
1009.674,1376.75
1010.618,1379.50
1011.564,1449.00
1012.508,1416.00
1013.452,1400.50
1014.396,1361.75
1015.339,1427.75
1016.283,1427.50
1017.226,1420.75
1018.170,1381.25
1019.113,1427.50
1020.056,1415.75
1020.999,1390.50
1021.942,1362.25
1022.885,1425.00
1023.828,1373.75
1024.770,1367.00
1025.715,1408.25
1026.657,1401.00
1027.600,1421.50
1028.542,1410.00
1029.484,1394.50
1030.426,1418.00
1031.368,1406.25
1032.310,1412.25
1033.251,1456.75
1034.193,1384.75
1035.135,1414.25
1036.076,1392.25
1037.017,1454.75
1037.959,1375.00
1038.900,1385.50
1039.843,1418.25
1040.784,1417.25
1041.725,1421.75
1042.665,1438.25
1043.606,1407.50
1044.547,1418.25
1045.487,1468.00
1046.427,1434.00
1047.368,1431.00
1048.308,1443.00
1049.248,1464.75
1050.188,1460.50
1051.128,1430.50
1052.067,1421.75
1053.007,1466.50
1053.947,1450.00
1054.886,1469.50
1055.827,1459.25
1056.766,1476.25
1057.706,1415.75
1058.645,1437.50
1059.584,1440.50
1060.522,1436.00
1061.461,1454.00
1062.400,1439.00
1063.338,1444.75
1064.277,1468.25
1065.215,1473.75
1066.154,1454.50
1067.092,1443.25
1068.030,1498.50
1068.968,1467.00
1069.906,1458.75
1070.843,1458.50
1071.781,1498.00
1072.720,1500.50
1073.658,1473.50
1074.595,1485.00
1075.533,1487.25
1076.470,1449.50
1077.407,1450.00
1078.344,1466.25
1079.281,1473.75
1080.217,1484.25
1081.154,1436.50
1082.091,1511.25
1083.027,1477.25
1083.964,1505.50
1084.900,1476.25
1085.836,1478.75
1086.772,1475.25
1087.708,1498.00
1088.644,1463.50
1089.580,1447.75
1090.515,1490.75
1091.451,1462.00
1092.388,1463.75
1093.324,1462.00
1094.259,1497.00
1095.194,1446.25
1096.129,1430.50
1097.064,1455.00
1097.999,1449.25
1098.934,1477.75
1099.869,1490.00
1100.803,1442.25
1101.738,1415.50
1102.672,1455.25
1103.607,1418.00
1104.541,1470.50
1105.475,1408.00
1106.409,1439.75
1107.343,1418.00
1108.277,1433.25
1109.210,1410.50
1110.144,1387.25
1111.078,1413.25
1112.011,1433.50
1112.944,1391.00
1113.878,1423.50
1114.811,1402.00
1115.744,1318.25
1116.678,1378.50
1117.611,1396.00
1118.544,1338.00
1119.477,1373.50
1120.409,1337.00
1121.342,1414.25
1122.274,1342.75
1123.206,1328.50
1124.138,1297.00
1125.070,1374.75
1126.002,1357.25
1126.934,1311.00
1127.866,1323.75
1128.798,1356.25
1129.729,1322.25
1130.661,1298.25
1131.592,1295.50
1132.523,1292.75
1133.454,1299.00
1134.385,1295.25
1135.317,1320.75
1136.247,1279.50
1137.178,1284.25
1138.109,1348.25
1139.039,1295.75
1139.970,1293.25
1140.900,1298.25
1141.831,1283.75
1142.761,1271.25
1143.691,1222.75
1144.621,1275.50
1145.551,1245.50
1146.480,1272.75
1147.410,1256.50
1148.340,1278.25
1149.269,1260.50
1150.199,1269.50
1151.128,1264.00
1152.057,1249.75
1152.979,1265.25
1153.898,1271.75
1154.819,1215.75
1155.739,1253.50
1156.658,1237.25
1157.579,1256.00
1158.498,1265.25
1159.419,1246.25
1160.338,1187.25
1161.256,1237.00
1162.177,1233.50
1163.095,1233.00
1164.016,1260.25
1164.934,1199.25
1165.852,1251.25
1166.772,1181.50
1167.690,1233.75
1168.610,1218.75
1169.528,1208.25
1170.446,1241.25
1171.365,1198.50
1172.283,1176.75
1173.202,1187.75
1174.120,1211.50
1175.037,1218.00
1175.956,1224.50
1176.873,1200.75
1177.792,1188.75
1178.709,1189.00
1179.626,1216.50
1180.544,1211.25
1181.461,1243.25
1182.379,1216.25
1183.296,1218.50
1184.212,1186.25
1185.130,1195.75
1186.046,1207.00
1186.962,1192.00
1187.880,1139.00
1188.796,1182.25
1189.714,1209.00
1190.629,1170.25
1191.545,1169.50
1192.462,1218.75
1193.378,1192.50
1194.295,1185.00
1195.210,1187.00
1196.125,1187.75
1197.042,1150.50
1197.957,1193.50
1198.872,1190.25
1199.788,1168.75
1200.703,1179.75
1201.619,1153.25
1202.534,1225.25
1203.448,1223.00
1204.364,1163.00
1205.278,1180.00
1206.192,1169.00
1207.108,1165.75
1208.022,1194.25
1208.938,1195.00
1209.851,1150.25
1210.765,1187.75
1211.680,1218.25
1212.594,1216.25
1213.507,1168.50
1214.422,1210.75
1215.335,1199.00
1216.248,1174.00
1217.163,1168.75
1218.076,1190.00
1218.990,1213.75
1219.903,1227.75
1220.816,1161.50
1221.730,1158.50
1222.642,1198.00
1223.554,1191.25
1224.469,1219.75
1225.380,1221.25
1226.292,1218.25
1227.206,1215.75
1228.118,1194.25
1229.032,1241.75
1229.943,1221.00
1230.855,1241.00
1231.768,1209.75
1232.679,1157.75
1233.590,1199.75
1234.503,1185.50
1235.414,1205.50
1236.325,1174.75
1237.238,1247.75
1238.149,1217.50
1239.059,1184.75
1239.972,1235.50
1240.882,1203.50
1241.793,1170.00
1242.705,1214.75
1243.615,1194.00
1244.525,1201.50
1245.437,1207.75
1246.347,1227.25
1247.259,1242.25
1248.168,1205.00
1249.078,1165.50
1249.989,1208.50
1250.899,1214.75
1251.808,1197.75
1252.719,1202.50
1253.628,1186.75
1254.537,1211.50
1255.448,1205.75
1256.357,1165.00
1257.266,1223.50
1258.176,1194.75
1259.085,1222.25
1259.993,1213.25
1260.904,1198.75
1261.812,1239.50
1262.720,1235.75
1263.630,1240.25
1264.538,1228.00
1265.446,1206.00
1266.356,1242.25
1267.263,1245.00
1268.171,1214.75
1269.080,1229.00
1269.988,1204.25
1270.895,1217.25
1271.804,1222.50
1272.711,1209.75
1273.619,1229.50
1274.527,1209.75
1275.434,1203.75
1276.341,1202.75
1277.248,1230.75
1278.156,1187.00
1279.063,1197.25
1279.969,1209.25
1280.877,1197.75
1281.783,1201.50
1282.690,1175.00
1283.598,1214.50
1284.503,1192.00
1285.409,1223.75
1286.317,1165.25
1287.223,1185.50
1288.128,1168.75
1289.036,1128.50
1289.941,1180.00
1290.846,1193.00
1291.751,1180.50
1292.658,1190.25
1293.563,1187.25
1294.468,1204.50
1295.375,1174.50
1296.280,1142.25
1297.184,1167.25
1298.091,1135.25
1298.995,1162.50
1299.900,1167.50
1300.806,1150.25
1301.710,1168.25
1302.614,1123.75
1303.518,1213.50
1304.424,1132.25
1305.327,1128.75
1306.231,1177.00
1307.137,1114.75
1308.040,1116.50
1308.943,1142.75
1309.847,1110.25
1310.752,1169.75
1311.655,1139.75
1312.558,1140.75
1313.463,1115.75
1314.366,1150.75
1315.269,1153.00
1316.171,1112.50
1317.076,1131.25
1317.978,1120.00
1318.881,1071.75
1319.785,1109.00
1320.687,1121.25
1321.589,1096.25
1322.491,1082.50
1323.395,1057.00
1324.297,1064.50
1325.198,1101.25
1326.102,1085.00
1327.004,1092.25
1327.905,1085.50
1328.806,1077.50
1329.709,1087.00
1330.611,1087.50
1331.512,1074.75
1332.413,1103.25
1333.316,1075.25
1334.216,1086.50
1335.117,1083.00
1336.020,1051.00
1336.920,1063.25
1337.821,1052.00
1338.721,1057.50
1339.623,1049.50
1340.523,1064.50
1341.423,1032.25
1342.323,1066.50
1343.225,1074.75
1344.125,1018.50
1345.025,1038.00
1345.924,1043.25
1346.826,1052.50
1347.725,1027.75
1348.624,1050.25
1349.524,1049.75
1350.425,1038.25
1351.324,1046.25
1352.223,1014.75
1353.121,997.25
1354.022,1007.50
1354.921,987.50
1355.819,1007.00
1356.718,1015.00
1357.618,1011.50
1358.516,1043.50
1359.415,1028.25
1360.313,1007.50
1361.213,974.50
1362.111,978.75
1363.008,997.50
1363.906,1001.25
1364.806,1012.25
1365.703,968.25
1366.601,994.25
1367.498,982.75
1368.397,990.50
1369.295,978.25
1370.192,969.00
1371.089,937.25
1371.987,931.00
1372.884,992.75
1373.781,953.00
1374.678,973.25
1375.574,986.50
1376.473,978.50
1377.369,940.75
1378.265,964.50
1379.161,1016.00
1380.059,964.75
1380.955,953.50
1381.851,963.25
1382.747,949.25
1383.643,1010.50
1384.540,921.50
1385.436,940.25
1386.331,933.75
1387.227,922.75
1388.124,945.50
1389.019,964.50
1389.914,969.50
1390.809,929.00
1391.704,954.25
1392.601,954.50
1393.495,929.75
1394.390,933.25
1395.285,936.25
1396.179,918.25
1397.075,902.50
1397.969,876.75
1398.864,917.25
1399.758,968.75
1400.652,908.75
1401.547,929.25
1402.441,885.00
1403.335,987.25
1404.229,896.00
1405.122,933.25
1406.017,919.75
1406.911,914.50
1407.804,930.00
1408.697,881.50
1409.590,927.25
1410.485,923.00
1411.378,928.50
1412.271,937.25
1413.163,892.50
1414.056,914.75
1414.949,888.75
1415.843,866.75
1416.735,906.50
1417.627,911.00
1418.520,865.00
1419.412,923.00
1420.306,884.25
1421.197,901.25
1422.089,883.25
1422.981,845.50
1423.873,921.00
1424.764,889.25
1425.657,852.25
1426.549,880.00
1427.440,866.50
1428.331,873.50
1429.222,891.50
1430.113,899.00
1431.006,825.50
1431.897,896.75
1432.787,912.00
1433.678,915.00
1434.568,847.00
1435.459,886.50
1436.351,900.25
1437.241,874.25
1438.131,884.25
1439.021,895.75
1439.911,857.75
1440.801,897.25
1441.693,877.25
1442.583,861.50
1443.472,884.50
1444.362,828.50
1445.251,876.00
1446.140,869.50
1447.030,849.25
1447.921,851.75
1448.810,828.50
1449.699,850.25
1450.588,851.75
1451.476,865.00
1452.365,840.75
1453.254,855.75
1454.144,807.25
1455.032,842.25
1455.921,816.25
1456.809,884.75
1457.697,845.25
1458.585,831.00
1459.473,847.00
1460.361,819.00
1461.251,842.75
1462.138,854.25
1463.026,849.25
1463.913,758.50
1464.801,843.75
1465.688,856.25
1466.575,803.00
1467.463,835.75
1468.351,846.25
1469.238,832.25
1470.125,818.00
1471.012,826.25
1471.899,835.00
1472.785,834.25
1473.672,812.75
1474.558,828.25
1475.446,793.00
1476.333,821.50
1477.219,810.00
1478.105,832.75
1478.991,849.25
1479.877,839.25
1480.762,859.25
1481.648,840.25
1482.534,789.75
1483.419,803.00
1484.307,819.00
1485.192,814.00
1486.077,774.50
1486.962,814.75
1487.847,805.75
1488.732,772.50
1489.617,831.50
1490.502,781.50
1491.387,809.25
1492.271,826.00
1493.156,812.25
1494.042,808.75
1494.927,797.25
1495.811,751.00
1496.695,804.50
1497.579,769.25
1498.463,789.00
1499.347,802.50
1500.231,789.50
1501.114,801.75
1501.998,809.75
1502.881,752.25
1503.765,817.00
1504.648,782.50
1505.533,799.75
1506.417,767.00
1507.300,756.00
1508.183,753.75
1509.066,764.25
1509.948,790.75
1510.831,763.25
1511.714,749.75
1512.596,789.75
1513.479,787.00
1514.361,774.75
1515.243,759.50
1516.125,765.75
1517.008,791.00
1517.890,791.50
1518.771,748.25
1519.655,747.25
1520.537,778.00
1521.419,779.75
1522.300,744.25
1523.182,760.25
1524.063,734.50
1524.944,762.50
1525.825,770.75
1526.707,753.00
1527.588,746.75
1528.468,772.75
1529.349,793.50
1530.230,757.00
1531.111,747.50
1531.991,707.75
1532.872,754.25
1533.752,796.25
1534.632,743.00
1535.513,719.75
1536.393,747.00
1537.273,728.50
1538.153,707.00
1539.032,743.50
1539.912,759.00
1540.792,724.75
1541.672,734.75
1542.551,727.50
1543.430,768.50
1544.310,753.50
1545.189,741.75
1546.068,756.00
1546.947,747.50
1547.826,726.50
1548.705,731.50
1549.584,758.25
1550.462,754.25
1551.341,719.00
1552.219,748.75
1553.098,726.25
1553.976,801.25
1554.854,664.00
1555.733,742.50
1556.611,737.25
1557.489,752.75
1558.367,733.00
1559.244,778.75
1560.122,754.25
1561.000,731.50
1561.877,697.25
1562.755,725.00
1563.632,715.75
1564.509,708.25
1565.386,732.50
1566.264,729.25
1567.141,697.50
1568.017,713.50
1568.894,741.25
1569.771,716.50
1570.648,725.00
1571.524,743.50
1572.401,700.75
1573.277,745.00
1574.153,744.75
1575.029,693.00
1575.906,702.75
1576.781,707.75
1577.657,739.50
1578.533,682.00
1579.409,718.00
1580.285,710.00
1581.160,698.25
1582.036,741.25
1582.911,704.50
1583.786,721.50
1584.662,716.75
1585.537,683.75
1586.412,710.75
1587.287,698.25
1588.160,676.50
1589.035,698.75
1589.909,696.75
1590.784,730.75
1591.658,690.75
1592.533,713.75
1593.407,675.25
1594.281,708.00
1595.155,736.25
1596.029,729.00
1596.903,697.00
1597.777,681.00
1598.651,756.25
1599.525,710.50
1600.398,708.00
1601.272,677.25
1602.144,680.50
1603.017,705.25
1603.890,708.50
1604.763,705.00
1605.636,751.25
1606.509,678.75
1607.382,654.75
1608.255,694.50
1609.128,718.50
1610.000,671.25
1610.873,723.25
1611.746,680.25
1612.616,684.00
1613.488,691.50
1614.361,739.00
1615.233,672.75
1616.105,686.50
1616.977,666.25
1617.849,692.25
1618.720,691.50
1619.592,669.25
1620.464,713.00
1621.333,702.00
1622.205,660.25
1623.076,679.25
1623.947,701.00
1624.818,621.50
1625.689,665.25
1626.560,684.00
1627.431,663.75
1628.302,668.50
1629.171,687.25
1630.042,665.25
1630.912,708.50
1631.782,696.50
1632.653,734.50
1633.523,679.75
1634.393,693.50
1635.263,647.50
1636.131,676.25
1637.001,648.25
1637.871,682.00
1638.741,676.50
1639.611,697.50
1640.480,681.00
1641.350,639.25
1642.219,665.50
1643.087,658.50
1643.956,666.50
1644.825,677.25
1645.694,714.50
1646.563,681.50
1647.432,690.50
1648.299,695.50
1649.167,691.25
1650.036,647.50
1650.904,676.25
1651.773,694.50
1652.641,666.50
1653.509,668.25
1654.376,644.50
1655.244,693.75
1656.112,668.75
1656.980,622.00
1657.847,671.00
1658.715,677.50
1659.581,668.00
1660.448,641.00
1661.316,692.50
1662.183,662.50
1663.051,663.75
1663.918,692.50
1664.783,659.50
1665.650,666.25
1666.517,648.75
1667.384,664.00
1668.251,677.25
1669.115,657.25
1669.982,658.00
1670.849,643.00
1671.715,670.75
1672.581,689.75
1673.446,676.50
1674.312,638.75
1675.178,655.50
1676.044,705.00
1676.910,668.00
1677.774,655.25
1678.639,664.00
1679.505,684.50
1680.370,611.75
1681.236,679.00
1682.099,671.50
1682.965,674.25
1683.830,654.50
1684.695,652.25
1685.560,631.25
1686.423,686.50
1687.288,650.00
1688.153,680.50
1689.017,687.00
1689.880,652.75
1690.745,654.25
1691.609,624.00
1692.473,670.75
1693.338,625.00
1694.200,651.25
1695.064,636.75
1695.928,627.25
1696.792,612.75
1697.654,635.25
1698.517,687.25
1699.381,659.00
1700.245,645.75
1701.106,610.25
1701.969,631.25
1702.833,675.25
1703.696,642.75
1704.557,671.00
1705.420,620.25
1706.283,607.00
1707.146,652.75
1708.007,668.25
1708.870,624.50
1709.732,639.25
1710.595,642.25
1711.455,662.75
1712.318,673.00
1713.180,653.75
1714.040,640.00
1714.902,645.00
1715.764,644.00
1716.626,636.75
1717.486,666.25
1718.348,663.25
1719.209,644.50
1720.071,708.50
1720.930,663.75
1721.792,658.75
1722.653,651.75
1723.512,645.50
1724.374,613.50
1725.234,647.00
1726.095,646.00
1726.954,630.75
1727.815,627.50
1728.676,637.25
1729.535,657.50
1730.395,649.50
1731.256,638.00
1732.114,654.25
1732.974,648.75
1733.834,682.50
1734.693,640.50
1735.553,626.75
1736.413,640.00
1737.272,612.00
1738.130,668.00
1738.990,654.75
1739.849,632.25
1740.707,691.50
1741.566,655.25
1742.426,630.50
1743.283,650.75
1744.142,649.50
1745.001,621.50
1745.858,612.25
1746.717,661.50
1747.576,647.00
1748.433,633.50
1749.292,625.50
1750.150,622.25
1751.007,630.50
1751.865,615.00
1752.723,639.25
1753.579,617.25
1754.438,624.75
1755.296,601.25
1756.152,624.25
1757.010,615.00
1757.865,640.25
1758.723,587.75
1759.581,659.00
1760.436,602.00
1761.294,623.50
1762.151,589.00
1763.006,588.75
1763.864,627.00
1764.721,652.25
1765.576,590.25
1766.433,664.50
1767.288,630.00
1768.144,615.75
1769.001,628.00
1769.856,621.00
1770.712,641.25
1771.568,641.25
1772.423,617.50
1773.279,621.25
1774.133,617.50
1774.989,655.25
1775.845,622.00
1776.699,654.25
1777.555,634.00
1778.409,650.50
1779.265,645.00
1780.120,626.25
1780.974,614.00
1781.829,633.50
1782.682,619.75
1783.538,616.50
1784.393,624.25
1785.246,625.75
1786.101,608.25
1786.954,611.00
1787.808,632.25
1788.661,631.25
1789.516,609.25
1790.370,655.25
1791.223,593.75
1792.077,679.00
1792.930,604.50
1793.784,597.75
1794.636,651.25
1795.490,606.00
1796.344,637.50
1797.196,605.25
1798.049,682.25
1798.901,632.50
1799.755,653.25
1800.606,653.75
1801.460,592.75
1802.311,619.75
1803.165,635.25
1804.018,596.00
1804.869,617.75
1805.722,595.50
1806.573,619.75
1807.426,619.00
1808.276,624.50
1809.129,652.00
1809.980,669.75
1810.832,584.75
1811.683,602.25
1812.535,607.50
1813.385,568.25
1814.237,603.25
1815.089,618.75
1815.940,617.00
1816.791,618.75
1817.641,586.75
1818.493,627.75
1819.343,627.00
1820.194,566.25
1821.044,602.00
1821.895,637.25
1822.745,636.00
1823.596,603.25
1824.445,642.00
1825.296,606.00
1826.145,562.00
1826.996,617.50
1827.845,627.25
1828.695,584.50
1829.544,614.50
1830.395,602.75
1831.243,585.75
1832.094,597.25
1832.942,662.50
1833.792,615.75
1834.640,556.00
1835.490,638.75
1836.338,599.50
1837.186,615.50
1838.036,600.50
1838.884,594.75
1839.733,607.75
1840.581,641.50
1841.430,588.00
1842.278,591.75
1843.127,619.75
1843.974,639.00
1844.823,606.50
1845.671,654.25
1846.519,535.00
1847.366,598.50
1848.213,621.75
1849.062,568.75
1849.909,600.00
1850.757,633.75
1851.604,607.50
1852.452,592.75
1853.298,580.00
1854.146,595.00
1854.993,590.50
1855.839,595.50
1856.687,616.25
1857.532,638.00
1858.380,633.50
1859.226,614.25
1860.073,582.75
1860.919,589.75
1861.765,595.75
1862.612,619.25
1863.457,591.50
1864.304,585.00
1865.150,632.25
1865.995,601.00
1866.842,591.75
1867.686,602.75
1868.533,604.50
1869.378,559.00
1870.223,573.00
1871.069,623.00
1871.914,584.25
1872.760,599.50
1873.604,583.25
1874.448,653.25
1875.294,548.50
1876.139,586.25
1876.984,605.75
1877.828,583.75
1878.672,607.25
1879.518,614.75
1880.361,588.00
1881.205,571.50
1882.050,588.50
1882.894,576.75
1883.739,590.75
1884.582,584.00
1885.425,556.25
1886.270,604.50
1887.113,574.00
1887.956,623.00
1888.801,580.25
1889.644,593.50
1890.486,569.50
1891.331,607.25
1892.173,608.50
1893.017,616.75
1893.860,601.75
1894.702,596.75
1895.546,569.50
1896.388,560.75
1897.230,572.00
1898.074,589.25
1898.916,542.00
1899.757,574.75
1900.601,594.00
1901.443,602.50
1902.284,586.25
1903.125,573.50
1903.969,555.25
1904.810,591.50
1905.651,615.50
1906.494,530.00
1907.335,600.00
1908.176,569.00
1909.018,580.50
1909.859,550.25
1910.700,550.50
1911.542,593.50
1912.383,564.00
1913.223,608.00
1914.064,566.25
1914.906,577.75
1915.746,544.75
1916.586,614.75
1917.428,598.50
1918.268,599.25
1919.107,582.50
1919.947,603.00
1920.789,611.00
1921.628,582.50
1922.468,583.50
1923.309,579.75
1924.148,610.00
1924.988,546.25
1925.827,606.25
1926.667,553.50
1927.507,587.25
1928.345,585.25
1929.184,569.00
1930.025,544.25
1930.864,570.00
1931.702,593.00
1932.541,600.75
1933.381,599.00
1934.219,567.00
1935.057,531.50
1935.896,613.75
1936.735,549.25
1937.573,552.25
1938.411,593.75
1939.249,604.50
1940.089,604.75
1940.927,554.25
1941.764,594.00
1942.602,587.25
1943.439,559.25
1944.278,557.75
1945.115,579.75
1945.953,562.00
1946.790,561.00
1947.628,594.25
1948.465,591.25
1949.302,589.75
1950.139,597.25
1950.976,595.50
1951.814,559.75
1952.651,607.25
1953.487,588.25
1954.323,592.75
1955.160,578.25
1955.998,551.25
1956.834,540.50
1957.670,584.00
1958.506,571.00
1959.342,577.75
1960.177,598.50
1961.015,598.75
1961.850,544.50
1962.686,638.50
1963.521,588.00
1964.357,590.75
1965.192,597.75
1966.029,568.25
1966.864,570.75
1967.699,602.75
1968.534,560.00
1969.369,558.00
1970.204,563.00
1971.040,599.25
1971.875,594.00
1972.709,572.75
1973.544,573.50
1974.378,605.75
1975.212,510.00
1976.047,573.75
1976.882,555.00
1977.716,578.50
1978.550,512.25
1979.384,589.50
1980.218,560.25
1981.052,585.25
1981.885,561.75
1982.719,560.25
1983.554,538.25
1984.388,535.25
1985.221,552.00
1986.054,590.50
1986.887,567.50
1987.720,544.25
1988.553,605.25
1989.386,569.50
1990.219,560.25
1991.053,606.25
1991.886,562.25
1992.719,579.25
1993.551,605.50
1994.383,551.75
1995.216,540.00
1996.048,582.50
1996.880,555.50
1997.712,571.00
1998.544,596.00
1999.376,560.25
2000.208,559.50
2001.040,572.25
2001.873,596.00
2002.705,529.75
2003.536,588.00
2004.367,632.25
2005.199,571.50
2006.030,573.00
2006.861,560.75
2007.692,556.00
2008.523,549.75
2009.354,551.50
2010.185,551.50
2011.016,542.00
2011.846,581.25
2012.677,549.75
2013.507,565.25
2014.338,567.25
2015.168,517.50
2015.999,579.25
2016.829,585.75
2017.659,581.00
2018.489,535.25
2019.319,572.75
2020.149,544.75
2020.980,537.75
2021.810,533.00
2022.639,554.75
2023.469,572.00
2024.298,560.00
2025.128,601.50
2025.957,566.50
2026.786,581.00
2027.615,555.25
2028.444,601.50
2029.273,592.75
2030.102,563.75
2030.931,595.50
2031.758,566.75
2032.586,586.50
2033.415,559.25
2034.243,576.00
2035.072,580.25
2035.900,551.75
2036.728,590.25
2037.556,585.00
2038.385,625.25
2039.213,563.00
2040.040,558.75
2040.868,594.00
2041.696,566.75
2042.524,553.25
2043.351,585.25
2044.179,598.25
2045.006,581.25
2045.006,581.25

Max Intensity Wave.,216.841
Max Intensity Data,6233.00
Min Intensity Wave.,1975.212
Min Intensity Data,510.00
FWHM Wave.,405.312
FWHM Value,0.71
Pressure Wave.,687.185
Pressure Value [GPa],-18.33221
G/D Ratio,0.66213
G/D Gband Wave.,1553.847
G/D Gband Intensity,803.54
G/D Dband Wave.,1303.541
G/D Dband Intensity,1213.56

<< BACKGROUND SPECTRUM >>
Wave[dcm-1],No171
146.591,2259.00
147.626,2136.00
148.664,2067.00
149.699,2529.00
150.737,2295.00
151.772,2403.00
152.809,2425.00
153.846,2310.00
154.881,2419.00
155.918,1982.00
156.953,2266.00
157.989,2611.00
159.026,2453.00
160.060,2654.00
161.096,2837.00
162.130,2517.00
163.167,2611.00
164.200,2467.00
165.236,2653.00
166.272,2699.00
167.305,2295.00
168.341,2574.00
169.374,2811.00
170.409,2786.00
171.445,2738.00
172.477,2571.00
173.512,2401.00
174.545,2706.00
175.580,2897.00
176.614,3061.00
177.647,2826.00
178.681,3047.00
179.713,3396.00
180.747,2826.00
181.781,2742.00
182.813,3049.00
183.847,3142.00
184.878,2736.00
185.912,2988.00
186.945,3148.00
187.976,3106.00
189.010,2740.00
190.043,2840.00
191.073,2924.00
192.106,2772.00
193.137,3200.00
194.170,2565.00
195.202,2912.00
196.232,2697.00
197.265,3016.00
198.297,3064.00
199.327,2771.00
200.359,2973.00
201.388,3366.00
202.420,2925.00
203.452,3128.00
204.481,2714.00
205.512,3374.00
206.544,3077.00
207.573,3099.00
208.604,3408.00
209.635,3556.00
210.663,2960.00
211.694,3019.00
212.725,2867.00
213.753,2829.00
214.783,3400.00
215.813,3252.00
216.841,3018.00
217.871,3211.00
218.899,2923.00
219.929,3172.00
220.959,2928.00
221.986,3185.00
223.016,2779.00
224.045,3175.00
225.072,3133.00
226.101,3225.00
227.130,3274.00
228.157,2867.00
229.185,2342.00
230.214,3191.00
231.241,2814.00
232.269,2444.00
233.297,2675.00
234.323,3241.00
235.351,2827.00
236.379,3132.00
237.407,2773.00
238.433,2951.00
239.460,3126.00
240.488,3154.00
241.513,3216.00
242.540,3107.00
243.568,3214.00
244.592,3248.00
245.619,3204.00
246.646,2961.00
247.671,2986.00
248.697,2816.00
249.724,3049.00
250.748,3048.00
251.774,3030.00
252.801,3292.00
253.827,3112.00
254.850,3059.00
255.876,2720.00
256.902,3133.00
257.925,3028.00
258.951,2752.00
259.976,2787.00
260.999,3080.00
262.024,2811.00
263.049,3665.00
264.074,3132.00
265.097,3006.00
266.122,3108.00
267.146,3023.00
268.168,3266.00
269.193,2881.00
270.217,3296.00
271.241,2745.00
272.263,2923.00
273.287,3201.00
274.311,2826.00
275.332,3317.00
276.356,2918.00
277.379,3103.00
278.402,3126.00
279.424,2941.00
280.447,2859.00
281.470,2765.00
282.492,3123.00
283.513,2956.00
284.536,3210.00
285.558,3179.00
286.581,3115.00
287.601,2878.00
288.623,2825.00
289.645,3148.00
290.665,3135.00
291.687,3122.00
292.709,3152.00
293.730,3434.00
294.750,2912.00
295.771,2783.00
296.792,3112.00
297.813,2928.00
298.832,3069.00
299.853,2761.00
300.874,3026.00
301.895,2972.00
302.913,2945.00
303.934,3343.00
304.954,3054.00
305.975,3181.00
306.993,2773.00
308.013,3130.00
309.033,3014.00
310.052,2956.00
311.072,2890.00
312.090,3114.00
313.109,3317.00
314.129,3444.00
315.148,3009.00
316.165,3101.00
317.184,3217.00
318.203,2766.00
319.222,2796.00
320.238,3142.00
321.257,2854.00
322.275,2675.00
323.294,2989.00
324.312,3148.00
325.328,3313.00
326.346,3276.00
327.364,3271.00
328.382,3207.00
329.397,3176.00
330.415,3278.00
331.432,3233.00
332.450,3306.00
333.467,3471.00
334.482,2564.00
335.499,3365.00
336.516,2894.00
337.533,2617.00
338.547,2847.00
339.564,2873.00
340.580,3111.00
341.597,2997.00
342.613,3475.00
343.627,3014.00
344.643,3050.00
345.659,3122.00
346.675,2963.00
347.690,2910.00
348.704,3124.00
349.719,2872.00
350.735,2764.00
351.750,3219.00
352.765,3044.00
353.778,3016.00
354.793,3188.00
355.808,2837.00
356.822,3198.00
357.837,2677.00
358.851,3253.00
359.864,2973.00
360.878,2755.00
361.892,2972.00
362.906,3203.00
363.920,2587.00
364.932,3114.00
365.945,3095.00
366.959,3017.00
367.972,2926.00
368.986,2726.00
369.999,3404.00
371.010,2871.00
372.023,3374.00
373.036,2981.00
374.049,3408.00
375.061,3057.00
376.072,3010.00
377.084,2892.00
378.097,2726.00
379.109,3261.00
380.121,3027.00
381.133,2696.00
382.143,3176.00
383.155,2745.00
384.166,2934.00
385.178,3142.00
386.189,3201.00
387.201,2669.00
388.212,2962.00
389.221,2957.00
390.232,3056.00
391.243,2910.00
392.254,3067.00
393.264,2857.00
394.275,3255.00
395.283,3196.00
396.294,3669.00
397.304,3506.00
398.314,3110.00
399.324,3066.00
400.334,2672.00
401.344,3179.00
402.351,2677.00
403.361,3201.00
404.370,2945.00
405.380,2913.00
406.389,3366.00
407.398,3178.00
408.407,3095.00
409.414,3187.00
410.423,3343.00
411.431,2781.00
412.440,2697.00
413.448,3362.00
414.457,2903.00
415.465,2814.00
416.471,2935.00
417.479,3003.00
418.487,2852.00
419.495,3271.00
420.503,3116.00
421.510,2630.00
422.518,3178.00
423.525,3173.00
424.530,3407.00
425.537,2921.00
426.544,3233.00
427.551,2913.00
428.558,3607.00
429.565,3483.00
430.571,2867.00
431.578,2922.00
432.582,2938.00
433.588,2987.00
434.595,2610.00
435.601,3294.00
436.607,3237.00
437.612,2792.00
438.618,3319.00
439.624,2937.00
440.627,2965.00
441.633,3139.00
442.638,3605.00
443.643,3094.00
444.648,3051.00
445.653,3190.00
446.658,2895.00
447.663,3070.00
448.667,2888.00
449.672,2923.00
450.674,2988.00
451.678,2726.00
452.682,2897.00
453.687,2840.00
454.690,3606.00
455.694,3293.00
456.698,2569.00
457.702,2675.00
458.705,2853.00
459.709,2808.00
460.710,2930.00
461.713,3023.00
462.716,3091.00
463.719,2974.00
464.722,3217.00
465.725,2977.00
466.727,2830.00
467.730,3019.00
468.732,2792.00
469.735,3342.00
470.737,2942.00
471.737,2912.00
472.739,2915.00
473.741,2821.00
474.742,3064.00
475.744,3128.00
476.746,3040.00
477.747,2990.00
478.748,3183.00
479.750,2941.00
480.751,3048.00
481.752,3753.00
482.753,3113.00
483.751,3570.00
484.752,2614.00
485.753,2992.00
486.753,2894.00
487.753,2998.00
488.754,3449.00
489.754,2740.00
490.754,3344.00
491.754,3144.00
492.754,2700.00
493.753,3035.00
494.753,2965.00
495.752,3305.00
496.752,3048.00
497.749,2993.00
498.748,2879.00
499.747,3403.00
500.746,3102.00
501.745,2768.00
502.744,2774.00
503.742,3338.00
504.741,2994.00
505.739,2497.00
506.737,2912.00
507.735,3104.00
508.734,3400.00
509.732,3161.00
510.729,3347.00
511.727,2921.00
512.725,2916.00
513.720,2817.00
514.718,3226.00
515.715,2719.00
516.712,2646.00
517.709,3013.00
518.706,2895.00
519.703,3076.00
520.700,3227.00
521.696,3348.00
522.693,2930.00
523.689,2863.00
524.686,3148.00
525.682,2787.00
526.678,3468.00
527.674,2941.00
528.670,2598.00
529.666,3549.00
530.661,3463.00
531.657,3197.00
532.652,3162.00
533.648,3012.00
534.641,3243.00
535.636,3078.00
536.631,3126.00
537.626,3188.00
538.621,2760.00
539.616,2631.00
540.610,2504.00
541.605,3049.00
542.599,3073.00
543.593,3048.00
544.587,3926.00
545.581,2873.00
546.575,3027.00
547.569,3039.00
548.563,2673.00
549.557,2640.00
550.550,2795.00
551.543,2770.00
552.537,3146.00
553.530,2802.00
554.523,2756.00
555.516,3126.00
556.509,2988.00
557.502,2633.00
558.494,3181.00
559.487,2964.00
560.479,3204.00
561.472,3256.00
562.464,3139.00
563.456,3331.00
564.448,2988.00
565.440,3004.00
566.432,3421.00
567.423,2898.00
568.415,2935.00
569.404,3152.00
570.396,2860.00
571.387,3147.00
572.378,3056.00
573.369,3930.00
574.360,3668.00
575.351,2996.00
576.341,2867.00
577.332,2869.00
578.323,2689.00
579.313,2896.00
580.303,3244.00
581.293,3170.00
582.283,2974.00
583.273,3166.00
584.263,3013.00
585.253,3137.00
586.243,3201.00
587.232,2665.00
588.222,2993.00
589.211,3222.00
590.200,3086.00
591.189,2987.00
592.178,2999.00
593.167,3434.00
594.156,3300.00
595.145,2888.00
596.133,3470.00
597.122,3139.00
598.110,3281.00
599.098,3077.00
600.086,3032.00
601.074,3169.00
602.062,2831.00
603.050,2746.00
604.038,3110.00
605.025,2832.00
606.013,3183.00
607.000,3343.00
607.987,3045.00
608.975,3041.00
609.962,2785.00
610.949,3139.00
611.936,3255.00
612.922,3195.00
613.909,2758.00
614.895,3362.00
615.882,2847.00
616.868,3010.00
617.854,2771.00
618.841,3008.00
619.826,3117.00
620.812,2982.00
621.798,2812.00
622.784,3219.00
623.769,3116.00
624.755,2743.00
625.740,3101.00
626.725,2740.00
627.711,2874.00
628.698,3104.00
629.683,2815.00
630.667,3146.00
631.652,2784.00
632.637,2961.00
633.621,3184.00
634.606,2914.00
635.590,3121.00
636.574,2944.00
637.558,3062.00
638.542,3072.00
639.526,2841.00
640.510,2634.00
641.493,3069.00
642.477,2973.00
643.460,2709.00
644.444,3219.00
645.427,3272.00
646.410,2698.00
647.393,2967.00
648.376,3091.00
649.359,2902.00
650.341,3085.00
651.324,3056.00
652.307,3095.00
653.289,2962.00
654.271,2852.00
655.253,2890.00
656.235,3141.00
657.217,3238.00
658.199,2689.00
659.181,2780.00
660.163,2988.00
661.144,2910.00
662.126,2869.00
663.107,2779.00
664.088,4696.00
665.069,3232.00
666.050,2857.00
667.033,2734.00
668.014,3046.00
668.995,2597.00
669.975,3001.00
670.956,3003.00
671.936,3113.00
672.916,2953.00
673.896,3102.00
674.876,2935.00
675.856,2858.00
676.836,2778.00
677.816,2330.00
678.795,2837.00
679.775,2695.00
680.754,3044.00
681.734,3144.00
682.713,3149.00
683.692,2799.00
684.671,2643.00
685.650,2768.00
686.629,2885.00
687.607,2739.00
688.586,2795.00
689.564,2866.00
690.543,3269.00
691.523,2394.00
692.501,2863.00
693.479,2935.00
694.457,2760.00
695.435,2871.00
696.413,2693.00
697.390,2546.00
698.368,2674.00
699.345,3097.00
700.322,2939.00
701.300,3075.00
702.277,3044.00
703.254,3245.00
704.231,2571.00
705.207,2923.00
706.184,2806.00
707.161,2653.00
708.137,2859.00
709.113,2814.00
710.090,2770.00
711.068,2585.00
712.044,2642.00
713.020,2898.00
713.996,2612.00
714.971,2808.00
715.947,2835.00
716.922,2800.00
717.898,2772.00
718.873,2908.00
719.848,2712.00
720.823,2698.00
721.798,2997.00
722.773,2729.00
723.748,2540.00
724.723,3009.00
725.697,2849.00
726.672,2763.00
727.646,2495.00
728.622,3005.00
729.596,2627.00
730.570,2750.00
731.544,3071.00
732.518,3271.00
733.492,2819.00
734.466,2858.00
735.439,3013.00
736.413,3114.00
737.386,2459.00
738.359,2434.00
739.332,2525.00
740.305,2831.00
741.278,3337.00
742.251,2942.00
743.224,2720.00
744.196,2526.00
745.171,3155.00
746.143,3006.00
747.115,2772.00
748.087,2724.00
749.059,3116.00
750.031,2898.00
751.003,3704.00
751.975,3256.00
752.947,2704.00
753.918,3084.00
754.890,2569.00
755.861,2788.00
756.832,3080.00
757.803,2813.00
758.774,2813.00
759.747,2602.00
760.718,3204.00
761.689,2733.00
762.659,2615.00
763.630,3158.00
764.600,2581.00
765.570,3049.00
766.540,3147.00
767.510,2950.00
768.480,3036.00
769.450,2723.00
770.420,2847.00
771.390,2627.00
772.359,2716.00
773.329,2668.00
774.300,2502.00
775.269,2807.00
776.238,2991.00
777.207,3189.00
778.176,2504.00
779.145,2797.00
780.114,2694.00
781.083,2579.00
782.051,2755.00
783.019,2680.00
783.988,3114.00
784.956,2832.00
785.924,2974.00
786.894,2846.00
787.862,2701.00
788.830,3116.00
789.797,2628.00
790.765,2597.00
791.732,2781.00
792.700,2659.00
793.667,2617.00
794.634,2737.00
795.601,2763.00
796.568,2834.00
797.535,2782.00
798.502,3422.00
799.468,2870.00
800.437,2418.00
801.403,2644.00
802.370,3313.00
803.336,3020.00
804.302,2889.00
805.268,2461.00
806.234,2568.00
807.200,2742.00
808.166,2796.00
809.131,2579.00
810.097,2979.00
811.062,3657.00
812.027,3021.00
812.994,2564.00
813.960,2598.00
814.925,2923.00
815.889,2522.00
816.854,3042.00
817.819,2633.00
818.783,2744.00
819.748,3094.00
820.712,2744.00
821.677,2605.00
822.641,2703.00
823.605,2741.00
824.571,3160.00
825.534,2756.00
826.498,2659.00
827.462,2815.00
828.425,2670.00
829.389,3021.00
830.352,2776.00
831.315,2879.00
832.279,2490.00
833.242,2776.00
834.204,2667.00
835.167,2656.00
836.132,3046.00
837.095,2508.00
838.057,2685.00
839.020,2814.00
839.982,2873.00
840.944,2656.00
841.906,2600.00
842.868,2990.00
843.830,2577.00
844.792,3043.00
845.753,2668.00
846.715,2473.00
847.679,2585.00
848.640,2623.00
849.601,2730.00
850.562,3225.00
851.523,2679.00
852.484,2483.00
853.445,2975.00
854.406,2732.00
855.367,2727.00
856.327,3042.00
857.288,2467.00
858.248,2679.00
859.210,2709.00
860.170,2546.00
861.130,3032.00
862.090,2403.00
863.050,2607.00
864.010,2722.00
864.969,2868.00
865.929,2592.00
866.888,2519.00
867.848,2822.00
868.807,2660.00
869.766,2888.00
870.727,2744.00
871.686,2990.00
872.645,3028.00
873.604,3261.00
874.562,2764.00
875.521,2816.00
876.479,3369.00
877.437,2604.00
878.396,2579.00
879.354,3189.00
880.312,2589.00
881.270,2655.00
882.229,3145.00
883.187,2623.00
884.145,2670.00
885.102,2954.00
886.059,2823.00
887.017,2842.00
887.974,2931.00
888.931,3040.00
889.888,2489.00
890.845,2423.00
891.802,2353.00
892.758,2642.00
893.717,2424.00
894.673,2554.00
895.630,2659.00
896.586,2879.00
897.542,2712.00
898.498,2480.00
899.454,2848.00
900.410,2666.00
901.366,2667.00
902.321,2692.00
903.277,2700.00
904.232,2745.00
905.189,2464.00
906.145,2646.00
907.100,2177.00
908.055,2725.00
909.010,2935.00
909.965,2349.00
910.919,2792.00
911.874,2587.00
912.828,2790.00
913.783,2758.00
914.737,2343.00
915.693,2792.00
916.648,2891.00
917.602,2968.00
918.555,2801.00
919.509,2835.00
920.463,2764.00
921.417,2742.00
922.370,2572.00
923.324,2735.00
924.277,2683.00
925.230,2784.00
926.183,2420.00
927.138,2716.00
928.091,2930.00
929.044,2827.00
929.996,2681.00
930.949,2668.00
931.902,2809.00
932.854,2813.00
933.806,2618.00
934.758,2962.00
935.711,2981.00
936.663,2763.00
937.614,2751.00
938.568,2765.00
939.520,2388.00
940.471,2695.00
941.423,2774.00
942.374,2890.00
943.326,2763.00
944.277,2585.00
945.228,2839.00
946.179,2672.00
947.130,3021.00
948.080,2639.00
949.031,2547.00
949.984,2678.00
950.934,2676.00
951.884,2482.00
952.835,2682.00
953.785,2734.00
954.735,2605.00
955.685,2364.00
956.635,2668.00
957.585,2652.00
958.534,2617.00
959.484,2738.00
960.433,2636.00
961.383,2473.00
962.334,2988.00
963.283,2759.00
964.232,2833.00
965.181,2705.00
966.130,2762.00
967.079,2629.00
968.027,2731.00
968.976,2766.00
969.924,2606.00
970.873,2845.00
971.821,2746.00
972.769,2958.00
973.719,2820.00
974.667,2465.00
975.615,2683.00
976.562,2709.00
977.510,2432.00
978.458,2633.00
979.405,2818.00
980.352,2743.00
981.300,2982.00
982.247,2772.00
983.194,2562.00
984.141,2613.00
985.088,2738.00
986.036,2753.00
986.983,3025.00
987.930,3116.00
988.876,2347.00
989.822,2936.00
990.769,2558.00
991.715,2631.00
992.661,2433.00
993.607,2803.00
994.553,3277.00
995.498,2580.00
996.444,2310.00
997.389,2802.00
998.337,2578.00
999.282,2874.00
1000.227,2644.00
1001.173,2705.00
1002.118,2464.00
1003.062,2933.00
1004.007,2641.00
1004.952,2961.00
1005.897,2914.00
1006.841,2700.00
1007.786,2463.00
1008.730,2407.00
1009.674,3178.00
1010.618,2697.00
1011.564,2504.00
1012.508,2414.00
1013.452,2926.00
1014.396,2749.00
1015.339,2582.00
1016.283,2672.00
1017.226,2709.00
1018.170,2724.00
1019.113,2883.00
1020.056,2720.00
1020.999,2737.00
1021.942,2642.00
1022.885,2829.00
1023.828,3006.00
1024.770,2540.00
1025.715,2742.00
1026.657,2696.00
1027.600,2738.00
1028.542,2916.00
1029.484,2733.00
1030.426,2825.00
1031.368,2788.00
1032.310,2593.00
1033.251,2504.00
1034.193,2718.00
1035.135,2494.00
1036.076,2617.00
1037.017,2495.00
1037.959,2856.00
1038.900,2788.00
1039.843,2812.00
1040.784,2758.00
1041.725,2799.00
1042.665,2604.00
1043.606,2773.00
1044.547,2713.00
1045.487,2337.00
1046.427,2651.00
1047.368,2772.00
1048.308,2234.00
1049.248,2514.00
1050.188,2679.00
1051.128,2615.00
1052.067,2673.00
1053.007,2401.00
1053.947,2381.00
1054.886,2538.00
1055.827,2475.00
1056.766,2942.00
1057.706,2471.00
1058.645,2658.00
1059.584,2720.00
1060.522,2975.00
1061.461,2437.00
1062.400,2491.00
1063.338,2644.00
1064.277,2508.00
1065.215,2527.00
1066.154,2395.00
1067.092,2602.00
1068.030,2617.00
1068.968,2865.00
1069.906,3022.00
1070.843,2942.00
1071.781,2736.00
1072.720,2791.00
1073.658,2826.00
1074.595,2600.00
1075.533,2553.00
1076.470,2600.00
1077.407,3010.00
1078.344,2780.00
1079.281,2824.00
1080.217,2303.00
1081.154,2688.00
1082.091,2693.00
1083.027,2436.00
1083.964,2900.00
1084.900,2571.00
1085.836,2596.00
1086.772,2859.00
1087.708,2440.00
1088.644,2824.00
1089.580,2703.00
1090.515,2733.00
1091.451,2598.00
1092.388,2709.00
1093.324,2424.00
1094.259,3207.00
1095.194,2778.00
1096.129,2608.00
1097.064,2578.00
1097.999,2821.00
1098.934,2514.00
1099.869,2497.00
1100.803,2708.00
1101.738,2701.00
1102.672,2386.00
1103.607,2808.00
1104.541,2522.00
1105.475,2536.00
1106.409,2419.00
1107.343,2597.00
1108.277,2420.00
1109.210,2696.00
1110.144,2665.00
1111.078,2667.00
1112.011,2415.00
1112.944,2753.00
1113.878,2677.00
1114.811,2186.00
1115.744,2611.00
1116.678,2322.00
1117.611,2566.00
1118.544,2614.00
1119.477,2749.00
1120.409,2571.00
1121.342,3076.00
1122.274,2768.00
1123.206,3001.00
1124.138,2723.00
1125.070,2954.00
1126.002,2824.00
1126.934,2324.00
1127.866,2567.00
1128.798,2311.00
1129.729,2376.00
1130.661,2661.00
1131.592,2572.00
1132.523,2759.00
1133.454,2783.00
1134.385,2312.00
1135.317,2631.00
1136.247,2597.00
1137.178,2874.00
1138.109,2330.00
1139.039,2993.00
1139.970,2831.00
1140.900,2571.00
1141.831,2340.00
1142.761,2241.00
1143.691,2795.00
1144.621,2643.00
1145.551,2714.00
1146.480,2681.00
1147.410,2859.00
1148.340,2295.00
1149.269,2378.00
1150.199,2568.00
1151.128,3059.00
1152.057,2438.00
1152.979,2559.00
1153.898,2605.00
1154.819,2745.00
1155.739,2643.00
1156.658,2565.00
1157.579,2654.00
1158.498,2639.00
1159.419,2183.00
1160.338,2699.00
1161.256,2690.00
1162.177,2509.00
1163.095,2619.00
1164.016,2662.00
1164.934,2914.00
1165.852,2797.00
1166.772,2638.00
1167.690,2642.00
1168.610,2688.00
1169.528,2648.00
1170.446,2178.00
1171.365,2568.00
1172.283,2541.00
1173.202,2625.00
1174.120,2676.00
1175.037,2480.00
1175.956,2457.00
1176.873,2506.00
1177.792,2550.00
1178.709,3121.00
1179.626,2516.00
1180.544,2843.00
1181.461,2485.00
1182.379,2724.00
1183.296,2627.00
1184.212,2292.00
1185.130,2458.00
1186.046,2943.00
1186.962,2625.00
1187.880,2939.00
1188.796,2661.00
1189.714,2420.00
1190.629,2786.00
1191.545,2710.00
1192.462,2527.00
1193.378,2599.00
1194.295,2345.00
1195.210,2641.00
1196.125,2765.00
1197.042,2726.00
1197.957,2610.00
1198.872,2507.00
1199.788,2527.00
1200.703,2947.00
1201.619,2661.00
1202.534,2448.00
1203.448,2683.00
1204.364,2575.00
1205.278,2311.00
1206.192,2675.00
1207.108,3136.00
1208.022,2970.00
1208.938,2475.00
1209.851,2786.00
1210.765,2874.00
1211.680,2521.00
1212.594,2389.00
1213.507,2591.00
1214.422,2992.00
1215.335,2721.00
1216.248,2571.00
1217.163,2646.00
1218.076,3207.00
1218.990,2741.00
1219.903,2375.00
1220.816,2502.00
1221.730,2609.00
1222.642,2495.00
1223.554,2558.00
1224.469,2699.00
1225.380,2544.00
1226.292,2274.00
1227.206,2727.00
1228.118,2920.00
1229.032,2218.00
1229.943,2472.00
1230.855,2541.00
1231.768,2378.00
1232.679,2737.00
1233.590,2596.00
1234.503,2852.00
1235.414,2471.00
1236.325,2508.00
1237.238,2659.00
1238.149,2705.00
1239.059,2484.00
1239.972,2770.00
1240.882,2429.00
1241.793,2790.00
1242.705,2974.00
1243.615,2596.00
1244.525,2740.00
1245.437,2210.00
1246.347,2653.00
1247.259,2788.00
1248.168,3029.00
1249.078,2896.00
1249.989,2888.00
1250.899,2442.00
1251.808,2501.00
1252.719,2539.00
1253.628,2508.00
1254.537,3012.00
1255.448,2449.00
1256.357,2487.00
1257.266,2603.00
1258.176,2377.00
1259.085,2348.00
1259.993,2451.00
1260.904,2471.00
1261.812,2423.00
1262.720,3134.00
1263.630,2777.00
1264.538,2458.00
1265.446,2747.00
1266.356,2570.00
1267.263,2885.00
1268.171,2398.00
1269.080,2684.00
1269.988,2802.00
1270.895,2532.00
1271.804,2571.00
1272.711,2805.00
1273.619,2781.00
1274.527,2429.00
1275.434,2749.00
1276.341,2450.00
1277.248,2634.00
1278.156,2931.00
1279.063,2494.00
1279.969,2718.00
1280.877,3525.00
1281.783,2801.00
1282.690,2706.00
1283.598,2569.00
1284.503,2469.00
1285.409,2427.00
1286.317,3043.00
1287.223,3016.00
1288.128,2683.00
1289.036,2570.00
1289.941,2570.00
1290.846,2634.00
1291.751,2453.00
1292.658,2547.00
1293.563,3033.00
1294.468,2621.00
1295.375,2773.00
1296.280,2875.00
1297.184,3335.00
1298.091,2739.00
1298.995,2770.00
1299.900,3002.00
1300.806,2551.00
1301.710,2371.00
1302.614,2239.00
1303.518,2825.00
1304.424,2577.00
1305.327,2838.00
1306.231,2607.00
1307.137,2787.00
1308.040,2722.00
1308.943,2631.00
1309.847,2852.00
1310.752,2794.00
1311.655,2298.00
1312.558,2413.00
1313.463,2555.00
1314.366,2488.00
1315.269,2653.00
1316.171,2605.00
1317.076,2494.00
1317.978,2443.00
1318.881,2253.00
1319.785,2474.00
1320.687,2487.00
1321.589,2244.00
1322.491,2475.00
1323.395,2719.00
1324.297,3196.00
1325.198,2739.00
1326.102,2453.00
1327.004,2438.00
1327.905,3038.00
1328.806,2593.00
1329.709,2702.00
1330.611,2559.00
1331.512,2445.00
1332.413,3061.00
1333.316,2666.00
1334.216,2800.00
1335.117,2371.00
1336.020,2674.00
1336.920,2639.00
1337.821,2497.00
1338.721,2896.00
1339.623,2682.00
1340.523,2577.00
1341.423,2526.00
1342.323,2911.00
1343.225,2689.00
1344.125,2485.00
1345.025,2511.00
1345.924,2281.00
1346.826,2954.00
1347.725,3027.00
1348.624,2819.00
1349.524,2495.00
1350.425,2578.00
1351.324,2709.00
1352.223,2818.00
1353.121,2610.00
1354.022,2827.00
1354.921,3044.00
1355.819,2727.00
1356.718,2664.00
1357.618,2392.00
1358.516,2702.00
1359.415,3004.00
1360.313,2734.00
1361.213,2589.00
1362.111,2921.00
1363.008,3300.00
1363.906,2608.00
1364.806,2613.00
1365.703,2766.00
1366.601,2474.00
1367.498,2461.00
1368.397,2796.00
1369.295,2707.00
1370.192,2477.00
1371.089,2756.00
1371.987,2639.00
1372.884,2856.00
1373.781,2454.00
1374.678,2630.00
1375.574,2449.00
1376.473,2746.00
1377.369,2877.00
1378.265,2473.00
1379.161,2569.00
1380.059,2326.00
1380.955,2760.00
1381.851,2402.00
1382.747,2539.00
1383.643,2498.00
1384.540,2448.00
1385.436,2528.00
1386.331,2705.00
1387.227,2814.00
1388.124,2717.00
1389.019,2428.00
1389.914,2596.00
1390.809,2294.00
1391.704,3032.00
1392.601,2534.00
1393.495,2897.00
1394.390,2784.00
1395.285,2857.00
1396.179,2728.00
1397.075,2609.00
1397.969,2711.00
1398.864,2337.00
1399.758,2543.00
1400.652,2669.00
1401.547,2455.00
1402.441,2434.00
1403.335,2930.00
1404.229,2798.00
1405.122,2694.00
1406.017,2611.00
1406.911,2761.00
1407.804,3021.00
1408.697,2641.00
1409.590,2460.00
1410.485,2791.00
1411.378,2666.00
1412.271,2291.00
1413.163,2710.00
1414.056,2769.00
1414.949,3014.00
1415.843,2716.00
1416.735,2574.00
1417.627,2648.00
1418.520,2635.00
1419.412,2840.00
1420.306,2808.00
1421.197,2889.00
1422.089,2864.00
1422.981,3126.00
1423.873,2797.00
1424.764,2733.00
1425.657,2691.00
1426.549,2752.00
1427.440,2844.00
1428.331,2547.00
1429.222,2326.00
1430.113,2662.00
1431.006,2845.00
1431.897,2533.00
1432.787,2606.00
1433.678,2552.00
1434.568,2497.00
1435.459,2847.00
1436.351,2802.00
1437.241,2800.00
1438.131,2780.00
1439.021,2403.00
1439.911,2623.00
1440.801,2692.00
1441.693,2872.00
1442.583,2684.00
1443.472,2610.00
1444.362,2791.00
1445.251,2593.00
1446.140,2568.00
1447.030,2833.00
1447.921,2825.00
1448.810,2487.00
1449.699,2998.00
1450.588,2697.00
1451.476,2550.00
1452.365,2775.00
1453.254,2559.00
1454.144,2560.00
1455.032,2778.00
1455.921,2404.00
1456.809,2882.00
1457.697,2474.00
1458.585,2605.00
1459.473,2589.00
1460.361,2525.00
1461.251,2705.00
1462.138,2701.00
1463.026,2606.00
1463.913,2958.00
1464.801,2558.00
1465.688,2731.00
1466.575,2698.00
1467.463,3084.00
1468.351,2504.00
1469.238,2616.00
1470.125,2278.00
1471.012,2692.00
1471.899,2745.00
1472.785,2448.00
1473.672,2665.00
1474.558,2877.00
1475.446,2816.00
1476.333,2810.00
1477.219,2468.00
1478.105,2611.00
1478.991,2595.00
1479.877,2909.00
1480.762,2617.00
1481.648,2501.00
1482.534,2791.00
1483.419,2731.00
1484.307,2775.00
1485.192,2610.00
1486.077,2530.00
1486.962,2498.00
1487.847,2386.00
1488.732,2519.00
1489.617,2633.00
1490.502,2921.00
1491.387,2780.00
1492.271,2456.00
1493.156,2494.00
1494.042,2454.00
1494.927,2847.00
1495.811,2580.00
1496.695,2804.00
1497.579,2956.00
1498.463,2649.00
1499.347,2707.00
1500.231,2692.00
1501.114,2717.00
1501.998,2909.00
1502.881,2718.00
1503.765,2911.00
1504.648,3073.00
1505.533,2754.00
1506.417,2683.00
1507.300,2640.00
1508.183,2767.00
1509.066,2162.00
1509.948,2889.00
1510.831,3019.00
1511.714,2452.00
1512.596,2787.00
1513.479,2884.00
1514.361,2847.00
1515.243,2674.00
1516.125,2841.00
1517.008,2883.00
1517.890,2585.00
1518.771,2722.00
1519.655,2864.00
1520.537,2595.00
1521.419,2494.00
1522.300,2699.00
1523.182,2813.00
1524.063,2812.00
1524.944,2946.00
1525.825,2853.00
1526.707,2474.00
1527.588,2447.00
1528.468,2737.00
1529.349,2317.00
1530.230,2599.00
1531.111,2836.00
1531.991,2743.00
1532.872,2391.00
1533.752,2623.00
1534.632,2527.00
1535.513,2544.00
1536.393,2823.00
1537.273,3002.00
1538.153,3322.00
1539.032,2415.00
1539.912,2652.00
1540.792,2715.00
1541.672,2688.00
1542.551,2784.00
1543.430,3246.00
1544.310,2700.00
1545.189,2574.00
1546.068,3089.00
1546.947,2765.00
1547.826,2988.00
1548.705,2648.00
1549.584,2881.00
1550.462,2594.00
1551.341,2862.00
1552.219,2717.00
1553.098,2809.00
1553.976,2814.00
1554.854,3105.00
1555.733,2861.00
1556.611,2594.00
1557.489,2454.00
1558.367,2661.00
1559.244,2787.00
1560.122,2651.00
1561.000,2737.00
1561.877,2980.00
1562.755,2539.00
1563.632,2650.00
1564.509,2955.00
1565.386,2994.00
1566.264,2441.00
1567.141,2306.00
1568.017,2844.00
1568.894,2643.00
1569.771,2721.00
1570.648,2799.00
1571.524,2689.00
1572.401,2448.00
1573.277,2426.00
1574.153,2703.00
1575.029,2562.00
1575.906,3399.00
1576.781,2857.00
1577.657,2600.00
1578.533,2930.00
1579.409,2304.00
1580.285,2634.00
1581.160,3106.00
1582.036,2824.00
1582.911,2520.00
1583.786,3021.00
1584.662,2452.00
1585.537,2669.00
1586.412,2733.00
1587.287,2505.00
1588.160,2867.00
1589.035,2348.00
1589.909,2714.00
1590.784,2627.00
1591.658,2478.00
1592.533,2718.00
1593.407,2729.00
1594.281,2573.00
1595.155,3051.00
1596.029,2565.00
1596.903,2604.00
1597.777,2611.00
1598.651,2875.00
1599.525,2367.00
1600.398,2694.00
1601.272,2656.00
1602.144,3234.00
1603.017,2607.00
1603.890,2915.00
1604.763,2749.00
1605.636,2749.00
1606.509,2408.00
1607.382,2547.00
1608.255,2755.00
1609.128,2878.00
1610.000,2659.00
1610.873,2368.00
1611.746,2587.00
1612.616,2603.00
1613.488,2289.00
1614.361,2634.00
1615.233,2633.00
1616.105,2887.00
1616.977,2610.00
1617.849,2515.00
1618.720,2992.00
1619.592,3002.00
1620.464,2759.00
1621.333,3128.00
1622.205,2695.00
1623.076,2680.00
1623.947,2633.00
1624.818,2983.00
1625.689,2820.00
1626.560,2587.00
1627.431,2757.00
1628.302,3083.00
1629.171,2787.00
1630.042,2989.00
1630.912,3634.00
1631.782,3251.00
1632.653,2474.00
1633.523,2846.00
1634.393,2919.00
1635.263,2584.00
1636.131,2671.00
1637.001,2617.00
1637.871,2316.00
1638.741,2322.00
1639.611,2389.00
1640.480,2779.00
1641.350,2559.00
1642.219,2509.00
1643.087,2200.00
1643.956,3111.00
1644.825,2910.00
1645.694,2878.00
1646.563,2847.00
1647.432,2733.00
1648.299,2678.00
1649.167,2789.00
1650.036,2529.00
1650.904,2890.00
1651.773,2891.00
1652.641,2680.00
1653.509,2890.00
1654.376,2578.00
1655.244,2681.00
1656.112,2718.00
1656.980,2717.00
1657.847,2561.00
1658.715,2856.00
1659.581,2578.00
1660.448,2948.00
1661.316,2198.00
1662.183,2702.00
1663.051,2728.00
1663.918,2692.00
1664.783,2705.00
1665.650,2776.00
1666.517,2865.00
1667.384,2732.00
1668.251,2720.00
1669.115,2903.00
1669.982,2669.00
1670.849,2978.00
1671.715,2653.00
1672.581,2792.00
1673.446,2798.00
1674.312,2722.00
1675.178,3117.00
1676.044,2747.00
1676.910,2752.00
1677.774,2736.00
1678.639,2345.00
1679.505,2662.00
1680.370,2855.00
1681.236,3308.00
1682.099,2617.00
1682.965,2686.00
1683.830,2301.00
1684.695,2510.00
1685.560,2637.00
1686.423,2787.00
1687.288,2805.00
1688.153,2695.00
1689.017,2604.00
1689.880,2766.00
1690.745,2827.00
1691.609,2546.00
1692.473,2835.00
1693.338,2925.00
1694.200,2949.00
1695.064,2738.00
1695.928,2624.00
1696.792,2735.00
1697.654,3194.00
1698.517,2695.00
1699.381,2420.00
1700.245,2344.00
1701.106,2998.00
1701.969,2592.00
1702.833,2819.00
1703.696,2584.00
1704.557,2641.00
1705.420,2585.00
1706.283,2757.00
1707.146,2823.00
1708.007,2481.00
1708.870,2495.00
1709.732,2383.00
1710.595,2598.00
1711.455,2458.00
1712.318,2603.00
1713.180,2947.00
1714.040,2750.00
1714.902,2877.00
1715.764,2693.00
1716.626,2495.00
1717.486,2638.00
1718.348,2933.00
1719.209,4834.00
1720.071,2318.00
1720.930,2410.00
1721.792,2509.00
1722.653,2527.00
1723.512,2585.00
1724.374,2661.00
1725.234,2744.00
1726.095,2703.00
1726.954,2711.00
1727.815,2850.00
1728.676,2643.00
1729.535,2893.00
1730.395,2666.00
1731.256,2627.00
1732.114,2748.00
1732.974,2163.00
1733.834,3015.00
1734.693,2852.00
1735.553,2722.00
1736.413,3089.00
1737.272,2606.00
1738.130,2614.00
1738.990,2764.00
1739.849,2592.00
1740.707,3639.00
1741.566,2713.00
1742.426,2749.00
1743.283,3073.00
1744.142,2569.00
1745.001,2375.00
1745.858,2887.00
1746.717,2738.00
1747.576,2783.00
1748.433,2863.00
1749.292,3299.00
1750.150,3331.00
1751.007,2885.00
1751.865,2922.00
1752.723,2715.00
1753.579,2634.00
1754.438,2934.00
1755.296,2919.00
1756.152,2245.00
1757.010,2391.00
1757.865,2897.00
1758.723,2392.00
1759.581,2994.00
1760.436,2698.00
1761.294,3051.00
1762.151,2710.00
1763.006,2644.00
1763.864,2341.00
1764.721,2888.00
1765.576,2750.00
1766.433,2825.00
1767.288,2580.00
1768.144,2763.00
1769.001,2649.00
1769.856,2808.00
1770.712,2879.00
1771.568,2497.00
1772.423,2618.00
1773.279,2606.00
1774.133,2617.00
1774.989,3071.00
1775.845,3099.00
1776.699,2925.00
1777.555,2693.00
1778.409,3199.00
1779.265,2635.00
1780.120,2638.00
1780.974,2694.00
1781.829,2314.00
1782.682,2762.00
1783.538,2535.00
1784.393,2737.00
1785.246,2608.00
1786.101,2808.00
1786.954,2848.00
1787.808,2906.00
1788.661,2419.00
1789.516,2628.00
1790.370,2608.00
1791.223,2912.00
1792.077,2664.00
1792.930,2782.00
1793.784,2589.00
1794.636,2697.00
1795.490,2664.00
1796.344,2721.00
1797.196,2709.00
1798.049,2802.00
1798.901,2595.00
1799.755,2917.00
1800.606,2470.00
1801.460,3242.00
1802.311,2996.00
1803.165,3087.00
1804.018,3063.00
1804.869,2792.00
1805.722,3209.00
1806.573,2748.00
1807.426,2535.00
1808.276,2682.00
1809.129,2589.00
1809.980,2859.00
1810.832,3005.00
1811.683,2646.00
1812.535,3044.00
1813.385,2670.00
1814.237,2967.00
1815.089,2750.00
1815.940,2964.00
1816.791,2656.00
1817.641,2588.00
1818.493,2854.00
1819.343,2769.00
1820.194,2596.00
1821.044,2812.00
1821.895,2904.00
1822.745,2425.00
1823.596,2603.00
1824.445,3092.00
1825.296,2813.00
1826.145,2708.00
1826.996,2906.00
1827.845,2746.00
1828.695,2800.00
1829.544,2703.00
1830.395,2744.00
1831.243,2656.00
1832.094,2465.00
1832.942,3245.00
1833.792,2811.00
1834.640,2812.00
1835.490,2689.00
1836.338,2774.00
1837.186,2591.00
1838.036,2586.00
1838.884,2729.00
1839.733,3038.00
1840.581,2876.00
1841.430,2866.00
1842.278,3069.00
1843.127,2595.00
1843.974,2376.00
1844.823,3133.00
1845.671,2836.00
1846.519,2762.00
1847.366,2798.00
1848.213,2345.00
1849.062,2547.00
1849.909,2449.00
1850.757,3349.00
1851.604,2844.00
1852.452,2622.00
1853.298,2899.00
1854.146,2778.00
1854.993,2770.00
1855.839,3236.00
1856.687,2820.00
1857.532,2791.00
1858.380,2700.00
1859.226,2773.00
1860.073,2841.00
1860.919,2553.00
1861.765,2614.00
1862.612,2940.00
1863.457,2955.00
1864.304,2650.00
1865.150,2811.00
1865.995,2677.00
1866.842,2837.00
1867.686,2950.00
1868.533,2796.00
1869.378,2799.00
1870.223,2762.00
1871.069,2602.00
1871.914,2761.00
1872.760,2705.00
1873.604,2519.00
1874.448,2801.00
1875.294,2932.00
1876.139,2606.00
1876.984,2838.00
1877.828,2375.00
1878.672,2226.00
1879.518,2565.00
1880.361,2893.00
1881.205,2896.00
1882.050,2555.00
1882.894,3224.00
1883.739,2587.00
1884.582,2475.00
1885.425,2565.00
1886.270,2955.00
1887.113,2489.00
1887.956,2819.00
1888.801,2786.00
1889.644,2538.00
1890.486,2339.00
1891.331,2651.00
1892.173,2763.00
1893.017,2777.00
1893.860,3021.00
1894.702,3019.00
1895.546,2755.00
1896.388,3438.00
1897.230,3106.00
1898.074,2634.00
1898.916,2574.00
1899.757,2587.00
1900.601,3392.00
1901.443,3000.00
1902.284,3032.00
1903.125,3212.00
1903.969,2931.00
1904.810,2960.00
1905.651,2788.00
1906.494,3097.00
1907.335,3144.00
1908.176,2854.00
1909.018,2817.00
1909.859,2709.00
1910.700,2635.00
1911.542,3233.00
1912.383,2841.00
1913.223,2339.00
1914.064,2867.00
1914.906,3011.00
1915.746,3111.00
1916.586,3183.00
1917.428,2714.00
1918.268,2762.00
1919.107,2638.00
1919.947,2491.00
1920.789,2646.00
1921.628,2973.00
1922.468,2740.00
1923.309,2601.00
1924.148,3022.00
1924.988,2872.00
1925.827,2702.00
1926.667,2641.00
1927.507,2774.00
1928.345,2569.00
1929.184,2916.00
1930.025,2588.00
1930.864,2995.00
1931.702,3000.00
1932.541,2634.00
1933.381,2877.00
1934.219,2884.00
1935.057,3062.00
1935.896,2425.00
1936.735,2728.00
1937.573,2646.00
1938.411,2544.00
1939.249,2889.00
1940.089,2595.00
1940.927,3000.00
1941.764,3012.00
1942.602,2641.00
1943.439,2671.00
1944.278,2718.00
1945.115,2668.00
1945.953,2476.00
1946.790,2819.00
1947.628,3086.00
1948.465,2857.00
1949.302,2877.00
1950.139,2861.00
1950.976,2614.00
1951.814,2925.00
1952.651,2778.00
1953.487,2527.00
1954.323,2975.00
1955.160,2717.00
1955.998,3126.00
1956.834,2753.00
1957.670,2810.00
1958.506,2991.00
1959.342,2814.00
1960.177,2764.00
1961.015,2859.00
1961.850,2797.00
1962.686,2747.00
1963.521,2801.00
1964.357,3017.00
1965.192,2514.00
1966.029,2914.00
1966.864,2674.00
1967.699,2946.00
1968.534,2799.00
1969.369,3048.00
1970.204,2720.00
1971.040,2749.00
1971.875,2685.00
1972.709,2786.00
1973.544,2564.00
1974.378,2629.00
1975.212,2914.00
1976.047,2646.00
1976.882,2628.00
1977.716,3148.00
1978.550,2499.00
1979.384,2696.00
1980.218,2713.00
1981.052,2660.00
1981.885,2800.00
1982.719,2763.00
1983.554,2924.00
1984.388,3082.00
1985.221,2853.00
1986.054,2965.00
1986.887,2811.00
1987.720,2596.00
1988.553,3048.00
1989.386,2839.00
1990.219,2879.00
1991.053,3039.00
1991.886,2629.00
1992.719,2937.00
1993.551,2266.00
1994.383,2918.00
1995.216,2699.00
1996.048,2471.00
1996.880,2947.00
1997.712,2616.00
1998.544,2724.00
1999.376,2835.00
2000.208,3059.00
2001.040,3186.00
2001.873,2564.00
2002.705,2592.00
2003.536,2806.00
2004.367,2771.00
2005.199,2781.00
2006.030,2644.00
2006.861,2569.00
2007.692,2769.00
2008.523,2651.00
2009.354,2818.00
2010.185,2569.00
2011.016,2935.00
2011.846,2974.00
2012.677,2731.00
2013.507,3101.00
2014.338,2983.00
2015.168,2714.00
2015.999,3273.00
2016.829,2683.00
2017.659,2966.00
2018.489,3286.00
2019.319,2580.00
2020.149,2962.00
2020.980,2806.00
2021.810,2601.00
2022.639,2673.00
2023.469,2665.00
2024.298,2468.00
2025.128,2373.00
2025.957,2391.00
2026.786,2211.00
2027.615,2415.00
2028.444,2577.00
2029.273,2763.00
2030.102,2406.00
2030.931,2575.00
2031.758,2891.00
2032.586,2539.00
2033.415,2651.00
2034.243,2245.00
2035.072,2035.00
2035.900,2514.00
2036.728,2347.00
2037.556,2371.00
2038.385,2351.00
2039.213,2210.00
2040.040,2236.00
2040.868,2150.00
2041.696,2235.00
2042.524,2238.00
2043.351,2444.00
2044.179,2209.00
2045.006,2021.00
